Data from WStandard_LampEnergy5.5LIBS07252019.E.O._I.C._HRD10591_16-07-38-920.txt Node
Date: Thu Jul 25 16:07:38 EDT 2019
User: cochatt
Spectrometer: HR+D1059
Trigger mode: 1
Integration Time (sec): 1.000000E-1
Scans to average: 1
Electric dark correction enabled: true
Nonlinearity correction enabled: false
Boxcar width: 0
XAxis mode: Wavelengths
Number of Pixels in Spectrum: 2048
>>>>>Begin Spectral Data<<<<<
223.165	-16.75
223.4	-16.75
223.635	-16.75
223.869	-18.75
224.104	-20.75
224.338	-15.75
224.573	-19.75
224.808	-15.75
225.042	6.25
225.277	-11.75
225.511	-9.75
225.746	11.25
225.98	8.25
226.215	0.25
226.449	17.25
226.683	21.25
226.918	25.25
227.152	39.25
227.387	38.25
227.621	46.25
227.856	43.25
228.09	43.25
228.324	59.25
228.559	67.25
228.793	149.25
229.027	351.25
229.262	400.25
229.496	398.25
229.73	398.25
229.964	464.25
230.199	478.25
230.433	473.25
230.667	509.25
230.901	554.25
231.136	531.25
231.37	487.25
231.604	463.25
231.838	475.25
232.072	503.25
232.306	457.25
232.541	464.25
232.775	552.25
233.009	628.25
233.243	613.25
233.477	549.25
233.711	578.25
233.945	574.25
234.179	579.25
234.413	620.25
234.647	675.25
234.881	618.25
235.115	566.25
235.349	591.25
235.583	610.25
235.817	575.25
236.051	549.25
236.285	565.25
236.519	603.25
236.753	673.25
236.987	693.25
237.221	684.25
237.455	784.25
237.689	751.25
237.922	702.25
238.156	668.25
238.39	695.25
238.624	742.25
238.858	772.25
239.091	810.25
239.325	820.25
239.559	960.25
239.793	992.25
240.027	1110.25
240.26	1094.25
240.494	759.25
240.728	739.25
240.961	760.25
241.195	777.25
241.429	874.25
241.662	846.25
241.896	767.25
242.13	798.25
242.363	896.25
242.597	954.25
242.83	892.25
243.064	919.25
243.298	983.25
243.531	959.25
243.765	958.25
243.998	999.25
244.232	858.25
244.465	820.25
244.699	823.25
244.932	929.25
245.166	1084.25
245.399	1022.25
245.633	922.25
245.866	940.25
246.099	981.25
246.333	984.25
246.566	1033.25
246.8	1113.25
247.033	1210.25
247.266	1129.25
247.5	1103.25
247.733	1087.25
247.966	1151.25
248.2	1307.25
248.433	1250.25
248.666	1282.25
248.899	1392.25
249.133	1573.25
249.366	1822.25
249.599	1471.25
249.832	1288.25
250.066	1316.25
250.299	1371.25
250.532	1255.25
250.765	1131.25
250.998	1230.25
251.231	1249.25
251.465	1296.25
251.698	1218.25
251.931	1233.25
252.164	1251.25
252.397	1307.25
252.63	1294.25
252.863	1164.25
253.096	1119.25
253.329	1212.25
253.562	1224.25
253.795	1342.25
254.028	1340.25
254.261	1253.25
254.494	1226.25
254.727	1151.25
254.96	1215.25
255.193	1312.25
255.426	1485.25
255.659	1678.25
255.892	1763.25
256.124	1443.25
256.357	1372.25
256.59	1466.25
256.823	1492.25
257.056	1444.25
257.289	1758.25
257.521	2011.25
257.754	1814.25
257.987	1700.25
258.22	1831.25
258.452	1874.25
258.685	1450.25
258.918	1423.25
259.151	1468.25
259.383	1399.25
259.616	1214.25
259.849	1291.25
260.081	1474.25
260.314	1624.25
260.547	1784.25
260.779	1803.25
261.012	1677.25
261.244	1498.25
261.477	1442.25
261.71	1465.25
261.942	1466.25
262.175	1417.25
262.407	1537.25
262.64	1450.25
262.872	1355.25
263.105	1300.25
263.337	1356.25
263.57	1369.25
263.802	1364.25
264.035	1238.25
264.267	1195.25
264.499	1168.25
264.732	1260.25
264.964	1335.25
265.197	1388.25
265.429	1466.25
265.661	1636.25
265.894	1842.25
266.126	1886.25
266.358	1661.25
266.591	1750.25
266.823	1916.25
267.055	1699.25
267.287	1703.25
267.52	1619.25
267.752	1627.25
267.984	1625.25
268.216	1704.25
268.448	1755.25
268.681	1727.25
268.913	1577.25
269.145	1472.25
269.377	1423.25
269.609	1526.25
269.841	1800.25
270.073	2123.25
270.306	2344.25
270.538	2538.25
270.77	2142.25
271.002	1764.25
271.234	1710.25
271.466	1716.25
271.698	1919.25
271.93	2317.25
272.162	2328.25
272.394	2134.25
272.626	2028.25
272.858	1772.25
273.09	1495.25
273.322	1503.25
273.553	1417.25
273.785	1420.25
274.017	1493.25
274.249	1600.25
274.481	1637.25
274.713	1519.25
274.945	1440.25
275.176	1478.25
275.408	1449.25
275.64	1463.25
275.872	1426.25
276.104	1538.25
276.335	1690.25
276.567	1983.25
276.799	1967.25
277.031	1790.25
277.262	1636.25
277.494	1760.25
277.726	1933.25
277.957	1920.25
278.189	1749.25
278.421	1592.25
278.652	1540.25
278.884	1534.25
279.115	1532.25
279.347	1590.25
279.579	1497.25
279.81	1520.25
280.042	1670.25
280.273	1875.25
280.505	1866.25
280.736	1889.25
280.968	1782.25
281.199	1571.25
281.431	1501.25
281.662	1470.25
281.894	1460.25
282.125	1515.25
282.356	1587.25
282.588	1630.25
282.819	1614.25
283.051	1705.25
283.282	1845.25
283.513	1798.25
283.745	1587.25
283.976	1503.25
284.207	1449.25
284.439	1492.25
284.67	1532.25
284.901	1581.25
285.132	1628.25
285.364	1570.25
285.595	1615.25
285.826	1569.25
286.057	1543.25
286.288	1568.25
286.52	1653.25
286.751	1738.25
286.982	1839.25
287.213	1657.25
287.444	1521.25
287.675	1510.25
287.906	1586.25
288.138	1718.25
288.369	1691.25
288.6	1588.25
288.831	1508.25
289.062	1554.25
289.293	1544.25
289.524	1542.25
289.755	1622.25
289.986	1644.25
290.217	1478.25
290.448	1551.25
290.679	1618.25
290.91	1594.25
291.141	1669.25
291.371	1714.25
291.602	1724.25
291.833	1656.25
292.064	1749.25
292.295	1670.25
292.526	1737.25
292.757	1783.25
292.987	1699.25
293.218	1622.25
293.449	1741.25
293.68	1990.25
293.91	2121.25
294.141	1961.25
294.372	1820.25
294.603	1896.25
294.833	2041.25
295.064	1903.25
295.295	1656.25
295.525	1672.25
295.756	1514.25
295.987	1468.25
296.217	1513.25
296.448	1558.25
296.679	1603.25
296.909	1563.25
297.14	1541.25
297.37	1565.25
297.601	1696.25
297.831	1784.25
298.062	1815.25
298.292	1660.25
298.523	1541.25
298.753	1576.25
298.984	1603.25
299.214	1581.25
299.445	1660.25
299.675	1671.25
299.905	1688.25
300.136	1635.25
300.366	1622.25
300.597	1561.25
300.827	1511.25
301.057	1609.25
301.288	1680.25
301.518	1696.25
301.748	1703.25
301.979	1770.25
302.209	1820.25
302.439	1947.25
302.669	2040.25
302.9	1863.25
303.13	1714.25
303.36	1692.25
303.59	1747.25
303.82	1691.25
304.051	1693.25
304.281	1722.25
304.511	1675.25
304.741	1801.25
304.971	1988.25
305.201	2166.25
305.431	2022.25
305.661	1658.25
305.891	1498.25
306.121	1458.25
306.352	1568.25
306.582	1621.25
306.812	1778.25
307.042	1882.25
307.272	1892.25
307.502	1905.25
307.731	2074.25
307.961	2251.25
308.191	2084.25
308.421	1767.25
308.651	1696.25
308.881	1613.25
309.111	1622.25
309.341	1582.25
309.571	1661.25
309.8	1589.25
310.03	1603.25
310.26	1613.25
310.49	1592.25
310.72	1642.25
310.949	1732.25
311.179	1736.25
311.409	1725.25
311.639	1677.25
311.868	1655.25
312.098	1660.25
312.328	1646.25
312.557	1623.25
312.787	1679.25
313.017	1664.25
313.246	1679.25
313.476	1662.25
313.706	1740.25
313.935	1771.25
314.165	1738.25
314.394	1787.25
314.624	1886.25
314.853	1990.25
315.083	2054.25
315.312	2132.25
315.542	2006.25
315.771	1772.25
316.001	1758.25
316.23	1903.25
316.46	1872.25
316.689	1829.25
316.919	1726.25
317.148	1700.25
317.377	1660.25
317.607	1805.25
317.836	2040.25
318.065	2125.25
318.295	2044.25
318.524	1951.25
318.753	1825.25
318.983	1842.25
319.212	1817.25
319.441	1784.25
319.67	1754.25
319.9	1800.25
320.129	1911.25
320.358	1955.25
320.587	2041.25
320.816	2014.25
321.046	1929.25
321.275	1846.25
321.504	1851.25
321.733	1999.25
321.962	1970.25
322.191	1833.25
322.42	1801.25
322.649	1772.25
322.878	1737.25
323.108	1774.25
323.337	1879.25
323.566	1866.25
323.795	1852.25
324.024	1826.25
324.253	1812.25
324.482	1806.25
324.71	1804.25
324.939	1691.25
325.168	1704.25
325.397	1759.25
325.626	1822.25
325.855	1866.25
326.084	1747.25
326.313	1807.25
326.542	1808.25
326.77	1867.25
326.999	1894.25
327.228	1843.25
327.457	1719.25
327.686	1711.25
327.914	1689.25
328.143	1779.25
328.372	1807.25
328.6	1806.25
328.829	1788.25
329.058	1754.25
329.287	1736.25
329.515	1836.25
329.744	1817.25
329.972	1906.25
330.201	2007.25
330.43	1948.25
330.658	1872.25
330.887	1841.25
331.115	1876.25
331.344	1869.25
331.572	1846.25
331.801	1883.25
332.03	1876.25
332.258	1908.25
332.486	1924.25
332.715	1934.25
332.943	1915.25
333.172	1861.25
333.4	1922.25
333.629	1924.25
333.857	2083.25
334.085	2274.25
334.314	2555.25
334.542	2826.25
334.771	2619.25
334.999	2264.25
335.227	2136.25
335.455	2035.25
335.684	1993.25
335.912	2066.25
336.14	2134.25
336.369	2063.25
336.597	1955.25
336.825	1872.25
337.053	2005.25
337.281	2071.25
337.51	2228.25
337.738	2250.25
337.966	2203.25
338.194	1965.25
338.422	1899.25
338.65	1848.25
338.878	1836.25
339.106	1826.25
339.334	1800.25
339.562	1761.25
339.79	1776.25
340.018	1877.25
340.246	2044.25
340.474	1955.25
340.702	1928.25
340.93	1928.25
341.158	1897.25
341.386	1877.25
341.614	1891.25
341.842	1883.25
342.07	1875.25
342.298	1908.25
342.526	1884.25
342.754	1825.25
342.981	1858.25
343.209	1816.25
343.437	1856.25
343.665	1830.25
343.893	1888.25
344.12	1972.25
344.348	2039.25
344.576	1932.25
344.804	1849.25
345.031	1820.25
345.259	1884.25
345.487	1775.25
345.714	1734.25
345.942	1717.25
346.17	1719.25
346.397	1755.25
346.625	1809.25
346.853	1710.25
347.08	1650.25
347.308	1695.25
347.535	1708.25
347.763	1762.25
347.99	1712.25
348.218	1680.25
348.445	1687.25
348.673	1710.25
348.9	1770.25
349.128	1821.25
349.355	1888.25
349.583	1854.25
349.81	1768.25
350.037	1652.25
350.265	1599.25
350.492	1662.25
350.72	1700.25
350.947	1746.25
351.174	1786.25
351.402	1691.25
351.629	1633.25
351.856	1581.25
352.083	1579.25
352.311	1616.25
352.538	1658.25
352.765	1748.25
352.992	1767.25
353.22	1716.25
353.447	1636.25
353.674	1644.25
353.901	1752.25
354.128	1665.25
354.355	1645.25
354.583	1720.25
354.81	1782.25
355.037	1748.25
355.264	1772.25
355.491	1670.25
355.718	1690.25
355.945	1714.25
356.172	1674.25
356.399	1662.25
356.626	1645.25
356.853	1682.25
357.08	1836.25
357.307	2047.25
357.534	2054.25
357.761	1773.25
357.988	1657.25
358.215	1572.25
358.441	1633.25
358.668	1629.25
358.895	1616.25
359.122	1746.25
359.349	1930.25
359.576	1915.25
359.802	1760.25
360.029	1616.25
360.256	1597.25
360.483	1662.25
360.709	1705.25
360.936	1757.25
361.163	1819.25
361.39	2004.25
361.616	2158.25
361.843	2114.25
362.07	1994.25
362.296	1702.25
362.523	1635.25
362.749	1677.25
362.976	1738.25
363.203	1755.25
363.429	1706.25
363.656	1668.25
363.882	1703.25
364.109	1858.25
364.335	2057.25
364.562	1908.25
364.788	1811.25
365.015	1741.25
365.241	1629.25
365.468	1706.25
365.694	1748.25
365.92	1839.25
366.147	1806.25
366.373	1695.25
366.599	1638.25
366.826	1644.25
367.052	1696.25
367.278	1703.25
367.505	1733.25
367.731	1714.25
367.957	1725.25
368.184	1756.25
368.41	1890.25
368.636	1900.25
368.862	1929.25
369.089	1950.25
369.315	1886.25
369.541	1757.25
369.767	1714.25
369.993	1680.25
370.219	1673.25
370.445	1692.25
370.672	1843.25
370.898	1953.25
371.124	1918.25
371.35	1767.25
371.576	1821.25
371.802	1940.25
372.028	1848.25
372.254	1744.25
372.48	1758.25
372.706	1690.25
372.932	1693.25
373.158	1701.25
373.384	1738.25
373.61	1779.25
373.835	1898.25
374.061	1824.25
374.287	1798.25
374.513	1807.25
374.739	1783.25
374.965	1791.25
375.191	1807.25
375.416	1838.25
375.642	1849.25
375.868	1915.25
376.094	1983.25
376.319	1926.25
376.545	1815.25
376.771	1793.25
376.997	1883.25
377.222	1884.25
377.448	1838.25
377.674	1868.25
377.899	1840.25
378.125	1958.25
378.35	2008.25
378.576	1820.25
378.802	1686.25
379.027	1703.25
379.253	1704.25
379.478	1762.25
379.704	1790.25
379.929	1758.25
380.155	1763.25
380.38	1772.25
380.606	1823.25
380.831	1760.25
381.057	1899.25
381.282	1921.25
381.507	1868.25
381.733	1966.25
381.958	2065.25
382.184	1898.25
382.409	1814.25
382.634	1888.25
382.86	1837.25
383.085	1830.25
383.31	1901.25
383.535	2075.25
383.761	2138.25
383.986	2086.25
384.211	2038.25
384.436	1942.25
384.662	2043.25
384.887	2166.25
385.112	2052.25
385.337	2057.25
385.562	2048.25
385.787	2055.25
386.013	2119.25
386.238	2102.25
386.463	2104.25
386.688	2190.25
386.913	2313.25
387.138	2332.25
387.363	2123.25
387.588	2084.25
387.813	2082.25
388.038	2111.25
388.263	2172.25
388.488	2169.25
388.713	1950.25
388.938	1942.25
389.163	1996.25
389.387	2022.25
389.612	1980.25
389.837	2074.25
390.062	2068.25
390.287	2045.25
390.512	2040.25
390.736	1948.25
390.961	1978.25
391.186	1963.25
391.411	1925.25
391.636	2012.25
391.86	2025.25
392.085	2061.25
392.31	2060.25
392.534	2074.25
392.759	2074.25
392.984	2011.25
393.208	2058.25
393.433	2089.25
393.658	2172.25
393.882	2205.25
394.107	2090.25
394.331	1986.25
394.556	2003.25
394.78	2067.25
395.005	2126.25
395.229	2170.25
395.454	2326.25
395.678	2365.25
395.903	2281.25
396.127	2139.25
396.352	2165.25
396.576	2243.25
396.801	2256.25
397.025	2220.25
397.249	2186.25
397.474	2177.25
397.698	2146.25
397.922	2302.25
398.147	2355.25
398.371	2423.25
398.595	2412.25
398.82	2312.25
399.044	2360.25
399.268	2425.25
399.492	2652.25
399.717	2671.25
399.941	2721.25
400.165	2704.25
400.389	2603.25
400.613	2540.25
400.837	2828.25
401.062	3262.25
401.286	2848.25
401.51	2516.25
401.734	2662.25
401.958	2590.25
402.182	2410.25
402.406	2335.25
402.63	2312.25
402.854	2278.25
403.078	2328.25
403.302	2394.25
403.526	2396.25
403.75	2387.25
403.974	2415.25
404.198	2379.25
404.422	2502.25
404.645	2614.25
404.869	2525.25
405.093	2373.25
405.317	2326.25
405.541	2441.25
405.765	2438.25
405.988	2399.25
406.212	2477.25
406.436	2500.25
406.66	2577.25
406.883	2599.25
407.107	2934.25
407.331	3163.25
407.555	3368.25
407.778	3184.25
408.002	2630.25
408.226	2579.25
408.449	2546.25
408.673	2525.25
408.896	2484.25
409.12	2566.25
409.344	2430.25
409.567	2325.25
409.791	2430.25
410.014	2462.25
410.238	2542.25
410.461	2722.25
410.685	2491.25
410.908	2328.25
411.132	2388.25
411.355	2420.25
411.578	2398.25
411.802	2354.25
412.025	2424.25
412.249	2323.25
412.472	2328.25
412.695	2240.25
412.919	2311.25
413.142	2259.25
413.365	2298.25
413.589	2398.25
413.812	2437.25
414.035	2524.25
414.258	2387.25
414.482	2280.25
414.705	2374.25
414.928	2314.25
415.151	2274.25
415.374	2300.25
415.597	2391.25
415.821	2350.25
416.044	2443.25
416.267	2413.25
416.49	2192.25
416.713	2182.25
416.936	2245.25
417.159	2379.25
417.382	2421.25
417.605	2228.25
417.828	2340.25
418.051	2384.25
418.274	2294.25
418.497	2213.25
418.72	2246.25
418.943	2226.25
419.166	2362.25
419.389	2477.25
419.611	2307.25
419.834	2272.25
420.057	2352.25
420.28	2240.25
420.503	2233.25
420.726	2312.25
420.948	2284.25
421.171	2217.25
421.394	2230.25
421.617	2273.25
421.839	2243.25
422.062	2269.25
422.285	2214.25
422.507	2209.25
422.73	2195.25
422.953	2136.25
423.175	2163.25
423.398	2194.25
423.621	2177.25
423.843	2259.25
424.066	2254.25
424.288	2342.25
424.511	2355.25
424.733	2339.25
424.956	2105.25
425.178	2116.25
425.401	2136.25
425.623	2156.25
425.846	2117.25
426.068	2241.25
426.291	2320.25
426.513	2291.25
426.735	2234.25
426.958	2402.25
427.18	2618.25
427.402	2355.25
427.625	2355.25
427.847	2473.25
428.069	2278.25
428.292	2123.25
428.514	2102.25
428.736	2102.25
428.958	2163.25
429.181	2212.25
429.403	2426.25
429.625	3021.25
429.847	2618.25
430.069	2239.25
430.292	2427.25
430.514	2547.25
430.736	2351.25
430.958	2472.25
431.18	2347.25
431.402	2126.25
431.624	2076.25
431.846	2137.25
432.068	2119.25
432.29	2118.25
432.512	2137.25
432.734	2188.25
432.956	2264.25
433.178	2332.25
433.4	2328.25
433.622	2352.25
433.844	2185.25
434.066	2115.25
434.287	2087.25
434.509	2192.25
434.731	2356.25
434.953	2442.25
435.175	2436.25
435.397	2263.25
435.618	2292.25
435.84	2296.25
436.062	2207.25
436.284	2253.25
436.505	2270.25
436.727	2355.25
436.949	2284.25
437.17	2194.25
437.392	2168.25
437.614	2190.25
437.835	2108.25
438.057	2239.25
438.278	2326.25
438.5	2232.25
438.721	2125.25
438.943	2138.25
439.165	2103.25
439.386	2092.25
439.608	2104.25
439.829	2114.25
440.05	2176.25
440.272	2062.25
440.493	2058.25
440.715	2145.25
440.936	2294.25
441.158	2519.25
441.379	2453.25
441.6	2378.25
441.822	2292.25
442.043	2255.25
442.264	2240.25
442.486	2098.25
442.707	2128.25
442.928	2121.25
443.149	2203.25
443.371	2334.25
443.592	2425.25
443.813	2359.25
444.034	2345.25
444.255	2297.25
444.476	2406.25
444.698	2453.25
444.919	2443.25
445.14	2515.25
445.361	2446.25
445.582	2607.25
445.803	2463.25
446.024	2339.25
446.245	2462.25
446.466	2359.25
446.687	2259.25
446.908	2254.25
447.129	2220.25
447.35	2178.25
447.571	2227.25
447.792	2124.25
448.013	2104.25
448.234	2130.25
448.455	2221.25
448.675	2291.25
448.896	2102.25
449.117	2031.25
449.338	2138.25
449.559	2222.25
449.779	2316.25
450	2586.25
450.221	2735.25
450.442	2641.25
450.662	2356.25
450.883	2061.25
451.104	2067.25
451.324	2068.25
451.545	2165.25
451.766	2124.25
451.986	2018.25
452.207	2002.25
452.428	1935.25
452.648	1874.25
452.869	1938.25
453.089	2107.25
453.31	2148.25
453.53	2170.25
453.751	2124.25
453.971	1955.25
454.192	2012.25
454.412	2133.25
454.633	2071.25
454.853	1975.25
455.073	1886.25
455.294	1855.25
455.514	1876.25
455.734	1904.25
455.955	1936.25
456.175	1926.25
456.395	1902.25
456.616	1975.25
456.836	2028.25
457.056	1968.25
457.276	1939.25
457.497	1897.25
457.717	1813.25
457.937	1866.25
458.157	1927.25
458.377	1958.25
458.598	1903.25
458.818	1932.25
459.038	2054.25
459.258	2180.25
459.478	2177.25
459.698	2212.25
459.918	2159.25
460.138	2256.25
460.358	2282.25
460.578	2322.25
460.798	2398.25
461.018	2552.25
461.238	2400.25
461.458	2274.25
461.678	2355.25
461.898	2266.25
462.118	2188.25
462.338	2265.25
462.558	2303.25
462.777	2301.25
462.997	2412.25
463.217	2529.25
463.437	2505.25
463.657	2339.25
463.876	2342.25
464.096	2288.25
464.316	2296.25
464.536	2372.25
464.755	2364.25
464.975	2444.25
465.195	2345.25
465.414	2446.25
465.634	2427.25
465.854	2293.25
466.073	2466.25
466.293	2398.25
466.512	2122.25
466.732	2076.25
466.951	2190.25
467.171	2152.25
467.391	2091.25
467.61	2065.25
467.829	2089.25
468.049	2266.25
468.268	2502.25
468.488	2354.25
468.707	2230.25
468.927	2154.25
469.146	2105.25
469.365	2053.25
469.585	2090.25
469.804	2084.25
470.023	2101.25
470.243	2131.25
470.462	2080.25
470.681	2058.25
470.901	2103.25
471.12	2116.25
471.339	2117.25
471.558	2072.25
471.777	1993.25
471.997	2084.25
472.216	2070.25
472.435	1999.25
472.654	1991.25
472.873	2125.25
473.092	2260.25
473.311	2159.25
473.53	2004.25
473.749	1985.25
473.968	2052.25
474.187	2186.25
474.406	2328.25
474.625	2219.25
474.844	2114.25
475.063	2106.25
475.282	2222.25
475.501	2138.25
475.72	2127.25
475.939	2244.25
476.158	2186.25
476.377	2115.25
476.596	2140.25
476.814	2202.25
477.033	2239.25
477.252	2370.25
477.471	2366.25
477.69	2239.25
477.908	2217.25
478.127	2335.25
478.346	2557.25
478.564	2590.25
478.783	2508.25
479.002	2602.25
479.22	2521.25
479.439	2630.25
479.658	2994.25
479.876	3026.25
480.095	2570.25
480.313	2418.25
480.532	2293.25
480.751	2368.25
480.969	2445.25
481.188	2345.25
481.406	2379.25
481.624	2288.25
481.843	2324.25
482.061	2385.25
482.28	2446.25
482.498	2485.25
482.717	2457.25
482.935	2353.25
483.153	2350.25
483.372	2326.25
483.59	2289.25
483.808	2349.25
484.027	2342.25
484.245	2562.25
484.463	2935.25
484.681	3454.25
484.9	2598.25
485.118	2434.25
485.336	2350.25
485.554	2506.25
485.772	2604.25
485.99	2560.25
486.209	2562.25
486.427	2488.25
486.645	2514.25
486.863	2467.25
487.081	2525.25
487.299	2586.25
487.517	2590.25
487.735	2437.25
487.953	2401.25
488.171	2427.25
488.389	2403.25
488.607	2380.25
488.825	2726.25
489.043	2744.25
489.261	2428.25
489.479	2626.25
489.696	2692.25
489.914	2555.25
490.132	2572.25
490.35	2460.25
490.568	2589.25
490.786	2510.25
491.003	2372.25
491.221	2460.25
491.439	2592.25
491.657	2550.25
491.874	2533.25
492.092	2554.25
492.31	2593.25
492.527	2552.25
492.745	2541.25
492.963	2530.25
493.18	2603.25
493.398	2792.25
493.615	2852.25
493.833	2632.25
494.05	2501.25
494.268	2553.25
494.485	2664.25
494.703	2539.25
494.92	2475.25
495.138	2528.25
495.355	2567.25
495.573	2622.25
495.79	2790.25
496.008	2893.25
496.225	2685.25
496.442	2680.25
496.66	2772.25
496.877	2629.25
497.094	2815.25
497.312	2800.25
497.529	2785.25
497.746	2842.25
497.963	3282.25
498.181	3787.25
498.398	3453.25
498.615	3364.25
498.832	3354.25
499.049	3255.25
499.267	3307.25
499.484	3485.25
499.701	3738.25
499.918	3822.25
500.135	4060.25
500.352	4404.25
500.569	4330.25
500.786	4603.25
501.003	4320.25
501.22	3907.25
501.437	3797.25
501.654	3718.25
501.871	3712.25
502.088	3235.25
502.305	3239.25
502.522	3163.25
502.739	2920.25
502.956	2857.25
503.172	2809.25
503.389	2726.25
503.606	2662.25
503.823	2695.25
504.04	2758.25
504.256	2718.25
504.473	2696.25
504.69	2803.25
504.907	2680.25
505.123	2543.25
505.34	2669.25
505.557	3405.25
505.773	2952.25
505.99	2467.25
506.207	2285.25
506.423	2304.25
506.64	2246.25
506.856	2312.25
507.073	2617.25
507.289	2838.25
507.506	2702.25
507.722	2333.25
507.939	2241.25
508.155	2212.25
508.372	2256.25
508.588	2217.25
508.805	2104.25
509.021	2069.25
509.238	2089.25
509.454	2098.25
509.67	2117.25
509.887	2085.25
510.103	2086.25
510.319	2075.25
510.536	2202.25
510.752	2306.25
510.968	2248.25
511.184	2428.25
511.401	2398.25
511.617	2068.25
511.833	2006.25
512.049	2048.25
512.265	2054.25
512.481	2000.25
512.698	2110.25
512.914	2244.25
513.13	2156.25
513.346	2033.25
513.562	1984.25
513.778	2012.25
513.994	2168.25
514.21	2222.25
514.426	2197.25
514.642	2508.25
514.858	2348.25
515.074	2149.25
515.29	2051.25
515.506	2154.25
515.721	2159.25
515.937	2179.25
516.153	2512.25
516.369	2369.25
516.585	2268.25
516.801	2128.25
517.016	2105.25
517.232	2167.25
517.448	2232.25
517.664	2251.25
517.879	2240.25
518.095	2360.25
518.311	2231.25
518.527	2130.25
518.742	2127.25
518.958	2068.25
519.173	2065.25
519.389	2117.25
519.605	2093.25
519.82	2109.25
520.036	2133.25
520.251	2047.25
520.467	2083.25
520.682	2266.25
520.898	2355.25
521.113	2120.25
521.329	2089.25
521.544	2233.25
521.76	2114.25
521.975	1974.25
522.19	1936.25
522.406	1974.25
522.621	2332.25
522.836	2406.25
523.052	1933.25
523.267	1927.25
523.482	1939.25
523.698	1845.25
523.913	1832.25
524.128	1886.25
524.343	2006.25
524.559	2068.25
524.774	1912.25
524.989	1868.25
525.204	1862.25
525.419	1850.25
525.634	1846.25
525.849	1840.25
526.064	1895.25
526.28	1894.25
526.495	1826.25
526.71	1813.25
526.925	1836.25
527.14	1812.25
527.355	1783.25
527.57	1760.25
527.785	1859.25
527.999	1762.25
528.214	1755.25
528.429	1720.25
528.644	1769.25
528.859	1767.25
529.074	1774.25
529.289	1803.25
529.503	1792.25
529.718	1794.25
529.933	1790.25
530.148	1714.25
530.363	1700.25
530.577	1768.25
530.792	1786.25
531.007	1815.25
531.221	1776.25
531.436	1823.25
531.651	1858.25
531.865	1955.25
532.08	1842.25
532.295	1732.25
532.509	1725.25
532.724	1741.25
532.938	1812.25
533.153	1905.25
533.367	1824.25
533.582	1749.25
533.796	1714.25
534.011	1783.25
534.225	1762.25
534.44	1778.25
534.654	1734.25
534.868	1702.25
535.083	1812.25
535.297	1854.25
535.511	1718.25
535.726	1737.25
535.94	1744.25
536.154	1709.25
536.369	1712.25
536.583	1673.25
536.797	1661.25
537.011	1732.25
537.225	1635.25
537.44	1640.25
537.654	1706.25
537.868	1664.25
538.082	1596.25
538.296	1605.25
538.51	1608.25
538.724	1601.25
538.938	1572.25
539.153	1681.25
539.367	1673.25
539.581	1654.25
539.795	1762.25
540.009	1690.25
540.222	1668.25
540.436	1691.25
540.65	1844.25
540.864	1874.25
541.078	1769.25
541.292	1633.25
541.506	1635.25
541.72	1688.25
541.934	1637.25
542.147	1710.25
542.361	1676.25
542.575	1581.25
542.789	1578.25
543.002	1512.25
543.216	1538.25
543.43	1705.25
543.644	1757.25
543.857	1813.25
544.071	1737.25
544.285	1678.25
544.498	1629.25
544.712	1637.25
544.925	1635.25
545.139	1696.25
545.352	1618.25
545.566	1560.25
545.779	1549.25
545.993	1560.25
546.206	1630.25
546.42	1576.25
546.633	1541.25
546.847	1534.25
547.06	1533.25
547.274	1550.25
547.487	1523.25
547.7	1550.25
547.914	1568.25
548.127	1623.25
548.34	1611.25
548.554	1575.25
548.767	1550.25
548.98	1568.25
549.193	1572.25
549.407	1647.25
549.62	1652.25
549.833	1594.25
550.046	1592.25
550.259	1561.25
550.473	1562.25
550.686	1539.25
550.899	1507.25
551.112	1511.25
551.325	1487.25
551.538	1584.25
551.751	1882.25
551.964	1520.25
552.177	1482.25
552.39	1455.25
552.603	1566.25
552.816	1520.25
553.029	1612.25
553.242	1661.25
553.455	1538.25
553.667	1520.25
553.88	1518.25
554.093	1538.25
554.306	1458.25
554.519	1418.25
554.732	1434.25
554.944	1420.25
555.157	1507.25
555.37	1428.25
555.583	1423.25
555.795	1437.25
556.008	1379.25
556.221	1344.25
556.433	1344.25
556.646	1359.25
556.859	1345.25
557.071	1333.25
557.284	1340.25
557.496	1330.25
557.709	1306.25
557.921	1305.25
558.134	1291.25
558.346	1312.25
558.559	1300.25
558.771	1296.25
558.984	1252.25
559.196	1243.25
559.409	1242.25
559.621	1264.25
559.833	1287.25
560.046	1301.25
560.258	1295.25
560.47	1267.25
560.683	1282.25
560.895	1252.25
561.107	1239.25
561.32	1316.25
561.532	1317.25
561.744	1310.25
561.956	1288.25
562.168	1222.25
562.381	1198.25
562.593	1244.25
562.805	1249.25
563.017	1221.25
563.229	1260.25
563.441	1286.25
563.653	1274.25
563.865	1218.25
564.077	1231.25
564.289	1254.25
564.501	1242.25
564.713	1294.25
564.925	1328.25
565.137	1434.25
565.349	1321.25
565.561	1335.25
565.773	1371.25
565.985	1321.25
566.197	1407.25
566.408	1506.25
566.62	1491.25
566.832	1504.25
567.044	1500.25
567.255	1508.25
567.467	1546.25
567.679	1633.25
567.891	1609.25
568.102	1579.25
568.314	1522.25
568.526	1436.25
568.737	1379.25
568.949	1356.25
569.161	1269.25
569.372	1226.25
569.584	1216.25
569.795	1231.25
570.007	1200.25
570.218	1160.25
570.43	1132.25
570.641	1154.25
570.853	1127.25
571.064	1144.25
571.276	1125.25
571.487	1092.25
571.698	1063.25
571.91	1052.25
572.121	1055.25
572.333	1021.25
572.544	1039.25
572.755	992.25
572.966	986.25
573.178	979.25
573.389	1013.25
573.6	1044.25
573.811	1124.25
574.023	1045.25
574.234	997.25
574.445	982.25
574.656	942.25
574.867	954.25
575.078	956.25
575.289	979.25
575.501	938.25
575.712	931.25
575.923	991.25
576.134	943.25
576.345	930.25
576.556	902.25
576.767	926.25
576.978	905.25
577.188	909.25
577.399	900.25
577.61	887.25
577.821	907.25
578.032	838.25
578.243	850.25
578.454	852.25
578.665	847.25
578.875	846.25
579.086	855.25
579.297	847.25
579.508	882.25
579.718	894.25
579.929	878.25
580.14	826.25
580.35	834.25
580.561	874.25
580.772	958.25
580.982	880.25
581.193	848.25
581.403	850.25
581.614	852.25
581.825	807.25
582.035	805.25
582.246	816.25
582.456	831.25
582.667	822.25
582.877	816.25
583.087	811.25
583.298	792.25
583.508	787.25
583.719	795.25
583.929	806.25
584.139	783.25
584.35	746.25
584.56	783.25
584.77	795.25
584.981	813.25
585.191	823.25
585.401	830.25
585.611	792.25
585.821	773.25
586.032	767.25
586.242	744.25
586.452	748.25
586.662	785.25
586.872	768.25
587.082	770.25
587.292	798.25
587.502	820.25
587.713	804.25
587.923	787.25
588.133	764.25
588.343	767.25
588.553	766.25
588.762	793.25
588.972	730.25
589.182	778.25
589.392	768.25
589.602	767.25
589.812	767.25
590.022	751.25
590.232	717.25
590.441	764.25
590.651	764.25
590.861	790.25
591.071	730.25
591.281	741.25
591.49	756.25
591.7	748.25
591.91	754.25
592.119	758.25
592.329	752.25
592.539	786.25
592.748	787.25
592.958	778.25
593.167	814.25
593.377	807.25
593.587	783.25
593.796	805.25
594.006	792.25
594.215	779.25
594.424	816.25
594.634	766.25
594.843	755.25
595.053	791.25
595.262	774.25
595.472	741.25
595.681	724.25
595.89	724.25
596.1	715.25
596.309	716.25
596.518	700.25
596.727	718.25
596.937	713.25
597.146	656.25
597.355	690.25
597.564	696.25
597.774	646.25
597.983	651.25
598.192	653.25
598.401	646.25
598.61	644.25
598.819	643.25
599.028	655.25
599.237	660.25
599.446	628.25
599.655	640.25
599.864	642.25
600.073	630.25
600.282	605.25
600.491	633.25
600.7	612.25
600.909	605.25
601.118	615.25
601.327	607.25
601.536	642.25
601.745	626.25
601.953	614.25
602.162	617.25
602.371	640.25
602.58	636.25
602.789	635.25
602.997	604.25
603.206	624.25
603.415	600.25
603.623	598.25
603.832	581.25
604.041	586.25
604.249	551.25
604.458	574.25
604.666	590.25
604.875	600.25
605.084	589.25
605.292	612.25
605.501	560.25
605.709	592.25
605.918	580.25
606.126	565.25
606.334	571.25
606.543	580.25
606.751	574.25
606.96	590.25
607.168	562.25
607.376	547.25
607.585	574.25
607.793	555.25
608.001	566.25
608.21	580.25
608.418	582.25
608.626	574.25
608.834	553.25
609.043	559.25
609.251	544.25
609.459	547.25
609.667	570.25
609.875	567.25
610.083	565.25
610.291	602.25
610.499	585.25
610.707	564.25
610.916	558.25
611.124	547.25
611.332	547.25
611.54	523.25
611.748	536.25
611.955	532.25
612.163	534.25
612.371	537.25
612.579	537.25
612.787	524.25
612.995	531.25
613.203	546.25
613.411	514.25
613.618	567.25
613.826	550.25
614.034	540.25
614.242	520.25
614.449	527.25
614.657	549.25
614.865	540.25
615.072	532.25
615.28	515.25
615.488	549.25
615.695	564.25
615.903	553.25
616.111	536.25
616.318	527.25
616.526	503.25
616.733	504.25
616.941	524.25
617.148	519.25
617.356	522.25
617.563	536.25
617.771	517.25
617.978	472.25
618.185	518.25
618.393	532.25
618.6	518.25
618.807	492.25
619.015	501.25
619.222	495.25
619.429	500.25
619.637	479.25
619.844	498.25
620.051	497.25
620.258	494.25
620.466	470.25
620.673	459.25
620.88	464.25
621.087	473.25
621.294	464.25
621.501	477.25
621.708	474.25
621.915	462.25
622.122	478.25
622.329	471.25
622.536	452.25
622.743	485.25
622.95	476.25
623.157	459.25
623.364	460.25
623.571	448.25
623.778	468.25
623.985	470.25
624.192	476.25
624.399	456.25
624.606	445.25
624.812	428.25
625.019	447.25
625.226	445.25
625.433	434.25
625.639	451.25
625.846	448.25
626.053	418.25
626.259	423.25
626.466	414.25
626.673	425.25
626.879	430.25
627.086	420.25
627.293	423.25
627.499	435.25
627.706	432.25
627.912	436.25
628.119	431.25
628.325	431.25
628.532	426.25
628.738	437.25
628.945	410.25
629.151	400.25
629.357	403.25
629.564	413.25
629.77	426.25
629.976	413.25
630.183	418.25
630.389	407.25
630.595	431.25
630.802	407.25
631.008	378.25
631.214	382.25
631.42	394.25
631.627	402.25
631.833	379.25
632.039	400.25
632.245	406.25
632.451	399.25
632.657	391.25
632.863	380.25
633.069	367.25
633.275	400.25
633.481	363.25
633.688	361.25
633.893	391.25
634.099	376.25
634.305	378.25
634.511	390.25
634.717	339.25
634.923	360.25
635.129	362.25
635.335	355.25
635.541	385.25
635.747	374.25
635.952	371.25
636.158	365.25
636.364	358.25
636.57	374.25
636.775	353.25
636.981	392.25
637.187	379.25
637.392	378.25
637.598	355.25
637.804	346.25
638.009	362.25
638.215	364.25
638.421	341.25
638.626	344.25
638.832	350.25
639.037	352.25
639.243	340.25
639.448	336.25
639.654	336.25
639.859	332.25
640.065	322.25
640.27	368.25
640.475	362.25
640.681	360.25
640.886	345.25
641.091	334.25
641.297	350.25
641.502	340.25
641.707	342.25
641.913	345.25
642.118	339.25
642.323	326.25
642.528	326.25
642.733	333.25
642.939	320.25
643.144	330.25
643.349	348.25
643.554	346.25
643.759	322.25
643.964	331.25
644.169	324.25
644.374	335.25
644.579	328.25
644.784	352.25
644.989	315.25
645.194	319.25
645.399	306.25
645.604	310.25
645.809	346.25
646.014	320.25
646.219	326.25
646.423	335.25
646.628	336.25
646.833	320.25
647.038	306.25
647.243	337.25
647.447	311.25
647.652	318.25
647.857	306.25
648.062	322.25
648.266	323.25
648.471	332.25
648.676	316.25
648.88	315.25
649.085	330.25
649.289	316.25
649.494	326.25
649.698	323.25
649.903	307.25
650.107	302.25
650.312	300.25
650.516	307.25
650.721	298.25
650.925	296.25
651.13	280.25
651.334	293.25
651.539	288.25
651.743	286.25
651.947	280.25
652.152	259.25
652.356	257.25
652.56	274.25
652.764	261.25
652.969	266.25
653.173	261.25
653.377	267.25
653.581	263.25
653.785	264.25
653.99	263.25
654.194	258.25
654.398	238.25
654.602	255.25
654.806	255.25
655.01	251.25
655.214	256.25
655.418	249.25
655.622	246.25
655.826	243.25
656.03	261.25
656.234	270.25
656.438	258.25
656.642	282.25
656.846	248.25
657.049	248.25
657.253	227.25
657.457	220.25
657.661	223.25
657.865	190.25
658.068	182.25
658.272	176.25
658.476	178.25
658.68	146.25
658.883	142.25
659.087	134.25
659.291	136.25
659.494	138.25
659.698	137.25
659.901	150.25
660.105	127.25
660.309	129.25
660.512	136.25
660.716	123.25
660.919	123.25
661.123	125.25
661.326	107.25
661.53	124.25
661.733	101.25
661.936	95.25
662.14	112.25
662.343	105.25
662.546	96.25
662.75	93.25
662.953	89.25
663.156	90.25
663.36	94.25
663.563	96.25
663.766	84.25
663.969	88.25
664.173	104.25
664.376	72.25
664.579	88.25
664.782	80.25
664.985	96.25
665.188	72.25
665.391	77.25
665.594	91.25
665.797	76.25
666	90.25
666.203	80.25
666.406	92.25
666.609	88.25
666.812	82.25
667.015	98.25
667.218	84.25
667.421	87.25
667.624	70.25
667.827	88.25
668.03	84.25
668.232	74.25
668.435	82.25
668.638	86.25
668.841	88.25
669.043	75.25
669.246	81.25
669.449	92.25
669.651	85.25
669.854	83.25
670.057	99.25
670.259	80.25
670.462	83.25
670.665	88.25
670.867	88.25
671.07	88.25
671.272	86.25
671.475	92.25
671.677	97.25
671.88	83.25
672.082	95.25
672.284	84.25
672.487	88.25
672.689	84.25
672.892	84.25
