Data from WStandard_LampEnergy10_LIBS07252019.E.O._I.C._HRD10591_15-52-46-927.txt Node
Date: Thu Jul 25 15:52:46 EDT 2019
User: cochatt
Spectrometer: HR+D1059
Trigger mode: 1
Integration Time (sec): 1.000000E-1
Scans to average: 1
Electric dark correction enabled: true
Nonlinearity correction enabled: false
Boxcar width: 0
XAxis mode: Wavelengths
Number of Pixels in Spectrum: 2048
>>>>>Begin Spectral Data<<<<<
223.165	-12.44
223.4	-12.44
223.635	-12.44
223.869	-13.44
224.104	-20.44
224.338	-25.44
224.573	-18.44
224.808	-3.44
225.042	-10.44
225.277	-9.44
225.511	-6.44
225.746	12.56
225.98	0.56
226.215	6.56
226.449	19.56
226.683	22.56
226.918	26.56
227.152	31.56
227.387	31.56
227.621	21.56
227.856	39.56
228.09	38.56
228.324	44.56
228.559	40.56
228.793	79.56
229.027	123.56
229.262	120.56
229.496	125.56
229.73	154.56
229.964	148.56
230.199	140.56
230.433	156.56
230.667	161.56
230.901	157.56
231.136	137.56
231.37	146.56
231.604	159.56
231.838	151.56
232.072	163.56
232.306	160.56
232.541	159.56
232.775	166.56
233.009	182.56
233.243	180.56
233.477	184.56
233.711	173.56
233.945	162.56
234.179	161.56
234.413	176.56
234.647	182.56
234.881	180.56
235.115	174.56
235.349	171.56
235.583	160.56
235.817	182.56
236.051	160.56
236.285	165.56
236.519	177.56
236.753	204.56
236.987	186.56
237.221	200.56
237.455	207.56
237.689	202.56
237.922	193.56
238.156	199.56
238.39	197.56
238.624	200.56
238.858	206.56
239.091	212.56
239.325	224.56
239.559	237.56
239.793	258.56
240.027	260.56
240.26	254.56
240.494	210.56
240.728	193.56
240.961	208.56
241.195	219.56
241.429	236.56
241.662	240.56
241.896	212.56
242.13	216.56
242.363	210.56
242.597	231.56
242.83	225.56
243.064	245.56
243.298	262.56
243.531	250.56
243.765	235.56
243.998	231.56
244.232	225.56
244.465	212.56
244.699	224.56
244.932	250.56
245.166	257.56
245.399	246.56
245.633	242.56
245.866	252.56
246.099	248.56
246.333	242.56
246.566	244.56
246.8	288.56
247.033	282.56
247.266	268.56
247.5	278.56
247.733	254.56
247.966	285.56
248.2	312.56
248.433	314.56
248.666	308.56
248.899	335.56
249.133	344.56
249.366	391.56
249.599	326.56
249.832	306.56
250.066	322.56
250.299	315.56
250.532	296.56
250.765	272.56
250.998	288.56
251.231	286.56
251.465	299.56
251.698	307.56
251.931	293.56
252.164	291.56
252.397	304.56
252.63	293.56
252.863	279.56
253.096	276.56
253.329	300.56
253.562	302.56
253.795	315.56
254.028	313.56
254.261	289.56
254.494	299.56
254.727	272.56
254.96	304.56
255.193	328.56
255.426	348.56
255.659	386.56
255.892	378.56
256.124	329.56
256.357	316.56
256.59	329.56
256.823	342.56
257.056	364.56
257.289	402.56
257.521	419.56
257.754	409.56
257.987	377.56
258.22	406.56
258.452	374.56
258.685	353.56
258.918	348.56
259.151	322.56
259.383	320.56
259.616	310.56
259.849	307.56
260.081	338.56
260.314	374.56
260.547	382.56
260.779	404.56
261.012	346.56
261.244	334.56
261.477	335.56
261.71	337.56
261.942	339.56
262.175	347.56
262.407	343.56
262.64	338.56
262.872	334.56
263.105	292.56
263.337	305.56
263.57	314.56
263.802	326.56
264.035	315.56
264.267	289.56
264.499	295.56
264.732	310.56
264.964	310.56
265.197	334.56
265.429	362.56
265.661	374.56
265.894	411.56
266.126	416.56
266.358	402.56
266.591	391.56
266.823	422.56
267.055	401.56
267.287	373.56
267.52	380.56
267.752	372.56
267.984	380.56
268.216	393.56
268.448	384.56
268.681	390.56
268.913	339.56
269.145	352.56
269.377	387.56
269.609	403.56
269.841	452.56
270.073	508.56
270.306	530.56
270.538	542.56
270.77	454.56
271.002	385.56
271.234	368.56
271.466	408.56
271.698	447.56
271.93	511.56
272.162	475.56
272.394	456.56
272.626	445.56
272.858	373.56
273.09	335.56
273.322	358.56
273.553	333.56
273.785	330.56
274.017	362.56
274.249	366.56
274.481	365.56
274.713	342.56
274.945	338.56
275.176	342.56
275.408	355.56
275.64	341.56
275.872	347.56
276.104	375.56
276.335	428.56
276.567	456.56
276.799	444.56
277.031	371.56
277.262	407.56
277.494	443.56
277.726	450.56
277.957	434.56
278.189	403.56
278.421	358.56
278.652	378.56
278.884	353.56
279.115	368.56
279.347	390.56
279.579	360.56
279.81	380.56
280.042	403.56
280.273	434.56
280.505	449.56
280.736	423.56
280.968	388.56
281.199	368.56
281.431	360.56
281.662	362.56
281.894	351.56
282.125	390.56
282.356	386.56
282.588	384.56
282.819	392.56
283.051	411.56
283.282	409.56
283.513	405.56
283.745	385.56
283.976	354.56
284.207	372.56
284.439	374.56
284.67	371.56
284.901	383.56
285.132	401.56
285.364	400.56
285.595	382.56
285.826	386.56
286.057	388.56
286.288	399.56
286.52	401.56
286.751	404.56
286.982	420.56
287.213	392.56
287.444	375.56
287.675	374.56
287.906	384.56
288.138	398.56
288.369	390.56
288.6	373.56
288.831	373.56
289.062	365.56
289.293	380.56
289.524	377.56
289.755	397.56
289.986	384.56
290.217	352.56
290.448	371.56
290.679	390.56
290.91	400.56
291.141	408.56
291.371	404.56
291.602	397.56
291.833	400.56
292.064	416.56
292.295	405.56
292.526	423.56
292.757	428.56
292.987	418.56
293.218	421.56
293.449	424.56
293.68	495.56
293.91	499.56
294.141	469.56
294.372	451.56
294.603	454.56
294.833	479.56
295.064	434.56
295.295	415.56
295.525	404.56
295.756	378.56
295.987	374.56
296.217	377.56
296.448	379.56
296.679	402.56
296.909	399.56
297.14	396.56
297.37	406.56
297.601	433.56
297.831	451.56
298.062	427.56
298.292	413.56
298.523	384.56
298.753	401.56
298.984	413.56
299.214	398.56
299.445	406.56
299.675	428.56
299.905	430.56
300.136	388.56
300.366	402.56
300.597	388.56
300.827	392.56
301.057	418.56
301.288	421.56
301.518	436.56
301.748	443.56
301.979	481.56
302.209	478.56
302.439	487.56
302.669	481.56
302.9	453.56
303.13	424.56
303.36	443.56
303.59	420.56
303.82	440.56
304.051	426.56
304.281	445.56
304.511	448.56
304.741	490.56
304.971	505.56
305.201	538.56
305.431	479.56
305.661	423.56
305.891	400.56
306.121	373.56
306.352	405.56
306.582	430.56
306.812	450.56
307.042	490.56
307.272	483.56
307.502	512.56
307.731	532.56
307.961	554.56
308.191	476.56
308.421	451.56
308.651	430.56
308.881	446.56
309.111	422.56
309.341	423.56
309.571	430.56
309.8	422.56
310.03	416.56
310.26	418.56
310.49	426.56
310.72	414.56
310.949	458.56
311.179	435.56
311.409	445.56
311.639	420.56
311.868	442.56
312.098	415.56
312.328	434.56
312.557	410.56
312.787	406.56
313.017	436.56
313.246	440.56
313.476	444.56
313.706	444.56
313.935	461.56
314.165	474.56
314.394	472.56
314.624	501.56
314.853	524.56
315.083	508.56
315.312	534.56
315.542	503.56
315.771	452.56
316.001	465.56
316.23	498.56
316.46	470.56
316.689	458.56
316.919	448.56
317.148	428.56
317.377	455.56
317.607	503.56
317.836	562.56
318.065	538.56
318.295	514.56
318.524	505.56
318.753	500.56
318.983	487.56
319.212	462.56
319.441	449.56
319.67	476.56
319.9	478.56
320.129	513.56
320.358	520.56
320.587	545.56
320.816	511.56
321.046	499.56
321.275	475.56
321.504	498.56
321.733	526.56
321.962	484.56
322.191	453.56
322.42	469.56
322.649	472.56
322.878	484.56
323.108	484.56
323.337	496.56
323.566	503.56
323.795	484.56
324.024	485.56
324.253	481.56
324.482	493.56
324.71	444.56
324.939	434.56
325.168	453.56
325.397	493.56
325.626	493.56
325.855	477.56
326.084	458.56
326.313	472.56
326.542	475.56
326.77	499.56
326.999	484.56
327.228	471.56
327.457	461.56
327.686	450.56
327.914	469.56
328.143	456.56
328.372	473.56
328.6	462.56
328.829	465.56
329.058	463.56
329.287	446.56
329.515	488.56
329.744	487.56
329.972	522.56
330.201	524.56
330.43	520.56
330.658	502.56
330.887	491.56
331.115	529.56
331.344	511.56
331.572	494.56
331.801	496.56
332.03	496.56
332.258	480.56
332.486	496.56
332.715	532.56
332.943	493.56
333.172	484.56
333.4	518.56
333.629	520.56
333.857	584.56
334.085	641.56
334.314	713.56
334.542	687.56
334.771	664.56
334.999	595.56
335.227	547.56
335.455	546.56
335.684	543.56
335.912	575.56
336.14	563.56
336.369	529.56
336.597	503.56
336.825	509.56
337.053	526.56
337.281	561.56
337.51	605.56
337.738	592.56
337.966	547.56
338.194	506.56
338.422	478.56
338.65	503.56
338.878	491.56
339.106	490.56
339.334	467.56
339.562	479.56
339.79	490.56
340.018	525.56
340.246	538.56
340.474	528.56
340.702	525.56
340.93	546.56
341.158	527.56
341.386	524.56
341.614	521.56
341.842	502.56
342.07	521.56
342.298	506.56
342.526	532.56
342.754	480.56
342.981	492.56
343.209	487.56
343.437	510.56
343.665	486.56
343.893	523.56
344.12	548.56
344.348	527.56
344.576	510.56
344.804	510.56
345.031	503.56
345.259	509.56
345.487	482.56
345.714	457.56
345.942	470.56
346.17	480.56
346.397	500.56
346.625	481.56
346.853	476.56
347.08	472.56
347.308	463.56
347.535	478.56
347.763	477.56
347.99	479.56
348.218	471.56
348.445	478.56
348.673	460.56
348.9	500.56
349.128	523.56
349.355	531.56
349.583	503.56
349.81	466.56
350.037	452.56
350.265	434.56
350.492	445.56
350.72	452.56
350.947	475.56
351.174	481.56
351.402	467.56
351.629	449.56
351.856	431.56
352.083	441.56
352.311	448.56
352.538	467.56
352.765	496.56
352.992	502.56
353.22	469.56
353.447	478.56
353.674	465.56
353.901	472.56
354.128	468.56
354.355	458.56
354.583	508.56
354.81	498.56
355.037	478.56
355.264	510.56
355.491	481.56
355.718	480.56
355.945	478.56
356.172	454.56
356.399	479.56
356.626	482.56
356.853	514.56
357.08	545.56
357.307	579.56
357.534	531.56
357.761	487.56
357.988	483.56
358.215	451.56
358.441	454.56
358.668	452.56
358.895	458.56
359.122	519.56
359.349	532.56
359.576	520.56
359.802	476.56
360.029	481.56
360.256	460.56
360.483	492.56
360.709	512.56
360.936	512.56
361.163	519.56
361.39	595.56
361.616	606.56
361.843	582.56
362.07	524.56
362.296	498.56
362.523	478.56
362.749	473.56
362.976	479.56
363.203	509.56
363.429	493.56
363.656	470.56
363.882	508.56
364.109	585.56
364.335	572.56
364.562	531.56
364.788	517.56
365.015	482.56
365.241	478.56
365.468	478.56
365.694	502.56
365.92	528.56
366.147	509.56
366.373	505.56
366.599	493.56
366.826	478.56
367.052	469.56
367.278	490.56
367.505	507.56
367.731	538.56
367.957	515.56
368.184	546.56
368.41	569.56
368.636	574.56
368.862	583.56
369.089	585.56
369.315	554.56
369.541	511.56
369.767	509.56
369.993	511.56
370.219	507.56
370.445	533.56
370.672	571.56
370.898	578.56
371.124	581.56
371.35	538.56
371.576	574.56
371.802	576.56
372.028	540.56
372.254	519.56
372.48	537.56
372.706	518.56
372.932	518.56
373.158	517.56
373.384	540.56
373.61	552.56
373.835	564.56
374.061	532.56
374.287	539.56
374.513	552.56
374.739	561.56
374.965	558.56
375.191	562.56
375.416	565.56
375.642	567.56
375.868	600.56
376.094	630.56
376.319	579.56
376.545	559.56
376.771	592.56
376.997	591.56
377.222	624.56
377.448	599.56
377.674	562.56
377.899	619.56
378.125	608.56
378.35	588.56
378.576	531.56
378.802	516.56
379.027	526.56
379.253	543.56
379.478	556.56
379.704	532.56
379.929	570.56
380.155	568.56
380.38	558.56
380.606	579.56
380.831	567.56
381.057	618.56
381.282	597.56
381.507	596.56
381.733	630.56
381.958	640.56
382.184	596.56
382.409	587.56
382.634	598.56
382.86	579.56
383.085	570.56
383.31	612.56
383.535	668.56
383.761	700.56
383.986	645.56
384.211	636.56
384.436	654.56
384.662	696.56
384.887	670.56
385.112	606.56
385.337	629.56
385.562	632.56
385.787	641.56
386.013	660.56
386.238	644.56
386.463	652.56
386.688	726.56
386.913	717.56
387.138	703.56
387.363	663.56
387.588	661.56
387.813	671.56
388.038	694.56
388.263	722.56
388.488	653.56
388.713	622.56
388.938	626.56
389.163	648.56
389.387	619.56
389.612	640.56
389.837	680.56
390.062	674.56
390.287	668.56
390.512	657.56
390.736	647.56
390.961	616.56
391.186	640.56
391.411	642.56
391.636	659.56
391.86	660.56
392.085	676.56
392.31	668.56
392.534	668.56
392.759	656.56
392.984	677.56
393.208	680.56
393.433	718.56
393.658	714.56
393.882	707.56
394.107	676.56
394.331	687.56
394.556	676.56
394.78	688.56
395.005	668.56
395.229	740.56
395.454	751.56
395.678	746.56
395.903	723.56
396.127	698.56
396.352	725.56
396.576	754.56
396.801	720.56
397.025	730.56
397.249	731.56
397.474	727.56
397.698	709.56
397.922	765.56
398.147	778.56
398.371	787.56
398.595	748.56
398.82	761.56
399.044	759.56
399.268	806.56
399.492	849.56
399.717	868.56
399.941	887.56
400.165	867.56
400.389	848.56
400.613	862.56
400.837	955.56
401.062	1048.56
401.286	903.56
401.51	855.56
401.734	867.56
401.958	846.56
402.182	784.56
402.406	782.56
402.63	784.56
402.854	774.56
403.078	791.56
403.302	802.56
403.526	792.56
403.75	785.56
403.974	818.56
404.198	846.56
404.422	888.56
404.645	894.56
404.869	850.56
405.093	818.56
405.317	790.56
405.541	797.56
405.765	827.56
405.988	820.56
406.212	838.56
406.436	838.56
406.66	879.56
406.883	901.56
407.107	994.56
407.331	1067.56
407.555	1087.56
407.778	987.56
408.002	880.56
408.226	862.56
408.449	846.56
408.673	847.56
408.896	830.56
409.12	835.56
409.344	821.56
409.567	815.56
409.791	841.56
410.014	847.56
410.238	909.56
410.461	947.56
410.685	843.56
410.908	835.56
411.132	839.56
411.355	822.56
411.578	820.56
411.802	840.56
412.025	848.56
412.249	843.56
412.472	823.56
412.695	808.56
412.919	824.56
413.142	796.56
413.365	826.56
413.589	854.56
413.812	906.56
414.035	884.56
414.258	818.56
414.482	807.56
414.705	833.56
414.928	842.56
415.151	825.56
415.374	816.56
415.597	834.56
415.821	829.56
416.044	862.56
416.267	830.56
416.49	812.56
416.713	829.56
416.936	856.56
417.159	871.56
417.382	865.56
417.605	839.56
417.828	840.56
418.051	843.56
418.274	861.56
418.497	840.56
418.72	821.56
418.943	791.56
419.166	862.56
419.389	866.56
419.611	874.56
419.834	869.56
420.057	874.56
420.28	844.56
420.503	880.56
420.726	844.56
420.948	855.56
421.171	838.56
421.394	835.56
421.617	870.56
421.839	893.56
422.062	848.56
422.285	842.56
422.507	846.56
422.73	793.56
422.953	808.56
423.175	816.56
423.398	806.56
423.621	824.56
423.843	866.56
424.066	888.56
424.288	917.56
424.511	964.56
424.733	930.56
424.956	846.56
425.178	838.56
425.401	860.56
425.623	880.56
425.846	855.56
426.068	870.56
426.291	862.56
426.513	849.56
426.735	883.56
426.958	942.56
427.18	954.56
427.402	902.56
427.625	923.56
427.847	879.56
428.069	843.56
428.292	819.56
428.514	790.56
428.736	817.56
428.958	832.56
429.181	818.56
429.403	952.56
429.625	1054.56
429.847	933.56
430.069	858.56
430.292	935.56
430.514	905.56
430.736	883.56
430.958	882.56
431.18	832.56
431.402	799.56
431.624	738.56
431.846	709.56
432.068	615.56
432.29	646.56
432.512	691.56
432.734	794.56
432.956	818.56
433.178	868.56
433.4	856.56
433.622	862.56
433.844	790.56
434.066	748.56
434.287	710.56
434.509	669.56
434.731	738.56
434.953	814.56
435.175	819.56
435.397	826.56
435.618	781.56
435.84	736.56
436.062	732.56
436.284	818.56
436.505	807.56
436.727	883.56
436.949	845.56
437.17	812.56
437.392	802.56
437.614	772.56
437.835	726.56
438.057	730.56
438.278	754.56
438.5	784.56
438.721	800.56
438.943	839.56
439.165	862.56
439.386	859.56
439.608	863.56
439.829	865.56
440.05	885.56
440.272	861.56
440.493	882.56
440.715	900.56
440.936	918.56
441.158	942.56
441.379	966.56
441.6	925.56
441.822	908.56
442.043	908.56
442.264	891.56
442.486	887.56
442.707	868.56
442.928	867.56
443.149	893.56
443.371	931.56
443.592	899.56
443.813	907.56
444.034	911.56
444.255	921.56
444.476	930.56
444.698	958.56
444.919	948.56
445.14	1030.56
445.361	990.56
445.582	979.56
445.803	980.56
446.024	948.56
446.245	943.56
446.466	1005.56
446.687	978.56
446.908	966.56
447.129	924.56
447.35	912.56
447.571	922.56
447.792	855.56
448.013	872.56
448.234	870.56
448.455	897.56
448.675	898.56
448.896	851.56
449.117	848.56
449.338	841.56
449.559	859.56
449.779	895.56
450	914.56
450.221	946.56
450.442	906.56
450.662	848.56
450.883	778.56
451.104	792.56
451.324	803.56
451.545	797.56
451.766	803.56
451.986	742.56
452.207	737.56
452.428	744.56
452.648	704.56
452.869	700.56
453.089	708.56
453.31	697.56
453.53	673.56
453.751	642.56
453.971	602.56
454.192	660.56
454.412	683.56
454.633	681.56
454.853	712.56
455.073	695.56
455.294	698.56
455.514	700.56
455.734	706.56
455.955	685.56
456.175	660.56
456.395	650.56
456.616	641.56
456.836	644.56
457.056	653.56
457.276	640.56
457.497	633.56
457.717	615.56
457.937	626.56
458.157	614.56
458.377	609.56
458.598	597.56
458.818	590.56
459.038	613.56
459.258	589.56
459.478	625.56
459.698	619.56
459.918	625.56
460.138	674.56
460.358	736.56
460.578	737.56
460.798	727.56
461.018	759.56
461.238	782.56
461.458	762.56
461.678	726.56
461.898	700.56
462.118	717.56
462.338	736.56
462.558	748.56
462.777	737.56
462.997	743.56
463.217	779.56
463.437	778.56
463.657	741.56
463.876	733.56
464.096	723.56
464.316	751.56
464.536	779.56
464.755	770.56
464.975	775.56
465.195	768.56
465.414	791.56
465.634	791.56
465.854	783.56
466.073	835.56
466.293	835.56
466.512	768.56
466.732	780.56
466.951	838.56
467.171	808.56
467.391	786.56
467.61	801.56
467.829	812.56
468.049	907.56
468.268	917.56
468.488	876.56
468.707	826.56
468.927	836.56
469.146	807.56
469.365	830.56
469.585	852.56
469.804	827.56
470.023	859.56
470.243	862.56
470.462	831.56
470.681	812.56
470.901	859.56
471.12	850.56
471.339	863.56
471.558	863.56
471.777	825.56
471.997	827.56
472.216	760.56
472.435	687.56
472.654	662.56
472.873	683.56
473.092	735.56
473.311	735.56
473.53	726.56
473.749	747.56
473.968	762.56
474.187	781.56
474.406	780.56
474.625	772.56
474.844	792.56
475.063	786.56
475.282	790.56
475.501	740.56
475.72	763.56
475.939	792.56
476.158	808.56
476.377	782.56
476.596	764.56
476.814	714.56
477.033	710.56
477.252	747.56
477.471	760.56
477.69	811.56
477.908	875.56
478.127	888.56
478.346	894.56
478.564	906.56
478.783	896.56
479.002	920.56
479.22	938.56
479.439	929.56
479.658	933.56
479.876	852.56
480.095	784.56
480.313	748.56
480.532	760.56
480.751	750.56
480.969	707.56
481.188	675.56
481.406	645.56
481.624	638.56
481.843	661.56
482.061	724.56
482.28	765.56
482.498	773.56
482.717	748.56
482.935	790.56
483.153	871.56
483.372	925.56
483.59	934.56
483.808	881.56
484.027	836.56
484.245	900.56
484.463	1090.56
484.681	1171.56
484.9	917.56
485.118	851.56
485.336	823.56
485.554	774.56
485.772	762.56
485.99	736.56
486.209	783.56
486.427	794.56
486.645	836.56
486.863	901.56
487.081	913.56
487.299	868.56
487.517	883.56
487.735	1024.56
487.953	1130.56
488.171	1071.56
488.389	1007.56
488.607	990.56
488.825	1036.56
489.043	914.56
489.261	878.56
489.479	935.56
489.696	942.56
489.914	915.56
490.132	953.56
490.35	1010.56
490.568	1058.56
490.786	1100.56
491.003	1074.56
491.221	1154.56
491.439	1205.56
491.657	1207.56
491.874	1248.56
492.092	1338.56
492.31	1413.56
492.527	1386.56
492.745	1321.56
492.963	1208.56
493.18	1218.56
493.398	1234.56
493.615	1258.56
493.833	1196.56
494.05	1151.56
494.268	1130.56
494.485	1144.56
494.703	1137.56
494.92	1158.56
495.138	1150.56
495.355	1146.56
495.573	1154.56
495.79	1154.56
496.008	1190.56
496.225	1164.56
496.442	1137.56
496.66	1128.56
496.877	1082.56
497.094	1124.56
497.312	1120.56
497.529	1104.56
497.746	1060.56
497.963	1131.56
498.181	1134.56
498.398	1108.56
498.615	1067.56
498.832	1030.56
499.049	1013.56
499.267	1005.56
499.484	1077.56
499.701	1179.56
499.918	1230.56
500.135	1311.56
500.352	1346.56
500.569	1396.56
500.786	1528.56
501.003	1354.56
501.22	1271.56
501.437	1230.56
501.654	1244.56
501.871	1190.56
502.088	1089.56
502.305	1063.56
502.522	1022.56
502.739	975.56
502.956	926.56
503.172	924.56
503.389	884.56
503.606	838.56
503.823	853.56
504.04	878.56
504.256	872.56
504.473	871.56
504.69	875.56
504.907	852.56
505.123	854.56
505.34	931.56
505.557	1157.56
505.773	980.56
505.99	836.56
506.207	780.56
506.423	806.56
506.64	778.56
506.856	787.56
507.073	900.56
507.289	958.56
507.506	888.56
507.722	778.56
507.939	741.56
508.155	732.56
508.372	723.56
508.588	717.56
508.805	707.56
509.021	702.56
509.238	688.56
509.454	663.56
509.67	653.56
509.887	625.56
510.103	648.56
510.319	659.56
510.536	662.56
510.752	660.56
510.968	638.56
511.184	671.56
511.401	647.56
511.617	614.56
511.833	596.56
512.049	591.56
512.265	619.56
512.481	647.56
512.698	636.56
512.914	634.56
513.13	642.56
513.346	614.56
513.562	600.56
513.778	625.56
513.994	624.56
514.21	639.56
514.426	684.56
514.642	731.56
514.858	700.56
515.074	608.56
515.29	604.56
515.506	638.56
515.721	640.56
515.937	635.56
516.153	691.56
516.369	655.56
516.585	627.56
516.801	640.56
517.016	628.56
517.232	647.56
517.448	647.56
517.664	678.56
517.879	677.56
518.095	679.56
518.311	670.56
518.527	666.56
518.742	654.56
518.958	623.56
519.173	684.56
519.389	689.56
519.605	684.56
519.82	707.56
520.036	684.56
520.251	668.56
520.467	666.56
520.682	692.56
520.898	676.56
521.113	626.56
521.329	603.56
521.544	648.56
521.76	648.56
521.975	638.56
522.19	607.56
522.406	648.56
522.621	796.56
522.836	754.56
523.052	652.56
523.267	664.56
523.482	687.56
523.698	660.56
523.913	661.56
524.128	699.56
524.343	699.56
524.559	738.56
524.774	679.56
524.989	673.56
525.204	676.56
525.419	668.56
525.634	656.56
525.849	636.56
526.064	635.56
526.28	607.56
526.495	562.56
526.71	565.56
526.925	529.56
527.14	537.56
527.355	555.56
527.57	545.56
527.785	564.56
527.999	567.56
528.214	585.56
528.429	627.56
528.644	670.56
528.859	716.56
529.074	741.56
529.289	766.56
529.503	783.56
529.718	728.56
529.933	661.56
530.148	580.56
530.363	558.56
530.577	524.56
530.792	567.56
531.007	545.56
531.221	536.56
531.436	546.56
531.651	567.56
531.865	559.56
532.08	561.56
532.295	541.56
532.509	524.56
532.724	532.56
532.938	566.56
533.153	597.56
533.367	627.56
533.582	670.56
533.796	659.56
534.011	646.56
534.225	597.56
534.44	571.56
534.654	559.56
534.868	563.56
535.083	575.56
535.297	623.56
535.511	604.56
535.726	594.56
535.94	597.56
536.154	573.56
536.369	538.56
536.583	515.56
536.797	530.56
537.011	535.56
537.225	514.56
537.44	520.56
537.654	575.56
537.868	549.56
538.082	524.56
538.296	538.56
538.51	546.56
538.724	574.56
538.938	635.56
539.153	666.56
539.367	663.56
539.581	618.56
539.795	595.56
540.009	570.56
540.222	560.56
540.436	588.56
540.65	670.56
540.864	715.56
541.078	737.56
541.292	780.56
541.506	823.56
541.72	889.56
541.934	972.56
542.147	1000.56
542.361	960.56
542.575	858.56
542.789	775.56
543.002	718.56
543.216	667.56
543.43	679.56
543.644	734.56
543.857	805.56
544.071	826.56
544.285	896.56
544.498	879.56
544.712	876.56
544.925	919.56
545.139	899.56
545.352	885.56
545.566	848.56
545.779	867.56
545.993	894.56
546.206	904.56
546.42	904.56
546.633	881.56
546.847	886.56
547.06	891.56
547.274	915.56
547.487	924.56
547.7	941.56
547.914	941.56
548.127	917.56
548.34	906.56
548.554	876.56
548.767	861.56
548.98	869.56
549.193	859.56
549.407	934.56
549.62	896.56
549.833	882.56
550.046	841.56
550.259	872.56
550.473	854.56
550.686	834.56
550.899	817.56
551.112	826.56
551.325	772.56
551.538	774.56
551.751	790.56
551.964	634.56
552.177	646.56
552.39	726.56
552.603	784.56
552.816	810.56
553.029	840.56
553.242	858.56
553.455	854.56
553.667	879.56
553.88	859.56
554.093	822.56
554.306	820.56
554.519	793.56
554.732	758.56
554.944	786.56
555.157	771.56
555.37	765.56
555.583	737.56
555.795	735.56
556.008	692.56
556.221	674.56
556.433	673.56
556.646	695.56
556.859	691.56
557.071	669.56
557.284	683.56
557.496	722.56
557.709	714.56
557.921	677.56
558.134	688.56
558.346	690.56
558.559	664.56
558.771	649.56
558.984	631.56
559.196	630.56
559.409	625.56
559.621	628.56
559.833	592.56
560.046	626.56
560.258	588.56
560.47	626.56
560.683	639.56
560.895	631.56
561.107	627.56
561.32	610.56
561.532	632.56
561.744	633.56
561.956	624.56
562.168	615.56
562.381	586.56
562.593	603.56
562.805	597.56
563.017	581.56
563.229	596.56
563.441	592.56
563.653	590.56
563.865	565.56
564.077	565.56
564.289	554.56
564.501	570.56
564.713	576.56
564.925	595.56
565.137	575.56
565.349	568.56
565.561	592.56
565.773	569.56
565.985	573.56
566.197	600.56
566.408	613.56
566.62	596.56
566.832	622.56
567.044	616.56
567.255	599.56
567.467	590.56
567.679	579.56
567.891	576.56
568.102	567.56
568.314	479.56
568.526	488.56
568.737	458.56
568.949	414.56
569.161	404.56
569.372	387.56
569.584	389.56
569.795	398.56
570.007	395.56
570.218	376.56
570.43	392.56
570.641	403.56
570.853	412.56
571.064	446.56
571.276	420.56
571.487	437.56
571.698	422.56
571.91	414.56
572.121	411.56
572.333	402.56
572.544	381.56
572.755	374.56
572.966	367.56
573.178	337.56
573.389	337.56
573.6	361.56
573.811	391.56
574.023	354.56
574.234	351.56
574.445	352.56
574.656	341.56
574.867	336.56
575.078	348.56
575.289	349.56
575.501	325.56
575.712	330.56
575.923	327.56
576.134	346.56
576.345	374.56
576.556	384.56
576.767	359.56
576.978	332.56
577.188	348.56
577.399	341.56
577.61	334.56
577.821	347.56
578.032	320.56
578.243	328.56
578.454	338.56
578.665	309.56
578.875	312.56
579.086	322.56
579.297	287.56
579.508	302.56
579.718	314.56
579.929	309.56
580.14	313.56
580.35	314.56
580.561	316.56
580.772	334.56
580.982	328.56
581.193	302.56
581.403	309.56
581.614	295.56
581.825	318.56
582.035	300.56
582.246	314.56
582.456	307.56
582.667	293.56
582.877	300.56
583.087	301.56
583.298	289.56
583.508	282.56
583.719	280.56
583.929	294.56
584.139	278.56
584.35	268.56
584.56	287.56
584.77	291.56
584.981	298.56
585.191	301.56
585.401	312.56
585.611	287.56
585.821	245.56
586.032	287.56
586.242	267.56
586.452	299.56
586.662	295.56
586.872	286.56
587.082	278.56
587.292	264.56
587.502	287.56
587.713	273.56
587.923	258.56
588.133	283.56
588.343	278.56
588.553	252.56
588.762	284.56
588.972	285.56
589.182	290.56
589.392	272.56
589.602	273.56
589.812	275.56
590.022	284.56
590.232	286.56
590.441	279.56
590.651	278.56
590.861	262.56
591.071	279.56
591.281	269.56
591.49	251.56
591.7	263.56
591.91	283.56
592.119	279.56
592.329	287.56
592.539	279.56
592.748	277.56
592.958	289.56
593.167	272.56
593.377	276.56
593.587	277.56
593.796	281.56
594.006	280.56
594.215	285.56
594.424	295.56
594.634	309.56
594.843	310.56
595.053	316.56
595.262	305.56
595.472	279.56
595.681	298.56
595.89	283.56
596.1	268.56
596.309	293.56
596.518	293.56
596.727	305.56
596.937	292.56
597.146	272.56
597.355	284.56
597.564	272.56
597.774	270.56
597.983	264.56
598.192	266.56
598.401	249.56
598.61	253.56
598.819	271.56
599.028	267.56
599.237	283.56
599.446	253.56
599.655	269.56
599.864	261.56
600.073	246.56
600.282	263.56
600.491	250.56
600.7	268.56
600.909	277.56
601.118	298.56
601.327	295.56
601.536	341.56
601.745	327.56
601.953	315.56
602.162	309.56
602.371	331.56
602.58	328.56
602.789	332.56
602.997	326.56
603.206	317.56
603.415	317.56
603.623	326.56
603.832	315.56
604.041	303.56
604.249	300.56
604.458	275.56
604.666	274.56
604.875	292.56
605.084	297.56
605.292	305.56
605.501	319.56
605.709	328.56
605.918	320.56
606.126	338.56
606.334	323.56
606.543	332.56
606.751	336.56
606.96	333.56
607.168	324.56
607.376	329.56
607.585	324.56
607.793	337.56
608.001	322.56
608.21	335.56
608.418	328.56
608.626	344.56
608.834	334.56
609.043	336.56
609.251	330.56
609.459	328.56
609.667	340.56
609.875	374.56
610.083	347.56
610.291	348.56
610.499	349.56
610.707	344.56
610.916	350.56
611.124	346.56
611.332	338.56
611.54	335.56
611.748	359.56
611.955	371.56
612.163	356.56
612.371	347.56
612.579	334.56
612.787	347.56
612.995	353.56
613.203	341.56
613.411	323.56
613.618	354.56
613.826	355.56
614.034	330.56
614.242	339.56
614.449	332.56
614.657	335.56
614.865	340.56
615.072	322.56
615.28	344.56
615.488	356.56
615.695	334.56
615.903	343.56
616.111	341.56
616.318	322.56
616.526	344.56
616.733	354.56
616.941	332.56
617.148	341.56
617.356	334.56
617.563	321.56
617.771	300.56
617.978	313.56
618.185	307.56
618.393	312.56
618.6	333.56
618.807	351.56
619.015	339.56
619.222	311.56
619.429	325.56
619.637	294.56
619.844	282.56
620.051	286.56
620.258	303.56
620.466	312.56
620.673	299.56
620.88	292.56
621.087	306.56
621.294	289.56
621.501	290.56
621.708	293.56
621.915	291.56
622.122	290.56
622.329	310.56
622.536	306.56
622.743	318.56
622.95	303.56
623.157	304.56
623.364	310.56
623.571	324.56
623.778	301.56
623.985	300.56
624.192	305.56
624.399	309.56
624.606	300.56
624.812	296.56
625.019	280.56
625.226	286.56
625.433	265.56
625.639	258.56
625.846	242.56
626.053	234.56
626.259	228.56
626.466	215.56
626.673	235.56
626.879	219.56
627.086	220.56
627.293	267.56
627.499	271.56
627.706	261.56
627.912	289.56
628.119	307.56
628.325	301.56
628.532	284.56
628.738	274.56
628.945	277.56
629.151	285.56
629.357	274.56
629.564	290.56
629.77	280.56
629.976	278.56
630.183	240.56
630.389	256.56
630.595	251.56
630.802	256.56
631.008	267.56
631.214	272.56
631.42	255.56
631.627	243.56
631.833	231.56
632.039	243.56
632.245	243.56
632.451	258.56
632.657	250.56
632.863	269.56
633.069	242.56
633.275	241.56
633.481	237.56
633.688	250.56
633.893	245.56
634.099	250.56
634.305	257.56
634.511	242.56
634.717	224.56
634.923	200.56
635.129	213.56
635.335	224.56
635.541	218.56
635.747	226.56
635.952	244.56
636.158	235.56
636.364	250.56
636.57	259.56
636.775	237.56
636.981	260.56
637.187	254.56
637.392	237.56
637.598	231.56
637.804	254.56
638.009	255.56
638.215	249.56
638.421	237.56
638.626	255.56
638.832	235.56
639.037	236.56
639.243	237.56
639.448	222.56
639.654	221.56
639.859	228.56
640.065	221.56
640.27	252.56
640.475	234.56
640.681	239.56
640.886	234.56
641.091	226.56
641.297	240.56
641.502	234.56
641.707	233.56
641.913	241.56
642.118	253.56
642.323	214.56
642.528	234.56
642.733	244.56
642.939	232.56
643.144	246.56
643.349	227.56
643.554	234.56
643.759	232.56
643.964	217.56
644.169	222.56
644.374	210.56
644.579	234.56
644.784	239.56
644.989	241.56
645.194	227.56
645.399	231.56
645.604	211.56
645.809	236.56
646.014	215.56
646.219	241.56
646.423	254.56
646.628	236.56
646.833	231.56
647.038	227.56
647.243	219.56
647.447	223.56
647.652	229.56
647.857	234.56
648.062	223.56
648.266	238.56
648.471	214.56
648.676	237.56
648.88	248.56
649.085	218.56
649.289	208.56
649.494	241.56
649.698	225.56
649.903	216.56
650.107	212.56
650.312	212.56
650.516	224.56
650.721	209.56
650.925	219.56
651.13	204.56
651.334	231.56
651.539	218.56
651.743	208.56
651.947	219.56
652.152	230.56
652.356	204.56
652.56	209.56
652.764	212.56
652.969	211.56
653.173	199.56
653.377	197.56
653.581	204.56
653.785	195.56
653.99	189.56
654.194	196.56
654.398	196.56
654.602	190.56
654.806	185.56
655.01	183.56
655.214	194.56
655.418	177.56
655.622	208.56
655.826	193.56
656.03	183.56
656.234	203.56
656.438	200.56
656.642	213.56
656.846	200.56
657.049	210.56
657.253	180.56
657.457	162.56
657.661	160.56
657.865	164.56
658.068	175.56
658.272	162.56
658.476	145.56
658.68	143.56
658.883	137.56
659.087	126.56
659.291	120.56
659.494	141.56
659.698	122.56
659.901	114.56
660.105	129.56
660.309	125.56
660.512	119.56
660.716	118.56
660.919	100.56
661.123	117.56
661.326	90.56
661.53	106.56
661.733	110.56
661.936	93.56
662.14	103.56
662.343	94.56
662.546	102.56
662.75	93.56
662.953	99.56
663.156	86.56
663.36	87.56
663.563	83.56
663.766	75.56
663.969	81.56
664.173	98.56
664.376	80.56
664.579	77.56
664.782	86.56
664.985	71.56
665.188	79.56
665.391	70.56
665.594	86.56
665.797	73.56
666	69.56
666.203	73.56
666.406	82.56
666.609	62.56
666.812	84.56
667.015	68.56
667.218	79.56
667.421	94.56
667.624	81.56
667.827	74.56
668.03	91.56
668.232	69.56
668.435	71.56
668.638	83.56
668.841	94.56
669.043	77.56
669.246	101.56
669.449	74.56
669.651	80.56
669.854	71.56
670.057	82.56
670.259	75.56
670.462	82.56
670.665	89.56
670.867	82.56
671.07	69.56
671.272	90.56
671.475	92.56
671.677	77.56
671.88	82.56
672.082	65.56
672.284	87.56
672.487	75.56
672.689	83.56
672.892	90.56
