Data from WStandard_LampEnergy8_LIBS07252019.E.O._I.C._HRD10591_15-57-42-929.txt Node
Date: Thu Jul 25 15:57:42 EDT 2019
User: cochatt
Spectrometer: HR+D1059
Trigger mode: 1
Integration Time (sec): 1.000000E-1
Scans to average: 1
Electric dark correction enabled: true
Nonlinearity correction enabled: false
Boxcar width: 0
XAxis mode: Wavelengths
Number of Pixels in Spectrum: 2048
>>>>>Begin Spectral Data<<<<<
223.165	-2.25
223.4	-2.25
223.635	-2.25
223.869	-20.25
224.104	-28.25
224.338	-9.25
224.573	-21.25
224.808	-4.25
225.042	-3.25
225.277	-11.25
225.511	-1.25
225.746	2.75
225.98	3.75
226.215	9.75
226.449	3.75
226.683	20.75
226.918	37.75
227.152	22.75
227.387	40.75
227.621	33.75
227.856	37.75
228.09	49.75
228.324	43.75
228.559	60.75
228.793	90.75
229.027	219.75
229.262	207.75
229.496	212.75
229.73	232.75
229.964	246.75
230.199	263.75
230.433	265.75
230.667	285.75
230.901	306.75
231.136	274.75
231.37	265.75
231.604	258.75
231.838	272.75
232.072	272.75
232.306	275.75
232.541	272.75
232.775	323.75
233.009	349.75
233.243	329.75
233.477	293.75
233.711	311.75
233.945	324.75
234.179	336.75
234.413	331.75
234.647	347.75
234.881	336.75
235.115	296.75
235.349	303.75
235.583	318.75
235.817	306.75
236.051	324.75
236.285	328.75
236.519	328.75
236.753	356.75
236.987	384.75
237.221	376.75
237.455	426.75
237.689	379.75
237.922	380.75
238.156	352.75
238.39	392.75
238.624	394.75
238.858	411.75
239.091	406.75
239.325	447.75
239.559	520.75
239.793	512.75
240.027	527.75
240.26	517.75
240.494	400.75
240.728	396.75
240.961	415.75
241.195	430.75
241.429	450.75
241.662	427.75
241.896	417.75
242.13	423.75
242.363	453.75
242.597	489.75
242.83	468.75
243.064	474.75
243.298	468.75
243.531	488.75
243.765	511.75
243.998	480.75
244.232	436.75
244.465	408.75
244.699	453.75
244.932	482.75
245.166	544.75
245.399	519.75
245.633	485.75
245.866	484.75
246.099	488.75
246.333	522.75
246.566	521.75
246.8	586.75
247.033	616.75
247.266	570.75
247.5	578.75
247.733	550.75
247.966	615.75
248.2	624.75
248.433	650.75
248.666	653.75
248.899	744.75
249.133	809.75
249.366	882.75
249.599	733.75
249.832	658.75
250.066	686.75
250.299	675.75
250.532	627.75
250.765	583.75
250.998	620.75
251.231	632.75
251.465	634.75
251.698	603.75
251.931	631.75
252.164	664.75
252.397	675.75
252.63	645.75
252.863	590.75
253.096	566.75
253.329	617.75
253.562	604.75
253.795	648.75
254.028	668.75
254.261	610.75
254.494	608.75
254.727	598.75
254.96	616.75
255.193	677.75
255.426	760.75
255.659	842.75
255.892	842.75
256.124	725.75
256.357	704.75
256.59	727.75
256.823	762.75
257.056	743.75
257.289	884.75
257.521	942.75
257.754	867.75
257.987	845.75
258.22	910.75
258.452	879.75
258.685	745.75
258.918	715.75
259.151	703.75
259.383	687.75
259.616	619.75
259.849	660.75
260.081	734.75
260.314	836.75
260.547	866.75
260.779	871.75
261.012	818.75
261.244	734.75
261.477	722.75
261.71	755.75
261.942	733.75
262.175	695.75
262.407	743.75
262.64	729.75
262.872	691.75
263.105	664.75
263.337	670.75
263.57	696.75
263.802	660.75
264.035	634.75
264.267	599.75
264.499	615.75
264.732	636.75
264.964	699.75
265.197	731.75
265.429	780.75
265.661	868.75
265.894	896.75
266.126	921.75
266.358	809.75
266.591	874.75
266.823	943.75
267.055	832.75
267.287	836.75
267.52	815.75
267.752	777.75
267.984	843.75
268.216	870.75
268.448	874.75
268.681	840.75
268.913	767.75
269.145	737.75
269.377	719.75
269.609	784.75
269.841	908.75
270.073	1091.75
270.306	1194.75
270.538	1216.75
270.77	1019.75
271.002	932.75
271.234	873.75
271.466	902.75
271.698	1019.75
271.93	1119.75
272.162	1124.75
272.394	1048.75
272.626	953.75
272.858	829.75
273.09	750.75
273.322	770.75
273.553	704.75
273.785	716.75
274.017	751.75
274.249	801.75
274.481	834.75
274.713	752.75
274.945	741.75
275.176	722.75
275.408	710.75
275.64	719.75
275.872	736.75
276.104	782.75
276.335	859.75
276.567	984.75
276.799	955.75
277.031	877.75
277.262	867.75
277.494	873.75
277.726	962.75
277.957	943.75
278.189	851.75
278.421	794.75
278.652	764.75
278.884	771.75
279.115	759.75
279.347	802.75
279.579	767.75
279.81	756.75
280.042	872.75
280.273	957.75
280.505	896.75
280.736	936.75
280.968	876.75
281.199	775.75
281.431	742.75
281.662	760.75
281.894	754.75
282.125	780.75
282.356	777.75
282.588	800.75
282.819	816.75
283.051	885.75
283.282	948.75
283.513	864.75
283.745	822.75
283.976	747.75
284.207	766.75
284.439	761.75
284.67	789.75
284.901	822.75
285.132	830.75
285.364	824.75
285.595	820.75
285.826	793.75
286.057	794.75
286.288	798.75
286.52	842.75
286.751	871.75
286.982	906.75
287.213	802.75
287.444	776.75
287.675	794.75
287.906	841.75
288.138	888.75
288.369	848.75
288.6	808.75
288.831	764.75
289.062	730.75
289.293	805.75
289.524	821.75
289.755	828.75
289.986	800.75
290.217	750.75
290.448	792.75
290.679	801.75
290.91	836.75
291.141	856.75
291.371	896.75
291.602	881.75
291.833	858.75
292.064	901.75
292.295	856.75
292.526	896.75
292.757	934.75
292.987	847.75
293.218	858.75
293.449	910.75
293.68	1030.75
293.91	1067.75
294.141	1010.75
294.372	939.75
294.603	981.75
294.833	1006.75
295.064	954.75
295.295	861.75
295.525	863.75
295.756	796.75
295.987	774.75
296.217	801.75
296.448	804.75
296.679	784.75
296.909	798.75
297.14	792.75
297.37	850.75
297.601	891.75
297.831	930.75
298.062	901.75
298.292	826.75
298.523	792.75
298.753	819.75
298.984	810.75
299.214	852.75
299.445	868.75
299.675	871.75
299.905	857.75
300.136	859.75
300.366	818.75
300.597	794.75
300.827	810.75
301.057	834.75
301.288	902.75
301.518	886.75
301.748	912.75
301.979	948.75
302.209	987.75
302.439	1018.75
302.669	1092.75
302.9	953.75
303.13	884.75
303.36	900.75
303.59	914.75
303.82	889.75
304.051	891.75
304.281	898.75
304.511	942.75
304.741	992.75
304.971	1080.75
305.201	1115.75
305.431	1028.75
305.661	838.75
305.891	773.75
306.121	795.75
306.352	826.75
306.582	869.75
306.812	973.75
307.042	1016.75
307.272	985.75
307.502	1050.75
307.731	1116.75
307.961	1139.75
308.191	1030.75
308.421	928.75
308.651	879.75
308.881	850.75
309.111	871.75
309.341	870.75
309.571	878.75
309.8	849.75
310.03	851.75
310.26	831.75
310.49	853.75
310.72	894.75
310.949	912.75
311.179	904.75
311.409	897.75
311.639	874.75
311.868	860.75
312.098	870.75
312.328	889.75
312.557	886.75
312.787	923.75
313.017	911.75
313.246	893.75
313.476	899.75
313.706	943.75
313.935	912.75
314.165	921.75
314.394	973.75
314.624	1048.75
314.853	1093.75
315.083	1113.75
315.312	1113.75
315.542	1049.75
315.771	921.75
316.001	951.75
316.23	1012.75
316.46	1002.75
316.689	956.75
316.919	895.75
317.148	909.75
317.377	904.75
317.607	995.75
317.836	1100.75
318.065	1129.75
318.295	1073.75
318.524	1038.75
318.753	1016.75
318.983	968.75
319.212	981.75
319.441	941.75
319.67	940.75
319.9	960.75
320.129	1031.75
320.358	1055.75
320.587	1062.75
320.816	1084.75
321.046	1047.75
321.275	1010.75
321.504	1035.75
321.733	1092.75
321.962	1042.75
322.191	962.75
322.42	957.75
322.649	957.75
322.878	942.75
323.108	960.75
323.337	1000.75
323.566	1015.75
323.795	976.75
324.024	984.75
324.253	969.75
324.482	990.75
324.71	914.75
324.939	895.75
325.168	950.75
325.397	954.75
325.626	990.75
325.855	976.75
326.084	939.75
326.313	940.75
326.542	976.75
326.77	1001.75
326.999	993.75
327.228	958.75
327.457	892.75
327.686	895.75
327.914	933.75
328.143	980.75
328.372	950.75
328.6	955.75
328.829	928.75
329.058	948.75
329.287	954.75
329.515	968.75
329.744	992.75
329.972	1044.75
330.201	1074.75
330.43	1072.75
330.658	1008.75
330.887	1037.75
331.115	1034.75
331.344	1020.75
331.572	991.75
331.801	1019.75
332.03	997.75
332.258	1028.75
332.486	1032.75
332.715	1049.75
332.943	1019.75
333.172	1040.75
333.4	1036.75
333.629	1040.75
333.857	1115.75
334.085	1274.75
334.314	1426.75
334.542	1458.75
334.771	1348.75
334.999	1178.75
335.227	1113.75
335.455	1091.75
335.684	1079.75
335.912	1122.75
336.14	1154.75
336.369	1110.75
336.597	1014.75
336.825	1023.75
337.053	1080.75
337.281	1144.75
337.51	1193.75
337.738	1233.75
337.966	1135.75
338.194	1018.75
338.422	1006.75
338.65	1006.75
338.878	1015.75
339.106	985.75
339.334	954.75
339.562	966.75
339.79	986.75
340.018	1073.75
340.246	1106.75
340.474	1050.75
340.702	1073.75
340.93	1056.75
341.158	1035.75
341.386	1027.75
341.614	1020.75
341.842	1012.75
342.07	1024.75
342.298	1039.75
342.526	1024.75
342.754	991.75
342.981	998.75
343.209	1010.75
343.437	991.75
343.665	1006.75
343.893	1030.75
344.12	1101.75
344.348	1086.75
344.576	1054.75
344.804	996.75
345.031	987.75
345.259	992.75
345.487	978.75
345.714	936.75
345.942	914.75
346.17	953.75
346.397	948.75
346.625	980.75
346.853	919.75
347.08	908.75
347.308	923.75
347.535	960.75
347.763	1000.75
347.99	947.75
348.218	935.75
348.445	948.75
348.673	952.75
348.9	985.75
349.128	1035.75
349.355	1021.75
349.583	1016.75
349.81	962.75
350.037	914.75
350.265	895.75
350.492	882.75
350.72	915.75
350.947	998.75
351.174	1003.75
351.402	911.75
351.629	888.75
351.856	861.75
352.083	884.75
352.311	878.75
352.538	929.75
352.765	971.75
352.992	969.75
353.22	957.75
353.447	941.75
353.674	931.75
353.901	949.75
354.128	920.75
354.355	942.75
354.583	949.75
354.81	983.75
355.037	995.75
355.264	986.75
355.491	964.75
355.718	957.75
355.945	955.75
356.172	905.75
356.399	911.75
356.626	904.75
356.853	997.75
357.08	1082.75
357.307	1146.75
357.534	1133.75
357.761	981.75
357.988	906.75
358.215	891.75
358.441	907.75
358.668	899.75
358.895	945.75
359.122	986.75
359.349	1061.75
359.576	1054.75
359.802	950.75
360.029	921.75
360.256	922.75
360.483	931.75
360.709	980.75
360.936	1013.75
361.163	1044.75
361.39	1183.75
361.616	1191.75
361.843	1165.75
362.07	1065.75
362.296	958.75
362.523	916.75
362.749	978.75
362.976	944.75
363.203	990.75
363.429	952.75
363.656	938.75
363.882	962.75
364.109	1103.75
364.335	1150.75
364.562	1049.75
364.788	1010.75
365.015	971.75
365.241	934.75
365.468	949.75
365.694	1003.75
365.92	1048.75
366.147	974.75
366.373	894.75
366.599	928.75
366.826	950.75
367.052	938.75
367.278	915.75
367.505	939.75
367.731	989.75
367.957	999.75
368.184	1013.75
368.41	1050.75
368.636	1114.75
368.862	1084.75
369.089	1071.75
369.315	1042.75
369.541	991.75
369.767	985.75
369.993	944.75
370.219	940.75
370.445	993.75
370.672	1080.75
370.898	1089.75
371.124	1051.75
371.35	987.75
371.576	1058.75
371.802	1085.75
372.028	1008.75
372.254	971.75
372.48	938.75
372.706	922.75
372.932	964.75
373.158	965.75
373.384	989.75
373.61	1051.75
373.835	1067.75
374.061	1010.75
374.287	1025.75
374.513	1042.75
374.739	1017.75
374.965	1006.75
375.191	1022.75
375.416	1020.75
375.642	1061.75
375.868	1129.75
376.094	1152.75
376.319	1091.75
376.545	1001.75
376.771	1057.75
376.997	1088.75
377.222	1070.75
377.448	1057.75
377.674	1072.75
377.899	1104.75
378.125	1137.75
378.35	1115.75
378.576	1019.75
378.802	962.75
379.027	972.75
379.253	979.75
379.478	1040.75
379.704	996.75
379.929	960.75
380.155	992.75
380.38	1039.75
380.606	1040.75
380.831	1058.75
381.057	1093.75
381.282	1099.75
381.507	1076.75
381.733	1183.75
381.958	1186.75
382.184	1063.75
382.409	1038.75
382.634	1074.75
382.86	1042.75
383.085	1078.75
383.31	1099.75
383.535	1225.75
383.761	1212.75
383.986	1187.75
384.211	1147.75
384.436	1138.75
384.662	1224.75
384.887	1258.75
385.112	1162.75
385.337	1196.75
385.562	1159.75
385.787	1148.75
386.013	1191.75
386.238	1193.75
386.463	1155.75
386.688	1330.75
386.913	1340.75
387.138	1250.75
387.363	1214.75
387.588	1203.75
387.813	1179.75
388.038	1175.75
388.263	1228.75
388.488	1178.75
388.713	1114.75
388.938	1111.75
389.163	1106.75
389.387	1150.75
389.612	1140.75
389.837	1158.75
390.062	1161.75
390.287	1150.75
390.512	1147.75
390.736	1133.75
390.961	1110.75
391.186	1076.75
391.411	1099.75
391.636	1114.75
391.86	1143.75
392.085	1127.75
392.31	1129.75
392.534	1154.75
392.759	1166.75
392.984	1149.75
393.208	1209.75
393.433	1215.75
393.658	1256.75
393.882	1239.75
394.107	1212.75
394.331	1138.75
394.556	1147.75
394.78	1158.75
395.005	1212.75
395.229	1283.75
395.454	1358.75
395.678	1321.75
395.903	1255.75
396.127	1200.75
396.352	1215.75
396.576	1271.75
396.801	1287.75
397.025	1314.75
397.249	1265.75
397.474	1249.75
397.698	1246.75
397.922	1296.75
398.147	1365.75
398.371	1402.75
398.595	1364.75
398.82	1310.75
399.044	1345.75
399.268	1403.75
399.492	1478.75
399.717	1503.75
399.941	1523.75
400.165	1481.75
400.389	1482.75
400.613	1455.75
400.837	1705.75
401.062	1844.75
401.286	1600.75
401.51	1478.75
401.734	1500.75
401.958	1470.75
402.182	1352.75
402.406	1317.75
402.63	1252.75
402.854	1310.75
403.078	1303.75
403.302	1361.75
403.526	1369.75
403.75	1379.75
403.974	1396.75
404.198	1392.75
404.422	1460.75
404.645	1513.75
404.869	1449.75
405.093	1330.75
405.317	1316.75
405.541	1363.75
405.765	1376.75
405.988	1383.75
406.212	1371.75
406.436	1418.75
406.66	1474.75
406.883	1475.75
407.107	1738.75
407.331	1884.75
407.555	1988.75
407.778	1694.75
408.002	1458.75
408.226	1443.75
408.449	1459.75
408.673	1393.75
408.896	1394.75
409.12	1443.75
409.344	1365.75
409.567	1326.75
409.791	1392.75
410.014	1428.75
410.238	1483.75
410.461	1554.75
410.685	1393.75
410.908	1354.75
411.132	1382.75
411.355	1361.75
411.578	1350.75
411.802	1391.75
412.025	1391.75
412.249	1352.75
412.472	1303.75
412.695	1297.75
412.919	1309.75
413.142	1316.75
413.365	1341.75
413.589	1384.75
413.812	1439.75
414.035	1488.75
414.258	1350.75
414.482	1330.75
414.705	1340.75
414.928	1331.75
415.151	1301.75
415.374	1301.75
415.597	1381.75
415.821	1342.75
416.044	1386.75
416.267	1343.75
416.49	1286.75
416.713	1271.75
416.936	1332.75
417.159	1406.75
417.382	1423.75
417.605	1323.75
417.828	1332.75
418.051	1355.75
418.274	1354.75
418.497	1271.75
418.72	1290.75
418.943	1275.75
419.166	1349.75
419.389	1346.75
419.611	1330.75
419.834	1289.75
420.057	1331.75
420.28	1326.75
420.503	1305.75
420.726	1347.75
420.948	1355.75
421.171	1313.75
421.394	1330.75
421.617	1386.75
421.839	1348.75
422.062	1332.75
422.285	1303.75
422.507	1299.75
422.73	1232.75
422.953	1227.75
423.175	1219.75
423.398	1303.75
423.621	1309.75
423.843	1288.75
424.066	1311.75
424.288	1416.75
424.511	1451.75
424.733	1399.75
424.956	1268.75
425.178	1279.75
425.401	1297.75
425.623	1271.75
425.846	1300.75
426.068	1393.75
426.291	1364.75
426.513	1340.75
426.735	1340.75
426.958	1496.75
427.18	1532.75
427.402	1402.75
427.625	1441.75
427.847	1402.75
428.069	1317.75
428.292	1298.75
428.514	1252.75
428.736	1267.75
428.958	1278.75
429.181	1275.75
429.403	1520.75
429.625	1816.75
429.847	1504.75
430.069	1326.75
430.292	1478.75
430.514	1475.75
430.736	1401.75
430.958	1415.75
431.18	1327.75
431.402	1279.75
431.624	1189.75
431.846	1188.75
432.068	1144.75
432.29	1160.75
432.512	1197.75
432.734	1292.75
432.956	1328.75
433.178	1367.75
433.4	1374.75
433.622	1330.75
433.844	1255.75
434.066	1186.75
434.287	1182.75
434.509	1240.75
434.731	1322.75
434.953	1428.75
435.175	1363.75
435.397	1303.75
435.618	1310.75
435.84	1239.75
436.062	1259.75
436.284	1293.75
436.505	1298.75
436.727	1326.75
436.949	1307.75
437.17	1266.75
437.392	1236.75
437.614	1243.75
437.835	1178.75
438.057	1284.75
438.278	1268.75
438.5	1242.75
438.721	1275.75
438.943	1282.75
439.165	1263.75
439.386	1255.75
439.608	1302.75
439.829	1257.75
440.05	1280.75
440.272	1253.75
440.493	1238.75
440.715	1321.75
440.936	1387.75
441.158	1482.75
441.379	1446.75
441.6	1422.75
441.822	1373.75
442.043	1359.75
442.264	1360.75
442.486	1286.75
442.707	1304.75
442.928	1290.75
443.149	1323.75
443.371	1371.75
443.592	1446.75
443.813	1376.75
444.034	1379.75
444.255	1387.75
444.476	1440.75
444.698	1462.75
444.919	1390.75
445.14	1477.75
445.361	1492.75
445.582	1454.75
445.803	1484.75
446.024	1432.75
446.245	1452.75
446.466	1418.75
446.687	1368.75
446.908	1373.75
447.129	1338.75
447.35	1345.75
447.571	1306.75
447.792	1270.75
448.013	1254.75
448.234	1302.75
448.455	1364.75
448.675	1335.75
448.896	1236.75
449.117	1226.75
449.338	1254.75
449.559	1348.75
449.779	1374.75
450	1454.75
450.221	1528.75
450.442	1427.75
450.662	1331.75
450.883	1195.75
451.104	1206.75
451.324	1236.75
451.545	1271.75
451.766	1230.75
451.986	1155.75
452.207	1155.75
452.428	1139.75
452.648	1111.75
452.869	1121.75
453.089	1175.75
453.31	1193.75
453.53	1171.75
453.751	1145.75
453.971	1063.75
454.192	1135.75
454.412	1184.75
454.633	1163.75
454.853	1133.75
455.073	1074.75
455.294	1105.75
455.514	1077.75
455.734	1107.75
455.955	1080.75
456.175	1071.75
456.395	1102.75
456.616	1118.75
456.836	1136.75
457.056	1126.75
457.276	1086.75
457.497	1128.75
457.717	1048.75
457.937	1087.75
458.157	1084.75
458.377	1055.75
458.598	1091.75
458.818	1064.75
459.038	1122.75
459.258	1183.75
459.478	1184.75
459.698	1122.75
459.918	1172.75
460.138	1270.75
460.358	1244.75
460.578	1243.75
460.798	1308.75
461.018	1374.75
461.238	1330.75
461.458	1305.75
461.678	1267.75
461.898	1225.75
462.118	1225.75
462.338	1270.75
462.558	1284.75
462.777	1230.75
462.997	1311.75
463.217	1400.75
463.437	1367.75
463.657	1305.75
463.876	1272.75
464.096	1258.75
464.316	1288.75
464.536	1345.75
464.755	1346.75
464.975	1329.75
465.195	1268.75
465.414	1361.75
465.634	1300.75
465.854	1322.75
466.073	1415.75
466.293	1418.75
466.512	1234.75
466.732	1211.75
466.951	1271.75
467.171	1265.75
467.391	1216.75
467.61	1174.75
467.829	1221.75
468.049	1367.75
468.268	1518.75
468.488	1385.75
468.707	1288.75
468.927	1244.75
469.146	1219.75
469.365	1227.75
469.585	1262.75
469.804	1274.75
470.023	1249.75
470.243	1281.75
470.462	1272.75
470.681	1218.75
470.901	1264.75
471.12	1255.75
471.339	1259.75
471.558	1214.75
471.777	1202.75
471.997	1205.75
472.216	1153.75
472.435	1131.75
472.654	1164.75
472.873	1182.75
473.092	1256.75
473.311	1187.75
473.53	1165.75
473.749	1185.75
473.968	1211.75
474.187	1257.75
474.406	1250.75
474.625	1232.75
474.844	1207.75
475.063	1248.75
475.282	1246.75
475.501	1244.75
475.72	1236.75
475.939	1332.75
476.158	1270.75
476.377	1228.75
476.596	1209.75
476.814	1288.75
477.033	1241.75
477.252	1312.75
477.471	1328.75
477.69	1318.75
477.908	1310.75
478.127	1345.75
478.346	1444.75
478.564	1450.75
478.783	1444.75
479.002	1491.75
479.22	1446.75
479.439	1506.75
479.658	1620.75
479.876	1599.75
480.095	1390.75
480.313	1380.75
480.532	1309.75
480.751	1316.75
480.969	1321.75
481.188	1282.75
481.406	1249.75
481.624	1222.75
481.843	1293.75
482.061	1306.75
482.28	1358.75
482.498	1371.75
482.717	1302.75
482.935	1336.75
483.153	1356.75
483.372	1401.75
483.59	1362.75
483.808	1351.75
484.027	1364.75
484.245	1466.75
484.463	1796.75
484.681	1980.75
484.9	1490.75
485.118	1393.75
485.336	1385.75
485.554	1417.75
485.772	1430.75
485.99	1387.75
486.209	1404.75
486.427	1410.75
486.645	1401.75
486.863	1481.75
487.081	1480.75
487.299	1495.75
487.517	1467.75
487.735	1502.75
487.953	1524.75
488.171	1505.75
488.389	1501.75
488.607	1478.75
488.825	1661.75
489.043	1598.75
489.261	1428.75
489.479	1528.75
489.696	1536.75
489.914	1472.75
490.132	1486.75
490.35	1479.75
490.568	1538.75
490.786	1535.75
491.003	1483.75
491.221	1566.75
491.439	1614.75
491.657	1631.75
491.874	1647.75
492.092	1681.75
492.31	1697.75
492.527	1665.75
492.745	1640.75
492.963	1643.75
493.18	1658.75
493.398	1747.75
493.615	1749.75
493.833	1598.75
494.05	1593.75
494.268	1611.75
494.485	1594.75
494.703	1582.75
494.92	1564.75
495.138	1577.75
495.355	1579.75
495.573	1688.75
495.79	1716.75
496.008	1700.75
496.225	1631.75
496.442	1621.75
496.66	1665.75
496.877	1629.75
497.094	1673.75
497.312	1706.75
497.529	1662.75
497.746	1658.75
497.963	1908.75
498.181	2042.75
498.398	1954.75
498.615	1890.75
498.832	1774.75
499.049	1785.75
499.267	1792.75
499.484	1924.75
499.701	2067.75
499.918	2057.75
500.135	2270.75
500.352	2356.75
500.569	2332.75
500.786	2659.75
501.003	2374.75
501.22	2144.75
501.437	2085.75
501.654	2137.75
501.871	2070.75
502.088	1776.75
502.305	1790.75
502.522	1728.75
502.739	1626.75
502.956	1594.75
503.172	1610.75
503.389	1531.75
503.606	1497.75
503.823	1484.75
504.04	1515.75
504.256	1515.75
504.473	1512.75
504.69	1587.75
504.907	1466.75
505.123	1430.75
505.34	1591.75
505.557	2067.75
505.773	1699.75
505.99	1440.75
506.207	1326.75
506.423	1276.75
506.64	1309.75
506.856	1357.75
507.073	1558.75
507.289	1658.75
507.506	1553.75
507.722	1336.75
507.939	1246.75
508.155	1302.75
508.372	1282.75
508.588	1241.75
508.805	1210.75
509.021	1192.75
509.238	1194.75
509.454	1165.75
509.67	1128.75
509.887	1147.75
510.103	1164.75
510.319	1193.75
510.536	1244.75
510.752	1270.75
510.968	1227.75
511.184	1310.75
511.401	1249.75
511.617	1169.75
511.833	1099.75
512.049	1117.75
512.265	1132.75
512.481	1114.75
512.698	1175.75
512.914	1226.75
513.13	1198.75
513.346	1120.75
513.562	1090.75
513.778	1121.75
513.994	1209.75
514.21	1206.75
514.426	1250.75
514.642	1354.75
514.858	1303.75
515.074	1170.75
515.29	1127.75
515.506	1160.75
515.721	1178.75
515.937	1186.75
516.153	1339.75
516.369	1268.75
516.585	1212.75
516.801	1191.75
517.016	1163.75
517.232	1215.75
517.448	1222.75
517.664	1232.75
517.879	1264.75
518.095	1271.75
518.311	1215.75
518.527	1203.75
518.742	1158.75
518.958	1127.75
519.173	1157.75
519.389	1182.75
519.605	1215.75
519.82	1209.75
520.036	1224.75
520.251	1164.75
520.467	1170.75
520.682	1291.75
520.898	1281.75
521.113	1162.75
521.329	1134.75
521.544	1213.75
521.76	1162.75
521.975	1138.75
522.19	1096.75
522.406	1126.75
522.621	1456.75
522.836	1360.75
523.052	1104.75
523.267	1098.75
523.482	1158.75
523.698	1087.75
523.913	1082.75
524.128	1116.75
524.343	1160.75
524.559	1194.75
524.774	1118.75
524.989	1104.75
525.204	1095.75
525.419	1103.75
525.634	1065.75
525.849	1065.75
526.064	1088.75
526.28	1099.75
526.495	999.75
526.71	1025.75
526.925	1028.75
527.14	1005.75
527.355	987.75
527.57	983.75
527.785	1075.75
527.999	1006.75
528.214	993.75
528.429	988.75
528.644	1032.75
528.859	1097.75
529.074	1064.75
529.289	1116.75
529.503	1138.75
529.718	1083.75
529.933	1035.75
530.148	1006.75
530.363	978.75
530.577	988.75
530.792	1014.75
531.007	1025.75
531.221	1000.75
531.436	1001.75
531.651	1035.75
531.865	1050.75
532.08	1039.75
532.295	969.75
532.509	970.75
532.724	988.75
532.938	1023.75
533.153	1094.75
533.367	1054.75
533.582	1066.75
533.796	1039.75
534.011	1032.75
534.225	1018.75
534.44	973.75
534.654	990.75
534.868	1010.75
535.083	1017.75
535.297	1036.75
535.511	1019.75
535.726	1022.75
535.94	1013.75
536.154	1008.75
536.369	972.75
536.583	954.75
536.797	928.75
537.011	980.75
537.225	936.75
537.44	963.75
537.654	986.75
537.868	957.75
538.082	910.75
538.296	889.75
538.51	941.75
538.724	940.75
538.938	956.75
539.153	1044.75
539.367	1003.75
539.581	990.75
539.795	1006.75
540.009	987.75
540.222	987.75
540.436	986.75
540.65	1080.75
540.864	1124.75
541.078	1057.75
541.292	1048.75
541.506	1073.75
541.72	1131.75
541.934	1182.75
542.147	1230.75
542.361	1165.75
542.575	1079.75
542.789	1055.75
543.002	954.75
543.216	987.75
543.43	1027.75
543.644	1090.75
543.857	1127.75
544.071	1114.75
544.285	1114.75
544.498	1088.75
544.712	1077.75
544.925	1142.75
545.139	1143.75
545.352	1104.75
545.566	1078.75
545.779	1079.75
545.993	1096.75
546.206	1118.75
546.42	1087.75
546.633	1062.75
546.847	1044.75
547.06	1077.75
547.274	1088.75
547.487	1116.75
547.7	1098.75
547.914	1106.75
548.127	1099.75
548.34	1077.75
548.554	1062.75
548.767	1031.75
548.98	1057.75
549.193	1083.75
549.407	1146.75
549.62	1104.75
549.833	1044.75
550.046	1051.75
550.259	1049.75
550.473	1026.75
550.686	1050.75
550.899	1008.75
551.112	1018.75
551.325	987.75
551.538	1045.75
551.751	1194.75
551.964	964.75
552.177	948.75
552.39	987.75
552.603	1009.75
552.816	978.75
553.029	1085.75
553.242	1122.75
553.455	1070.75
553.667	1042.75
553.88	1052.75
554.093	1062.75
554.306	999.75
554.519	981.75
554.732	961.75
554.944	959.75
555.157	994.75
555.37	961.75
555.583	936.75
555.795	953.75
556.008	909.75
556.221	888.75
556.433	868.75
556.646	892.75
556.859	900.75
557.071	872.75
557.284	918.75
557.496	884.75
557.709	881.75
557.921	851.75
558.134	886.75
558.346	884.75
558.559	860.75
558.771	852.75
558.984	831.75
559.196	808.75
559.409	830.75
559.621	833.75
559.833	819.75
560.046	848.75
560.258	871.75
560.47	831.75
560.683	803.75
560.895	830.75
561.107	842.75
561.32	850.75
561.532	862.75
561.744	815.75
561.956	825.75
562.168	821.75
562.381	795.75
562.593	786.75
562.805	785.75
563.017	768.75
563.229	778.75
563.441	822.75
563.653	772.75
563.865	786.75
564.077	811.75
564.289	793.75
564.501	771.75
564.713	825.75
564.925	832.75
565.137	928.75
565.349	808.75
565.561	819.75
565.773	822.75
565.985	826.75
566.197	875.75
566.408	914.75
566.62	944.75
566.832	906.75
567.044	893.75
567.255	890.75
567.467	913.75
567.679	930.75
567.891	918.75
568.102	868.75
568.314	855.75
568.526	806.75
568.737	793.75
568.949	720.75
569.161	727.75
569.372	699.75
569.584	710.75
569.795	692.75
570.007	699.75
570.218	659.75
570.43	662.75
570.641	680.75
570.853	686.75
571.064	696.75
571.276	678.75
571.487	668.75
571.698	663.75
571.91	667.75
572.121	641.75
572.333	636.75
572.544	624.75
572.755	583.75
572.966	603.75
573.178	564.75
573.389	584.75
573.6	643.75
573.811	676.75
574.023	600.75
574.234	585.75
574.445	556.75
574.656	573.75
574.867	550.75
575.078	587.75
575.289	572.75
575.501	565.75
575.712	541.75
575.923	558.75
576.134	579.75
576.345	563.75
576.556	568.75
576.767	567.75
576.978	562.75
577.188	526.75
577.399	562.75
577.61	514.75
577.821	517.75
578.032	522.75
578.243	538.75
578.454	536.75
578.665	515.75
578.875	517.75
579.086	506.75
579.297	514.75
579.508	546.75
579.718	516.75
579.929	490.75
580.14	494.75
580.35	486.75
580.561	518.75
580.772	584.75
580.982	543.75
581.193	494.75
581.403	468.75
581.614	509.75
581.825	486.75
582.035	494.75
582.246	475.75
582.456	487.75
582.667	487.75
582.877	475.75
583.087	472.75
583.298	459.75
583.508	475.75
583.719	466.75
583.929	452.75
584.139	485.75
584.35	454.75
584.56	477.75
584.77	461.75
584.981	483.75
585.191	462.75
585.401	489.75
585.611	466.75
585.821	489.75
586.032	460.75
586.242	461.75
586.452	459.75
586.662	461.75
586.872	470.75
587.082	449.75
587.292	462.75
587.502	426.75
587.713	480.75
587.923	432.75
588.133	447.75
588.343	459.75
588.553	446.75
588.762	481.75
588.972	438.75
589.182	456.75
589.392	457.75
589.602	464.75
589.812	440.75
590.022	423.75
590.232	443.75
590.441	452.75
590.651	468.75
590.861	452.75
591.071	441.75
591.281	430.75
591.49	409.75
591.7	446.75
591.91	453.75
592.119	448.75
592.329	466.75
592.539	445.75
592.748	451.75
592.958	441.75
593.167	461.75
593.377	463.75
593.587	477.75
593.796	460.75
594.006	462.75
594.215	465.75
594.424	474.75
594.634	464.75
594.843	462.75
595.053	456.75
595.262	453.75
595.472	449.75
595.681	445.75
595.89	434.75
596.1	425.75
596.309	433.75
596.518	430.75
596.727	425.75
596.937	414.75
597.146	426.75
597.355	431.75
597.564	402.75
597.774	406.75
597.983	407.75
598.192	404.75
598.401	394.75
598.61	408.75
598.819	394.75
599.028	394.75
599.237	406.75
599.446	408.75
599.655	399.75
599.864	392.75
600.073	386.75
600.282	394.75
600.491	376.75
600.7	373.75
600.909	388.75
601.118	395.75
601.327	395.75
601.536	414.75
601.745	424.75
601.953	402.75
602.162	418.75
602.371	432.75
602.58	426.75
602.789	417.75
602.997	397.75
603.206	434.75
603.415	407.75
603.623	404.75
603.832	404.75
604.041	402.75
604.249	387.75
604.458	367.75
604.666	386.75
604.875	373.75
605.084	405.75
605.292	391.75
605.501	404.75
605.709	421.75
605.918	407.75
606.126	411.75
606.334	404.75
606.543	394.75
606.751	419.75
606.96	417.75
607.168	400.75
607.376	394.75
607.585	396.75
607.793	410.75
608.001	396.75
608.21	419.75
608.418	409.75
608.626	404.75
608.834	400.75
609.043	407.75
609.251	399.75
609.459	396.75
609.667	412.75
609.875	424.75
610.083	419.75
610.291	418.75
610.499	396.75
610.707	399.75
610.916	410.75
611.124	410.75
611.332	383.75
611.54	413.75
611.748	394.75
611.955	373.75
612.163	382.75
612.371	372.75
612.579	394.75
612.787	365.75
612.995	392.75
613.203	404.75
613.411	392.75
613.618	389.75
613.826	380.75
614.034	403.75
614.242	396.75
614.449	388.75
614.657	394.75
614.865	395.75
615.072	405.75
615.28	407.75
615.488	414.75
615.695	412.75
615.903	396.75
616.111	406.75
616.318	393.75
616.526	397.75
616.733	382.75
616.941	370.75
617.148	389.75
617.356	372.75
617.563	358.75
617.771	372.75
617.978	374.75
618.185	371.75
618.393	382.75
618.6	376.75
618.807	388.75
619.015	393.75
619.222	363.75
619.429	379.75
619.637	367.75
619.844	346.75
620.051	349.75
620.258	380.75
620.466	372.75
620.673	351.75
620.88	360.75
621.087	338.75
621.294	347.75
621.501	343.75
621.708	329.75
621.915	358.75
622.122	377.75
622.329	361.75
622.536	359.75
622.743	363.75
622.95	366.75
623.157	326.75
623.364	347.75
623.571	350.75
623.778	340.75
623.985	355.75
624.192	346.75
624.399	362.75
624.606	345.75
624.812	325.75
625.019	338.75
625.226	348.75
625.433	314.75
625.639	335.75
625.846	292.75
626.053	285.75
626.259	304.75
626.466	291.75
626.673	291.75
626.879	278.75
627.086	304.75
627.293	303.75
627.499	309.75
627.706	304.75
627.912	342.75
628.119	333.75
628.325	316.75
628.532	310.75
628.738	310.75
628.945	320.75
629.151	307.75
629.357	315.75
629.564	300.75
629.77	311.75
629.976	322.75
630.183	296.75
630.389	310.75
630.595	307.75
630.802	306.75
631.008	288.75
631.214	310.75
631.42	294.75
631.627	274.75
631.833	296.75
632.039	280.75
632.245	305.75
632.451	283.75
632.657	287.75
632.863	295.75
633.069	298.75
633.275	278.75
633.481	288.75
633.688	295.75
633.893	292.75
634.099	285.75
634.305	266.75
634.511	262.75
634.717	276.75
634.923	259.75
635.129	265.75
635.335	260.75
635.541	256.75
635.747	279.75
635.952	271.75
636.158	292.75
636.364	266.75
636.57	275.75
636.775	289.75
636.981	276.75
637.187	285.75
637.392	287.75
637.598	287.75
637.804	283.75
638.009	270.75
638.215	282.75
638.421	269.75
638.626	261.75
638.832	259.75
639.037	261.75
639.243	263.75
639.448	250.75
639.654	259.75
639.859	269.75
640.065	268.75
640.27	243.75
640.475	247.75
640.681	266.75
640.886	274.75
641.091	264.75
641.297	260.75
641.502	258.75
641.707	251.75
641.913	250.75
642.118	264.75
642.323	258.75
642.528	270.75
642.733	259.75
642.939	254.75
643.144	250.75
643.349	263.75
643.554	268.75
643.759	260.75
643.964	259.75
644.169	265.75
644.374	259.75
644.579	253.75
644.784	278.75
644.989	265.75
645.194	261.75
645.399	245.75
645.604	256.75
645.809	265.75
646.014	245.75
646.219	243.75
646.423	234.75
646.628	268.75
646.833	267.75
647.038	283.75
647.243	249.75
647.447	260.75
647.652	268.75
647.857	286.75
648.062	251.75
648.266	240.75
648.471	267.75
648.676	249.75
648.88	275.75
649.085	265.75
649.289	252.75
649.494	250.75
649.698	258.75
649.903	235.75
650.107	255.75
650.312	251.75
650.516	249.75
650.721	233.75
650.925	252.75
651.13	240.75
651.334	241.75
651.539	222.75
651.743	224.75
651.947	233.75
652.152	220.75
652.356	224.75
652.56	228.75
652.764	220.75
652.969	236.75
653.173	220.75
653.377	232.75
653.581	227.75
653.785	223.75
653.99	230.75
654.194	219.75
654.398	211.75
654.602	226.75
654.806	224.75
655.01	203.75
655.214	204.75
655.418	218.75
655.622	227.75
655.826	228.75
656.03	240.75
656.234	236.75
656.438	251.75
656.642	258.75
656.846	237.75
657.049	216.75
657.253	215.75
657.457	205.75
657.661	202.75
657.865	178.75
658.068	176.75
658.272	162.75
658.476	155.75
658.68	183.75
658.883	151.75
659.087	162.75
659.291	139.75
659.494	140.75
659.698	125.75
659.901	124.75
660.105	122.75
660.309	121.75
660.512	124.75
660.716	129.75
660.919	114.75
661.123	118.75
661.326	113.75
661.53	120.75
661.733	110.75
661.936	117.75
662.14	96.75
662.343	85.75
662.546	83.75
662.75	82.75
662.953	105.75
663.156	91.75
663.36	88.75
663.563	93.75
663.766	76.75
663.969	96.75
664.173	96.75
664.376	86.75
664.579	84.75
664.782	75.75
664.985	85.75
665.188	73.75
665.391	88.75
665.594	80.75
665.797	82.75
666	71.75
666.203	76.75
666.406	76.75
666.609	74.75
666.812	78.75
667.015	72.75
667.218	70.75
667.421	87.75
667.624	93.75
667.827	91.75
668.03	83.75
668.232	87.75
668.435	72.75
668.638	83.75
668.841	80.75
669.043	78.75
669.246	86.75
669.449	78.75
669.651	77.75
669.854	88.75
670.057	80.75
670.259	81.75
670.462	74.75
670.665	91.75
670.867	86.75
671.07	94.75
671.272	89.75
671.475	88.75
671.677	75.75
671.88	85.75
672.082	77.75
672.284	82.75
672.487	79.75
672.689	69.75
672.892	82.75
