Data from WStandard_LampEnergy8_LIBS07252019.E.O._I.C._HRD10591_15-59-04-929.txt Node
Date: Thu Jul 25 15:59:04 EDT 2019
User: cochatt
Spectrometer: HR+D1059
Trigger mode: 1
Integration Time (sec): 1.000000E-1
Scans to average: 1
Electric dark correction enabled: true
Nonlinearity correction enabled: false
Boxcar width: 0
XAxis mode: Wavelengths
Number of Pixels in Spectrum: 2048
>>>>>Begin Spectral Data<<<<<
223.165	-12.75
223.4	-12.75
223.635	-12.75
223.869	-1.75
224.104	-2.75
224.338	-18.75
224.573	-13.75
224.808	-39.75
225.042	-3.75
225.277	-2.75
225.511	0.25
225.746	-1.75
225.98	-0.75
226.215	1.25
226.449	22.25
226.683	18.25
226.918	26.25
227.152	30.25
227.387	27.25
227.621	41.25
227.856	44.25
228.09	41.25
228.324	44.25
228.559	63.25
228.793	114.25
229.027	208.25
229.262	215.25
229.496	210.25
229.73	223.25
229.964	262.25
230.199	248.25
230.433	242.25
230.667	266.25
230.901	280.25
231.136	254.25
231.37	264.25
231.604	273.25
231.838	246.25
232.072	233.25
232.306	258.25
232.541	266.25
232.775	309.25
233.009	308.25
233.243	310.25
233.477	294.25
233.711	316.25
233.945	312.25
234.179	305.25
234.413	332.25
234.647	346.25
234.881	329.25
235.115	310.25
235.349	292.25
235.583	305.25
235.817	314.25
236.051	321.25
236.285	306.25
236.519	339.25
236.753	374.25
236.987	358.25
237.221	356.25
237.455	387.25
237.689	383.25
237.922	360.25
238.156	342.25
238.39	372.25
238.624	377.25
238.858	385.25
239.091	398.25
239.325	416.25
239.559	478.25
239.793	497.25
240.027	516.25
240.26	523.25
240.494	393.25
240.728	363.25
240.961	373.25
241.195	386.25
241.429	435.25
241.662	411.25
241.896	408.25
242.13	391.25
242.363	427.25
242.597	469.25
242.83	451.25
243.064	459.25
243.298	496.25
243.531	475.25
243.765	455.25
243.998	468.25
244.232	423.25
244.465	407.25
244.699	440.25
244.932	474.25
245.166	541.25
245.399	490.25
245.633	475.25
245.866	464.25
246.099	492.25
246.333	491.25
246.566	498.25
246.8	553.25
247.033	581.25
247.266	563.25
247.5	535.25
247.733	547.25
247.966	578.25
248.2	626.25
248.433	614.25
248.666	656.25
248.899	680.25
249.133	726.25
249.366	810.25
249.599	708.25
249.832	619.25
250.066	636.25
250.299	658.25
250.532	597.25
250.765	550.25
250.998	571.25
251.231	587.25
251.465	617.25
251.698	579.25
251.931	592.25
252.164	626.25
252.397	639.25
252.63	616.25
252.863	567.25
253.096	552.25
253.329	575.25
253.562	613.25
253.795	629.25
254.028	617.25
254.261	590.25
254.494	594.25
254.727	572.25
254.96	597.25
255.193	640.25
255.426	738.25
255.659	798.25
255.892	796.25
256.124	677.25
256.357	662.25
256.59	715.25
256.823	703.25
257.056	740.25
257.289	849.25
257.521	895.25
257.754	814.25
257.987	777.25
258.22	840.25
258.452	800.25
258.685	681.25
258.918	694.25
259.151	691.25
259.383	668.25
259.616	600.25
259.849	648.25
260.081	715.25
260.314	780.25
260.547	849.25
260.779	830.25
261.012	816.25
261.244	719.25
261.477	690.25
261.71	699.25
261.942	712.25
262.175	687.25
262.407	713.25
262.64	673.25
262.872	644.25
263.105	625.25
263.337	644.25
263.57	656.25
263.802	649.25
264.035	601.25
264.267	580.25
264.499	579.25
264.732	614.25
264.964	674.25
265.197	686.25
265.429	733.25
265.661	800.25
265.894	857.25
266.126	860.25
266.358	791.25
266.591	848.25
266.823	854.25
267.055	792.25
267.287	786.25
267.52	795.25
267.752	769.25
267.984	791.25
268.216	815.25
268.448	820.25
268.681	809.25
268.913	741.25
269.145	714.25
269.377	705.25
269.609	768.25
269.841	905.25
270.073	1036.25
270.306	1095.25
270.538	1138.25
270.77	996.25
271.002	812.25
271.234	813.25
271.466	832.25
271.698	910.25
271.93	1100.25
272.162	1035.25
272.394	975.25
272.626	902.25
272.858	828.25
273.09	731.25
273.322	709.25
273.553	675.25
273.785	710.25
274.017	743.25
274.249	811.25
274.481	773.25
274.713	702.25
274.945	689.25
275.176	712.25
275.408	691.25
275.64	680.25
275.872	704.25
276.104	755.25
276.335	856.25
276.567	954.25
276.799	917.25
277.031	852.25
277.262	843.25
277.494	874.25
277.726	922.25
277.957	890.25
278.189	827.25
278.421	784.25
278.652	739.25
278.884	751.25
279.115	732.25
279.347	789.25
279.579	745.25
279.81	762.25
280.042	815.25
280.273	918.25
280.505	882.25
280.736	890.25
280.968	826.25
281.199	745.25
281.431	711.25
281.662	726.25
281.894	713.25
282.125	765.25
282.356	794.25
282.588	776.25
282.819	771.25
283.051	840.25
283.282	874.25
283.513	867.25
283.745	747.25
283.976	728.25
284.207	717.25
284.439	751.25
284.67	737.25
284.901	822.25
285.132	797.25
285.364	772.25
285.595	765.25
285.826	769.25
286.057	768.25
286.288	767.25
286.52	775.25
286.751	871.25
286.982	898.25
287.213	791.25
287.444	751.25
287.675	777.25
287.906	776.25
288.138	838.25
288.369	846.25
288.6	795.25
288.831	727.25
289.062	747.25
289.293	758.25
289.524	781.25
289.755	822.25
289.986	810.25
290.217	735.25
290.448	760.25
290.679	807.25
290.91	803.25
291.141	836.25
291.371	848.25
291.602	850.25
291.833	803.25
292.064	845.25
292.295	847.25
292.526	853.25
292.757	874.25
292.987	858.25
293.218	814.25
293.449	880.25
293.68	990.25
293.91	1029.25
294.141	954.25
294.372	940.25
294.603	984.25
294.833	969.25
295.064	930.25
295.295	829.25
295.525	808.25
295.756	778.25
295.987	723.25
296.217	753.25
296.448	784.25
296.679	793.25
296.909	780.25
297.14	787.25
297.37	821.25
297.601	874.25
297.831	912.25
298.062	882.25
298.292	839.25
298.523	798.25
298.753	792.25
298.984	814.25
299.214	825.25
299.445	832.25
299.675	828.25
299.905	832.25
300.136	827.25
300.366	797.25
300.597	800.25
300.827	780.25
301.057	824.25
301.288	860.25
301.518	854.25
301.748	868.25
301.979	931.25
302.209	947.25
302.439	990.25
302.669	1024.25
302.9	948.25
303.13	893.25
303.36	874.25
303.59	878.25
303.82	875.25
304.051	851.25
304.281	860.25
304.511	920.25
304.741	946.25
304.971	1030.25
305.201	1094.25
305.431	968.25
305.661	810.25
305.891	754.25
306.121	781.25
306.352	806.25
306.582	866.25
306.812	921.25
307.042	975.25
307.272	981.25
307.502	1022.25
307.731	1079.25
307.961	1089.25
308.191	982.25
308.421	906.25
308.651	840.25
308.881	851.25
309.111	840.25
309.341	839.25
309.571	834.25
309.8	849.25
310.03	828.25
310.26	824.25
310.49	853.25
310.72	871.25
310.949	900.25
311.179	889.25
311.409	884.25
311.639	860.25
311.868	850.25
312.098	854.25
312.328	844.25
312.557	854.25
312.787	867.25
313.017	880.25
313.246	883.25
313.476	894.25
313.706	898.25
313.935	887.25
314.165	914.25
314.394	956.25
314.624	1002.25
314.853	1075.25
315.083	1083.25
315.312	1067.25
315.542	973.25
315.771	907.25
316.001	941.25
316.23	962.25
316.46	947.25
316.689	961.25
316.919	899.25
317.148	856.25
317.377	912.25
317.607	960.25
317.836	1078.25
318.065	1061.25
318.295	1060.25
318.524	1004.25
318.753	960.25
318.983	949.25
319.212	928.25
319.441	939.25
319.67	919.25
319.9	959.25
320.129	1009.25
320.358	1033.25
320.587	1060.25
320.816	1040.25
321.046	1051.25
321.275	983.25
321.504	1026.25
321.733	1090.25
321.962	1026.25
322.191	952.25
322.42	948.25
322.649	919.25
322.878	944.25
323.108	933.25
323.337	978.25
323.566	955.25
323.795	945.25
324.024	951.25
324.253	935.25
324.482	955.25
324.71	928.25
324.939	912.25
325.168	896.25
325.397	946.25
325.626	975.25
325.855	995.25
326.084	942.25
326.313	944.25
326.542	949.25
326.77	972.25
326.999	958.25
327.228	922.25
327.457	897.25
327.686	885.25
327.914	886.25
328.143	965.25
328.372	959.25
328.6	942.25
328.829	955.25
329.058	925.25
329.287	912.25
329.515	927.25
329.744	950.25
329.972	1014.25
330.201	1052.25
330.43	1022.25
330.658	1004.25
330.887	983.25
331.115	988.25
331.344	995.25
331.572	980.25
331.801	980.25
332.03	979.25
332.258	992.25
332.486	1010.25
332.715	1001.25
332.943	1020.25
333.172	988.25
333.4	1006.25
333.629	1092.25
333.857	1150.25
334.085	1251.25
334.314	1409.25
334.542	1458.25
334.771	1312.25
334.999	1189.25
335.227	1101.25
335.455	1048.25
335.684	1096.25
335.912	1119.25
336.14	1113.25
336.369	1082.25
336.597	1002.25
336.825	1000.25
337.053	1067.25
337.281	1128.25
337.51	1169.25
337.738	1163.25
337.966	1108.25
338.194	1008.25
338.422	1003.25
338.65	997.25
338.878	979.25
339.106	955.25
339.334	932.25
339.562	954.25
339.79	960.25
340.018	1026.25
340.246	1092.25
340.474	1063.25
340.702	1027.25
340.93	1051.25
341.158	1034.25
341.386	1022.25
341.614	995.25
341.842	994.25
342.07	990.25
342.298	1026.25
342.526	1018.25
342.754	1000.25
342.981	995.25
343.209	984.25
343.437	951.25
343.665	979.25
343.893	1021.25
344.12	1073.25
344.348	1073.25
344.576	999.25
344.804	991.25
345.031	994.25
345.259	976.25
345.487	952.25
345.714	920.25
345.942	937.25
346.17	914.25
346.397	955.25
346.625	932.25
346.853	902.25
347.08	888.25
347.308	906.25
347.535	926.25
347.763	968.25
347.99	953.25
348.218	885.25
348.445	921.25
348.673	948.25
348.9	989.25
349.128	996.25
349.355	1024.25
349.583	984.25
349.81	948.25
350.037	880.25
350.265	859.25
350.492	886.25
350.72	921.25
350.947	945.25
351.174	945.25
351.402	912.25
351.629	871.25
351.856	838.25
352.083	859.25
352.311	883.25
352.538	901.25
352.765	951.25
352.992	952.25
353.22	932.25
353.447	912.25
353.674	928.25
353.901	918.25
354.128	920.25
354.355	898.25
354.583	958.25
354.81	971.25
355.037	1003.25
355.264	965.25
355.491	936.25
355.718	926.25
355.945	903.25
356.172	893.25
356.399	923.25
356.626	906.25
356.853	962.25
357.08	1035.25
357.307	1127.25
357.534	1064.25
357.761	954.25
357.988	898.25
358.215	884.25
358.441	886.25
358.668	855.25
358.895	895.25
359.122	992.25
359.349	1055.25
359.576	1026.25
359.802	904.25
360.029	897.25
360.256	887.25
360.483	890.25
360.709	953.25
360.936	971.25
361.163	1019.25
361.39	1119.25
361.616	1189.25
361.843	1154.25
362.07	1088.25
362.296	968.25
362.523	897.25
362.749	926.25
362.976	965.25
363.203	960.25
363.429	918.25
363.656	904.25
363.882	953.25
364.109	1097.25
364.335	1131.25
364.562	1002.25
364.788	1001.25
365.015	914.25
365.241	878.25
365.468	946.25
365.694	999.25
365.92	1025.25
366.147	963.25
366.373	923.25
366.599	892.25
366.826	912.25
367.052	908.25
367.278	937.25
367.505	933.25
367.731	982.25
367.957	979.25
368.184	1018.25
368.41	1038.25
368.636	1062.25
368.862	1065.25
369.089	1089.25
369.315	1034.25
369.541	978.25
369.767	932.25
369.993	932.25
370.219	913.25
370.445	959.25
370.672	1040.25
370.898	1075.25
371.124	1059.25
371.35	996.25
371.576	1040.25
371.802	1062.25
372.028	1029.25
372.254	952.25
372.48	942.25
372.706	963.25
372.932	951.25
373.158	971.25
373.384	987.25
373.61	1040.25
373.835	1059.25
374.061	968.25
374.287	999.25
374.513	982.25
374.739	987.25
374.965	999.25
375.191	991.25
375.416	1024.25
375.642	1022.25
375.868	1100.25
376.094	1121.25
376.319	1078.25
376.545	1012.25
376.771	1030.25
376.997	1091.25
377.222	1043.25
377.448	1043.25
377.674	1034.25
377.899	1072.25
378.125	1112.25
378.35	1091.25
378.576	976.25
378.802	966.25
379.027	962.25
379.253	969.25
379.478	999.25
379.704	1008.25
379.929	992.25
380.155	1003.25
380.38	1019.25
380.606	1042.25
380.831	1014.25
381.057	1077.25
381.282	1069.25
381.507	1065.25
381.733	1127.25
381.958	1191.25
382.184	1102.25
382.409	1031.25
382.634	1073.25
382.86	1022.25
383.085	1026.25
383.31	1061.25
383.535	1165.25
383.761	1243.25
383.986	1193.25
384.211	1116.25
384.436	1125.25
384.662	1169.25
384.887	1199.25
385.112	1150.25
385.337	1175.25
385.562	1115.25
385.787	1148.25
386.013	1164.25
386.238	1174.25
386.463	1172.25
386.688	1246.25
386.913	1335.25
387.138	1237.25
387.363	1177.25
387.588	1175.25
387.813	1143.25
388.038	1204.25
388.263	1256.25
388.488	1183.25
388.713	1085.25
388.938	1080.25
389.163	1091.25
389.387	1116.25
389.612	1100.25
389.837	1154.25
390.062	1180.25
390.287	1154.25
390.512	1146.25
390.736	1141.25
390.961	1070.25
391.186	1098.25
391.411	1129.25
391.636	1124.25
391.86	1126.25
392.085	1132.25
392.31	1106.25
392.534	1131.25
392.759	1161.25
392.984	1113.25
393.208	1141.25
393.433	1211.25
393.658	1248.25
393.882	1249.25
394.107	1181.25
394.331	1128.25
394.556	1126.25
394.78	1167.25
395.005	1198.25
395.229	1230.25
395.454	1328.25
395.678	1296.25
395.903	1249.25
396.127	1214.25
396.352	1224.25
396.576	1258.25
396.801	1262.25
397.025	1251.25
397.249	1217.25
397.474	1209.25
397.698	1195.25
397.922	1291.25
398.147	1358.25
398.371	1371.25
398.595	1374.25
398.82	1318.25
399.044	1309.25
399.268	1370.25
399.492	1454.25
399.717	1488.25
399.941	1510.25
400.165	1483.25
400.389	1445.25
400.613	1460.25
400.837	1684.25
401.062	1819.25
401.286	1570.25
401.51	1449.25
401.734	1488.25
401.958	1457.25
402.182	1320.25
402.406	1272.25
402.63	1291.25
402.854	1296.25
403.078	1318.25
403.302	1323.25
403.526	1310.25
403.75	1349.25
403.974	1358.25
404.198	1377.25
404.422	1407.25
404.645	1472.25
404.869	1412.25
405.093	1317.25
405.317	1308.25
405.541	1348.25
405.765	1375.25
405.988	1364.25
406.212	1388.25
406.436	1415.25
406.66	1462.25
406.883	1480.25
407.107	1672.25
407.331	1817.25
407.555	1953.25
407.778	1746.25
408.002	1449.25
408.226	1396.25
408.449	1405.25
408.673	1379.25
408.896	1400.25
409.12	1400.25
409.344	1378.25
409.567	1370.25
409.791	1385.25
410.014	1411.25
410.238	1482.25
410.461	1519.25
410.685	1381.25
410.908	1319.25
411.132	1338.25
411.355	1356.25
411.578	1343.25
411.802	1354.25
412.025	1347.25
412.249	1342.25
412.472	1324.25
412.695	1351.25
412.919	1296.25
413.142	1323.25
413.365	1337.25
413.589	1323.25
413.812	1421.25
414.035	1445.25
414.258	1345.25
414.482	1303.25
414.705	1332.25
414.928	1282.25
415.151	1300.25
415.374	1298.25
415.597	1334.25
415.821	1357.25
416.044	1345.25
416.267	1355.25
416.49	1267.25
416.713	1275.25
416.936	1318.25
417.159	1394.25
417.382	1379.25
417.605	1290.25
417.828	1346.25
418.051	1329.25
418.274	1298.25
418.497	1284.25
418.72	1280.25
418.943	1298.25
419.166	1320.25
419.389	1405.25
419.611	1342.25
419.834	1298.25
420.057	1315.25
420.28	1300.25
420.503	1321.25
420.726	1338.25
420.948	1321.25
421.171	1264.25
421.394	1293.25
421.617	1341.25
421.839	1365.25
422.062	1367.25
422.285	1290.25
422.507	1284.25
422.73	1264.25
422.953	1252.25
423.175	1235.25
423.398	1307.25
423.621	1317.25
423.843	1262.25
424.066	1297.25
424.288	1369.25
424.511	1426.25
424.733	1412.25
424.956	1231.25
425.178	1265.25
425.401	1294.25
425.623	1272.25
425.846	1267.25
426.068	1351.25
426.291	1383.25
426.513	1310.25
426.735	1306.25
426.958	1442.25
427.18	1515.25
427.402	1371.25
427.625	1408.25
427.847	1395.25
428.069	1280.25
428.292	1262.25
428.514	1240.25
428.736	1262.25
428.958	1242.25
429.181	1273.25
429.403	1476.25
429.625	1766.25
429.847	1466.25
430.069	1343.25
430.292	1475.25
430.514	1485.25
430.736	1378.25
430.958	1393.25
431.18	1290.25
431.402	1211.25
431.624	1208.25
431.846	1191.25
432.068	1163.25
432.29	1143.25
432.512	1193.25
432.734	1273.25
432.956	1259.25
433.178	1339.25
433.4	1339.25
433.622	1288.25
433.844	1239.25
434.066	1203.25
434.287	1222.25
434.509	1228.25
434.731	1283.25
434.953	1381.25
435.175	1328.25
435.397	1315.25
435.618	1270.25
435.84	1259.25
436.062	1241.25
436.284	1282.25
436.505	1302.25
436.727	1336.25
436.949	1260.25
437.17	1251.25
437.392	1225.25
437.614	1211.25
437.835	1180.25
438.057	1238.25
438.278	1265.25
438.5	1218.25
438.721	1243.25
438.943	1241.25
439.165	1245.25
439.386	1241.25
439.608	1234.25
439.829	1273.25
440.05	1270.25
440.272	1244.25
440.493	1236.25
440.715	1270.25
440.936	1344.25
441.158	1445.25
441.379	1402.25
441.6	1354.25
441.822	1368.25
442.043	1361.25
442.264	1335.25
442.486	1299.25
442.707	1264.25
442.928	1233.25
443.149	1302.25
443.371	1347.25
443.592	1375.25
443.813	1400.25
444.034	1337.25
444.255	1370.25
444.476	1403.25
444.698	1444.25
444.919	1396.25
445.14	1494.25
445.361	1476.25
445.582	1481.25
445.803	1400.25
446.024	1403.25
446.245	1455.25
446.466	1394.25
446.687	1345.25
446.908	1358.25
447.129	1343.25
447.35	1319.25
447.571	1287.25
447.792	1282.25
448.013	1243.25
448.234	1288.25
448.455	1318.25
448.675	1314.25
448.896	1211.25
449.117	1230.25
449.338	1243.25
449.559	1288.25
449.779	1346.25
450	1444.25
450.221	1482.25
450.442	1434.25
450.662	1312.25
450.883	1202.25
451.104	1158.25
451.324	1195.25
451.545	1215.25
451.766	1191.25
451.986	1123.25
452.207	1144.25
452.428	1116.25
452.648	1082.25
452.869	1125.25
453.089	1152.25
453.31	1184.25
453.53	1178.25
453.751	1117.25
453.971	1040.25
454.192	1090.25
454.412	1170.25
454.633	1129.25
454.853	1103.25
455.073	1065.25
455.294	1105.25
455.514	1080.25
455.734	1088.25
455.955	1090.25
456.175	1070.25
456.395	1074.25
456.616	1082.25
456.836	1079.25
457.056	1105.25
457.276	1093.25
457.497	1067.25
457.717	1040.25
457.937	1033.25
458.157	1067.25
458.377	1075.25
458.598	1018.25
458.818	1076.25
459.038	1127.25
459.258	1134.25
459.478	1163.25
459.698	1099.25
459.918	1161.25
460.138	1228.25
460.358	1274.25
460.578	1247.25
460.798	1299.25
461.018	1366.25
461.238	1327.25
461.458	1290.25
461.678	1264.25
461.898	1223.25
462.118	1192.25
462.338	1249.25
462.558	1257.25
462.777	1269.25
462.997	1320.25
463.217	1404.25
463.437	1341.25
463.657	1252.25
463.876	1248.25
464.096	1282.25
464.316	1254.25
464.536	1294.25
464.755	1341.25
464.975	1301.25
465.195	1278.25
465.414	1281.25
465.634	1330.25
465.854	1318.25
466.073	1414.25
466.293	1333.25
466.512	1244.25
466.732	1230.25
466.951	1263.25
467.171	1238.25
467.391	1161.25
467.61	1187.25
467.829	1244.25
468.049	1360.25
468.268	1464.25
468.488	1357.25
468.707	1294.25
468.927	1222.25
469.146	1203.25
469.365	1233.25
469.585	1242.25
469.804	1222.25
470.023	1206.25
470.243	1263.25
470.462	1232.25
470.681	1224.25
470.901	1233.25
471.12	1235.25
471.339	1237.25
471.558	1175.25
471.777	1179.25
471.997	1201.25
472.216	1193.25
472.435	1130.25
472.654	1113.25
472.873	1179.25
473.092	1239.25
473.311	1176.25
473.53	1160.25
473.749	1145.25
473.968	1204.25
474.187	1239.25
474.406	1274.25
474.625	1200.25
474.844	1218.25
475.063	1215.25
475.282	1223.25
475.501	1164.25
475.72	1214.25
475.939	1296.25
476.158	1235.25
476.377	1223.25
476.596	1219.25
476.814	1211.25
477.033	1229.25
477.252	1285.25
477.471	1320.25
477.69	1284.25
477.908	1323.25
478.127	1380.25
478.346	1458.25
478.564	1428.25
478.783	1423.25
479.002	1438.25
479.22	1415.25
479.439	1484.25
479.658	1584.25
479.876	1572.25
480.095	1380.25
480.313	1309.25
480.532	1329.25
480.751	1357.25
480.969	1319.25
481.188	1268.25
481.406	1232.25
481.624	1238.25
481.843	1258.25
482.061	1299.25
482.28	1358.25
482.498	1335.25
482.717	1307.25
482.935	1287.25
483.153	1329.25
483.372	1385.25
483.59	1372.25
483.808	1387.25
484.027	1351.25
484.245	1478.25
484.463	1730.25
484.681	1885.25
484.9	1449.25
485.118	1365.25
485.336	1353.25
485.554	1383.25
485.772	1426.25
485.99	1356.25
486.209	1403.25
486.427	1394.25
486.645	1387.25
486.863	1436.25
487.081	1508.25
487.299	1490.25
487.517	1423.25
487.735	1479.25
487.953	1511.25
488.171	1488.25
488.389	1488.25
488.607	1434.25
488.825	1611.25
489.043	1573.25
489.261	1426.25
489.479	1482.25
489.696	1464.25
489.914	1435.25
490.132	1446.25
490.35	1503.25
490.568	1559.25
490.786	1544.25
491.003	1486.25
491.221	1545.25
491.439	1576.25
491.657	1587.25
491.874	1627.25
492.092	1688.25
492.31	1710.25
492.527	1636.25
492.745	1610.25
492.963	1621.25
493.18	1619.25
493.398	1718.25
493.615	1744.25
493.833	1612.25
494.05	1569.25
494.268	1550.25
494.485	1584.25
494.703	1572.25
494.92	1548.25
495.138	1523.25
495.355	1582.25
495.573	1619.25
495.79	1676.25
496.008	1697.25
496.225	1610.25
496.442	1626.25
496.66	1624.25
496.877	1618.25
497.094	1636.25
497.312	1604.25
497.529	1647.25
497.746	1638.25
497.963	1850.25
498.181	2000.25
498.398	1914.25
498.615	1878.25
498.832	1767.25
499.049	1761.25
499.267	1786.25
499.484	1936.25
499.701	2041.25
499.918	2079.25
500.135	2227.25
500.352	2399.25
500.569	2371.25
500.786	2579.25
501.003	2275.25
501.22	2122.25
501.437	2125.25
501.654	2091.25
501.871	2025.25
502.088	1792.25
502.305	1798.25
502.522	1687.25
502.739	1640.25
502.956	1584.25
503.172	1539.25
503.389	1518.25
503.606	1472.25
503.823	1475.25
504.04	1482.25
504.256	1500.25
504.473	1488.25
504.69	1531.25
504.907	1451.25
505.123	1423.25
505.34	1569.25
505.557	1990.25
505.773	1664.25
505.99	1398.25
506.207	1304.25
506.423	1270.25
506.64	1315.25
506.856	1291.25
507.073	1538.25
507.289	1642.25
507.506	1530.25
507.722	1299.25
507.939	1260.25
508.155	1281.25
508.372	1292.25
508.588	1234.25
508.805	1191.25
509.021	1172.25
509.238	1171.25
509.454	1154.25
509.67	1152.25
509.887	1110.25
510.103	1158.25
510.319	1186.25
510.536	1221.25
510.752	1217.25
510.968	1193.25
511.184	1305.25
511.401	1226.25
511.617	1118.25
511.833	1112.25
512.049	1125.25
512.265	1103.25
512.481	1118.25
512.698	1175.25
512.914	1206.25
513.13	1153.25
513.346	1144.25
513.562	1098.25
513.778	1140.25
513.994	1197.25
514.21	1224.25
514.426	1239.25
514.642	1346.25
514.858	1256.25
515.074	1176.25
515.29	1111.25
515.506	1156.25
515.721	1163.25
515.937	1178.25
516.153	1266.25
516.369	1296.25
516.585	1176.25
516.801	1158.25
517.016	1154.25
517.232	1188.25
517.448	1241.25
517.664	1264.25
517.879	1243.25
518.095	1289.25
518.311	1216.25
518.527	1214.25
518.742	1164.25
518.958	1164.25
519.173	1115.25
519.389	1188.25
519.605	1194.25
519.82	1201.25
520.036	1192.25
520.251	1151.25
520.467	1164.25
520.682	1239.25
520.898	1262.25
521.113	1142.25
521.329	1107.25
521.544	1208.25
521.76	1162.25
521.975	1086.25
522.19	1100.25
522.406	1113.25
522.621	1414.25
522.836	1336.25
523.052	1104.25
523.267	1098.25
523.482	1117.25
523.698	1101.25
523.913	1046.25
524.128	1096.25
524.343	1152.25
524.559	1170.25
524.774	1099.25
524.989	1078.25
525.204	1051.25
525.419	1047.25
525.634	1037.25
525.849	1068.25
526.064	1062.25
526.28	1056.25
526.495	999.25
526.71	1012.25
526.925	1021.25
527.14	990.25
527.355	989.25
527.57	963.25
527.785	1006.25
527.999	968.25
528.214	975.25
528.429	986.25
528.644	989.25
528.859	1068.25
529.074	1091.25
529.289	1110.25
529.503	1100.25
529.718	1086.25
529.933	1029.25
530.148	978.25
530.363	978.25
530.577	983.25
530.792	983.25
531.007	985.25
531.221	977.25
531.436	1002.25
531.651	1028.25
531.865	1070.25
532.08	1000.25
532.295	964.25
532.509	935.25
532.724	974.25
532.938	1013.25
533.153	1068.25
533.367	1014.25
533.582	1020.25
533.796	1034.25
534.011	1020.25
534.225	1006.25
534.44	976.25
534.654	982.25
534.868	986.25
535.083	1060.25
535.297	1031.25
535.511	1000.25
535.726	999.25
535.94	1010.25
536.154	990.25
536.369	934.25
536.583	929.25
536.797	928.25
537.011	963.25
537.225	933.25
537.44	922.25
537.654	986.25
537.868	915.25
538.082	890.25
538.296	876.25
538.51	896.25
538.724	946.25
538.938	978.25
539.153	1006.25
539.367	1001.25
539.581	995.25
539.795	982.25
540.009	987.25
540.222	919.25
540.436	978.25
540.65	1064.25
540.864	1092.25
541.078	1086.25
541.292	1039.25
541.506	1084.25
541.72	1087.25
541.934	1129.25
542.147	1175.25
542.361	1140.25
542.575	1051.25
542.789	1019.25
543.002	977.25
543.216	990.25
543.43	1015.25
543.644	1080.25
543.857	1147.25
544.071	1103.25
544.285	1072.25
544.498	1076.25
544.712	1080.25
544.925	1094.25
545.139	1128.25
545.352	1089.25
545.566	1060.25
545.779	1080.25
545.993	1060.25
546.206	1093.25
546.42	1067.25
546.633	1050.25
546.847	1056.25
547.06	1074.25
547.274	1048.25
547.487	1087.25
547.7	1100.25
547.914	1079.25
548.127	1071.25
548.34	1088.25
548.554	1096.25
548.767	1093.25
548.98	1061.25
549.193	1070.25
549.407	1110.25
549.62	1098.25
549.833	1039.25
550.046	1067.25
550.259	1060.25
550.473	1052.25
550.686	1002.25
550.899	990.25
551.112	1011.25
551.325	984.25
551.538	1026.25
551.751	1150.25
551.964	942.25
552.177	894.25
552.39	944.25
552.603	1004.25
552.816	1001.25
553.029	1057.25
553.242	1096.25
553.455	1056.25
553.667	1036.25
553.88	1034.25
554.093	1016.25
554.306	983.25
554.519	976.25
554.732	918.25
554.944	946.25
555.157	973.25
555.37	960.25
555.583	946.25
555.795	896.25
556.008	931.25
556.221	892.25
556.433	880.25
556.646	894.25
556.859	871.25
557.071	881.25
557.284	866.25
557.496	856.25
557.709	880.25
557.921	868.25
558.134	873.25
558.346	866.25
558.559	867.25
558.771	852.25
558.984	848.25
559.196	809.25
559.409	828.25
559.621	816.25
559.833	833.25
560.046	811.25
560.258	829.25
560.47	797.25
560.683	822.25
560.895	805.25
561.107	828.25
561.32	854.25
561.532	848.25
561.744	840.25
561.956	809.25
562.168	814.25
562.381	802.25
562.593	790.25
562.805	780.25
563.017	802.25
563.229	797.25
563.441	826.25
563.653	800.25
563.865	793.25
564.077	778.25
564.289	779.25
564.501	786.25
564.713	804.25
564.925	840.25
565.137	873.25
565.349	817.25
565.561	788.25
565.773	792.25
565.985	818.25
566.197	860.25
566.408	934.25
566.62	890.25
566.832	915.25
567.044	900.25
567.255	892.25
567.467	889.25
567.679	932.25
567.891	930.25
568.102	895.25
568.314	860.25
568.526	809.25
568.737	790.25
568.949	739.25
569.161	680.25
569.372	671.25
569.584	692.25
569.795	685.25
570.007	678.25
570.218	646.25
570.43	657.25
570.641	662.25
570.853	647.25
571.064	690.25
571.276	666.25
571.487	659.25
571.698	670.25
571.91	618.25
572.121	652.25
572.333	614.25
572.544	606.25
572.755	584.25
572.966	572.25
573.178	567.25
573.389	586.25
573.6	598.25
573.811	654.25
574.023	599.25
574.234	579.25
574.445	562.25
574.656	555.25
574.867	556.25
575.078	564.25
575.289	587.25
575.501	572.25
575.712	545.25
575.923	556.25
576.134	561.25
576.345	549.25
576.556	562.25
576.767	541.25
576.978	534.25
577.188	524.25
577.399	518.25
577.61	523.25
577.821	545.25
578.032	545.25
578.243	503.25
578.454	525.25
578.665	507.25
578.875	477.25
579.086	492.25
579.297	516.25
579.508	534.25
579.718	525.25
579.929	509.25
580.14	501.25
580.35	489.25
580.561	510.25
580.772	541.25
580.982	537.25
581.193	495.25
581.403	476.25
581.614	488.25
581.825	459.25
582.035	474.25
582.246	479.25
582.456	494.25
582.667	494.25
582.877	467.25
583.087	470.25
583.298	473.25
583.508	467.25
583.719	451.25
583.929	488.25
584.139	484.25
584.35	443.25
584.56	455.25
584.77	462.25
584.981	467.25
585.191	476.25
585.401	497.25
585.611	456.25
585.821	471.25
586.032	457.25
586.242	438.25
586.452	448.25
586.662	459.25
586.872	473.25
587.082	459.25
587.292	460.25
587.502	447.25
587.713	445.25
587.923	452.25
588.133	478.25
588.343	466.25
588.553	449.25
588.762	455.25
588.972	447.25
589.182	467.25
589.392	459.25
589.602	442.25
589.812	431.25
590.022	448.25
590.232	420.25
590.441	453.25
590.651	454.25
590.861	456.25
591.071	420.25
591.281	436.25
591.49	441.25
591.7	441.25
591.91	426.25
592.119	476.25
592.329	461.25
592.539	459.25
592.748	462.25
592.958	456.25
593.167	454.25
593.377	460.25
593.587	469.25
593.796	467.25
594.006	463.25
594.215	474.25
594.424	475.25
594.634	463.25
594.843	468.25
595.053	467.25
595.262	463.25
595.472	463.25
595.681	474.25
595.89	436.25
596.1	398.25
596.309	442.25
596.518	428.25
596.727	440.25
596.937	451.25
597.146	418.25
597.355	399.25
597.564	419.25
597.774	406.25
597.983	411.25
598.192	368.25
598.401	396.25
598.61	386.25
598.819	390.25
599.028	385.25
599.237	394.25
599.446	384.25
599.655	379.25
599.864	380.25
600.073	384.25
600.282	404.25
600.491	374.25
600.7	380.25
600.909	376.25
601.118	397.25
601.327	399.25
601.536	401.25
601.745	410.25
601.953	396.25
602.162	411.25
602.371	424.25
602.58	438.25
602.789	427.25
602.997	417.25
603.206	428.25
603.415	412.25
603.623	412.25
603.832	381.25
604.041	408.25
604.249	390.25
604.458	385.25
604.666	379.25
604.875	375.25
605.084	396.25
605.292	391.25
605.501	407.25
605.709	398.25
605.918	416.25
606.126	396.25
606.334	423.25
606.543	411.25
606.751	404.25
606.96	400.25
607.168	412.25
607.376	397.25
607.585	370.25
607.793	398.25
608.001	385.25
608.21	403.25
608.418	404.25
608.626	400.25
608.834	389.25
609.043	397.25
609.251	414.25
609.459	389.25
609.667	401.25
609.875	411.25
610.083	391.25
610.291	412.25
610.499	406.25
610.707	388.25
610.916	398.25
611.124	405.25
611.332	386.25
611.54	395.25
611.748	409.25
611.955	395.25
612.163	408.25
612.371	376.25
612.579	366.25
612.787	383.25
612.995	397.25
613.203	383.25
613.411	386.25
613.618	401.25
613.826	377.25
614.034	391.25
614.242	398.25
614.449	391.25
614.657	373.25
614.865	403.25
615.072	403.25
615.28	382.25
615.488	401.25
615.695	405.25
615.903	394.25
616.111	384.25
616.318	384.25
616.526	390.25
616.733	389.25
616.941	386.25
617.148	389.25
617.356	402.25
617.563	380.25
617.771	354.25
617.978	356.25
618.185	372.25
618.393	376.25
618.6	383.25
618.807	396.25
619.015	361.25
619.222	372.25
619.429	351.25
619.637	352.25
619.844	357.25
620.051	342.25
620.258	340.25
620.466	345.25
620.673	349.25
620.88	347.25
621.087	336.25
621.294	355.25
621.501	334.25
621.708	339.25
621.915	343.25
622.122	361.25
622.329	358.25
622.536	354.25
622.743	358.25
622.95	359.25
623.157	330.25
623.364	343.25
623.571	360.25
623.778	357.25
623.985	338.25
624.192	336.25
624.399	338.25
624.606	340.25
624.812	327.25
625.019	341.25
625.226	324.25
625.433	327.25
625.639	322.25
625.846	326.25
626.053	294.25
626.259	306.25
626.466	295.25
626.673	284.25
626.879	292.25
627.086	291.25
627.293	314.25
627.499	310.25
627.706	329.25
627.912	316.25
628.119	342.25
628.325	335.25
628.532	326.25
628.738	321.25
628.945	312.25
629.151	301.25
629.357	310.25
629.564	306.25
629.77	308.25
629.976	311.25
630.183	307.25
630.389	298.25
630.595	302.25
630.802	297.25
631.008	312.25
631.214	303.25
631.42	286.25
631.627	304.25
631.833	293.25
632.039	303.25
632.245	286.25
632.451	276.25
632.657	304.25
632.863	277.25
633.069	302.25
633.275	285.25
633.481	287.25
633.688	283.25
633.893	266.25
634.099	274.25
634.305	276.25
634.511	270.25
634.717	292.25
634.923	280.25
635.129	266.25
635.335	257.25
635.541	260.25
635.747	265.25
635.952	266.25
636.158	282.25
636.364	280.25
636.57	288.25
636.775	283.25
636.981	281.25
637.187	273.25
637.392	264.25
637.598	282.25
637.804	283.25
638.009	276.25
638.215	273.25
638.421	267.25
638.626	264.25
638.832	274.25
639.037	283.25
639.243	269.25
639.448	259.25
639.654	254.25
639.859	272.25
640.065	263.25
640.27	264.25
640.475	256.25
640.681	266.25
640.886	277.25
641.091	250.25
641.297	267.25
641.502	255.25
641.707	290.25
641.913	275.25
642.118	257.25
642.323	262.25
642.528	266.25
642.733	246.25
642.939	260.25
643.144	264.25
643.349	241.25
643.554	256.25
643.759	273.25
643.964	254.25
644.169	259.25
644.374	250.25
644.579	258.25
644.784	282.25
644.989	268.25
645.194	276.25
645.399	258.25
645.604	242.25
645.809	247.25
646.014	264.25
646.219	255.25
646.423	272.25
646.628	264.25
646.833	243.25
647.038	244.25
647.243	251.25
647.447	259.25
647.652	262.25
647.857	251.25
648.062	277.25
648.266	272.25
648.471	236.25
648.676	270.25
648.88	260.25
649.085	260.25
649.289	259.25
649.494	278.25
649.698	253.25
649.903	268.25
650.107	272.25
650.312	248.25
650.516	228.25
650.721	262.25
650.925	243.25
651.13	230.25
651.334	218.25
651.539	238.25
651.743	242.25
651.947	229.25
652.152	226.25
652.356	237.25
652.56	229.25
652.764	225.25
652.969	214.25
653.173	230.25
653.377	216.25
653.581	228.25
653.785	230.25
653.99	225.25
654.194	233.25
654.398	223.25
654.602	208.25
654.806	210.25
655.01	226.25
655.214	228.25
655.418	203.25
655.622	206.25
655.826	238.25
656.03	241.25
656.234	247.25
656.438	264.25
656.642	246.25
656.846	232.25
657.049	244.25
657.253	214.25
657.457	198.25
657.661	186.25
657.865	181.25
658.068	162.25
658.272	166.25
658.476	174.25
658.68	160.25
658.883	163.25
659.087	144.25
659.291	142.25
659.494	138.25
659.698	148.25
659.901	140.25
660.105	133.25
660.309	113.25
660.512	119.25
660.716	112.25
660.919	120.25
661.123	121.25
661.326	97.25
661.53	110.25
661.733	98.25
661.936	110.25
662.14	88.25
662.343	101.25
662.546	104.25
662.75	100.25
662.953	73.25
663.156	80.25
663.36	82.25
663.563	85.25
663.766	91.25
663.969	105.25
664.173	88.25
664.376	76.25
664.579	81.25
664.782	86.25
664.985	83.25
665.188	85.25
665.391	87.25
665.594	71.25
665.797	81.25
666	86.25
666.203	81.25
666.406	84.25
666.609	90.25
666.812	82.25
667.015	87.25
667.218	87.25
667.421	74.25
667.624	95.25
667.827	68.25
668.03	81.25
668.232	86.25
668.435	79.25
668.638	73.25
668.841	81.25
669.043	88.25
669.246	86.25
669.449	82.25
669.651	74.25
669.854	80.25
670.057	87.25
670.259	64.25
670.462	75.25
670.665	73.25
670.867	87.25
671.07	82.25
671.272	89.25
671.475	75.25
671.677	67.25
671.88	78.25
672.082	91.25
672.284	79.25
672.487	97.25
672.689	78.25
672.892	80.25
