Data from WStandard_LampEnergy8_LIBS07252019.E.O._I.C._HRD10591_15-58-07-929.txt Node
Date: Thu Jul 25 15:58:07 EDT 2019
User: cochatt
Spectrometer: HR+D1059
Trigger mode: 1
Integration Time (sec): 1.000000E-1
Scans to average: 1
Electric dark correction enabled: true
Nonlinearity correction enabled: false
Boxcar width: 0
XAxis mode: Wavelengths
Number of Pixels in Spectrum: 2048
>>>>>Begin Spectral Data<<<<<
223.165	-23.06
223.4	-23.06
223.635	-23.06
223.869	-19.06
224.104	-4.06
224.338	-17.06
224.573	-9.06
224.808	-7.06
225.042	-15.06
225.277	-6.06
225.511	6.94
225.746	-4.06
225.98	14.94
226.215	1.94
226.449	20.94
226.683	32.94
226.918	17.94
227.152	8.94
227.387	43.94
227.621	38.94
227.856	43.94
228.09	44.94
228.324	55.94
228.559	58.94
228.793	97.94
229.027	208.94
229.262	219.94
229.496	224.94
229.73	238.94
229.964	264.94
230.199	248.94
230.433	277.94
230.667	282.94
230.901	303.94
231.136	272.94
231.37	274.94
231.604	277.94
231.838	267.94
232.072	271.94
232.306	276.94
232.541	300.94
232.775	334.94
233.009	341.94
233.243	313.94
233.477	299.94
233.711	299.94
233.945	307.94
234.179	321.94
234.413	325.94
234.647	356.94
234.881	340.94
235.115	304.94
235.349	310.94
235.583	322.94
235.817	315.94
236.051	323.94
236.285	319.94
236.519	352.94
236.753	375.94
236.987	380.94
237.221	396.94
237.455	397.94
237.689	375.94
237.922	368.94
238.156	364.94
238.39	384.94
238.624	376.94
238.858	419.94
239.091	421.94
239.325	425.94
239.559	496.94
239.793	492.94
240.027	511.94
240.26	526.94
240.494	404.94
240.728	400.94
240.961	408.94
241.195	409.94
241.429	434.94
241.662	449.94
241.896	432.94
242.13	433.94
242.363	463.94
242.597	476.94
242.83	478.94
243.064	487.94
243.298	495.94
243.531	477.94
243.765	455.94
243.998	465.94
244.232	430.94
244.465	426.94
244.699	447.94
244.932	523.94
245.166	531.94
245.399	507.94
245.633	486.94
245.866	479.94
246.099	506.94
246.333	495.94
246.566	538.94
246.8	571.94
247.033	599.94
247.266	560.94
247.5	552.94
247.733	561.94
247.966	578.94
248.2	615.94
248.433	615.94
248.666	648.94
248.899	686.94
249.133	791.94
249.366	867.94
249.599	726.94
249.832	640.94
250.066	671.94
250.299	654.94
250.532	616.94
250.765	590.94
250.998	615.94
251.231	612.94
251.465	646.94
251.698	603.94
251.931	613.94
252.164	617.94
252.397	613.94
252.63	635.94
252.863	553.94
253.096	549.94
253.329	582.94
253.562	621.94
253.795	642.94
254.028	640.94
254.261	586.94
254.494	602.94
254.727	605.94
254.96	624.94
255.193	670.94
255.426	737.94
255.659	805.94
255.892	824.94
256.124	713.94
256.357	710.94
256.59	728.94
256.823	722.94
257.056	708.94
257.289	881.94
257.521	923.94
257.754	852.94
257.987	828.94
258.22	866.94
258.452	834.94
258.685	722.94
258.918	692.94
259.151	683.94
259.383	674.94
259.616	626.94
259.849	651.94
260.081	702.94
260.314	812.94
260.547	871.94
260.779	883.94
261.012	804.94
261.244	721.94
261.477	700.94
261.71	739.94
261.942	735.94
262.175	688.94
262.407	723.94
262.64	693.94
262.872	662.94
263.105	641.94
263.337	656.94
263.57	668.94
263.802	682.94
264.035	627.94
264.267	583.94
264.499	589.94
264.732	640.94
264.964	688.94
265.197	692.94
265.429	742.94
265.661	808.94
265.894	894.94
266.126	882.94
266.358	830.94
266.591	852.94
266.823	886.94
267.055	835.94
267.287	792.94
267.52	800.94
267.752	806.94
267.984	801.94
268.216	836.94
268.448	864.94
268.681	814.94
268.913	764.94
269.145	734.94
269.377	732.94
269.609	813.94
269.841	926.94
270.073	1028.94
270.306	1138.94
270.538	1146.94
270.77	1006.94
271.002	866.94
271.234	832.94
271.466	866.94
271.698	924.94
271.93	1125.94
272.162	1082.94
272.394	1028.94
272.626	946.94
272.858	836.94
273.09	732.94
273.322	729.94
273.553	698.94
273.785	741.94
274.017	724.94
274.249	786.94
274.481	792.94
274.713	740.94
274.945	712.94
275.176	745.94
275.408	722.94
275.64	692.94
275.872	724.94
276.104	775.94
276.335	882.94
276.567	959.94
276.799	950.94
277.031	868.94
277.262	839.94
277.494	862.94
277.726	938.94
277.957	921.94
278.189	843.94
278.421	776.94
278.652	771.94
278.884	765.94
279.115	776.94
279.347	789.94
279.579	768.94
279.81	787.94
280.042	838.94
280.273	954.94
280.505	947.94
280.736	905.94
280.968	856.94
281.199	754.94
281.431	755.94
281.662	761.94
281.894	752.94
282.125	770.94
282.356	778.94
282.588	803.94
282.819	814.94
283.051	865.94
283.282	947.94
283.513	870.94
283.745	782.94
283.976	747.94
284.207	762.94
284.439	750.94
284.67	754.94
284.901	805.94
285.132	833.94
285.364	800.94
285.595	817.94
285.826	769.94
286.057	798.94
286.288	785.94
286.52	831.94
286.751	865.94
286.982	892.94
287.213	809.94
287.444	759.94
287.675	786.94
287.906	805.94
288.138	835.94
288.369	848.94
288.6	758.94
288.831	760.94
289.062	778.94
289.293	781.94
289.524	783.94
289.755	828.94
289.986	828.94
290.217	777.94
290.448	778.94
290.679	819.94
290.91	832.94
291.141	838.94
291.371	859.94
291.602	862.94
291.833	852.94
292.064	884.94
292.295	859.94
292.526	886.94
292.757	898.94
292.987	850.94
293.218	841.94
293.449	934.94
293.68	994.94
293.91	1047.94
294.141	974.94
294.372	955.94
294.603	967.94
294.833	989.94
295.064	941.94
295.295	874.94
295.525	872.94
295.756	787.94
295.987	772.94
296.217	775.94
296.448	829.94
296.679	807.94
296.909	804.94
297.14	793.94
297.37	807.94
297.601	883.94
297.831	918.94
298.062	906.94
298.292	829.94
298.523	798.94
298.753	807.94
298.984	811.94
299.214	793.94
299.445	846.94
299.675	847.94
299.905	898.94
300.136	848.94
300.366	816.94
300.597	796.94
300.827	792.94
301.057	861.94
301.288	872.94
301.518	896.94
301.748	930.94
301.979	925.94
302.209	950.94
302.439	1015.94
302.669	1051.94
302.9	948.94
303.13	882.94
303.36	873.94
303.59	907.94
303.82	890.94
304.051	888.94
304.281	870.94
304.511	902.94
304.741	975.94
304.971	1059.94
305.201	1105.94
305.431	985.94
305.661	846.94
305.891	786.94
306.121	795.94
306.352	827.94
306.582	874.94
306.812	947.94
307.042	974.94
307.272	984.94
307.502	1034.94
307.731	1069.94
307.961	1133.94
308.191	1019.94
308.421	907.94
308.651	876.94
308.881	855.94
309.111	854.94
309.341	840.94
309.571	857.94
309.8	852.94
310.03	844.94
310.26	866.94
310.49	834.94
310.72	878.94
310.949	906.94
311.179	918.94
311.409	896.94
311.639	856.94
311.868	848.94
312.098	880.94
312.328	857.94
312.557	863.94
312.787	898.94
313.017	903.94
313.246	907.94
313.476	878.94
313.706	917.94
313.935	900.94
314.165	927.94
314.394	944.94
314.624	1030.94
314.853	1070.94
315.083	1085.94
315.312	1086.94
315.542	1006.94
315.771	907.94
316.001	962.94
316.23	1003.94
316.46	958.94
316.689	957.94
316.919	893.94
317.148	888.94
317.377	928.94
317.607	1010.94
317.836	1076.94
318.065	1152.94
318.295	1086.94
318.524	1035.94
318.753	985.94
318.983	961.94
319.212	953.94
319.441	942.94
319.67	958.94
319.9	976.94
320.129	1026.94
320.358	1061.94
320.587	1075.94
320.816	1025.94
321.046	1042.94
321.275	997.94
321.504	1039.94
321.733	1084.94
321.962	1030.94
322.191	980.94
322.42	962.94
322.649	974.94
322.878	963.94
323.108	975.94
323.337	991.94
323.566	987.94
323.795	989.94
324.024	984.94
324.253	959.94
324.482	980.94
324.71	930.94
324.939	898.94
325.168	937.94
325.397	962.94
325.626	986.94
325.855	990.94
326.084	962.94
326.313	951.94
326.542	958.94
326.77	988.94
326.999	1015.94
327.228	932.94
327.457	920.94
327.686	911.94
327.914	950.94
328.143	944.94
328.372	958.94
328.6	985.94
328.829	952.94
329.058	922.94
329.287	960.94
329.515	963.94
329.744	989.94
329.972	1039.94
330.201	1072.94
330.43	1053.94
330.658	1020.94
330.887	1010.94
331.115	1026.94
331.344	1026.94
331.572	1002.94
331.801	996.94
332.03	1006.94
332.258	1042.94
332.486	1050.94
332.715	1043.94
332.943	1000.94
333.172	971.94
333.4	1052.94
333.629	1103.94
333.857	1135.94
334.085	1286.94
334.314	1421.94
334.542	1479.94
334.771	1361.94
334.999	1194.94
335.227	1105.94
335.455	1112.94
335.684	1107.94
335.912	1105.94
336.14	1143.94
336.369	1106.94
336.597	1036.94
336.825	1036.94
337.053	1082.94
337.281	1145.94
337.51	1207.94
337.738	1202.94
337.966	1130.94
338.194	1054.94
338.422	1003.94
338.65	1006.94
338.878	973.94
339.106	980.94
339.334	964.94
339.562	975.94
339.79	1009.94
340.018	1035.94
340.246	1084.94
340.474	1059.94
340.702	1025.94
340.93	1066.94
341.158	1036.94
341.386	1017.94
341.614	978.94
341.842	986.94
342.07	1017.94
342.298	1019.94
342.526	1002.94
342.754	1026.94
342.981	979.94
343.209	993.94
343.437	977.94
343.665	982.94
343.893	1034.94
344.12	1083.94
344.348	1061.94
344.576	1058.94
344.804	1005.94
345.031	1012.94
345.259	1028.94
345.487	976.94
345.714	930.94
345.942	930.94
346.17	943.94
346.397	976.94
346.625	1006.94
346.853	906.94
347.08	878.94
347.308	916.94
347.535	944.94
347.763	988.94
347.99	960.94
348.218	922.94
348.445	939.94
348.673	919.94
348.9	986.94
349.128	1016.94
349.355	1029.94
349.583	1016.94
349.81	963.94
350.037	897.94
350.265	924.94
350.492	894.94
350.72	909.94
350.947	995.94
351.174	963.94
351.402	903.94
351.629	901.94
351.856	867.94
352.083	867.94
352.311	901.94
352.538	933.94
352.765	992.94
352.992	1001.94
353.22	936.94
353.447	906.94
353.674	984.94
353.901	938.94
354.128	907.94
354.355	940.94
354.583	967.94
354.81	959.94
355.037	993.94
355.264	1000.94
355.491	968.94
355.718	939.94
355.945	918.94
356.172	939.94
356.399	913.94
356.626	948.94
356.853	995.94
357.08	1086.94
357.307	1164.94
357.534	1101.94
357.761	1018.94
357.988	953.94
358.215	898.94
358.441	909.94
358.668	909.94
358.895	924.94
359.122	998.94
359.349	1074.94
359.576	1052.94
359.802	944.94
360.029	922.94
360.256	941.94
360.483	935.94
360.709	970.94
360.936	1000.94
361.163	1073.94
361.39	1122.94
361.616	1196.94
361.843	1164.94
362.07	1078.94
362.296	950.94
362.523	938.94
362.749	937.94
362.976	987.94
363.203	986.94
363.429	927.94
363.656	925.94
363.882	999.94
364.109	1102.94
364.335	1138.94
364.562	1063.94
364.788	1000.94
365.015	947.94
365.241	914.94
365.468	966.94
365.694	995.94
365.92	1028.94
366.147	974.94
366.373	939.94
366.599	916.94
366.826	949.94
367.052	924.94
367.278	933.94
367.505	980.94
367.731	972.94
367.957	981.94
368.184	1018.94
368.41	1084.94
368.636	1090.94
368.862	1097.94
369.089	1087.94
369.315	1032.94
369.541	1015.94
369.767	977.94
369.993	956.94
370.219	960.94
370.445	1010.94
370.672	1034.94
370.898	1076.94
371.124	1065.94
371.35	996.94
371.576	1056.94
371.802	1079.94
372.028	1018.94
372.254	987.94
372.48	985.94
372.706	952.94
372.932	954.94
373.158	978.94
373.384	1005.94
373.61	1043.94
373.835	1074.94
374.061	1000.94
374.287	1014.94
374.513	1019.94
374.739	1020.94
374.965	1045.94
375.191	1023.94
375.416	1033.94
375.642	1077.94
375.868	1133.94
376.094	1140.94
376.319	1059.94
376.545	1025.94
376.771	1047.94
376.997	1132.94
377.222	1089.94
377.448	1064.94
377.674	1094.94
377.899	1088.94
378.125	1151.94
378.35	1125.94
378.576	995.94
378.802	969.94
379.027	987.94
379.253	1002.94
379.478	1009.94
379.704	1010.94
379.929	1004.94
380.155	1011.94
380.38	1027.94
380.606	1031.94
380.831	1055.94
381.057	1113.94
381.282	1097.94
381.507	1100.94
381.733	1194.94
381.958	1162.94
382.184	1079.94
382.409	1052.94
382.634	1068.94
382.86	1072.94
383.085	1057.94
383.31	1125.94
383.535	1253.94
383.761	1240.94
383.986	1206.94
384.211	1151.94
384.436	1166.94
384.662	1220.94
384.887	1228.94
385.112	1150.94
385.337	1171.94
385.562	1153.94
385.787	1137.94
386.013	1202.94
386.238	1186.94
386.463	1202.94
386.688	1316.94
386.913	1388.94
387.138	1278.94
387.363	1210.94
387.588	1173.94
387.813	1171.94
388.038	1216.94
388.263	1265.94
388.488	1200.94
388.713	1107.94
388.938	1088.94
389.163	1138.94
389.387	1182.94
389.612	1132.94
389.837	1190.94
390.062	1170.94
390.287	1162.94
390.512	1169.94
390.736	1119.94
390.961	1138.94
391.186	1064.94
391.411	1130.94
391.636	1119.94
391.86	1179.94
392.085	1142.94
392.31	1126.94
392.534	1127.94
392.759	1151.94
392.984	1162.94
393.208	1155.94
393.433	1233.94
393.658	1264.94
393.882	1272.94
394.107	1199.94
394.331	1149.94
394.556	1153.94
394.78	1185.94
395.005	1226.94
395.229	1242.94
395.454	1340.94
395.678	1339.94
395.903	1250.94
396.127	1230.94
396.352	1248.94
396.576	1276.94
396.801	1297.94
397.025	1291.94
397.249	1282.94
397.474	1236.94
397.698	1217.94
397.922	1306.94
398.147	1365.94
398.371	1412.94
398.595	1402.94
398.82	1356.94
399.044	1360.94
399.268	1419.94
399.492	1501.94
399.717	1515.94
399.941	1538.94
400.165	1483.94
400.389	1476.94
400.613	1523.94
400.837	1665.94
401.062	1846.94
401.286	1619.94
401.51	1485.94
401.734	1494.94
401.958	1451.94
402.182	1348.94
402.406	1347.94
402.63	1342.94
402.854	1302.94
403.078	1344.94
403.302	1370.94
403.526	1357.94
403.75	1412.94
403.974	1396.94
404.198	1378.94
404.422	1435.94
404.645	1485.94
404.869	1466.94
405.093	1324.94
405.317	1338.94
405.541	1390.94
405.765	1388.94
405.988	1386.94
406.212	1413.94
406.436	1410.94
406.66	1479.94
406.883	1530.94
407.107	1748.94
407.331	1848.94
407.555	1945.94
407.778	1749.94
408.002	1504.94
408.226	1475.94
408.449	1464.94
408.673	1406.94
408.896	1407.94
409.12	1457.94
409.344	1418.94
409.567	1386.94
409.791	1379.94
410.014	1434.94
410.238	1502.94
410.461	1587.94
410.685	1376.94
410.908	1391.94
411.132	1392.94
411.355	1374.94
411.578	1373.94
411.802	1352.94
412.025	1373.94
412.249	1370.94
412.472	1321.94
412.695	1336.94
412.919	1338.94
413.142	1316.94
413.365	1332.94
413.589	1367.94
413.812	1438.94
414.035	1443.94
414.258	1347.94
414.482	1351.94
414.705	1347.94
414.928	1318.94
415.151	1335.94
415.374	1353.94
415.597	1349.94
415.821	1387.94
416.044	1399.94
416.267	1359.94
416.49	1314.94
416.713	1290.94
416.936	1368.94
417.159	1407.94
417.382	1442.94
417.605	1331.94
417.828	1345.94
418.051	1381.94
418.274	1359.94
418.497	1337.94
418.72	1328.94
418.943	1314.94
419.166	1352.94
419.389	1383.94
419.611	1316.94
419.834	1320.94
420.057	1316.94
420.28	1319.94
420.503	1293.94
420.726	1379.94
420.948	1336.94
421.171	1300.94
421.394	1299.94
421.617	1375.94
421.839	1340.94
422.062	1338.94
422.285	1303.94
422.507	1308.94
422.73	1286.94
422.953	1238.94
423.175	1257.94
423.398	1290.94
423.621	1291.94
423.843	1289.94
424.066	1346.94
424.288	1438.94
424.511	1468.94
424.733	1380.94
424.956	1297.94
425.178	1294.94
425.401	1295.94
425.623	1299.94
425.846	1326.94
426.068	1359.94
426.291	1368.94
426.513	1363.94
426.735	1373.94
426.958	1477.94
427.18	1539.94
427.402	1400.94
427.625	1398.94
427.847	1441.94
428.069	1310.94
428.292	1294.94
428.514	1238.94
428.736	1249.94
428.958	1295.94
429.181	1251.94
429.403	1520.94
429.625	1824.94
429.847	1529.94
430.069	1358.94
430.292	1497.94
430.514	1474.94
430.736	1407.94
430.958	1407.94
431.18	1325.94
431.402	1273.94
431.624	1242.94
431.846	1213.94
432.068	1168.94
432.29	1180.94
432.512	1204.94
432.734	1294.94
432.956	1316.94
433.178	1401.94
433.4	1347.94
433.622	1333.94
433.844	1278.94
434.066	1210.94
434.287	1195.94
434.509	1209.94
434.731	1306.94
434.953	1438.94
435.175	1355.94
435.397	1339.94
435.618	1321.94
435.84	1273.94
436.062	1278.94
436.284	1265.94
436.505	1315.94
436.727	1329.94
436.949	1354.94
437.17	1277.94
437.392	1286.94
437.614	1238.94
437.835	1198.94
438.057	1271.94
438.278	1281.94
438.5	1244.94
438.721	1251.94
438.943	1278.94
439.165	1266.94
439.386	1263.94
439.608	1275.94
439.829	1278.94
440.05	1314.94
440.272	1243.94
440.493	1281.94
440.715	1303.94
440.936	1407.94
441.158	1455.94
441.379	1435.94
441.6	1384.94
441.822	1410.94
442.043	1346.94
442.264	1334.94
442.486	1268.94
442.707	1250.94
442.928	1256.94
443.149	1339.94
443.371	1364.94
443.592	1402.94
443.813	1388.94
444.034	1373.94
444.255	1385.94
444.476	1427.94
444.698	1450.94
444.919	1435.94
445.14	1497.94
445.361	1480.94
445.582	1453.94
445.803	1454.94
446.024	1415.94
446.245	1472.94
446.466	1392.94
446.687	1372.94
446.908	1372.94
447.129	1320.94
447.35	1323.94
447.571	1316.94
447.792	1277.94
448.013	1236.94
448.234	1297.94
448.455	1344.94
448.675	1336.94
448.896	1284.94
449.117	1234.94
449.338	1294.94
449.559	1311.94
449.779	1353.94
450	1456.94
450.221	1528.94
450.442	1445.94
450.662	1334.94
450.883	1216.94
451.104	1208.94
451.324	1210.94
451.545	1270.94
451.766	1242.94
451.986	1167.94
452.207	1170.94
452.428	1128.94
452.648	1139.94
452.869	1131.94
453.089	1174.94
453.31	1193.94
453.53	1191.94
453.751	1134.94
453.971	1099.94
454.192	1145.94
454.412	1164.94
454.633	1160.94
454.853	1148.94
455.073	1063.94
455.294	1066.94
455.514	1107.94
455.734	1090.94
455.955	1135.94
456.175	1095.94
456.395	1111.94
456.616	1091.94
456.836	1128.94
457.056	1106.94
457.276	1101.94
457.497	1086.94
457.717	1060.94
457.937	1066.94
458.157	1093.94
458.377	1040.94
458.598	1054.94
458.818	1066.94
459.038	1138.94
459.258	1191.94
459.478	1156.94
459.698	1130.94
459.918	1189.94
460.138	1251.94
460.358	1299.94
460.578	1282.94
460.798	1311.94
461.018	1389.94
461.238	1348.94
461.458	1307.94
461.678	1286.94
461.898	1249.94
462.118	1246.94
462.338	1316.94
462.558	1291.94
462.777	1280.94
462.997	1355.94
463.217	1394.94
463.437	1353.94
463.657	1314.94
463.876	1287.94
464.096	1281.94
464.316	1309.94
464.536	1338.94
464.755	1313.94
464.975	1334.94
465.195	1330.94
465.414	1350.94
465.634	1346.94
465.854	1321.94
466.073	1412.94
466.293	1355.94
466.512	1246.94
466.732	1199.94
466.951	1291.94
467.171	1262.94
467.391	1243.94
467.61	1206.94
467.829	1269.94
468.049	1370.94
468.268	1482.94
468.488	1347.94
468.707	1283.94
468.927	1244.94
469.146	1240.94
469.365	1223.94
469.585	1293.94
469.804	1253.94
470.023	1248.94
470.243	1283.94
470.462	1279.94
470.681	1236.94
470.901	1235.94
471.12	1239.94
471.339	1270.94
471.558	1218.94
471.777	1213.94
471.997	1216.94
472.216	1197.94
472.435	1142.94
472.654	1130.94
472.873	1182.94
473.092	1256.94
473.311	1216.94
473.53	1176.94
473.749	1166.94
473.968	1206.94
474.187	1260.94
474.406	1282.94
474.625	1242.94
474.844	1229.94
475.063	1232.94
475.282	1268.94
475.501	1196.94
475.72	1242.94
475.939	1339.94
476.158	1281.94
476.377	1232.94
476.596	1254.94
476.814	1241.94
477.033	1230.94
477.252	1291.94
477.471	1338.94
477.69	1315.94
477.908	1344.94
478.127	1382.94
478.346	1473.94
478.564	1452.94
478.783	1486.94
479.002	1458.94
479.22	1440.94
479.439	1508.94
479.658	1594.94
479.876	1530.94
480.095	1416.94
480.313	1401.94
480.532	1328.94
480.751	1344.94
480.969	1340.94
481.188	1324.94
481.406	1275.94
481.624	1221.94
481.843	1278.94
482.061	1307.94
482.28	1367.94
482.498	1377.94
482.717	1340.94
482.935	1324.94
483.153	1395.94
483.372	1363.94
483.59	1358.94
483.808	1398.94
484.027	1407.94
484.245	1481.94
484.463	1760.94
484.681	1960.94
484.9	1486.94
485.118	1373.94
485.336	1388.94
485.554	1396.94
485.772	1415.94
485.99	1402.94
486.209	1409.94
486.427	1425.94
486.645	1448.94
486.863	1450.94
487.081	1463.94
487.299	1507.94
487.517	1490.94
487.735	1493.94
487.953	1536.94
488.171	1498.94
488.389	1470.94
488.607	1503.94
488.825	1657.94
489.043	1588.94
489.261	1437.94
489.479	1494.94
489.696	1500.94
489.914	1494.94
490.132	1460.94
490.35	1457.94
490.568	1540.94
490.786	1525.94
491.003	1524.94
491.221	1600.94
491.439	1648.94
491.657	1609.94
491.874	1658.94
492.092	1700.94
492.31	1747.94
492.527	1697.94
492.745	1599.94
492.963	1640.94
493.18	1656.94
493.398	1756.94
493.615	1734.94
493.833	1646.94
494.05	1565.94
494.268	1568.94
494.485	1638.94
494.703	1605.94
494.92	1565.94
495.138	1568.94
495.355	1554.94
495.573	1642.94
495.79	1730.94
496.008	1717.94
496.225	1640.94
496.442	1664.94
496.66	1630.94
496.877	1619.94
497.094	1694.94
497.312	1642.94
497.529	1647.94
497.746	1688.94
497.963	1946.94
498.181	2056.94
498.398	1963.94
498.615	1908.94
498.832	1791.94
499.049	1802.94
499.267	1802.94
499.484	1906.94
499.701	2074.94
499.918	2091.94
500.135	2232.94
500.352	2384.94
500.569	2392.94
500.786	2629.94
501.003	2358.94
501.22	2117.94
501.437	2126.94
501.654	2164.94
501.871	2033.94
502.088	1809.94
502.305	1820.94
502.522	1705.94
502.739	1648.94
502.956	1628.94
503.172	1626.94
503.389	1504.94
503.606	1515.94
503.823	1522.94
504.04	1500.94
504.256	1528.94
504.473	1504.94
504.69	1569.94
504.907	1466.94
505.123	1448.94
505.34	1614.94
505.557	2042.94
505.773	1689.94
505.99	1369.94
506.207	1331.94
506.423	1315.94
506.64	1313.94
506.856	1338.94
507.073	1561.94
507.289	1659.94
507.506	1536.94
507.722	1350.94
507.939	1275.94
508.155	1253.94
508.372	1287.94
508.588	1257.94
508.805	1182.94
509.021	1199.94
509.238	1183.94
509.454	1178.94
509.67	1176.94
509.887	1142.94
510.103	1142.94
510.319	1171.94
510.536	1200.94
510.752	1244.94
510.968	1222.94
511.184	1330.94
511.401	1263.94
511.617	1139.94
511.833	1144.94
512.049	1127.94
512.265	1133.94
512.481	1118.94
512.698	1185.94
512.914	1226.94
513.13	1194.94
513.346	1161.94
513.562	1108.94
513.778	1161.94
513.994	1192.94
514.21	1192.94
514.426	1248.94
514.642	1346.94
514.858	1242.94
515.074	1174.94
515.29	1164.94
515.506	1179.94
515.721	1192.94
515.937	1224.94
516.153	1327.94
516.369	1266.94
516.585	1203.94
516.801	1180.94
517.016	1170.94
517.232	1200.94
517.448	1270.94
517.664	1263.94
517.879	1229.94
518.095	1295.94
518.311	1251.94
518.527	1184.94
518.742	1169.94
518.958	1178.94
519.173	1171.94
519.389	1193.94
519.605	1203.94
519.82	1215.94
520.036	1235.94
520.251	1200.94
520.467	1202.94
520.682	1271.94
520.898	1273.94
521.113	1165.94
521.329	1128.94
521.544	1233.94
521.76	1172.94
521.975	1132.94
522.19	1140.94
522.406	1152.94
522.621	1437.94
522.836	1366.94
523.052	1146.94
523.267	1160.94
523.482	1096.94
523.698	1098.94
523.913	1092.94
524.128	1094.94
524.343	1174.94
524.559	1193.94
524.774	1119.94
524.989	1093.94
525.204	1112.94
525.419	1068.94
525.634	1086.94
525.849	1086.94
526.064	1100.94
526.28	1048.94
526.495	1004.94
526.71	1030.94
526.925	1025.94
527.14	1025.94
527.355	998.94
527.57	998.94
527.785	1034.94
527.999	1032.94
528.214	998.94
528.429	1025.94
528.644	1014.94
528.859	1074.94
529.074	1130.94
529.289	1155.94
529.503	1136.94
529.718	1116.94
529.933	1026.94
530.148	1009.94
530.363	1000.94
530.577	992.94
530.792	1009.94
531.007	1028.94
531.221	964.94
531.436	1048.94
531.651	1035.94
531.865	1097.94
532.08	1024.94
532.295	992.94
532.509	970.94
532.724	986.94
532.938	1008.94
533.153	1082.94
533.367	1039.94
533.582	1034.94
533.796	1031.94
534.011	1045.94
534.225	1018.94
534.44	972.94
534.654	962.94
534.868	1020.94
535.083	1018.94
535.297	1071.94
535.511	1014.94
535.726	1036.94
535.94	1015.94
536.154	1006.94
536.369	954.94
536.583	952.94
536.797	958.94
537.011	973.94
537.225	953.94
537.44	954.94
537.654	1027.94
537.868	956.94
538.082	926.94
538.296	924.94
538.51	936.94
538.724	961.94
538.938	994.94
539.153	1022.94
539.367	1020.94
539.581	1001.94
539.795	1004.94
540.009	971.94
540.222	980.94
540.436	1003.94
540.65	1112.94
540.864	1124.94
541.078	1087.94
541.292	1057.94
541.506	1065.94
541.72	1117.94
541.934	1171.94
542.147	1192.94
542.361	1136.94
542.575	1093.94
542.789	1036.94
543.002	967.94
543.216	993.94
543.43	1031.94
543.644	1118.94
543.857	1140.94
544.071	1137.94
544.285	1100.94
544.498	1098.94
544.712	1098.94
544.925	1121.94
545.139	1136.94
545.352	1121.94
545.566	1075.94
545.779	1056.94
545.993	1103.94
546.206	1115.94
546.42	1086.94
546.633	1090.94
546.847	1085.94
547.06	1081.94
547.274	1076.94
547.487	1084.94
547.7	1114.94
547.914	1111.94
548.127	1100.94
548.34	1114.94
548.554	1098.94
548.767	1099.94
548.98	1075.94
549.193	1075.94
549.407	1145.94
549.62	1114.94
549.833	1087.94
550.046	1088.94
550.259	1085.94
550.473	1045.94
550.686	1043.94
550.899	1034.94
551.112	1001.94
551.325	1008.94
551.538	1034.94
551.751	1164.94
551.964	928.94
552.177	946.94
552.39	992.94
552.603	1010.94
552.816	1044.94
553.029	1068.94
553.242	1090.94
553.455	1072.94
553.667	1059.94
553.88	1062.94
554.093	1041.94
554.306	1022.94
554.519	989.94
554.732	972.94
554.944	977.94
555.157	1028.94
555.37	986.94
555.583	964.94
555.795	926.94
556.008	892.94
556.221	907.94
556.433	887.94
556.646	898.94
556.859	896.94
557.071	888.94
557.284	904.94
557.496	899.94
557.709	869.94
557.921	883.94
558.134	896.94
558.346	890.94
558.559	875.94
558.771	861.94
558.984	845.94
559.196	817.94
559.409	823.94
559.621	800.94
559.833	833.94
560.046	850.94
560.258	865.94
560.47	843.94
560.683	866.94
560.895	827.94
561.107	818.94
561.32	854.94
561.532	864.94
561.744	841.94
561.956	855.94
562.168	808.94
562.381	830.94
562.593	793.94
562.805	819.94
563.017	803.94
563.229	817.94
563.441	818.94
563.653	785.94
563.865	777.94
564.077	783.94
564.289	789.94
564.501	815.94
564.713	823.94
564.925	822.94
565.137	916.94
565.349	850.94
565.561	835.94
565.773	844.94
565.985	841.94
566.197	870.94
566.408	942.94
566.62	942.94
566.832	922.94
567.044	911.94
567.255	912.94
567.467	898.94
567.679	928.94
567.891	930.94
568.102	935.94
568.314	874.94
568.526	829.94
568.737	774.94
568.949	758.94
569.161	728.94
569.372	711.94
569.584	701.94
569.795	694.94
570.007	693.94
570.218	672.94
570.43	676.94
570.641	680.94
570.853	676.94
571.064	685.94
571.276	703.94
571.487	680.94
571.698	679.94
571.91	636.94
572.121	646.94
572.333	634.94
572.544	626.94
572.755	609.94
572.966	615.94
573.178	606.94
573.389	574.94
573.6	632.94
573.811	653.94
574.023	599.94
574.234	576.94
574.445	584.94
574.656	572.94
574.867	568.94
575.078	592.94
575.289	604.94
575.501	568.94
575.712	565.94
575.923	566.94
576.134	584.94
576.345	571.94
576.556	560.94
576.767	569.94
576.978	571.94
577.188	533.94
577.399	549.94
577.61	545.94
577.821	508.94
578.032	516.94
578.243	528.94
578.454	526.94
578.665	523.94
578.875	516.94
579.086	518.94
579.297	512.94
579.508	526.94
579.718	511.94
579.929	478.94
580.14	504.94
580.35	500.94
580.561	542.94
580.772	568.94
580.982	545.94
581.193	506.94
581.403	505.94
581.614	497.94
581.825	483.94
582.035	490.94
582.246	494.94
582.456	502.94
582.667	498.94
582.877	484.94
583.087	464.94
583.298	462.94
583.508	477.94
583.719	488.94
583.929	494.94
584.139	490.94
584.35	448.94
584.56	465.94
584.77	510.94
584.981	482.94
585.191	478.94
585.401	527.94
585.611	480.94
585.821	475.94
586.032	451.94
586.242	455.94
586.452	462.94
586.662	496.94
586.872	446.94
587.082	444.94
587.292	473.94
587.502	462.94
587.713	482.94
587.923	457.94
588.133	450.94
588.343	483.94
588.553	468.94
588.762	462.94
588.972	468.94
589.182	455.94
589.392	448.94
589.602	503.94
589.812	468.94
590.022	462.94
590.232	476.94
590.441	466.94
590.651	473.94
590.861	449.94
591.071	431.94
591.281	454.94
591.49	474.94
591.7	449.94
591.91	477.94
592.119	457.94
592.329	470.94
592.539	490.94
592.748	475.94
592.958	460.94
593.167	473.94
593.377	473.94
593.587	476.94
593.796	492.94
594.006	488.94
594.215	483.94
594.424	467.94
594.634	482.94
594.843	487.94
595.053	476.94
595.262	484.94
595.472	466.94
595.681	462.94
595.89	455.94
596.1	456.94
596.309	462.94
596.518	443.94
596.727	434.94
596.937	463.94
597.146	427.94
597.355	422.94
597.564	414.94
597.774	414.94
597.983	415.94
598.192	408.94
598.401	413.94
598.61	402.94
598.819	407.94
599.028	426.94
599.237	391.94
599.446	399.94
599.655	407.94
599.864	387.94
600.073	393.94
600.282	394.94
600.491	402.94
600.7	406.94
600.909	411.94
601.118	414.94
601.327	417.94
601.536	425.94
601.745	440.94
601.953	438.94
602.162	418.94
602.371	435.94
602.58	423.94
602.789	420.94
602.997	439.94
603.206	419.94
603.415	400.94
603.623	412.94
603.832	422.94
604.041	406.94
604.249	380.94
604.458	386.94
604.666	403.94
604.875	417.94
605.084	388.94
605.292	411.94
605.501	420.94
605.709	425.94
605.918	410.94
606.126	410.94
606.334	426.94
606.543	399.94
606.751	433.94
606.96	416.94
607.168	407.94
607.376	401.94
607.585	408.94
607.793	430.94
608.001	398.94
608.21	418.94
608.418	420.94
608.626	409.94
608.834	405.94
609.043	427.94
609.251	416.94
609.459	399.94
609.667	419.94
609.875	426.94
610.083	432.94
610.291	435.94
610.499	411.94
610.707	401.94
610.916	394.94
611.124	407.94
611.332	397.94
611.54	399.94
611.748	396.94
611.955	414.94
612.163	386.94
612.371	410.94
612.579	409.94
612.787	397.94
612.995	420.94
613.203	394.94
613.411	398.94
613.618	396.94
613.826	416.94
614.034	404.94
614.242	398.94
614.449	383.94
614.657	384.94
614.865	406.94
615.072	385.94
615.28	416.94
615.488	396.94
615.695	398.94
615.903	398.94
616.111	415.94
616.318	390.94
616.526	411.94
616.733	396.94
616.941	410.94
617.148	408.94
617.356	382.94
617.563	378.94
617.771	384.94
617.978	385.94
618.185	376.94
618.393	379.94
618.6	386.94
618.807	390.94
619.015	397.94
619.222	390.94
619.429	363.94
619.637	363.94
619.844	353.94
620.051	354.94
620.258	368.94
620.466	366.94
620.673	370.94
620.88	368.94
621.087	360.94
621.294	361.94
621.501	351.94
621.708	345.94
621.915	369.94
622.122	370.94
622.329	375.94
622.536	364.94
622.743	362.94
622.95	366.94
623.157	340.94
623.364	359.94
623.571	371.94
623.778	379.94
623.985	374.94
624.192	350.94
624.399	335.94
624.606	326.94
624.812	355.94
625.019	335.94
625.226	337.94
625.433	341.94
625.639	345.94
625.846	320.94
626.053	302.94
626.259	290.94
626.466	314.94
626.673	298.94
626.879	296.94
627.086	298.94
627.293	320.94
627.499	326.94
627.706	330.94
627.912	331.94
628.119	350.94
628.325	337.94
628.532	324.94
628.738	342.94
628.945	313.94
629.151	310.94
629.357	345.94
629.564	335.94
629.77	337.94
629.976	308.94
630.183	313.94
630.389	314.94
630.595	310.94
630.802	331.94
631.008	319.94
631.214	307.94
631.42	294.94
631.627	280.94
631.833	295.94
632.039	299.94
632.245	304.94
632.451	302.94
632.657	295.94
632.863	294.94
633.069	299.94
633.275	300.94
633.481	305.94
633.688	296.94
633.893	294.94
634.099	294.94
634.305	295.94
634.511	291.94
634.717	289.94
634.923	279.94
635.129	266.94
635.335	272.94
635.541	294.94
635.747	286.94
635.952	290.94
636.158	299.94
636.364	307.94
636.57	272.94
636.775	275.94
636.981	300.94
637.187	310.94
637.392	296.94
637.598	293.94
637.804	290.94
638.009	298.94
638.215	284.94
638.421	303.94
638.626	295.94
638.832	275.94
639.037	274.94
639.243	258.94
639.448	260.94
639.654	259.94
639.859	258.94
640.065	281.94
640.27	292.94
640.475	276.94
640.681	296.94
640.886	262.94
641.091	282.94
641.297	292.94
641.502	283.94
641.707	279.94
641.913	280.94
642.118	273.94
642.323	270.94
642.528	249.94
642.733	251.94
642.939	259.94
643.144	250.94
643.349	261.94
643.554	272.94
643.759	266.94
643.964	275.94
644.169	265.94
644.374	270.94
644.579	269.94
644.784	268.94
644.989	283.94
645.194	257.94
645.399	279.94
645.604	265.94
645.809	257.94
646.014	274.94
646.219	254.94
646.423	280.94
646.628	258.94
646.833	260.94
647.038	257.94
647.243	269.94
647.447	291.94
647.652	269.94
647.857	258.94
648.062	257.94
648.266	265.94
648.471	268.94
648.676	279.94
648.88	266.94
649.085	266.94
649.289	264.94
649.494	249.94
649.698	263.94
649.903	255.94
650.107	283.94
650.312	273.94
650.516	248.94
650.721	238.94
650.925	255.94
651.13	245.94
651.334	246.94
651.539	264.94
651.743	240.94
651.947	225.94
652.152	236.94
652.356	235.94
652.56	230.94
652.764	245.94
652.969	259.94
653.173	252.94
653.377	242.94
653.581	224.94
653.785	239.94
653.99	234.94
654.194	241.94
654.398	238.94
654.602	225.94
654.806	240.94
655.01	222.94
655.214	236.94
655.418	231.94
655.622	237.94
655.826	222.94
656.03	245.94
656.234	269.94
656.438	266.94
656.642	270.94
656.846	236.94
657.049	239.94
657.253	218.94
657.457	205.94
657.661	182.94
657.865	190.94
658.068	174.94
658.272	182.94
658.476	179.94
658.68	182.94
658.883	153.94
659.087	138.94
659.291	155.94
659.494	156.94
659.698	151.94
659.901	130.94
660.105	140.94
660.309	127.94
660.512	131.94
660.716	118.94
660.919	112.94
661.123	134.94
661.326	113.94
661.53	112.94
661.733	118.94
661.936	104.94
662.14	118.94
662.343	100.94
662.546	107.94
662.75	105.94
662.953	103.94
663.156	94.94
663.36	102.94
663.563	100.94
663.766	89.94
663.969	89.94
664.173	90.94
664.376	101.94
664.579	92.94
664.782	94.94
664.985	100.94
665.188	100.94
665.391	82.94
665.594	90.94
665.797	91.94
666	92.94
666.203	103.94
666.406	94.94
666.609	78.94
666.812	94.94
667.015	95.94
667.218	75.94
667.421	84.94
667.624	86.94
667.827	91.94
668.03	102.94
668.232	92.94
668.435	75.94
668.638	80.94
668.841	89.94
669.043	95.94
669.246	94.94
669.449	93.94
669.651	86.94
669.854	86.94
670.057	81.94
670.259	81.94
670.462	85.94
670.665	99.94
670.867	84.94
671.07	82.94
671.272	84.94
671.475	94.94
671.677	104.94
671.88	79.94
672.082	93.94
672.284	95.94
672.487	82.94
672.689	85.94
672.892	102.94
