Data from WStandard_LampEnergy8_LIBS07252019.E.O._I.C._HRD10591_16-00-31-929.txt Node
Date: Thu Jul 25 16:00:31 EDT 2019
User: cochatt
Spectrometer: HR+D1059
Trigger mode: 1
Integration Time (sec): 1.000000E-1
Scans to average: 1
Electric dark correction enabled: true
Nonlinearity correction enabled: false
Boxcar width: 0
XAxis mode: Wavelengths
Number of Pixels in Spectrum: 2048
>>>>>Begin Spectral Data<<<<<
223.165	-16.25
223.4	-16.25
223.635	-16.25
223.869	-20.25
224.104	-13.25
224.338	0.75
224.573	-19.25
224.808	-24.25
225.042	-15.25
225.277	-2.25
225.511	0.75
225.746	12.75
225.98	4.75
226.215	4.75
226.449	14.75
226.683	25.75
226.918	23.75
227.152	22.75
227.387	32.75
227.621	36.75
227.856	39.75
228.09	40.75
228.324	61.75
228.559	53.75
228.793	103.75
229.027	202.75
229.262	199.75
229.496	204.75
229.73	216.75
229.964	219.75
230.199	245.75
230.433	272.75
230.667	261.75
230.901	286.75
231.136	267.75
231.37	246.75
231.604	250.75
231.838	262.75
232.072	267.75
232.306	246.75
232.541	260.75
232.775	292.75
233.009	305.75
233.243	311.75
233.477	284.75
233.711	299.75
233.945	310.75
234.179	291.75
234.413	308.75
234.647	336.75
234.881	311.75
235.115	302.75
235.349	299.75
235.583	293.75
235.817	307.75
236.051	289.75
236.285	312.75
236.519	313.75
236.753	353.75
236.987	339.75
237.221	337.75
237.455	371.75
237.689	365.75
237.922	348.75
238.156	348.75
238.39	327.75
238.624	385.75
238.858	373.75
239.091	379.75
239.325	428.75
239.559	444.75
239.793	460.75
240.027	493.75
240.26	485.75
240.494	376.75
240.728	369.75
240.961	384.75
241.195	384.75
241.429	413.75
241.662	420.75
241.896	391.75
242.13	389.75
242.363	431.75
242.597	459.75
242.83	445.75
243.064	446.75
243.298	477.75
243.531	455.75
243.765	455.75
243.998	447.75
244.232	402.75
244.465	392.75
244.699	421.75
244.932	455.75
245.166	495.75
245.399	473.75
245.633	460.75
245.866	465.75
246.099	468.75
246.333	485.75
246.566	468.75
246.8	520.75
247.033	569.75
247.266	524.75
247.5	485.75
247.733	497.75
247.966	525.75
248.2	589.75
248.433	579.75
248.666	624.75
248.899	650.75
249.133	723.75
249.366	763.75
249.599	641.75
249.832	568.75
250.066	599.75
250.299	603.75
250.532	583.75
250.765	529.75
250.998	567.75
251.231	590.75
251.465	574.75
251.698	552.75
251.931	565.75
252.164	568.75
252.397	615.75
252.63	597.75
252.863	540.75
253.096	536.75
253.329	549.75
253.562	587.75
253.795	596.75
254.028	573.75
254.261	548.75
254.494	556.75
254.727	549.75
254.96	572.75
255.193	647.75
255.426	699.75
255.659	772.75
255.892	769.75
256.124	644.75
256.357	661.75
256.59	680.75
256.823	681.75
257.056	710.75
257.289	796.75
257.521	896.75
257.754	795.75
257.987	742.75
258.22	806.75
258.452	784.75
258.685	657.75
258.918	634.75
259.151	647.75
259.383	623.75
259.616	575.75
259.849	595.75
260.081	675.75
260.314	723.75
260.547	791.75
260.779	823.75
261.012	760.75
261.244	668.75
261.477	657.75
261.71	696.75
261.942	681.75
262.175	661.75
262.407	679.75
262.64	673.75
262.872	639.75
263.105	604.75
263.337	621.75
263.57	607.75
263.802	612.75
264.035	594.75
264.267	570.75
264.499	574.75
264.732	589.75
264.964	625.75
265.197	648.75
265.429	698.75
265.661	757.75
265.894	817.75
266.126	828.75
266.358	775.75
266.591	783.75
266.823	841.75
267.055	760.75
267.287	735.75
267.52	737.75
267.752	721.75
267.984	751.75
268.216	771.75
268.448	764.75
268.681	775.75
268.913	689.75
269.145	681.75
269.377	663.75
269.609	748.75
269.841	860.75
270.073	991.75
270.306	1061.75
270.538	1111.75
270.77	945.75
271.002	821.75
271.234	805.75
271.466	807.75
271.698	872.75
271.93	1013.75
272.162	1004.75
272.394	893.75
272.626	891.75
272.858	796.75
273.09	692.75
273.322	706.75
273.553	653.75
273.785	680.75
274.017	714.75
274.249	751.75
274.481	754.75
274.713	690.75
274.945	693.75
275.176	678.75
275.408	676.75
275.64	676.75
275.872	671.75
276.104	722.75
276.335	826.75
276.567	907.75
276.799	881.75
277.031	808.75
277.262	804.75
277.494	818.75
277.726	903.75
277.957	860.75
278.189	797.75
278.421	728.75
278.652	726.75
278.884	723.75
279.115	736.75
279.347	731.75
279.579	715.75
279.81	719.75
280.042	822.75
280.273	849.75
280.505	859.75
280.736	847.75
280.968	826.75
281.199	726.75
281.431	705.75
281.662	719.75
281.894	713.75
282.125	740.75
282.356	763.75
282.588	771.75
282.819	775.75
283.051	812.75
283.282	889.75
283.513	829.75
283.745	739.75
283.976	688.75
284.207	701.75
284.439	713.75
284.67	735.75
284.901	745.75
285.132	744.75
285.364	745.75
285.595	754.75
285.826	753.75
286.057	729.75
286.288	716.75
286.52	775.75
286.751	822.75
286.982	852.75
287.213	771.75
287.444	721.75
287.675	746.75
287.906	784.75
288.138	803.75
288.369	786.75
288.6	759.75
288.831	711.75
289.062	746.75
289.293	735.75
289.524	777.75
289.755	775.75
289.986	762.75
290.217	734.75
290.448	756.75
290.679	769.75
290.91	790.75
291.141	806.75
291.371	803.75
291.602	802.75
291.833	828.75
292.064	852.75
292.295	827.75
292.526	827.75
292.757	857.75
292.987	820.75
293.218	774.75
293.449	839.75
293.68	922.75
293.91	972.75
294.141	926.75
294.372	900.75
294.603	953.75
294.833	965.75
295.064	888.75
295.295	819.75
295.525	811.75
295.756	771.75
295.987	718.75
296.217	741.75
296.448	759.75
296.679	771.75
296.909	756.75
297.14	739.75
297.37	791.75
297.601	854.75
297.831	864.75
298.062	885.75
298.292	793.75
298.523	771.75
298.753	773.75
298.984	791.75
299.214	799.75
299.445	812.75
299.675	840.75
299.905	797.75
300.136	829.75
300.366	788.75
300.597	752.75
300.827	768.75
301.057	797.75
301.288	820.75
301.518	858.75
301.748	875.75
301.979	904.75
302.209	897.75
302.439	949.75
302.669	977.75
302.9	898.75
303.13	865.75
303.36	843.75
303.59	863.75
303.82	822.75
304.051	858.75
304.281	851.75
304.511	872.75
304.741	898.75
304.971	1026.75
305.201	1019.75
305.431	946.75
305.661	778.75
305.891	767.75
306.121	770.75
306.352	834.75
306.582	844.75
306.812	885.75
307.042	933.75
307.272	934.75
307.502	972.75
307.731	1043.75
307.961	1066.75
308.191	966.75
308.421	879.75
308.651	829.75
308.881	837.75
309.111	825.75
309.341	811.75
309.571	837.75
309.8	828.75
310.03	802.75
310.26	831.75
310.49	838.75
310.72	841.75
310.949	864.75
311.179	848.75
311.409	827.75
311.639	837.75
311.868	834.75
312.098	832.75
312.328	821.75
312.557	825.75
312.787	850.75
313.017	856.75
313.246	856.75
313.476	872.75
313.706	891.75
313.935	909.75
314.165	886.75
314.394	921.75
314.624	975.75
314.853	1047.75
315.083	1074.75
315.312	1046.75
315.542	931.75
315.771	898.75
316.001	914.75
316.23	953.75
316.46	936.75
316.689	875.75
316.919	871.75
317.148	843.75
317.377	872.75
317.607	947.75
317.836	1021.75
318.065	1067.75
318.295	1008.75
318.524	987.75
318.753	946.75
318.983	931.75
319.212	940.75
319.441	932.75
319.67	919.75
319.9	929.75
320.129	955.75
320.358	997.75
320.587	1023.75
320.816	1031.75
321.046	1008.75
321.275	947.75
321.504	984.75
321.733	1066.75
321.962	968.75
322.191	942.75
322.42	935.75
322.649	897.75
322.878	894.75
323.108	937.75
323.337	966.75
323.566	931.75
323.795	952.75
324.024	947.75
324.253	943.75
324.482	902.75
324.71	877.75
324.939	867.75
325.168	885.75
325.397	902.75
325.626	933.75
325.855	929.75
326.084	946.75
326.313	914.75
326.542	941.75
326.77	971.75
326.999	962.75
327.228	907.75
327.457	879.75
327.686	864.75
327.914	902.75
328.143	901.75
328.372	935.75
328.6	926.75
328.829	919.75
329.058	899.75
329.287	901.75
329.515	964.75
329.744	967.75
329.972	1034.75
330.201	1035.75
330.43	1026.75
330.658	964.75
330.887	956.75
331.115	950.75
331.344	995.75
331.572	984.75
331.801	929.75
332.03	963.75
332.258	977.75
332.486	1003.75
332.715	1001.75
332.943	986.75
333.172	965.75
333.4	1017.75
333.629	1023.75
333.857	1097.75
334.085	1212.75
334.314	1361.75
334.542	1403.75
334.771	1245.75
334.999	1158.75
335.227	1119.75
335.455	1062.75
335.684	1045.75
335.912	1058.75
336.14	1074.75
336.369	1031.75
336.597	968.75
336.825	981.75
337.053	1030.75
337.281	1059.75
337.51	1137.75
337.738	1161.75
337.966	1077.75
338.194	1015.75
338.422	971.75
338.65	964.75
338.878	964.75
339.106	931.75
339.334	949.75
339.562	931.75
339.79	959.75
340.018	1009.75
340.246	1038.75
340.474	1047.75
340.702	987.75
340.93	1023.75
341.158	1003.75
341.386	997.75
341.614	992.75
341.842	983.75
342.07	978.75
342.298	998.75
342.526	980.75
342.754	976.75
342.981	946.75
343.209	974.75
343.437	949.75
343.665	1003.75
343.893	1007.75
344.12	1025.75
344.348	1027.75
344.576	1009.75
344.804	981.75
345.031	979.75
345.259	965.75
345.487	922.75
345.714	886.75
345.942	885.75
346.17	898.75
346.397	914.75
346.625	949.75
346.853	887.75
347.08	866.75
347.308	864.75
347.535	927.75
347.763	958.75
347.99	918.75
348.218	892.75
348.445	869.75
348.673	930.75
348.9	964.75
349.128	988.75
349.355	1004.75
349.583	944.75
349.81	919.75
350.037	857.75
350.265	855.75
350.492	889.75
350.72	892.75
350.947	956.75
351.174	936.75
351.402	890.75
351.629	852.75
351.856	857.75
352.083	860.75
352.311	841.75
352.538	895.75
352.765	930.75
352.992	926.75
353.22	897.75
353.447	867.75
353.674	884.75
353.901	937.75
354.128	890.75
354.355	920.75
354.583	939.75
354.81	951.75
355.037	957.75
355.264	929.75
355.491	923.75
355.718	929.75
355.945	927.75
356.172	926.75
356.399	881.75
356.626	897.75
356.853	938.75
357.08	1013.75
357.307	1113.75
357.534	1072.75
357.761	898.75
357.988	900.75
358.215	865.75
358.441	849.75
358.668	877.75
358.895	915.75
359.122	991.75
359.349	1020.75
359.576	1018.75
359.802	929.75
360.029	879.75
360.256	875.75
360.483	902.75
360.709	913.75
360.936	961.75
361.163	981.75
361.39	1106.75
361.616	1165.75
361.843	1120.75
362.07	1046.75
362.296	950.75
362.523	890.75
362.749	902.75
362.976	910.75
363.203	933.75
363.429	899.75
363.656	890.75
363.882	943.75
364.109	1043.75
364.335	1081.75
364.562	1017.75
364.788	959.75
365.015	894.75
365.241	894.75
365.468	905.75
365.694	967.75
365.92	1011.75
366.147	949.75
366.373	907.75
366.599	876.75
366.826	909.75
367.052	907.75
367.278	897.75
367.505	892.75
367.731	951.75
367.957	934.75
368.184	978.75
368.41	1043.75
368.636	1038.75
368.862	1067.75
369.089	1045.75
369.315	1002.75
369.541	974.75
369.767	949.75
369.993	927.75
370.219	909.75
370.445	924.75
370.672	1036.75
370.898	1084.75
371.124	1061.75
371.35	975.75
371.576	985.75
371.802	1015.75
372.028	985.75
372.254	944.75
372.48	927.75
372.706	926.75
372.932	945.75
373.158	951.75
373.384	972.75
373.61	975.75
373.835	1036.75
374.061	995.75
374.287	985.75
374.513	979.75
374.739	995.75
374.965	984.75
375.191	982.75
375.416	1012.75
375.642	1018.75
375.868	1109.75
376.094	1090.75
376.319	1048.75
376.545	976.75
376.771	1023.75
376.997	1085.75
377.222	1057.75
377.448	1011.75
377.674	1041.75
377.899	1042.75
378.125	1103.75
378.35	1069.75
378.576	976.75
378.802	951.75
379.027	941.75
379.253	973.75
379.478	979.75
379.704	974.75
379.929	967.75
380.155	986.75
380.38	986.75
380.606	987.75
380.831	1004.75
381.057	1090.75
381.282	1047.75
381.507	1053.75
381.733	1109.75
381.958	1120.75
382.184	1049.75
382.409	981.75
382.634	1015.75
382.86	1014.75
383.085	1025.75
383.31	1074.75
383.535	1175.75
383.761	1224.75
383.986	1157.75
384.211	1089.75
384.436	1093.75
384.662	1142.75
384.887	1193.75
385.112	1108.75
385.337	1133.75
385.562	1103.75
385.787	1122.75
386.013	1145.75
386.238	1124.75
386.463	1150.75
386.688	1243.75
386.913	1322.75
387.138	1212.75
387.363	1203.75
387.588	1147.75
387.813	1150.75
388.038	1177.75
388.263	1169.75
388.488	1158.75
388.713	1081.75
388.938	1075.75
389.163	1072.75
389.387	1131.75
389.612	1101.75
389.837	1150.75
390.062	1121.75
390.287	1145.75
390.512	1077.75
390.736	1109.75
390.961	1084.75
391.186	1080.75
391.411	1088.75
391.636	1100.75
391.86	1112.75
392.085	1137.75
392.31	1052.75
392.534	1101.75
392.759	1146.75
392.984	1141.75
393.208	1177.75
393.433	1188.75
393.658	1235.75
393.882	1206.75
394.107	1140.75
394.331	1137.75
394.556	1129.75
394.78	1137.75
395.005	1207.75
395.229	1230.75
395.454	1292.75
395.678	1297.75
395.903	1223.75
396.127	1202.75
396.352	1203.75
396.576	1234.75
396.801	1213.75
397.025	1214.75
397.249	1217.75
397.474	1238.75
397.698	1172.75
397.922	1251.75
398.147	1319.75
398.371	1308.75
398.595	1324.75
398.82	1270.75
399.044	1307.75
399.268	1404.75
399.492	1427.75
399.717	1473.75
399.941	1475.75
400.165	1458.75
400.389	1437.75
400.613	1469.75
400.837	1666.75
401.062	1801.75
401.286	1523.75
401.51	1416.75
401.734	1452.75
401.958	1389.75
402.182	1301.75
402.406	1307.75
402.63	1270.75
402.854	1289.75
403.078	1298.75
403.302	1325.75
403.526	1345.75
403.75	1348.75
403.974	1381.75
404.198	1341.75
404.422	1413.75
404.645	1471.75
404.869	1408.75
405.093	1304.75
405.317	1299.75
405.541	1361.75
405.765	1339.75
405.988	1354.75
406.212	1373.75
406.436	1417.75
406.66	1442.75
406.883	1471.75
407.107	1669.75
407.331	1794.75
407.555	1908.75
407.778	1628.75
408.002	1435.75
408.226	1392.75
408.449	1413.75
408.673	1360.75
408.896	1358.75
409.12	1401.75
409.344	1332.75
409.567	1333.75
409.791	1335.75
410.014	1375.75
410.238	1475.75
410.461	1547.75
410.685	1372.75
410.908	1295.75
411.132	1372.75
411.355	1333.75
411.578	1317.75
411.802	1345.75
412.025	1349.75
412.249	1336.75
412.472	1311.75
412.695	1300.75
412.919	1284.75
413.142	1296.75
413.365	1268.75
413.589	1330.75
413.812	1384.75
414.035	1411.75
414.258	1333.75
414.482	1295.75
414.705	1316.75
414.928	1279.75
415.151	1294.75
415.374	1292.75
415.597	1332.75
415.821	1323.75
416.044	1348.75
416.267	1307.75
416.49	1253.75
416.713	1270.75
416.936	1320.75
417.159	1380.75
417.382	1327.75
417.605	1274.75
417.828	1315.75
418.051	1306.75
418.274	1326.75
418.497	1255.75
418.72	1287.75
418.943	1254.75
419.166	1333.75
419.389	1331.75
419.611	1300.75
419.834	1299.75
420.057	1314.75
420.28	1258.75
420.503	1304.75
420.726	1302.75
420.948	1285.75
421.171	1257.75
421.394	1297.75
421.617	1325.75
421.839	1340.75
422.062	1324.75
422.285	1288.75
422.507	1246.75
422.73	1207.75
422.953	1187.75
423.175	1201.75
423.398	1271.75
423.621	1222.75
423.843	1308.75
424.066	1302.75
424.288	1373.75
424.511	1387.75
424.733	1341.75
424.956	1245.75
425.178	1237.75
425.401	1278.75
425.623	1281.75
425.846	1244.75
426.068	1356.75
426.291	1301.75
426.513	1317.75
426.735	1307.75
426.958	1410.75
427.18	1470.75
427.402	1335.75
427.625	1420.75
427.847	1372.75
428.069	1261.75
428.292	1258.75
428.514	1242.75
428.736	1216.75
428.958	1238.75
429.181	1248.75
429.403	1438.75
429.625	1759.75
429.847	1452.75
430.069	1321.75
430.292	1447.75
430.514	1436.75
430.736	1327.75
430.958	1362.75
431.18	1256.75
431.402	1247.75
431.624	1193.75
431.846	1168.75
432.068	1107.75
432.29	1137.75
432.512	1168.75
432.734	1254.75
432.956	1295.75
433.178	1297.75
433.4	1300.75
433.622	1297.75
433.844	1239.75
434.066	1179.75
434.287	1161.75
434.509	1217.75
434.731	1267.75
434.953	1342.75
435.175	1311.75
435.397	1285.75
435.618	1269.75
435.84	1211.75
436.062	1225.75
436.284	1257.75
436.505	1282.75
436.727	1258.75
436.949	1246.75
437.17	1247.75
437.392	1217.75
437.614	1223.75
437.835	1185.75
438.057	1194.75
438.278	1210.75
438.5	1226.75
438.721	1245.75
438.943	1259.75
439.165	1204.75
439.386	1211.75
439.608	1223.75
439.829	1225.75
440.05	1265.75
440.272	1252.75
440.493	1252.75
440.715	1288.75
440.936	1342.75
441.158	1404.75
441.379	1395.75
441.6	1328.75
441.822	1343.75
442.043	1330.75
442.264	1304.75
442.486	1252.75
442.707	1228.75
442.928	1286.75
443.149	1299.75
443.371	1342.75
443.592	1366.75
443.813	1371.75
444.034	1367.75
444.255	1360.75
444.476	1377.75
444.698	1418.75
444.919	1395.75
445.14	1465.75
445.361	1432.75
445.582	1440.75
445.803	1391.75
446.024	1387.75
446.245	1435.75
446.466	1391.75
446.687	1355.75
446.908	1324.75
447.129	1299.75
447.35	1312.75
447.571	1293.75
447.792	1236.75
448.013	1240.75
448.234	1261.75
448.455	1299.75
448.675	1309.75
448.896	1179.75
449.117	1154.75
449.338	1212.75
449.559	1306.75
449.779	1309.75
450	1419.75
450.221	1468.75
450.442	1414.75
450.662	1263.75
450.883	1140.75
451.104	1188.75
451.324	1173.75
451.545	1194.75
451.766	1166.75
451.986	1126.75
452.207	1140.75
452.428	1089.75
452.648	1075.75
452.869	1102.75
453.089	1111.75
453.31	1133.75
453.53	1149.75
453.751	1116.75
453.971	1047.75
454.192	1089.75
454.412	1151.75
454.633	1116.75
454.853	1111.75
455.073	1045.75
455.294	1078.75
455.514	1071.75
455.734	1048.75
455.955	1099.75
456.175	1049.75
456.395	1048.75
456.616	1059.75
456.836	1076.75
457.056	1079.75
457.276	1057.75
457.497	1000.75
457.717	1014.75
457.937	1032.75
458.157	1066.75
458.377	1014.75
458.598	1016.75
458.818	1045.75
459.038	1095.75
459.258	1129.75
459.478	1151.75
459.698	1143.75
459.918	1159.75
460.138	1195.75
460.358	1253.75
460.578	1237.75
460.798	1316.75
461.018	1342.75
461.238	1275.75
461.458	1256.75
461.678	1237.75
461.898	1203.75
462.118	1187.75
462.338	1241.75
462.558	1251.75
462.777	1232.75
462.997	1293.75
463.217	1347.75
463.437	1347.75
463.657	1279.75
463.876	1242.75
464.096	1265.75
464.316	1240.75
464.536	1278.75
464.755	1292.75
464.975	1288.75
465.195	1252.75
465.414	1292.75
465.634	1276.75
465.854	1285.75
466.073	1364.75
466.293	1319.75
466.512	1181.75
466.732	1187.75
466.951	1230.75
467.171	1189.75
467.391	1172.75
467.61	1171.75
467.829	1205.75
468.049	1331.75
468.268	1437.75
468.488	1300.75
468.707	1259.75
468.927	1217.75
469.146	1208.75
469.365	1202.75
469.585	1221.75
469.804	1207.75
470.023	1236.75
470.243	1247.75
470.462	1207.75
470.681	1225.75
470.901	1240.75
471.12	1241.75
471.339	1228.75
471.558	1215.75
471.777	1209.75
471.997	1189.75
472.216	1159.75
472.435	1127.75
472.654	1097.75
472.873	1159.75
473.092	1222.75
473.311	1149.75
473.53	1129.75
473.749	1150.75
473.968	1181.75
474.187	1215.75
474.406	1194.75
474.625	1191.75
474.844	1185.75
475.063	1196.75
475.282	1189.75
475.501	1167.75
475.72	1196.75
475.939	1277.75
476.158	1206.75
476.377	1187.75
476.596	1167.75
476.814	1224.75
477.033	1217.75
477.252	1261.75
477.471	1283.75
477.69	1254.75
477.908	1270.75
478.127	1366.75
478.346	1420.75
478.564	1413.75
478.783	1385.75
479.002	1446.75
479.22	1398.75
479.439	1457.75
479.658	1593.75
479.876	1508.75
480.095	1368.75
480.313	1367.75
480.532	1301.75
480.751	1323.75
480.969	1294.75
481.188	1249.75
481.406	1246.75
481.624	1237.75
481.843	1270.75
482.061	1294.75
482.28	1322.75
482.498	1344.75
482.717	1271.75
482.935	1314.75
483.153	1333.75
483.372	1365.75
483.59	1371.75
483.808	1352.75
484.027	1370.75
484.245	1431.75
484.463	1667.75
484.681	1843.75
484.9	1445.75
485.118	1368.75
485.336	1335.75
485.554	1358.75
485.772	1384.75
485.99	1347.75
486.209	1344.75
486.427	1333.75
486.645	1386.75
486.863	1380.75
487.081	1445.75
487.299	1445.75
487.517	1417.75
487.735	1453.75
487.953	1489.75
488.171	1492.75
488.389	1443.75
488.607	1425.75
488.825	1599.75
489.043	1539.75
489.261	1388.75
489.479	1473.75
489.696	1455.75
489.914	1431.75
490.132	1415.75
490.35	1452.75
490.568	1513.75
490.786	1474.75
491.003	1466.75
491.221	1522.75
491.439	1557.75
491.657	1580.75
491.874	1592.75
492.092	1621.75
492.31	1701.75
492.527	1656.75
492.745	1593.75
492.963	1585.75
493.18	1580.75
493.398	1691.75
493.615	1659.75
493.833	1557.75
494.05	1535.75
494.268	1546.75
494.485	1605.75
494.703	1546.75
494.92	1528.75
495.138	1512.75
495.355	1546.75
495.573	1595.75
495.79	1625.75
496.008	1657.75
496.225	1550.75
496.442	1603.75
496.66	1612.75
496.877	1551.75
497.094	1634.75
497.312	1639.75
497.529	1647.75
497.746	1651.75
497.963	1827.75
498.181	1921.75
498.398	1903.75
498.615	1832.75
498.832	1821.75
499.049	1746.75
499.267	1791.75
499.484	1891.75
499.701	2024.75
499.918	2071.75
500.135	2235.75
500.352	2307.75
500.569	2339.75
500.786	2489.75
501.003	2279.75
501.22	2075.75
501.437	2050.75
501.654	2122.75
501.871	1968.75
502.088	1727.75
502.305	1791.75
502.522	1695.75
502.739	1607.75
502.956	1604.75
503.172	1574.75
503.389	1538.75
503.606	1461.75
503.823	1496.75
504.04	1495.75
504.256	1483.75
504.473	1504.75
504.69	1523.75
504.907	1440.75
505.123	1415.75
505.34	1533.75
505.557	1959.75
505.773	1623.75
505.99	1384.75
506.207	1315.75
506.423	1256.75
506.64	1263.75
506.856	1341.75
507.073	1512.75
507.289	1539.75
507.506	1480.75
507.722	1278.75
507.939	1227.75
508.155	1239.75
508.372	1242.75
508.588	1189.75
508.805	1165.75
509.021	1158.75
509.238	1155.75
509.454	1133.75
509.67	1127.75
509.887	1132.75
510.103	1108.75
510.319	1132.75
510.536	1187.75
510.752	1217.75
510.968	1199.75
511.184	1259.75
511.401	1215.75
511.617	1104.75
511.833	1103.75
512.049	1107.75
512.265	1124.75
512.481	1119.75
512.698	1173.75
512.914	1159.75
513.13	1173.75
513.346	1113.75
513.562	1083.75
513.778	1143.75
513.994	1178.75
514.21	1188.75
514.426	1205.75
514.642	1297.75
514.858	1221.75
515.074	1114.75
515.29	1127.75
515.506	1153.75
515.721	1157.75
515.937	1168.75
516.153	1291.75
516.369	1256.75
516.585	1179.75
516.801	1131.75
517.016	1143.75
517.232	1171.75
517.448	1203.75
517.664	1204.75
517.879	1219.75
518.095	1267.75
518.311	1210.75
518.527	1146.75
518.742	1164.75
518.958	1141.75
519.173	1113.75
519.389	1141.75
519.605	1146.75
519.82	1164.75
520.036	1153.75
520.251	1132.75
520.467	1163.75
520.682	1251.75
520.898	1247.75
521.113	1144.75
521.329	1122.75
521.544	1177.75
521.76	1149.75
521.975	1092.75
522.19	1102.75
522.406	1079.75
522.621	1342.75
522.836	1280.75
523.052	1078.75
523.267	1106.75
523.482	1099.75
523.698	1058.75
523.913	1064.75
524.128	1099.75
524.343	1153.75
524.559	1165.75
524.774	1107.75
524.989	1075.75
525.204	1072.75
525.419	1041.75
525.634	1029.75
525.849	1077.75
526.064	1058.75
526.28	1082.75
526.495	981.75
526.71	998.75
526.925	957.75
527.14	963.75
527.355	936.75
527.57	968.75
527.785	1004.75
527.999	987.75
528.214	979.75
528.429	988.75
528.644	998.75
528.859	1047.75
529.074	1079.75
529.289	1127.75
529.503	1117.75
529.718	1082.75
529.933	1035.75
530.148	972.75
530.363	956.75
530.577	1003.75
530.792	972.75
531.007	997.75
531.221	956.75
531.436	1005.75
531.651	996.75
531.865	1045.75
532.08	1015.75
532.295	935.75
532.509	919.75
532.724	944.75
532.938	972.75
533.153	1045.75
533.367	991.75
533.582	1008.75
533.796	999.75
534.011	1015.75
534.225	1005.75
534.44	961.75
534.654	947.75
534.868	936.75
535.083	1009.75
535.297	1029.75
535.511	988.75
535.726	988.75
535.94	981.75
536.154	964.75
536.369	932.75
536.583	924.75
536.797	945.75
537.011	940.75
537.225	927.75
537.44	919.75
537.654	955.75
537.868	943.75
538.082	903.75
538.296	904.75
538.51	924.75
538.724	927.75
538.938	929.75
539.153	953.75
539.367	970.75
539.581	952.75
539.795	969.75
540.009	939.75
540.222	941.75
540.436	964.75
540.65	1037.75
540.864	1061.75
541.078	1047.75
541.292	1029.75
541.506	1046.75
541.72	1089.75
541.934	1142.75
542.147	1166.75
542.361	1144.75
542.575	1060.75
542.789	986.75
543.002	978.75
543.216	960.75
543.43	1009.75
543.644	1057.75
543.857	1105.75
544.071	1109.75
544.285	1103.75
544.498	1072.75
544.712	1075.75
544.925	1080.75
545.139	1096.75
545.352	1077.75
545.566	1061.75
545.779	1059.75
545.993	1074.75
546.206	1083.75
546.42	1061.75
546.633	1017.75
546.847	1009.75
547.06	1065.75
547.274	1048.75
547.487	1065.75
547.7	1103.75
547.914	1072.75
548.127	1090.75
548.34	1091.75
548.554	1047.75
548.767	1073.75
548.98	1057.75
549.193	1066.75
549.407	1094.75
549.62	1080.75
549.833	1027.75
550.046	1037.75
550.259	1061.75
550.473	987.75
550.686	1029.75
550.899	1002.75
551.112	979.75
551.325	945.75
551.538	1036.75
551.751	1099.75
551.964	889.75
552.177	931.75
552.39	949.75
552.603	1001.75
552.816	986.75
553.029	1085.75
553.242	1075.75
553.455	1050.75
553.667	1061.75
553.88	1027.75
554.093	1014.75
554.306	988.75
554.519	957.75
554.732	943.75
554.944	946.75
555.157	970.75
555.37	934.75
555.583	943.75
555.795	922.75
556.008	895.75
556.221	876.75
556.433	863.75
556.646	876.75
556.859	865.75
557.071	878.75
557.284	886.75
557.496	884.75
557.709	884.75
557.921	869.75
558.134	859.75
558.346	887.75
558.559	861.75
558.771	838.75
558.984	807.75
559.196	784.75
559.409	787.75
559.621	803.75
559.833	801.75
560.046	845.75
560.258	826.75
560.47	845.75
560.683	842.75
560.895	791.75
561.107	824.75
561.32	825.75
561.532	820.75
561.744	839.75
561.956	805.75
562.168	793.75
562.381	781.75
562.593	788.75
562.805	765.75
563.017	773.75
563.229	774.75
563.441	779.75
563.653	783.75
563.865	759.75
564.077	764.75
564.289	776.75
564.501	755.75
564.713	788.75
564.925	823.75
565.137	868.75
565.349	818.75
565.561	800.75
565.773	799.75
565.985	819.75
566.197	865.75
566.408	891.75
566.62	899.75
566.832	877.75
567.044	853.75
567.255	883.75
567.467	895.75
567.679	932.75
567.891	933.75
568.102	885.75
568.314	868.75
568.526	803.75
568.737	787.75
568.949	732.75
569.161	711.75
569.372	701.75
569.584	661.75
569.795	667.75
570.007	689.75
570.218	644.75
570.43	632.75
570.641	665.75
570.853	665.75
571.064	667.75
571.276	644.75
571.487	641.75
571.698	662.75
571.91	625.75
572.121	604.75
572.333	629.75
572.544	581.75
572.755	595.75
572.966	573.75
573.178	545.75
573.389	586.75
573.6	597.75
573.811	636.75
574.023	556.75
574.234	549.75
574.445	567.75
574.656	554.75
574.867	556.75
575.078	569.75
575.289	565.75
575.501	566.75
575.712	550.75
575.923	557.75
576.134	565.75
576.345	559.75
576.556	555.75
576.767	541.75
576.978	549.75
577.188	527.75
577.399	519.75
577.61	528.75
577.821	524.75
578.032	507.75
578.243	484.75
578.454	490.75
578.665	501.75
578.875	484.75
579.086	491.75
579.297	495.75
579.508	511.75
579.718	490.75
579.929	490.75
580.14	500.75
580.35	495.75
580.561	478.75
580.772	561.75
580.982	520.75
581.193	495.75
581.403	476.75
581.614	482.75
581.825	470.75
582.035	472.75
582.246	495.75
582.456	488.75
582.667	486.75
582.877	477.75
583.087	474.75
583.298	474.75
583.508	472.75
583.719	468.75
583.929	469.75
584.139	459.75
584.35	455.75
584.56	450.75
584.77	474.75
584.981	453.75
585.191	483.75
585.401	476.75
585.611	486.75
585.821	460.75
586.032	443.75
586.242	460.75
586.452	435.75
586.662	454.75
586.872	450.75
587.082	451.75
587.292	452.75
587.502	450.75
587.713	449.75
587.923	450.75
588.133	428.75
588.343	456.75
588.553	460.75
588.762	453.75
588.972	431.75
589.182	459.75
589.392	434.75
589.602	460.75
589.812	448.75
590.022	422.75
590.232	437.75
590.441	444.75
590.651	451.75
590.861	447.75
591.071	440.75
591.281	471.75
591.49	449.75
591.7	451.75
591.91	449.75
592.119	428.75
592.329	449.75
592.539	482.75
592.748	442.75
592.958	447.75
593.167	485.75
593.377	451.75
593.587	460.75
593.796	456.75
594.006	486.75
594.215	471.75
594.424	463.75
594.634	462.75
594.843	461.75
595.053	491.75
595.262	475.75
595.472	432.75
595.681	442.75
595.89	432.75
596.1	426.75
596.309	435.75
596.518	431.75
596.727	434.75
596.937	437.75
597.146	419.75
597.355	405.75
597.564	417.75
597.774	410.75
597.983	402.75
598.192	385.75
598.401	375.75
598.61	392.75
598.819	383.75
599.028	393.75
599.237	391.75
599.446	403.75
599.655	392.75
599.864	385.75
600.073	381.75
600.282	411.75
600.491	388.75
600.7	398.75
600.909	395.75
601.118	392.75
601.327	403.75
601.536	422.75
601.745	409.75
601.953	417.75
602.162	411.75
602.371	401.75
602.58	427.75
602.789	394.75
602.997	423.75
603.206	419.75
603.415	408.75
603.623	401.75
603.832	385.75
604.041	397.75
604.249	387.75
604.458	384.75
604.666	376.75
604.875	361.75
605.084	407.75
605.292	395.75
605.501	393.75
605.709	404.75
605.918	395.75
606.126	407.75
606.334	419.75
606.543	407.75
606.751	397.75
606.96	409.75
607.168	390.75
607.376	377.75
607.585	401.75
607.793	377.75
608.001	406.75
608.21	391.75
608.418	402.75
608.626	382.75
608.834	409.75
609.043	405.75
609.251	384.75
609.459	383.75
609.667	393.75
609.875	393.75
610.083	400.75
610.291	423.75
610.499	405.75
610.707	391.75
610.916	396.75
611.124	373.75
611.332	390.75
611.54	405.75
611.748	422.75
611.955	415.75
612.163	377.75
612.371	371.75
612.579	391.75
612.787	374.75
612.995	393.75
613.203	387.75
613.411	377.75
613.618	405.75
613.826	391.75
614.034	404.75
614.242	392.75
614.449	387.75
614.657	377.75
614.865	385.75
615.072	383.75
615.28	380.75
615.488	377.75
615.695	396.75
615.903	381.75
616.111	393.75
616.318	399.75
616.526	385.75
616.733	391.75
616.941	378.75
617.148	387.75
617.356	360.75
617.563	383.75
617.771	380.75
617.978	361.75
618.185	362.75
618.393	359.75
618.6	377.75
618.807	375.75
619.015	364.75
619.222	378.75
619.429	350.75
619.637	357.75
619.844	363.75
620.051	359.75
620.258	345.75
620.466	351.75
620.673	336.75
620.88	332.75
621.087	354.75
621.294	339.75
621.501	328.75
621.708	334.75
621.915	348.75
622.122	346.75
622.329	344.75
622.536	370.75
622.743	342.75
622.95	353.75
623.157	327.75
623.364	345.75
623.571	359.75
623.778	346.75
623.985	351.75
624.192	347.75
624.399	340.75
624.606	332.75
624.812	315.75
625.019	327.75
625.226	317.75
625.433	312.75
625.639	309.75
625.846	314.75
626.053	316.75
626.259	303.75
626.466	307.75
626.673	288.75
626.879	299.75
627.086	301.75
627.293	304.75
627.499	307.75
627.706	315.75
627.912	313.75
628.119	342.75
628.325	327.75
628.532	307.75
628.738	323.75
628.945	327.75
629.151	317.75
629.357	309.75
629.564	294.75
629.77	307.75
629.976	300.75
630.183	303.75
630.389	287.75
630.595	308.75
630.802	303.75
631.008	307.75
631.214	310.75
631.42	297.75
631.627	303.75
631.833	288.75
632.039	277.75
632.245	293.75
632.451	285.75
632.657	301.75
632.863	290.75
633.069	285.75
633.275	300.75
633.481	301.75
633.688	283.75
633.893	283.75
634.099	284.75
634.305	283.75
634.511	273.75
634.717	294.75
634.923	255.75
635.129	276.75
635.335	272.75
635.541	270.75
635.747	255.75
635.952	271.75
636.158	287.75
636.364	300.75
636.57	278.75
636.775	265.75
636.981	278.75
637.187	263.75
637.392	291.75
637.598	269.75
637.804	283.75
638.009	279.75
638.215	281.75
638.421	278.75
638.626	273.75
638.832	265.75
639.037	277.75
639.243	249.75
639.448	262.75
639.654	282.75
639.859	251.75
640.065	276.75
640.27	283.75
640.475	266.75
640.681	266.75
640.886	266.75
641.091	260.75
641.297	283.75
641.502	255.75
641.707	262.75
641.913	262.75
642.118	236.75
642.323	268.75
642.528	259.75
642.733	252.75
642.939	260.75
643.144	260.75
643.349	256.75
643.554	260.75
643.759	250.75
643.964	265.75
644.169	275.75
644.374	270.75
644.579	263.75
644.784	255.75
644.989	261.75
645.194	235.75
645.399	257.75
645.604	258.75
645.809	255.75
646.014	268.75
646.219	263.75
646.423	258.75
646.628	243.75
646.833	251.75
647.038	260.75
647.243	239.75
647.447	245.75
647.652	239.75
647.857	256.75
648.062	263.75
648.266	259.75
648.471	259.75
648.676	258.75
648.88	267.75
649.085	272.75
649.289	244.75
649.494	268.75
649.698	240.75
649.903	224.75
650.107	241.75
650.312	257.75
650.516	215.75
650.721	219.75
650.925	254.75
651.13	245.75
651.334	234.75
651.539	236.75
651.743	228.75
651.947	240.75
652.152	254.75
652.356	217.75
652.56	223.75
652.764	226.75
652.969	213.75
653.173	228.75
653.377	221.75
653.581	228.75
653.785	218.75
653.99	210.75
654.194	213.75
654.398	215.75
654.602	218.75
654.806	212.75
655.01	212.75
655.214	204.75
655.418	225.75
655.622	241.75
655.826	234.75
656.03	233.75
656.234	234.75
656.438	265.75
656.642	263.75
656.846	245.75
657.049	239.75
657.253	223.75
657.457	197.75
657.661	203.75
657.865	198.75
658.068	189.75
658.272	175.75
658.476	155.75
658.68	151.75
658.883	138.75
659.087	155.75
659.291	140.75
659.494	135.75
659.698	132.75
659.901	132.75
660.105	138.75
660.309	127.75
660.512	131.75
660.716	120.75
660.919	111.75
661.123	125.75
661.326	111.75
661.53	108.75
661.733	115.75
661.936	105.75
662.14	81.75
662.343	99.75
662.546	98.75
662.75	99.75
662.953	83.75
663.156	105.75
663.36	104.75
663.563	89.75
663.766	73.75
663.969	91.75
664.173	74.75
664.376	82.75
664.579	77.75
664.782	84.75
664.985	87.75
665.188	98.75
665.391	88.75
665.594	87.75
665.797	69.75
666	76.75
666.203	89.75
666.406	83.75
666.609	84.75
666.812	71.75
667.015	85.75
667.218	90.75
667.421	68.75
667.624	92.75
667.827	91.75
668.03	80.75
668.232	79.75
668.435	85.75
668.638	84.75
668.841	95.75
669.043	89.75
669.246	75.75
669.449	85.75
669.651	87.75
669.854	75.75
670.057	82.75
670.259	80.75
670.462	69.75
670.665	93.75
670.867	91.75
671.07	80.75
671.272	83.75
671.475	79.75
671.677	75.75
671.88	75.75
672.082	85.75
672.284	97.75
672.487	89.75
672.689	81.75
672.892	83.75
