Data from WStandard_LampEnergy10_LIBS07252019.E.O._I.C._HRD10591_15-53-52-928.txt Node
Date: Thu Jul 25 15:53:52 EDT 2019
User: cochatt
Spectrometer: HR+D1059
Trigger mode: 1
Integration Time (sec): 1.000000E-1
Scans to average: 1
Electric dark correction enabled: true
Nonlinearity correction enabled: false
Boxcar width: 0
XAxis mode: Wavelengths
Number of Pixels in Spectrum: 2048
>>>>>Begin Spectral Data<<<<<
223.165	-16.06
223.4	-16.06
223.635	-16.06
223.869	-17.06
224.104	-24.06
224.338	-12.06
224.573	-12.06
224.808	-0.06
225.042	-6.06
225.277	-14.06
225.511	1.94
225.746	-0.06
225.98	8.94
226.215	-4.06
226.449	5.94
226.683	17.94
226.918	19.94
227.152	50.94
227.387	39.94
227.621	19.94
227.856	30.94
228.09	65.94
228.324	62.94
228.559	54.94
228.793	73.94
229.027	125.94
229.262	133.94
229.496	148.94
229.73	158.94
229.964	153.94
230.199	175.94
230.433	170.94
230.667	157.94
230.901	185.94
231.136	181.94
231.37	187.94
231.604	181.94
231.838	167.94
232.072	190.94
232.306	179.94
232.541	185.94
232.775	199.94
233.009	207.94
233.243	219.94
233.477	201.94
233.711	192.94
233.945	203.94
234.179	212.94
234.413	211.94
234.647	225.94
234.881	201.94
235.115	203.94
235.349	184.94
235.583	209.94
235.817	203.94
236.051	201.94
236.285	186.94
236.519	212.94
236.753	210.94
236.987	218.94
237.221	240.94
237.455	235.94
237.689	231.94
237.922	228.94
238.156	213.94
238.39	223.94
238.624	224.94
238.858	234.94
239.091	228.94
239.325	257.94
239.559	281.94
239.793	289.94
240.027	306.94
240.26	297.94
240.494	243.94
240.728	203.94
240.961	252.94
241.195	232.94
241.429	229.94
241.662	265.94
241.896	259.94
242.13	252.94
242.363	271.94
242.597	286.94
242.83	272.94
243.064	267.94
243.298	277.94
243.531	278.94
243.765	278.94
243.998	278.94
244.232	251.94
244.465	249.94
244.699	254.94
244.932	269.94
245.166	306.94
245.399	279.94
245.633	278.94
245.866	270.94
246.099	299.94
246.333	279.94
246.566	291.94
246.8	327.94
247.033	341.94
247.266	323.94
247.5	318.94
247.733	319.94
247.966	338.94
248.2	332.94
248.433	343.94
248.666	350.94
248.899	388.94
249.133	430.94
249.366	467.94
249.599	414.94
249.832	372.94
250.066	375.94
250.299	369.94
250.532	332.94
250.765	321.94
250.998	346.94
251.231	332.94
251.465	356.94
251.698	338.94
251.931	324.94
252.164	359.94
252.397	372.94
252.63	362.94
252.863	329.94
253.096	336.94
253.329	341.94
253.562	362.94
253.795	350.94
254.028	376.94
254.261	361.94
254.494	349.94
254.727	331.94
254.96	332.94
255.193	362.94
255.426	403.94
255.659	431.94
255.892	431.94
256.124	385.94
256.357	369.94
256.59	404.94
256.823	403.94
257.056	406.94
257.289	458.94
257.521	486.94
257.754	459.94
257.987	451.94
258.22	472.94
258.452	452.94
258.685	409.94
258.918	393.94
259.151	392.94
259.383	366.94
259.616	357.94
259.849	369.94
260.081	435.94
260.314	446.94
260.547	450.94
260.779	464.94
261.012	449.94
261.244	401.94
261.477	387.94
261.71	418.94
261.942	396.94
262.175	375.94
262.407	417.94
262.64	379.94
262.872	361.94
263.105	361.94
263.337	382.94
263.57	363.94
263.802	383.94
264.035	364.94
264.267	363.94
264.499	346.94
264.732	370.94
264.964	375.94
265.197	397.94
265.429	405.94
265.661	454.94
265.894	475.94
266.126	475.94
266.358	441.94
266.591	457.94
266.823	478.94
267.055	459.94
267.287	467.94
267.52	441.94
267.752	436.94
267.984	453.94
268.216	471.94
268.448	476.94
268.681	449.94
268.913	426.94
269.145	383.94
269.377	420.94
269.609	437.94
269.841	509.94
270.073	584.94
270.306	617.94
270.538	612.94
270.77	530.94
271.002	485.94
271.234	480.94
271.466	463.94
271.698	530.94
271.93	599.94
272.162	597.94
272.394	542.94
272.626	494.94
272.858	461.94
273.09	382.94
273.322	401.94
273.553	394.94
273.785	400.94
274.017	417.94
274.249	448.94
274.481	433.94
274.713	422.94
274.945	389.94
275.176	418.94
275.408	397.94
275.64	407.94
275.872	413.94
276.104	426.94
276.335	475.94
276.567	509.94
276.799	516.94
277.031	471.94
277.262	499.94
277.494	485.94
277.726	533.94
277.957	493.94
278.189	465.94
278.421	423.94
278.652	446.94
278.884	425.94
279.115	414.94
279.347	442.94
279.579	436.94
279.81	434.94
280.042	482.94
280.273	517.94
280.505	497.94
280.736	498.94
280.968	474.94
281.199	433.94
281.431	413.94
281.662	403.94
281.894	431.94
282.125	423.94
282.356	457.94
282.588	453.94
282.819	455.94
283.051	494.94
283.282	482.94
283.513	480.94
283.745	440.94
283.976	417.94
284.207	423.94
284.439	426.94
284.67	454.94
284.901	456.94
285.132	441.94
285.364	437.94
285.595	453.94
285.826	452.94
286.057	458.94
286.288	444.94
286.52	454.94
286.751	511.94
286.982	476.94
287.213	440.94
287.444	425.94
287.675	439.94
287.906	450.94
288.138	489.94
288.369	471.94
288.6	439.94
288.831	431.94
289.062	448.94
289.293	453.94
289.524	472.94
289.755	447.94
289.986	463.94
290.217	446.94
290.448	435.94
290.679	437.94
290.91	439.94
291.141	469.94
291.371	474.94
291.602	473.94
291.833	473.94
292.064	491.94
292.295	495.94
292.526	477.94
292.757	509.94
292.987	486.94
293.218	471.94
293.449	518.94
293.68	568.94
293.91	595.94
294.141	550.94
294.372	533.94
294.603	542.94
294.833	539.94
295.064	534.94
295.295	511.94
295.525	489.94
295.756	461.94
295.987	428.94
296.217	449.94
296.448	465.94
296.679	443.94
296.909	446.94
297.14	458.94
297.37	483.94
297.601	525.94
297.831	505.94
298.062	522.94
298.292	502.94
298.523	467.94
298.753	468.94
298.984	481.94
299.214	470.94
299.445	499.94
299.675	491.94
299.905	471.94
300.136	472.94
300.366	468.94
300.597	456.94
300.827	467.94
301.057	470.94
301.288	497.94
301.518	513.94
301.748	508.94
301.979	550.94
302.209	568.94
302.439	569.94
302.669	596.94
302.9	533.94
303.13	515.94
303.36	509.94
303.59	527.94
303.82	510.94
304.051	523.94
304.281	500.94
304.511	525.94
304.741	549.94
304.971	605.94
305.201	611.94
305.431	561.94
305.661	473.94
305.891	442.94
306.121	464.94
306.352	477.94
306.582	526.94
306.812	549.94
307.042	554.94
307.272	569.94
307.502	579.94
307.731	638.94
307.961	624.94
308.191	572.94
308.421	494.94
308.651	493.94
308.881	492.94
309.111	504.94
309.341	498.94
309.571	503.94
309.8	503.94
310.03	478.94
310.26	462.94
310.49	493.94
310.72	514.94
310.949	523.94
311.179	542.94
311.409	513.94
311.639	535.94
311.868	513.94
312.098	508.94
312.328	502.94
312.557	513.94
312.787	513.94
313.017	504.94
313.246	512.94
313.476	514.94
313.706	537.94
313.935	545.94
314.165	554.94
314.394	564.94
314.624	586.94
314.853	609.94
315.083	605.94
315.312	610.94
315.542	553.94
315.771	533.94
316.001	570.94
316.23	571.94
316.46	554.94
316.689	543.94
316.919	529.94
317.148	515.94
317.377	532.94
317.607	579.94
317.836	648.94
318.065	639.94
318.295	623.94
318.524	590.94
318.753	583.94
318.983	557.94
319.212	539.94
319.441	547.94
319.67	536.94
319.9	559.94
320.129	601.94
320.358	627.94
320.587	643.94
320.816	625.94
321.046	585.94
321.275	585.94
321.504	600.94
321.733	647.94
321.962	571.94
322.191	545.94
322.42	557.94
322.649	556.94
322.878	539.94
323.108	568.94
323.337	550.94
323.566	576.94
323.795	566.94
324.024	561.94
324.253	569.94
324.482	561.94
324.71	535.94
324.939	506.94
325.168	549.94
325.397	545.94
325.626	586.94
325.855	558.94
326.084	553.94
326.313	543.94
326.542	578.94
326.77	572.94
326.999	557.94
327.228	542.94
327.457	549.94
327.686	531.94
327.914	551.94
328.143	568.94
328.372	547.94
328.6	555.94
328.829	558.94
329.058	540.94
329.287	551.94
329.515	556.94
329.744	578.94
329.972	602.94
330.201	643.94
330.43	613.94
330.658	601.94
330.887	567.94
331.115	576.94
331.344	566.94
331.572	578.94
331.801	574.94
332.03	565.94
332.258	597.94
332.486	579.94
332.715	626.94
332.943	616.94
333.172	608.94
333.4	625.94
333.629	627.94
333.857	677.94
334.085	731.94
334.314	828.94
334.542	835.94
334.771	765.94
334.999	702.94
335.227	634.94
335.455	623.94
335.684	643.94
335.912	660.94
336.14	656.94
336.369	614.94
336.597	597.94
336.825	601.94
337.053	620.94
337.281	670.94
337.51	668.94
337.738	686.94
337.966	636.94
338.194	591.94
338.422	587.94
338.65	593.94
338.878	579.94
339.106	555.94
339.334	566.94
339.562	553.94
339.79	573.94
340.018	624.94
340.246	617.94
340.474	621.94
340.702	607.94
340.93	587.94
341.158	627.94
341.386	605.94
341.614	568.94
341.842	594.94
342.07	591.94
342.298	606.94
342.526	596.94
342.754	577.94
342.981	573.94
343.209	589.94
343.437	570.94
343.665	597.94
343.893	633.94
344.12	649.94
344.348	621.94
344.576	611.94
344.804	583.94
345.031	603.94
345.259	602.94
345.487	565.94
345.714	551.94
345.942	561.94
346.17	569.94
346.397	524.94
346.625	569.94
346.853	551.94
347.08	542.94
347.308	554.94
347.535	549.94
347.763	589.94
347.99	570.94
348.218	542.94
348.445	565.94
348.673	553.94
348.9	587.94
349.128	582.94
349.355	587.94
349.583	590.94
349.81	573.94
350.037	509.94
350.265	534.94
350.492	537.94
350.72	547.94
350.947	565.94
351.174	589.94
351.402	551.94
351.629	523.94
351.856	527.94
352.083	531.94
352.311	535.94
352.538	563.94
352.765	579.94
352.992	582.94
353.22	549.94
353.447	537.94
353.674	556.94
353.901	577.94
354.128	553.94
354.355	575.94
354.583	580.94
354.81	580.94
355.037	587.94
355.264	569.94
355.491	567.94
355.718	565.94
355.945	550.94
356.172	534.94
356.399	552.94
356.626	561.94
356.853	579.94
357.08	649.94
357.307	675.94
357.534	622.94
357.761	591.94
357.988	555.94
358.215	523.94
358.441	534.94
358.668	546.94
358.895	559.94
359.122	589.94
359.349	625.94
359.576	601.94
359.802	561.94
360.029	553.94
360.256	538.94
360.483	529.94
360.709	587.94
360.936	615.94
361.163	641.94
361.39	686.94
361.616	703.94
361.843	691.94
362.07	643.94
362.296	579.94
362.523	589.94
362.749	574.94
362.976	584.94
363.203	598.94
363.429	563.94
363.656	557.94
363.882	609.94
364.109	644.94
364.335	671.94
364.562	641.94
364.788	613.94
365.015	579.94
365.241	551.94
365.468	578.94
365.694	597.94
365.92	612.94
366.147	582.94
366.373	558.94
366.599	563.94
366.826	555.94
367.052	572.94
367.278	567.94
367.505	600.94
367.731	605.94
367.957	621.94
368.184	641.94
368.41	662.94
368.636	681.94
368.862	663.94
369.089	650.94
369.315	618.94
369.541	599.94
369.767	589.94
369.993	598.94
370.219	588.94
370.445	614.94
370.672	673.94
370.898	661.94
371.124	662.94
371.35	628.94
371.576	644.94
371.802	648.94
372.028	629.94
372.254	595.94
372.48	621.94
372.706	596.94
372.932	586.94
373.158	625.94
373.384	611.94
373.61	639.94
373.835	673.94
374.061	640.94
374.287	628.94
374.513	631.94
374.739	611.94
374.965	637.94
375.191	667.94
375.416	638.94
375.642	649.94
375.868	716.94
376.094	724.94
376.319	668.94
376.545	653.94
376.771	660.94
376.997	682.94
377.222	680.94
377.448	631.94
377.674	689.94
377.899	686.94
378.125	714.94
378.35	693.94
378.576	649.94
378.802	596.94
379.027	629.94
379.253	619.94
379.478	625.94
379.704	611.94
379.929	620.94
380.155	636.94
380.38	640.94
380.606	650.94
380.831	662.94
381.057	712.94
381.282	691.94
381.507	669.94
381.733	736.94
381.958	742.94
382.184	654.94
382.409	671.94
382.634	676.94
382.86	666.94
383.085	665.94
383.31	705.94
383.535	776.94
383.761	804.94
383.986	742.94
384.211	729.94
384.436	740.94
384.662	772.94
384.887	750.94
385.112	727.94
385.337	743.94
385.562	734.94
385.787	737.94
386.013	760.94
386.238	770.94
386.463	734.94
386.688	829.94
386.913	846.94
387.138	804.94
387.363	802.94
387.588	755.94
387.813	753.94
388.038	778.94
388.263	801.94
388.488	730.94
388.713	720.94
388.938	702.94
389.163	724.94
389.387	732.94
389.612	726.94
389.837	755.94
390.062	760.94
390.287	738.94
390.512	742.94
390.736	722.94
390.961	729.94
391.186	701.94
391.411	724.94
391.636	755.94
391.86	782.94
392.085	747.94
392.31	724.94
392.534	747.94
392.759	771.94
392.984	799.94
393.208	786.94
393.433	797.94
393.658	830.94
393.882	807.94
394.107	767.94
394.331	772.94
394.556	751.94
394.78	770.94
395.005	814.94
395.229	818.94
395.454	873.94
395.678	838.94
395.903	816.94
396.127	831.94
396.352	826.94
396.576	829.94
396.801	861.94
397.025	845.94
397.249	801.94
397.474	839.94
397.698	830.94
397.922	875.94
398.147	886.94
398.371	917.94
398.595	905.94
398.82	879.94
399.044	876.94
399.268	917.94
399.492	951.94
399.717	958.94
399.941	999.94
400.165	951.94
400.389	946.94
400.613	969.94
400.837	1076.94
401.062	1179.94
401.286	1031.94
401.51	975.94
401.734	965.94
401.958	952.94
402.182	897.94
402.406	907.94
402.63	868.94
402.854	869.94
403.078	879.94
403.302	882.94
403.526	896.94
403.75	938.94
403.974	963.94
404.198	949.94
404.422	977.94
404.645	1037.94
404.869	954.94
405.093	903.94
405.317	901.94
405.541	929.94
405.765	911.94
405.988	921.94
406.212	916.94
406.436	942.94
406.66	1009.94
406.883	1041.94
407.107	1113.94
407.331	1182.94
407.555	1260.94
407.778	1137.94
408.002	972.94
408.226	967.94
408.449	960.94
408.673	951.94
408.896	925.94
409.12	946.94
409.344	956.94
409.567	901.94
409.791	914.94
410.014	998.94
410.238	1019.94
410.461	1045.94
410.685	972.94
410.908	943.94
411.132	933.94
411.355	948.94
411.578	919.94
411.802	922.94
412.025	905.94
412.249	922.94
412.472	899.94
412.695	921.94
412.919	924.94
413.142	904.94
413.365	931.94
413.589	930.94
413.812	981.94
414.035	1012.94
414.258	957.94
414.482	925.94
414.705	911.94
414.928	903.94
415.151	903.94
415.374	909.94
415.597	951.94
415.821	932.94
416.044	948.94
416.267	961.94
416.49	911.94
416.713	910.94
416.936	949.94
417.159	962.94
417.382	943.94
417.605	952.94
417.828	951.94
418.051	932.94
418.274	931.94
418.497	896.94
418.72	918.94
418.943	938.94
419.166	965.94
419.389	937.94
419.611	942.94
419.834	923.94
420.057	948.94
420.28	908.94
420.503	939.94
420.726	945.94
420.948	927.94
421.171	909.94
421.394	945.94
421.617	946.94
421.839	985.94
422.062	998.94
422.285	926.94
422.507	915.94
422.73	885.94
422.953	879.94
423.175	886.94
423.398	896.94
423.621	933.94
423.843	925.94
424.066	960.94
424.288	1010.94
424.511	1073.94
424.733	1014.94
424.956	940.94
425.178	925.94
425.401	942.94
425.623	974.94
425.846	945.94
426.068	974.94
426.291	998.94
426.513	943.94
426.735	967.94
426.958	1055.94
427.18	1066.94
427.402	978.94
427.625	1030.94
427.847	982.94
428.069	931.94
428.292	929.94
428.514	923.94
428.736	894.94
428.958	898.94
429.181	933.94
429.403	1053.94
429.625	1210.94
429.847	1027.94
430.069	958.94
430.292	1025.94
430.514	1005.94
430.736	976.94
430.958	1002.94
431.18	914.94
431.402	874.94
431.624	834.94
431.846	799.94
432.068	725.94
432.29	728.94
432.512	781.94
432.734	863.94
432.956	930.94
433.178	933.94
433.4	966.94
433.622	952.94
433.844	880.94
434.066	843.94
434.287	777.94
434.509	777.94
434.731	826.94
434.953	897.94
435.175	905.94
435.397	924.94
435.618	900.94
435.84	837.94
436.062	817.94
436.284	875.94
436.505	957.94
436.727	937.94
436.949	915.94
437.17	879.94
437.392	889.94
437.614	855.94
437.835	807.94
438.057	793.94
438.278	851.94
438.5	837.94
438.721	883.94
438.943	930.94
439.165	942.94
439.386	921.94
439.608	950.94
439.829	957.94
440.05	967.94
440.272	956.94
440.493	958.94
440.715	965.94
440.936	1033.94
441.158	1063.94
441.379	1051.94
441.6	1031.94
441.822	1015.94
442.043	997.94
442.264	979.94
442.486	929.94
442.707	961.94
442.928	974.94
443.149	939.94
443.371	997.94
443.592	1043.94
443.813	1014.94
444.034	1016.94
444.255	989.94
444.476	1013.94
444.698	1017.94
444.919	1031.94
445.14	1095.94
445.361	1067.94
445.582	1075.94
445.803	1056.94
446.024	1023.94
446.245	1078.94
446.466	1041.94
446.687	1043.94
446.908	1027.94
447.129	997.94
447.35	1029.94
447.571	997.94
447.792	958.94
448.013	938.94
448.234	942.94
448.455	988.94
448.675	982.94
448.896	938.94
449.117	913.94
449.338	899.94
449.559	940.94
449.779	985.94
450	1007.94
450.221	1027.94
450.442	1017.94
450.662	917.94
450.883	893.94
451.104	881.94
451.324	871.94
451.545	896.94
451.766	836.94
451.986	845.94
452.207	810.94
452.428	810.94
452.648	793.94
452.869	776.94
453.089	765.94
453.31	773.94
453.53	757.94
453.751	758.94
453.971	706.94
454.192	735.94
454.412	761.94
454.633	789.94
454.853	774.94
455.073	753.94
455.294	782.94
455.514	753.94
455.734	746.94
455.955	762.94
456.175	722.94
456.395	741.94
456.616	712.94
456.836	718.94
457.056	735.94
457.276	723.94
457.497	722.94
457.717	666.94
457.937	728.94
458.157	720.94
458.377	679.94
458.598	671.94
458.818	681.94
459.038	709.94
459.258	706.94
459.478	709.94
459.698	708.94
459.918	717.94
460.138	787.94
460.358	783.94
460.578	841.94
460.798	848.94
461.018	904.94
461.238	873.94
461.458	840.94
461.678	819.94
461.898	823.94
462.118	815.94
462.338	846.94
462.558	843.94
462.777	841.94
462.997	890.94
463.217	888.94
463.437	851.94
463.657	846.94
463.876	805.94
464.096	821.94
464.316	826.94
464.536	856.94
464.755	889.94
464.975	862.94
465.195	827.94
465.414	882.94
465.634	878.94
465.854	878.94
466.073	951.94
466.293	967.94
466.512	864.94
466.732	837.94
466.951	930.94
467.171	901.94
467.391	882.94
467.61	875.94
467.829	892.94
468.049	976.94
468.268	1036.94
468.488	988.94
468.707	907.94
468.927	899.94
469.146	900.94
469.365	923.94
469.585	912.94
469.804	926.94
470.023	950.94
470.243	947.94
470.462	917.94
470.681	925.94
470.901	937.94
471.12	917.94
471.339	910.94
471.558	921.94
471.777	912.94
471.997	868.94
472.216	837.94
472.435	808.94
472.654	760.94
472.873	779.94
473.092	814.94
473.311	817.94
473.53	803.94
473.749	829.94
473.968	829.94
474.187	828.94
474.406	805.94
474.625	858.94
474.844	871.94
475.063	889.94
475.282	857.94
475.501	798.94
475.72	860.94
475.939	912.94
476.158	895.94
476.377	899.94
476.596	817.94
476.814	828.94
477.033	809.94
477.252	811.94
477.471	903.94
477.69	929.94
477.908	925.94
478.127	984.94
478.346	1021.94
478.564	1006.94
478.783	960.94
479.002	1049.94
479.22	1009.94
479.439	994.94
479.658	1066.94
479.876	969.94
480.095	916.94
480.313	892.94
480.532	863.94
480.751	875.94
480.969	783.94
481.188	787.94
481.406	800.94
481.624	753.94
481.843	790.94
482.061	802.94
482.28	853.94
482.498	900.94
482.717	868.94
482.935	900.94
483.153	956.94
483.372	1011.94
483.59	997.94
483.808	963.94
484.027	924.94
484.245	1002.94
484.463	1205.94
484.681	1289.94
484.9	1042.94
485.118	957.94
485.336	924.94
485.554	916.94
485.772	889.94
485.99	846.94
486.209	899.94
486.427	923.94
486.645	965.94
486.863	1031.94
487.081	1032.94
487.299	1041.94
487.517	1016.94
487.735	1080.94
487.953	1151.94
488.171	1162.94
488.389	1101.94
488.607	1091.94
488.825	1157.94
489.043	1077.94
489.261	1003.94
489.479	1040.94
489.696	1047.94
489.914	1032.94
490.132	1013.94
490.35	1079.94
490.568	1159.94
490.786	1175.94
491.003	1183.94
491.221	1230.94
491.439	1273.94
491.657	1296.94
491.874	1386.94
492.092	1427.94
492.31	1541.94
492.527	1465.94
492.745	1373.94
492.963	1321.94
493.18	1342.94
493.398	1331.94
493.615	1328.94
493.833	1260.94
494.05	1236.94
494.268	1240.94
494.485	1244.94
494.703	1227.94
494.92	1218.94
495.138	1231.94
495.355	1217.94
495.573	1223.94
495.79	1248.94
496.008	1293.94
496.225	1220.94
496.442	1203.94
496.66	1223.94
496.877	1205.94
497.094	1221.94
497.312	1226.94
497.529	1191.94
497.746	1179.94
497.963	1260.94
498.181	1285.94
498.398	1250.94
498.615	1179.94
498.832	1108.94
499.049	1157.94
499.267	1141.94
499.484	1223.94
499.701	1321.94
499.918	1389.94
500.135	1444.94
500.352	1561.94
500.569	1589.94
500.786	1689.94
501.003	1532.94
501.22	1457.94
501.437	1385.94
501.654	1425.94
501.871	1338.94
502.088	1203.94
502.305	1183.94
502.522	1142.94
502.739	1090.94
502.956	1096.94
503.172	1053.94
503.389	991.94
503.606	1002.94
503.823	1017.94
504.04	993.94
504.256	1015.94
504.473	1036.94
504.69	1016.94
504.907	977.94
505.123	970.94
505.34	1075.94
505.557	1325.94
505.773	1085.94
505.99	933.94
506.207	917.94
506.423	887.94
506.64	913.94
506.856	957.94
507.073	1038.94
507.289	1066.94
507.506	991.94
507.722	881.94
507.939	844.94
508.155	845.94
508.372	831.94
508.588	818.94
508.805	790.94
509.021	791.94
509.238	770.94
509.454	753.94
509.67	737.94
509.887	739.94
510.103	710.94
510.319	756.94
510.536	775.94
510.752	775.94
510.968	745.94
511.184	777.94
511.401	770.94
511.617	722.94
511.833	720.94
512.049	718.94
512.265	718.94
512.481	691.94
512.698	727.94
512.914	762.94
513.13	755.94
513.346	703.94
513.562	716.94
513.778	711.94
513.994	755.94
514.21	740.94
514.426	758.94
514.642	779.94
514.858	769.94
515.074	718.94
515.29	706.94
515.506	714.94
515.721	735.94
515.937	758.94
516.153	777.94
516.369	742.94
516.585	753.94
516.801	721.94
517.016	743.94
517.232	745.94
517.448	756.94
517.664	781.94
517.879	756.94
518.095	817.94
518.311	778.94
518.527	761.94
518.742	729.94
518.958	719.94
519.173	737.94
519.389	769.94
519.605	775.94
519.82	787.94
520.036	801.94
520.251	761.94
520.467	751.94
520.682	829.94
520.898	787.94
521.113	729.94
521.329	711.94
521.544	785.94
521.76	726.94
521.975	717.94
522.19	738.94
522.406	730.94
522.621	931.94
522.836	852.94
523.052	735.94
523.267	743.94
523.482	758.94
523.698	737.94
523.913	735.94
524.128	743.94
524.343	821.94
524.559	811.94
524.774	785.94
524.989	774.94
525.204	769.94
525.419	757.94
525.634	747.94
525.849	740.94
526.064	717.94
526.28	730.94
526.495	637.94
526.71	657.94
526.925	653.94
527.14	623.94
527.355	626.94
527.57	613.94
527.785	661.94
527.999	645.94
528.214	672.94
528.429	709.94
528.644	729.94
528.859	809.94
529.074	828.94
529.289	873.94
529.503	871.94
529.718	835.94
529.933	740.94
530.148	667.94
530.363	629.94
530.577	637.94
530.792	636.94
531.007	622.94
531.221	616.94
531.436	638.94
531.651	652.94
531.865	681.94
532.08	663.94
532.295	636.94
532.509	609.94
532.724	627.94
532.938	676.94
533.153	686.94
533.367	708.94
533.582	728.94
533.796	719.94
534.011	719.94
534.225	639.94
534.44	643.94
534.654	647.94
534.868	639.94
535.083	697.94
535.297	703.94
535.511	666.94
535.726	687.94
535.94	681.94
536.154	629.94
536.369	631.94
536.583	613.94
536.797	611.94
537.011	580.94
537.225	599.94
537.44	593.94
537.654	652.94
537.868	629.94
538.082	593.94
538.296	622.94
538.51	635.94
538.724	685.94
538.938	693.94
539.153	760.94
539.367	718.94
539.581	695.94
539.795	635.94
540.009	660.94
540.222	632.94
540.436	669.94
540.65	770.94
540.864	826.94
541.078	860.94
541.292	849.94
541.506	882.94
541.72	971.94
541.934	1038.94
542.147	1079.94
542.361	1019.94
542.575	906.94
542.789	857.94
543.002	781.94
543.216	735.94
543.43	746.94
543.644	800.94
543.857	892.94
544.071	909.94
544.285	906.94
544.498	917.94
544.712	954.94
544.925	940.94
545.139	941.94
545.352	971.94
545.566	949.94
545.779	927.94
545.993	967.94
546.206	969.94
546.42	937.94
546.633	910.94
546.847	948.94
547.06	965.94
547.274	941.94
547.487	994.94
547.7	1004.94
547.914	988.94
548.127	952.94
548.34	964.94
548.554	942.94
548.767	924.94
548.98	949.94
549.193	954.94
549.407	966.94
549.62	949.94
549.833	922.94
550.046	933.94
550.259	931.94
550.473	892.94
550.686	885.94
550.899	840.94
551.112	845.94
551.325	841.94
551.538	839.94
551.751	877.94
551.964	690.94
552.177	719.94
552.39	785.94
552.603	847.94
552.816	866.94
553.029	902.94
553.242	931.94
553.455	924.94
553.667	917.94
553.88	911.94
554.093	879.94
554.306	848.94
554.519	835.94
554.732	834.94
554.944	863.94
555.157	804.94
555.37	853.94
555.583	811.94
555.795	801.94
556.008	741.94
556.221	713.94
556.433	749.94
556.646	754.94
556.859	733.94
557.071	730.94
557.284	739.94
557.496	761.94
557.709	771.94
557.921	740.94
558.134	749.94
558.346	714.94
558.559	719.94
558.771	727.94
558.984	687.94
559.196	659.94
559.409	676.94
559.621	665.94
559.833	650.94
560.046	685.94
560.258	678.94
560.47	665.94
560.683	669.94
560.895	670.94
561.107	663.94
561.32	695.94
561.532	698.94
561.744	669.94
561.956	702.94
562.168	655.94
562.381	638.94
562.593	670.94
562.805	659.94
563.017	616.94
563.229	634.94
563.441	638.94
563.653	637.94
563.865	636.94
564.077	643.94
564.289	621.94
564.501	615.94
564.713	628.94
564.925	629.94
565.137	672.94
565.349	616.94
565.561	609.94
565.773	614.94
565.985	626.94
566.197	671.94
566.408	659.94
566.62	661.94
566.832	700.94
567.044	664.94
567.255	655.94
567.467	645.94
567.679	661.94
567.891	644.94
568.102	622.94
568.314	584.94
568.526	537.94
568.737	511.94
568.949	484.94
569.161	473.94
569.372	437.94
569.584	447.94
569.795	438.94
570.007	437.94
570.218	445.94
570.43	440.94
570.641	437.94
570.853	468.94
571.064	504.94
571.276	482.94
571.487	498.94
571.698	482.94
571.91	469.94
572.121	447.94
572.333	456.94
572.544	448.94
572.755	430.94
572.966	408.94
573.178	405.94
573.389	416.94
573.6	405.94
573.811	442.94
574.023	403.94
574.234	402.94
574.445	394.94
574.656	385.94
574.867	391.94
575.078	407.94
575.289	420.94
575.501	386.94
575.712	379.94
575.923	393.94
576.134	391.94
576.345	411.94
576.556	417.94
576.767	408.94
576.978	389.94
577.188	379.94
577.399	366.94
577.61	373.94
577.821	373.94
578.032	372.94
578.243	376.94
578.454	371.94
578.665	362.94
578.875	343.94
579.086	340.94
579.297	342.94
579.508	373.94
579.718	349.94
579.929	360.94
580.14	337.94
580.35	345.94
580.561	349.94
580.772	389.94
580.982	362.94
581.193	354.94
581.403	357.94
581.614	350.94
581.825	349.94
582.035	332.94
582.246	340.94
582.456	346.94
582.667	343.94
582.877	337.94
583.087	353.94
583.298	327.94
583.508	309.94
583.719	340.94
583.929	325.94
584.139	317.94
584.35	317.94
584.56	340.94
584.77	335.94
584.981	301.94
585.191	325.94
585.401	336.94
585.611	338.94
585.821	327.94
586.032	323.94
586.242	310.94
586.452	328.94
586.662	329.94
586.872	316.94
587.082	296.94
587.292	319.94
587.502	339.94
587.713	329.94
587.923	320.94
588.133	337.94
588.343	321.94
588.553	297.94
588.762	305.94
588.972	324.94
589.182	321.94
589.392	311.94
589.602	311.94
589.812	316.94
590.022	304.94
590.232	315.94
590.441	307.94
590.651	306.94
590.861	326.94
591.071	306.94
591.281	313.94
591.49	313.94
591.7	303.94
591.91	295.94
592.119	307.94
592.329	333.94
592.539	334.94
592.748	324.94
592.958	337.94
593.167	327.94
593.377	338.94
593.587	320.94
593.796	350.94
594.006	328.94
594.215	316.94
594.424	319.94
594.634	342.94
594.843	339.94
595.053	350.94
595.262	341.94
595.472	317.94
595.681	316.94
595.89	301.94
596.1	311.94
596.309	313.94
596.518	332.94
596.727	343.94
596.937	328.94
597.146	323.94
597.355	295.94
597.564	287.94
597.774	284.94
597.983	273.94
598.192	282.94
598.401	289.94
598.61	287.94
598.819	285.94
599.028	305.94
599.237	285.94
599.446	319.94
599.655	294.94
599.864	292.94
600.073	299.94
600.282	292.94
600.491	312.94
600.7	286.94
600.909	300.94
601.118	313.94
601.327	337.94
601.536	344.94
601.745	355.94
601.953	324.94
602.162	372.94
602.371	365.94
602.58	353.94
602.789	349.94
602.997	343.94
603.206	376.94
603.415	349.94
603.623	355.94
603.832	348.94
604.041	339.94
604.249	314.94
604.458	308.94
604.666	307.94
604.875	298.94
605.084	343.94
605.292	330.94
605.501	332.94
605.709	350.94
605.918	355.94
606.126	355.94
606.334	351.94
606.543	365.94
606.751	357.94
606.96	367.94
607.168	340.94
607.376	347.94
607.585	346.94
607.793	368.94
608.001	354.94
608.21	360.94
608.418	366.94
608.626	354.94
608.834	341.94
609.043	381.94
609.251	350.94
609.459	365.94
609.667	348.94
609.875	361.94
610.083	377.94
610.291	375.94
610.499	348.94
610.707	354.94
610.916	365.94
611.124	365.94
611.332	400.94
611.54	359.94
611.748	358.94
611.955	366.94
612.163	364.94
612.371	369.94
612.579	355.94
612.787	358.94
612.995	381.94
613.203	374.94
613.411	358.94
613.618	354.94
613.826	343.94
614.034	361.94
614.242	359.94
614.449	351.94
614.657	356.94
614.865	364.94
615.072	366.94
615.28	375.94
615.488	367.94
615.695	362.94
615.903	358.94
616.111	371.94
616.318	369.94
616.526	361.94
616.733	353.94
616.941	356.94
617.148	371.94
617.356	364.94
617.563	345.94
617.771	345.94
617.978	339.94
618.185	353.94
618.393	348.94
618.6	350.94
618.807	364.94
619.015	336.94
619.222	350.94
619.429	322.94
619.637	309.94
619.844	300.94
620.051	319.94
620.258	328.94
620.466	332.94
620.673	329.94
620.88	329.94
621.087	310.94
621.294	311.94
621.501	311.94
621.708	307.94
621.915	321.94
622.122	324.94
622.329	336.94
622.536	334.94
622.743	337.94
622.95	342.94
623.157	310.94
623.364	316.94
623.571	326.94
623.778	338.94
623.985	332.94
624.192	323.94
624.399	334.94
624.606	322.94
624.812	311.94
625.019	318.94
625.226	302.94
625.433	299.94
625.639	281.94
625.846	257.94
626.053	265.94
626.259	242.94
626.466	249.94
626.673	256.94
626.879	236.94
627.086	253.94
627.293	260.94
627.499	293.94
627.706	288.94
627.912	303.94
628.119	295.94
628.325	288.94
628.532	279.94
628.738	294.94
628.945	277.94
629.151	276.94
629.357	309.94
629.564	298.94
629.77	283.94
629.976	271.94
630.183	245.94
630.389	274.94
630.595	301.94
630.802	267.94
631.008	283.94
631.214	274.94
631.42	269.94
631.627	259.94
631.833	253.94
632.039	259.94
632.245	253.94
632.451	279.94
632.657	286.94
632.863	287.94
633.069	263.94
633.275	281.94
633.481	265.94
633.688	259.94
633.893	251.94
634.099	269.94
634.305	270.94
634.511	257.94
634.717	244.94
634.923	233.94
635.129	231.94
635.335	258.94
635.541	252.94
635.747	237.94
635.952	235.94
636.158	241.94
636.364	259.94
636.57	266.94
636.775	257.94
636.981	266.94
637.187	262.94
637.392	253.94
637.598	255.94
637.804	275.94
638.009	257.94
638.215	238.94
638.421	257.94
638.626	260.94
638.832	263.94
639.037	271.94
639.243	257.94
639.448	261.94
639.654	264.94
639.859	244.94
640.065	232.94
640.27	238.94
640.475	247.94
640.681	253.94
640.886	250.94
641.091	254.94
641.297	250.94
641.502	256.94
641.707	268.94
641.913	242.94
642.118	234.94
642.323	246.94
642.528	248.94
642.733	254.94
642.939	248.94
643.144	245.94
643.349	239.94
643.554	251.94
643.759	251.94
643.964	244.94
644.169	254.94
644.374	243.94
644.579	230.94
644.784	255.94
644.989	229.94
645.194	235.94
645.399	232.94
645.604	244.94
645.809	239.94
646.014	226.94
646.219	245.94
646.423	241.94
646.628	240.94
646.833	227.94
647.038	246.94
647.243	241.94
647.447	261.94
647.652	238.94
647.857	230.94
648.062	251.94
648.266	234.94
648.471	244.94
648.676	241.94
648.88	235.94
649.085	244.94
649.289	263.94
649.494	225.94
649.698	226.94
649.903	235.94
650.107	225.94
650.312	236.94
650.516	221.94
650.721	236.94
650.925	226.94
651.13	221.94
651.334	230.94
651.539	225.94
651.743	228.94
651.947	228.94
652.152	206.94
652.356	232.94
652.56	202.94
652.764	216.94
652.969	213.94
653.173	206.94
653.377	212.94
653.581	215.94
653.785	207.94
653.99	215.94
654.194	213.94
654.398	204.94
654.602	203.94
654.806	193.94
655.01	190.94
655.214	182.94
655.418	216.94
655.622	188.94
655.826	216.94
656.03	217.94
656.234	231.94
656.438	245.94
656.642	244.94
656.846	236.94
657.049	219.94
657.253	185.94
657.457	189.94
657.661	169.94
657.865	184.94
658.068	167.94
658.272	159.94
658.476	156.94
658.68	141.94
658.883	143.94
659.087	144.94
659.291	133.94
659.494	150.94
659.698	139.94
659.901	139.94
660.105	129.94
660.309	114.94
660.512	122.94
660.716	123.94
660.919	119.94
661.123	120.94
661.326	116.94
661.53	114.94
661.733	105.94
661.936	104.94
662.14	87.94
662.343	101.94
662.546	105.94
662.75	110.94
662.953	111.94
663.156	94.94
663.36	82.94
663.563	80.94
663.766	86.94
663.969	94.94
664.173	89.94
664.376	87.94
664.579	86.94
664.782	91.94
664.985	102.94
665.188	94.94
665.391	87.94
665.594	89.94
665.797	100.94
666	99.94
666.203	86.94
666.406	87.94
666.609	89.94
666.812	94.94
667.015	91.94
667.218	89.94
667.421	75.94
667.624	74.94
667.827	90.94
668.03	84.94
668.232	79.94
668.435	87.94
668.638	86.94
668.841	88.94
669.043	86.94
669.246	100.94
669.449	79.94
669.651	83.94
669.854	95.94
670.057	87.94
670.259	89.94
670.462	84.94
670.665	81.94
670.867	84.94
671.07	82.94
671.272	87.94
671.475	94.94
671.677	79.94
671.88	89.94
672.082	87.94
672.284	82.94
672.487	79.94
672.689	87.94
672.892	89.94
