Data from WStandard_LampEnergy10_LIBS07252019.E.O._I.C._HRD10591_15-54-50-928.txt Node
Date: Thu Jul 25 15:54:50 EDT 2019
User: cochatt
Spectrometer: HR+D1059
Trigger mode: 1
Integration Time (sec): 1.000000E-1
Scans to average: 1
Electric dark correction enabled: true
Nonlinearity correction enabled: false
Boxcar width: 0
XAxis mode: Wavelengths
Number of Pixels in Spectrum: 2048
>>>>>Begin Spectral Data<<<<<
223.165	-3.94
223.4	-3.94
223.635	-3.94
223.869	-15.94
224.104	-14.94
224.338	-30.94
224.573	-8.94
224.808	-23.94
225.042	-3.94
225.277	6.06
225.511	8.06
225.746	-9.94
225.98	2.06
226.215	19.06
226.449	16.06
226.683	20.06
226.918	6.06
227.152	35.06
227.387	49.06
227.621	51.06
227.856	46.06
228.09	58.06
228.324	71.06
228.559	53.06
228.793	69.06
229.027	125.06
229.262	132.06
229.496	160.06
229.73	138.06
229.964	157.06
230.199	165.06
230.433	169.06
230.667	173.06
230.901	180.06
231.136	176.06
231.37	181.06
231.604	170.06
231.838	178.06
232.072	177.06
232.306	156.06
232.541	172.06
232.775	194.06
233.009	218.06
233.243	194.06
233.477	206.06
233.711	210.06
233.945	195.06
234.179	200.06
234.413	188.06
234.647	213.06
234.881	200.06
235.115	210.06
235.349	187.06
235.583	196.06
235.817	196.06
236.051	192.06
236.285	185.06
236.519	222.06
236.753	210.06
236.987	222.06
237.221	225.06
237.455	232.06
237.689	213.06
237.922	214.06
238.156	201.06
238.39	218.06
238.624	232.06
238.858	236.06
239.091	240.06
239.325	256.06
239.559	282.06
239.793	272.06
240.027	301.06
240.26	281.06
240.494	229.06
240.728	227.06
240.961	240.06
241.195	229.06
241.429	256.06
241.662	245.06
241.896	257.06
242.13	228.06
242.363	265.06
242.597	276.06
242.83	277.06
243.064	283.06
243.298	274.06
243.531	276.06
243.765	280.06
243.998	285.06
244.232	266.06
244.465	249.06
244.699	248.06
244.932	276.06
245.166	286.06
245.399	283.06
245.633	267.06
245.866	284.06
246.099	293.06
246.333	276.06
246.566	304.06
246.8	309.06
247.033	318.06
247.266	318.06
247.5	300.06
247.733	319.06
247.966	340.06
248.2	352.06
248.433	348.06
248.666	362.06
248.899	385.06
249.133	423.06
249.366	443.06
249.599	385.06
249.832	350.06
250.066	388.06
250.299	358.06
250.532	346.06
250.765	304.06
250.998	334.06
251.231	351.06
251.465	329.06
251.698	329.06
251.931	337.06
252.164	359.06
252.397	365.06
252.63	364.06
252.863	314.06
253.096	330.06
253.329	341.06
253.562	350.06
253.795	369.06
254.028	364.06
254.261	330.06
254.494	318.06
254.727	330.06
254.96	351.06
255.193	365.06
255.426	392.06
255.659	434.06
255.892	421.06
256.124	358.06
256.357	398.06
256.59	402.06
256.823	418.06
257.056	411.06
257.289	463.06
257.521	503.06
257.754	447.06
257.987	437.06
258.22	467.06
258.452	455.06
258.685	392.06
258.918	386.06
259.151	374.06
259.383	362.06
259.616	344.06
259.849	362.06
260.081	397.06
260.314	438.06
260.547	468.06
260.779	455.06
261.012	424.06
261.244	395.06
261.477	386.06
261.71	408.06
261.942	391.06
262.175	392.06
262.407	405.06
262.64	382.06
262.872	363.06
263.105	358.06
263.337	353.06
263.57	357.06
263.802	385.06
264.035	366.06
264.267	348.06
264.499	324.06
264.732	368.06
264.964	361.06
265.197	380.06
265.429	406.06
265.661	450.06
265.894	496.06
266.126	474.06
266.358	448.06
266.591	451.06
266.823	487.06
267.055	432.06
267.287	434.06
267.52	453.06
267.752	424.06
267.984	430.06
268.216	450.06
268.448	456.06
268.681	456.06
268.913	412.06
269.145	393.06
269.377	381.06
269.609	464.06
269.841	500.06
270.073	577.06
270.306	596.06
270.538	599.06
270.77	526.06
271.002	464.06
271.234	470.06
271.466	460.06
271.698	525.06
271.93	585.06
272.162	581.06
272.394	548.06
272.626	528.06
272.858	442.06
273.09	410.06
273.322	421.06
273.553	374.06
273.785	406.06
274.017	441.06
274.249	420.06
274.481	416.06
274.713	408.06
274.945	391.06
275.176	401.06
275.408	402.06
275.64	382.06
275.872	388.06
276.104	421.06
276.335	476.06
276.567	498.06
276.799	516.06
277.031	477.06
277.262	472.06
277.494	507.06
277.726	510.06
277.957	503.06
278.189	440.06
278.421	426.06
278.652	404.06
278.884	424.06
279.115	437.06
279.347	426.06
279.579	416.06
279.81	440.06
280.042	453.06
280.273	489.06
280.505	492.06
280.736	502.06
280.968	469.06
281.199	414.06
281.431	388.06
281.662	394.06
281.894	421.06
282.125	420.06
282.356	442.06
282.588	445.06
282.819	446.06
283.051	496.06
283.282	512.06
283.513	473.06
283.745	433.06
283.976	423.06
284.207	404.06
284.439	418.06
284.67	461.06
284.901	452.06
285.132	466.06
285.364	450.06
285.595	458.06
285.826	457.06
286.057	430.06
286.288	440.06
286.52	463.06
286.751	472.06
286.982	490.06
287.213	446.06
287.444	440.06
287.675	449.06
287.906	458.06
288.138	474.06
288.369	452.06
288.6	451.06
288.831	437.06
289.062	437.06
289.293	449.06
289.524	455.06
289.755	460.06
289.986	459.06
290.217	428.06
290.448	436.06
290.679	455.06
290.91	469.06
291.141	440.06
291.371	459.06
291.602	492.06
291.833	434.06
292.064	484.06
292.295	496.06
292.526	488.06
292.757	497.06
292.987	480.06
293.218	478.06
293.449	526.06
293.68	564.06
293.91	587.06
294.141	528.06
294.372	533.06
294.603	563.06
294.833	567.06
295.064	523.06
295.295	482.06
295.525	458.06
295.756	445.06
295.987	430.06
296.217	438.06
296.448	450.06
296.679	468.06
296.909	441.06
297.14	461.06
297.37	503.06
297.601	496.06
297.831	513.06
298.062	518.06
298.292	466.06
298.523	484.06
298.753	470.06
298.984	487.06
299.214	454.06
299.445	511.06
299.675	494.06
299.905	478.06
300.136	473.06
300.366	463.06
300.597	466.06
300.827	477.06
301.057	486.06
301.288	489.06
301.518	505.06
301.748	500.06
301.979	530.06
302.209	566.06
302.439	553.06
302.669	572.06
302.9	538.06
303.13	491.06
303.36	504.06
303.59	504.06
303.82	482.06
304.051	483.06
304.281	494.06
304.511	542.06
304.741	576.06
304.971	601.06
305.201	621.06
305.431	561.06
305.661	483.06
305.891	447.06
306.121	457.06
306.352	466.06
306.582	516.06
306.812	530.06
307.042	560.06
307.272	564.06
307.502	581.06
307.731	610.06
307.961	635.06
308.191	567.06
308.421	518.06
308.651	494.06
308.881	484.06
309.111	495.06
309.341	484.06
309.571	485.06
309.8	485.06
310.03	477.06
310.26	479.06
310.49	494.06
310.72	497.06
310.949	542.06
311.179	524.06
311.409	502.06
311.639	513.06
311.868	496.06
312.098	504.06
312.328	508.06
312.557	508.06
312.787	483.06
313.017	537.06
313.246	526.06
313.476	534.06
313.706	522.06
313.935	527.06
314.165	532.06
314.394	555.06
314.624	576.06
314.853	611.06
315.083	605.06
315.312	628.06
315.542	577.06
315.771	564.06
316.001	547.06
316.23	576.06
316.46	552.06
316.689	545.06
316.919	529.06
317.148	504.06
317.377	532.06
317.607	564.06
317.836	632.06
318.065	620.06
318.295	596.06
318.524	581.06
318.753	548.06
318.983	576.06
319.212	549.06
319.441	553.06
319.67	531.06
319.9	558.06
320.129	578.06
320.358	596.06
320.587	596.06
320.816	609.06
321.046	598.06
321.275	593.06
321.504	594.06
321.733	600.06
321.962	596.06
322.191	577.06
322.42	555.06
322.649	544.06
322.878	550.06
323.108	566.06
323.337	580.06
323.566	562.06
323.795	566.06
324.024	569.06
324.253	534.06
324.482	542.06
324.71	524.06
324.939	536.06
325.168	530.06
325.397	543.06
325.626	550.06
325.855	562.06
326.084	562.06
326.313	548.06
326.542	564.06
326.77	584.06
326.999	596.06
327.228	557.06
327.457	522.06
327.686	552.06
327.914	542.06
328.143	557.06
328.372	577.06
328.6	560.06
328.829	545.06
329.058	540.06
329.287	557.06
329.515	547.06
329.744	581.06
329.972	582.06
330.201	611.06
330.43	604.06
330.658	592.06
330.887	600.06
331.115	593.06
331.344	590.06
331.572	560.06
331.801	548.06
332.03	567.06
332.258	572.06
332.486	604.06
332.715	593.06
332.943	594.06
333.172	569.06
333.4	600.06
333.629	626.06
333.857	656.06
334.085	732.06
334.314	788.06
334.542	808.06
334.771	754.06
334.999	689.06
335.227	638.06
335.455	628.06
335.684	598.06
335.912	656.06
336.14	643.06
336.369	616.06
336.597	589.06
336.825	595.06
337.053	625.06
337.281	630.06
337.51	692.06
337.738	686.06
337.966	638.06
338.194	598.06
338.422	594.06
338.65	581.06
338.878	586.06
339.106	546.06
339.334	564.06
339.562	548.06
339.79	585.06
340.018	602.06
340.246	632.06
340.474	621.06
340.702	615.06
340.93	615.06
341.158	605.06
341.386	590.06
341.614	586.06
341.842	605.06
342.07	582.06
342.298	595.06
342.526	611.06
342.754	600.06
342.981	572.06
343.209	589.06
343.437	582.06
343.665	589.06
343.893	614.06
344.12	633.06
344.348	627.06
344.576	589.06
344.804	604.06
345.031	592.06
345.259	585.06
345.487	554.06
345.714	542.06
345.942	548.06
346.17	538.06
346.397	570.06
346.625	590.06
346.853	541.06
347.08	516.06
347.308	546.06
347.535	556.06
347.763	567.06
347.99	539.06
348.218	550.06
348.445	570.06
348.673	574.06
348.9	579.06
349.128	609.06
349.355	600.06
349.583	589.06
349.81	533.06
350.037	533.06
350.265	527.06
350.492	538.06
350.72	562.06
350.947	576.06
351.174	576.06
351.402	537.06
351.629	489.06
351.856	525.06
352.083	518.06
352.311	525.06
352.538	531.06
352.765	599.06
352.992	573.06
353.22	554.06
353.447	551.06
353.674	535.06
353.901	560.06
354.128	552.06
354.355	546.06
354.583	566.06
354.81	601.06
355.037	579.06
355.264	548.06
355.491	569.06
355.718	570.06
355.945	549.06
356.172	542.06
356.399	541.06
356.626	533.06
356.853	582.06
357.08	611.06
357.307	655.06
357.534	657.06
357.761	542.06
357.988	549.06
358.215	544.06
358.441	540.06
358.668	556.06
358.895	559.06
359.122	601.06
359.349	624.06
359.576	609.06
359.802	574.06
360.029	525.06
360.256	526.06
360.483	552.06
360.709	589.06
360.936	606.06
361.163	607.06
361.39	680.06
361.616	688.06
361.843	704.06
362.07	662.06
362.296	572.06
362.523	557.06
362.749	551.06
362.976	576.06
363.203	567.06
363.429	548.06
363.656	565.06
363.882	585.06
364.109	639.06
364.335	653.06
364.562	625.06
364.788	588.06
365.015	582.06
365.241	544.06
365.468	574.06
365.694	583.06
365.92	603.06
366.147	598.06
366.373	550.06
366.599	551.06
366.826	570.06
367.052	553.06
367.278	557.06
367.505	586.06
367.731	600.06
367.957	603.06
368.184	629.06
368.41	652.06
368.636	669.06
368.862	674.06
369.089	649.06
369.315	609.06
369.541	626.06
369.767	595.06
369.993	594.06
370.219	582.06
370.445	615.06
370.672	646.06
370.898	636.06
371.124	636.06
371.35	595.06
371.576	668.06
371.802	662.06
372.028	637.06
372.254	601.06
372.48	600.06
372.706	581.06
372.932	596.06
373.158	632.06
373.384	616.06
373.61	649.06
373.835	653.06
374.061	624.06
374.287	612.06
374.513	620.06
374.739	617.06
374.965	629.06
375.191	632.06
375.416	622.06
375.642	646.06
375.868	704.06
376.094	716.06
376.319	695.06
376.545	622.06
376.771	644.06
376.997	701.06
377.222	675.06
377.448	673.06
377.674	681.06
377.899	650.06
378.125	712.06
378.35	718.06
378.576	626.06
378.802	625.06
379.027	609.06
379.253	638.06
379.478	630.06
379.704	634.06
379.929	661.06
380.155	642.06
380.38	662.06
380.606	642.06
380.831	650.06
381.057	723.06
381.282	693.06
381.507	705.06
381.733	748.06
381.958	721.06
382.184	667.06
382.409	660.06
382.634	667.06
382.86	656.06
383.085	690.06
383.31	715.06
383.535	747.06
383.761	803.06
383.986	761.06
384.211	712.06
384.436	724.06
384.662	755.06
384.887	774.06
385.112	741.06
385.337	733.06
385.562	758.06
385.787	728.06
386.013	768.06
386.238	756.06
386.463	754.06
386.688	816.06
386.913	856.06
387.138	813.06
387.363	778.06
387.588	738.06
387.813	770.06
388.038	781.06
388.263	779.06
388.488	768.06
388.713	713.06
388.938	725.06
389.163	720.06
389.387	739.06
389.612	754.06
389.837	754.06
390.062	750.06
390.287	753.06
390.512	738.06
390.736	722.06
390.961	739.06
391.186	721.06
391.411	703.06
391.636	738.06
391.86	753.06
392.085	723.06
392.31	722.06
392.534	750.06
392.759	738.06
392.984	759.06
393.208	766.06
393.433	787.06
393.658	831.06
393.882	841.06
394.107	768.06
394.331	751.06
394.556	749.06
394.78	753.06
395.005	796.06
395.229	825.06
395.454	893.06
395.678	875.06
395.903	818.06
396.127	810.06
396.352	817.06
396.576	869.06
396.801	837.06
397.025	821.06
397.249	862.06
397.474	812.06
397.698	834.06
397.922	848.06
398.147	899.06
398.371	900.06
398.595	900.06
398.82	877.06
399.044	870.06
399.268	927.06
399.492	935.06
399.717	996.06
399.941	982.06
400.165	981.06
400.389	968.06
400.613	987.06
400.837	1099.06
401.062	1173.06
401.286	1040.06
401.51	966.06
401.734	964.06
401.958	944.06
402.182	895.06
402.406	861.06
402.63	876.06
402.854	880.06
403.078	894.06
403.302	885.06
403.526	926.06
403.75	925.06
403.974	908.06
404.198	960.06
404.422	981.06
404.645	1012.06
404.869	947.06
405.093	892.06
405.317	900.06
405.541	915.06
405.765	920.06
405.988	937.06
406.212	935.06
406.436	972.06
406.66	970.06
406.883	1015.06
407.107	1119.06
407.331	1220.06
407.555	1243.06
407.778	1111.06
408.002	969.06
408.226	954.06
408.449	972.06
408.673	928.06
408.896	929.06
409.12	966.06
409.344	929.06
409.567	924.06
409.791	939.06
410.014	956.06
410.238	1025.06
410.461	1064.06
410.685	973.06
410.908	956.06
411.132	970.06
411.355	941.06
411.578	919.06
411.802	934.06
412.025	923.06
412.249	940.06
412.472	880.06
412.695	925.06
412.919	915.06
413.142	897.06
413.365	908.06
413.589	932.06
413.812	1006.06
414.035	996.06
414.258	948.06
414.482	902.06
414.705	918.06
414.928	916.06
415.151	922.06
415.374	922.06
415.597	930.06
415.821	950.06
416.044	958.06
416.267	925.06
416.49	904.06
416.713	904.06
416.936	922.06
417.159	936.06
417.382	961.06
417.605	934.06
417.828	937.06
418.051	965.06
418.274	924.06
418.497	912.06
418.72	916.06
418.943	917.06
419.166	936.06
419.389	975.06
419.611	935.06
419.834	936.06
420.057	963.06
420.28	918.06
420.503	941.06
420.726	945.06
420.948	932.06
421.171	920.06
421.394	923.06
421.617	983.06
421.839	998.06
422.062	968.06
422.285	934.06
422.507	928.06
422.73	906.06
422.953	892.06
423.175	868.06
423.398	903.06
423.621	920.06
423.843	941.06
424.066	991.06
424.288	993.06
424.511	1044.06
424.733	1010.06
424.956	922.06
425.178	919.06
425.401	931.06
425.623	945.06
425.846	948.06
426.068	1003.06
426.291	975.06
426.513	939.06
426.735	930.06
426.958	1031.06
427.18	1027.06
427.402	993.06
427.625	997.06
427.847	995.06
428.069	915.06
428.292	920.06
428.514	898.06
428.736	900.06
428.958	904.06
429.181	909.06
429.403	1067.06
429.625	1209.06
429.847	1044.06
430.069	937.06
430.292	1042.06
430.514	995.06
430.736	950.06
430.958	976.06
431.18	910.06
431.402	868.06
431.624	845.06
431.846	823.06
432.068	727.06
432.29	757.06
432.512	790.06
432.734	879.06
432.956	907.06
433.178	962.06
433.4	946.06
433.622	962.06
433.844	918.06
434.066	860.06
434.287	809.06
434.509	800.06
434.731	804.06
434.953	887.06
435.175	936.06
435.397	909.06
435.618	859.06
435.84	829.06
436.062	836.06
436.284	906.06
436.505	922.06
436.727	940.06
436.949	923.06
437.17	880.06
437.392	876.06
437.614	852.06
437.835	820.06
438.057	810.06
438.278	865.06
438.5	839.06
438.721	901.06
438.943	951.06
439.165	925.06
439.386	924.06
439.608	921.06
439.829	962.06
440.05	924.06
440.272	959.06
440.493	925.06
440.715	931.06
440.936	984.06
441.158	1069.06
441.379	1048.06
441.6	1039.06
441.822	1012.06
442.043	1014.06
442.264	972.06
442.486	968.06
442.707	953.06
442.928	930.06
443.149	982.06
443.371	1002.06
443.592	1016.06
443.813	1015.06
444.034	1005.06
444.255	984.06
444.476	1022.06
444.698	1029.06
444.919	1080.06
445.14	1140.06
445.361	1108.06
445.582	1060.06
445.803	1046.06
446.024	986.06
446.245	1062.06
446.466	1047.06
446.687	1045.06
446.908	1039.06
447.129	1027.06
447.35	1003.06
447.571	976.06
447.792	957.06
448.013	969.06
448.234	945.06
448.455	966.06
448.675	996.06
448.896	925.06
449.117	908.06
449.338	912.06
449.559	939.06
449.779	953.06
450	1036.06
450.221	1058.06
450.442	1012.06
450.662	942.06
450.883	870.06
451.104	854.06
451.324	871.06
451.545	905.06
451.766	856.06
451.986	835.06
452.207	806.06
452.428	796.06
452.648	776.06
452.869	780.06
453.089	774.06
453.31	776.06
453.53	757.06
453.751	731.06
453.971	709.06
454.192	709.06
454.412	772.06
454.633	771.06
454.853	778.06
455.073	750.06
455.294	745.06
455.514	760.06
455.734	745.06
455.955	753.06
456.175	741.06
456.395	736.06
456.616	742.06
456.836	738.06
457.056	742.06
457.276	746.06
457.497	709.06
457.717	690.06
457.937	706.06
458.157	724.06
458.377	707.06
458.598	697.06
458.818	682.06
459.038	664.06
459.258	713.06
459.478	710.06
459.698	671.06
459.918	736.06
460.138	787.06
460.358	810.06
460.578	830.06
460.798	834.06
461.018	886.06
461.238	846.06
461.458	865.06
461.678	855.06
461.898	798.06
462.118	802.06
462.338	822.06
462.558	812.06
462.777	853.06
462.997	882.06
463.217	872.06
463.437	881.06
463.657	844.06
463.876	827.06
464.096	831.06
464.316	812.06
464.536	880.06
464.755	873.06
464.975	866.06
465.195	855.06
465.414	872.06
465.634	851.06
465.854	910.06
466.073	951.06
466.293	921.06
466.512	870.06
466.732	868.06
466.951	900.06
467.171	893.06
467.391	871.06
467.61	871.06
467.829	917.06
468.049	984.06
468.268	1038.06
468.488	941.06
468.707	935.06
468.927	914.06
469.146	890.06
469.365	907.06
469.585	899.06
469.804	906.06
470.023	939.06
470.243	944.06
470.462	918.06
470.681	906.06
470.901	908.06
471.12	923.06
471.339	907.06
471.558	918.06
471.777	867.06
471.997	858.06
472.216	851.06
472.435	791.06
472.654	774.06
472.873	786.06
473.092	850.06
473.311	829.06
473.53	818.06
473.749	820.06
473.968	844.06
474.187	846.06
474.406	824.06
474.625	828.06
474.844	870.06
475.063	866.06
475.282	862.06
475.501	840.06
475.72	848.06
475.939	896.06
476.158	867.06
476.377	841.06
476.596	843.06
476.814	833.06
477.033	804.06
477.252	848.06
477.471	904.06
477.69	926.06
477.908	904.06
478.127	996.06
478.346	995.06
478.564	986.06
478.783	988.06
479.002	1016.06
479.22	1022.06
479.439	1035.06
479.658	1041.06
479.876	973.06
480.095	896.06
480.313	910.06
480.532	885.06
480.751	850.06
480.969	816.06
481.188	808.06
481.406	786.06
481.624	768.06
481.843	786.06
482.061	816.06
482.28	877.06
482.498	870.06
482.717	863.06
482.935	912.06
483.153	1000.06
483.372	1043.06
483.59	995.06
483.808	970.06
484.027	948.06
484.245	999.06
484.463	1200.06
484.681	1298.06
484.9	1024.06
485.118	966.06
485.336	945.06
485.554	932.06
485.772	875.06
485.99	874.06
486.209	916.06
486.427	918.06
486.645	928.06
486.863	997.06
487.081	1043.06
487.299	996.06
487.517	1010.06
487.735	1111.06
487.953	1204.06
488.171	1184.06
488.389	1148.06
488.607	1076.06
488.825	1138.06
489.043	1031.06
489.261	963.06
489.479	1024.06
489.696	1047.06
489.914	1021.06
490.132	1008.06
490.35	1120.06
490.568	1163.06
490.786	1168.06
491.003	1189.06
491.221	1284.06
491.439	1293.06
491.657	1312.06
491.874	1356.06
492.092	1419.06
492.31	1476.06
492.527	1429.06
492.745	1358.06
492.963	1300.06
493.18	1321.06
493.398	1337.06
493.615	1329.06
493.833	1265.06
494.05	1213.06
494.268	1221.06
494.485	1250.06
494.703	1236.06
494.92	1217.06
495.138	1207.06
495.355	1231.06
495.573	1229.06
495.79	1282.06
496.008	1253.06
496.225	1239.06
496.442	1252.06
496.66	1181.06
496.877	1200.06
497.094	1235.06
497.312	1167.06
497.529	1166.06
497.746	1174.06
497.963	1276.06
498.181	1300.06
498.398	1244.06
498.615	1184.06
498.832	1151.06
499.049	1132.06
499.267	1176.06
499.484	1244.06
499.701	1348.06
499.918	1356.06
500.135	1448.06
500.352	1561.06
500.569	1554.06
500.786	1696.06
501.003	1560.06
501.22	1418.06
501.437	1428.06
501.654	1416.06
501.871	1319.06
502.088	1208.06
502.305	1208.06
502.522	1127.06
502.739	1085.06
502.956	1075.06
503.172	1024.06
503.389	1027.06
503.606	1003.06
503.823	975.06
504.04	988.06
504.256	1002.06
504.473	987.06
504.69	999.06
504.907	980.06
505.123	971.06
505.34	1052.06
505.557	1369.06
505.773	1118.06
505.99	964.06
506.207	903.06
506.423	891.06
506.64	870.06
506.856	868.06
507.073	1057.06
507.289	1093.06
507.506	987.06
507.722	889.06
507.939	866.06
508.155	868.06
508.372	869.06
508.588	827.06
508.805	806.06
509.021	773.06
509.238	754.06
509.454	755.06
509.67	769.06
509.887	743.06
510.103	726.06
510.319	739.06
510.536	773.06
510.752	760.06
510.968	765.06
511.184	765.06
511.401	764.06
511.617	696.06
511.833	703.06
512.049	725.06
512.265	708.06
512.481	704.06
512.698	730.06
512.914	740.06
513.13	744.06
513.346	699.06
513.562	695.06
513.778	731.06
513.994	735.06
514.21	763.06
514.426	770.06
514.642	813.06
514.858	785.06
515.074	738.06
515.29	702.06
515.506	736.06
515.721	731.06
515.937	747.06
516.153	786.06
516.369	778.06
516.585	742.06
516.801	761.06
517.016	720.06
517.232	779.06
517.448	798.06
517.664	777.06
517.879	779.06
518.095	808.06
518.311	788.06
518.527	770.06
518.742	755.06
518.958	743.06
519.173	762.06
519.389	780.06
519.605	759.06
519.82	792.06
520.036	785.06
520.251	785.06
520.467	761.06
520.682	805.06
520.898	785.06
521.113	706.06
521.329	706.06
521.544	764.06
521.76	738.06
521.975	692.06
522.19	730.06
522.406	724.06
522.621	927.06
522.836	859.06
523.052	733.06
523.267	745.06
523.482	752.06
523.698	728.06
523.913	744.06
524.128	762.06
524.343	786.06
524.559	794.06
524.774	786.06
524.989	770.06
525.204	768.06
525.419	743.06
525.634	705.06
525.849	732.06
526.064	713.06
526.28	727.06
526.495	682.06
526.71	670.06
526.925	623.06
527.14	618.06
527.355	613.06
527.57	649.06
527.785	669.06
527.999	651.06
528.214	654.06
528.429	684.06
528.644	734.06
528.859	788.06
529.074	814.06
529.289	858.06
529.503	871.06
529.718	796.06
529.933	688.06
530.148	646.06
530.363	657.06
530.577	644.06
530.792	637.06
531.007	636.06
531.221	600.06
531.436	621.06
531.651	654.06
531.865	673.06
532.08	645.06
532.295	616.06
532.509	607.06
532.724	640.06
532.938	652.06
533.153	718.06
533.367	707.06
533.582	758.06
533.796	708.06
534.011	698.06
534.225	672.06
534.44	638.06
534.654	642.06
534.868	628.06
535.083	683.06
535.297	696.06
535.511	677.06
535.726	694.06
535.94	667.06
536.154	657.06
536.369	653.06
536.583	609.06
536.797	612.06
537.011	619.06
537.225	597.06
537.44	595.06
537.654	663.06
537.868	608.06
538.082	606.06
538.296	597.06
538.51	642.06
538.724	690.06
538.938	715.06
539.153	749.06
539.367	745.06
539.581	707.06
539.795	676.06
540.009	642.06
540.222	657.06
540.436	693.06
540.65	754.06
540.864	793.06
541.078	800.06
541.292	829.06
541.506	880.06
541.72	968.06
541.934	1033.06
542.147	1046.06
542.361	1011.06
542.575	914.06
542.789	833.06
543.002	761.06
543.216	710.06
543.43	772.06
543.644	808.06
543.857	882.06
544.071	931.06
544.285	923.06
544.498	893.06
544.712	930.06
544.925	945.06
545.139	977.06
545.352	960.06
545.566	920.06
545.779	908.06
545.993	921.06
546.206	964.06
546.42	953.06
546.633	950.06
546.847	945.06
547.06	946.06
547.274	967.06
547.487	980.06
547.7	989.06
547.914	983.06
548.127	982.06
548.34	950.06
548.554	938.06
548.767	935.06
548.98	928.06
549.193	911.06
549.407	914.06
549.62	959.06
549.833	907.06
550.046	891.06
550.259	908.06
550.473	890.06
550.686	880.06
550.899	881.06
551.112	832.06
551.325	841.06
551.538	857.06
551.751	839.06
551.964	701.06
552.177	722.06
552.39	804.06
552.603	838.06
552.816	867.06
553.029	894.06
553.242	935.06
553.455	928.06
553.667	902.06
553.88	901.06
554.093	891.06
554.306	848.06
554.519	832.06
554.732	822.06
554.944	822.06
555.157	831.06
555.37	798.06
555.583	766.06
555.795	774.06
556.008	725.06
556.221	692.06
556.433	732.06
556.646	722.06
556.859	731.06
557.071	743.06
557.284	760.06
557.496	733.06
557.709	738.06
557.921	747.06
558.134	694.06
558.346	715.06
558.559	723.06
558.771	688.06
558.984	686.06
559.196	677.06
559.409	651.06
559.621	660.06
559.833	651.06
560.046	671.06
560.258	698.06
560.47	695.06
560.683	683.06
560.895	669.06
561.107	662.06
561.32	688.06
561.532	668.06
561.744	667.06
561.956	691.06
562.168	663.06
562.381	644.06
562.593	650.06
562.805	641.06
563.017	648.06
563.229	623.06
563.441	660.06
563.653	636.06
563.865	620.06
564.077	601.06
564.289	617.06
564.501	629.06
564.713	638.06
564.925	648.06
565.137	660.06
565.349	624.06
565.561	595.06
565.773	635.06
565.985	622.06
566.197	661.06
566.408	674.06
566.62	678.06
566.832	670.06
567.044	651.06
567.255	660.06
567.467	642.06
567.679	672.06
567.891	636.06
568.102	612.06
568.314	591.06
568.526	558.06
568.737	514.06
568.949	479.06
569.161	467.06
569.372	458.06
569.584	456.06
569.795	435.06
570.007	444.06
570.218	441.06
570.43	425.06
570.641	458.06
570.853	457.06
571.064	483.06
571.276	484.06
571.487	489.06
571.698	486.06
571.91	473.06
572.121	457.06
572.333	445.06
572.544	426.06
572.755	418.06
572.966	396.06
573.178	395.06
573.389	388.06
573.6	404.06
573.811	433.06
574.023	390.06
574.234	387.06
574.445	390.06
574.656	392.06
574.867	405.06
575.078	425.06
575.289	396.06
575.501	390.06
575.712	406.06
575.923	408.06
576.134	410.06
576.345	404.06
576.556	405.06
576.767	409.06
576.978	398.06
577.188	384.06
577.399	356.06
577.61	368.06
577.821	370.06
578.032	365.06
578.243	380.06
578.454	365.06
578.665	356.06
578.875	352.06
579.086	323.06
579.297	325.06
579.508	344.06
579.718	331.06
579.929	341.06
580.14	337.06
580.35	334.06
580.561	332.06
580.772	390.06
580.982	376.06
581.193	384.06
581.403	350.06
581.614	328.06
581.825	355.06
582.035	333.06
582.246	346.06
582.456	362.06
582.667	354.06
582.877	352.06
583.087	353.06
583.298	324.06
583.508	337.06
583.719	329.06
583.929	334.06
584.139	329.06
584.35	316.06
584.56	329.06
584.77	331.06
584.981	333.06
585.191	340.06
585.401	344.06
585.611	333.06
585.821	314.06
586.032	306.06
586.242	312.06
586.452	320.06
586.662	314.06
586.872	300.06
587.082	289.06
587.292	312.06
587.502	341.06
587.713	325.06
587.923	309.06
588.133	315.06
588.343	316.06
588.553	310.06
588.762	329.06
588.972	310.06
589.182	313.06
589.392	321.06
589.602	318.06
589.812	300.06
590.022	304.06
590.232	318.06
590.441	329.06
590.651	317.06
590.861	304.06
591.071	293.06
591.281	304.06
591.49	315.06
591.7	295.06
591.91	318.06
592.119	307.06
592.329	322.06
592.539	328.06
592.748	310.06
592.958	339.06
593.167	325.06
593.377	335.06
593.587	331.06
593.796	308.06
594.006	328.06
594.215	340.06
594.424	325.06
594.634	354.06
594.843	337.06
595.053	352.06
595.262	333.06
595.472	324.06
595.681	308.06
595.89	324.06
596.1	304.06
596.309	309.06
596.518	316.06
596.727	323.06
596.937	317.06
597.146	329.06
597.355	311.06
597.564	285.06
597.774	293.06
597.983	291.06
598.192	277.06
598.401	295.06
598.61	287.06
598.819	278.06
599.028	298.06
599.237	306.06
599.446	287.06
599.655	283.06
599.864	288.06
600.073	278.06
600.282	288.06
600.491	306.06
600.7	282.06
600.909	310.06
601.118	307.06
601.327	334.06
601.536	354.06
601.745	344.06
601.953	364.06
602.162	350.06
602.371	358.06
602.58	362.06
602.789	360.06
602.997	355.06
603.206	373.06
603.415	345.06
603.623	352.06
603.832	343.06
604.041	317.06
604.249	340.06
604.458	297.06
604.666	301.06
604.875	275.06
605.084	313.06
605.292	319.06
605.501	341.06
605.709	363.06
605.918	389.06
606.126	365.06
606.334	349.06
606.543	361.06
606.751	351.06
606.96	347.06
607.168	359.06
607.376	361.06
607.585	334.06
607.793	363.06
608.001	352.06
608.21	372.06
608.418	359.06
608.626	373.06
608.834	360.06
609.043	346.06
609.251	368.06
609.459	388.06
609.667	356.06
609.875	374.06
610.083	376.06
610.291	372.06
610.499	352.06
610.707	360.06
610.916	368.06
611.124	360.06
611.332	360.06
611.54	366.06
611.748	363.06
611.955	353.06
612.163	348.06
612.371	368.06
612.579	352.06
612.787	368.06
612.995	368.06
613.203	369.06
613.411	352.06
613.618	344.06
613.826	360.06
614.034	357.06
614.242	368.06
614.449	352.06
614.657	376.06
614.865	370.06
615.072	366.06
615.28	353.06
615.488	357.06
615.695	361.06
615.903	345.06
616.111	354.06
616.318	363.06
616.526	365.06
616.733	371.06
616.941	357.06
617.148	337.06
617.356	345.06
617.563	341.06
617.771	333.06
617.978	312.06
618.185	326.06
618.393	370.06
618.6	357.06
618.807	344.06
619.015	348.06
619.222	337.06
619.429	325.06
619.637	311.06
619.844	298.06
620.051	306.06
620.258	312.06
620.466	340.06
620.673	329.06
620.88	335.06
621.087	313.06
621.294	318.06
621.501	278.06
621.708	316.06
621.915	304.06
622.122	323.06
622.329	341.06
622.536	344.06
622.743	332.06
622.95	319.06
623.157	312.06
623.364	325.06
623.571	324.06
623.778	323.06
623.985	338.06
624.192	320.06
624.399	320.06
624.606	327.06
624.812	301.06
625.019	301.06
625.226	297.06
625.433	284.06
625.639	275.06
625.846	268.06
626.053	255.06
626.259	225.06
626.466	254.06
626.673	256.06
626.879	244.06
627.086	233.06
627.293	254.06
627.499	296.06
627.706	289.06
627.912	288.06
628.119	293.06
628.325	296.06
628.532	300.06
628.738	294.06
628.945	293.06
629.151	291.06
629.357	272.06
629.564	276.06
629.77	296.06
629.976	290.06
630.183	279.06
630.389	262.06
630.595	272.06
630.802	278.06
631.008	294.06
631.214	277.06
631.42	278.06
631.627	270.06
631.833	260.06
632.039	258.06
632.245	260.06
632.451	275.06
632.657	269.06
632.863	286.06
633.069	262.06
633.275	252.06
633.481	254.06
633.688	249.06
633.893	252.06
634.099	236.06
634.305	254.06
634.511	241.06
634.717	231.06
634.923	223.06
635.129	215.06
635.335	234.06
635.541	246.06
635.747	241.06
635.952	257.06
636.158	245.06
636.364	271.06
636.57	254.06
636.775	264.06
636.981	279.06
637.187	261.06
637.392	264.06
637.598	268.06
637.804	269.06
638.009	269.06
638.215	257.06
638.421	250.06
638.626	245.06
638.832	244.06
639.037	237.06
639.243	242.06
639.448	256.06
639.654	243.06
639.859	228.06
640.065	232.06
640.27	241.06
640.475	233.06
640.681	252.06
640.886	258.06
641.091	267.06
641.297	265.06
641.502	247.06
641.707	255.06
641.913	262.06
642.118	261.06
642.323	269.06
642.528	251.06
642.733	252.06
642.939	232.06
643.144	238.06
643.349	238.06
643.554	249.06
643.759	230.06
643.964	233.06
644.169	234.06
644.374	247.06
644.579	256.06
644.784	240.06
644.989	245.06
645.194	241.06
645.399	249.06
645.604	249.06
645.809	232.06
646.014	234.06
646.219	227.06
646.423	240.06
646.628	240.06
646.833	232.06
647.038	260.06
647.243	238.06
647.447	250.06
647.652	253.06
647.857	227.06
648.062	229.06
648.266	246.06
648.471	256.06
648.676	250.06
648.88	258.06
649.085	235.06
649.289	243.06
649.494	226.06
649.698	228.06
649.903	240.06
650.107	258.06
650.312	254.06
650.516	227.06
650.721	221.06
650.925	207.06
651.13	234.06
651.334	227.06
651.539	210.06
651.743	219.06
651.947	221.06
652.152	224.06
652.356	218.06
652.56	228.06
652.764	229.06
652.969	211.06
653.173	219.06
653.377	215.06
653.581	215.06
653.785	198.06
653.99	224.06
654.194	216.06
654.398	201.06
654.602	221.06
654.806	213.06
655.01	195.06
655.214	204.06
655.418	200.06
655.622	212.06
655.826	218.06
656.03	215.06
656.234	221.06
656.438	221.06
656.642	216.06
656.846	216.06
657.049	203.06
657.253	208.06
657.457	209.06
657.661	186.06
657.865	185.06
658.068	153.06
658.272	158.06
658.476	152.06
658.68	157.06
658.883	154.06
659.087	134.06
659.291	143.06
659.494	148.06
659.698	132.06
659.901	125.06
660.105	128.06
660.309	132.06
660.512	127.06
660.716	121.06
660.919	108.06
661.123	118.06
661.326	120.06
661.53	112.06
661.733	110.06
661.936	108.06
662.14	105.06
662.343	103.06
662.546	109.06
662.75	94.06
662.953	101.06
663.156	104.06
663.36	78.06
663.563	77.06
663.766	88.06
663.969	83.06
664.173	77.06
664.376	77.06
664.579	81.06
664.782	90.06
664.985	88.06
665.188	88.06
665.391	79.06
665.594	83.06
665.797	71.06
666	83.06
666.203	81.06
666.406	86.06
666.609	70.06
666.812	76.06
667.015	81.06
667.218	85.06
667.421	92.06
667.624	71.06
667.827	79.06
668.03	73.06
668.232	63.06
668.435	69.06
668.638	85.06
668.841	97.06
669.043	72.06
669.246	70.06
669.449	76.06
669.651	87.06
669.854	86.06
670.057	77.06
670.259	78.06
670.462	75.06
670.665	92.06
670.867	83.06
671.07	82.06
671.272	91.06
671.475	74.06
671.677	79.06
671.88	78.06
672.082	76.06
672.284	91.06
672.487	81.06
672.689	87.06
672.892	78.06
