Data from WStandard_LampEnergy8_LIBS07252019.E.O._I.C._HRD10591_16-00-08-929.txt Node
Date: Thu Jul 25 16:00:08 EDT 2019
User: cochatt
Spectrometer: HR+D1059
Trigger mode: 1
Integration Time (sec): 1.000000E-1
Scans to average: 1
Electric dark correction enabled: true
Nonlinearity correction enabled: false
Boxcar width: 0
XAxis mode: Wavelengths
Number of Pixels in Spectrum: 2048
>>>>>Begin Spectral Data<<<<<
223.165	-16.12
223.4	-16.12
223.635	-16.12
223.869	-21.12
224.104	-15.12
224.338	-19.12
224.573	-13.12
224.808	-6.12
225.042	-10.12
225.277	-13.12
225.511	-1.12
225.746	6.88
225.98	2.88
226.215	10.88
226.449	21.88
226.683	23.88
226.918	19.88
227.152	28.88
227.387	42.88
227.621	28.88
227.856	41.88
228.09	52.88
228.324	56.88
228.559	52.88
228.793	95.88
229.027	195.88
229.262	202.88
229.496	225.88
229.73	227.88
229.964	251.88
230.199	256.88
230.433	257.88
230.667	267.88
230.901	287.88
231.136	272.88
231.37	259.88
231.604	255.88
231.838	262.88
232.072	270.88
232.306	267.88
232.541	262.88
232.775	292.88
233.009	309.88
233.243	316.88
233.477	295.88
233.711	310.88
233.945	319.88
234.179	296.88
234.413	314.88
234.647	328.88
234.881	310.88
235.115	308.88
235.349	295.88
235.583	323.88
235.817	282.88
236.051	315.88
236.285	321.88
236.519	311.88
236.753	350.88
236.987	360.88
237.221	368.88
237.455	370.88
237.689	362.88
237.922	341.88
238.156	348.88
238.39	363.88
238.624	367.88
238.858	400.88
239.091	410.88
239.325	425.88
239.559	466.88
239.793	503.88
240.027	508.88
240.26	511.88
240.494	383.88
240.728	376.88
240.961	381.88
241.195	391.88
241.429	439.88
241.662	426.88
241.896	393.88
242.13	411.88
242.363	435.88
242.597	458.88
242.83	444.88
243.064	458.88
243.298	479.88
243.531	471.88
243.765	459.88
243.998	461.88
244.232	421.88
244.465	409.88
244.699	409.88
244.932	451.88
245.166	501.88
245.399	480.88
245.633	439.88
245.866	456.88
246.099	476.88
246.333	494.88
246.566	491.88
246.8	534.88
247.033	589.88
247.266	516.88
247.5	526.88
247.733	517.88
247.966	580.88
248.2	600.88
248.433	592.88
248.666	616.88
248.899	666.88
249.133	759.88
249.366	794.88
249.599	658.88
249.832	604.88
250.066	605.88
250.299	623.88
250.532	597.88
250.765	536.88
250.998	582.88
251.231	600.88
251.465	582.88
251.698	566.88
251.931	573.88
252.164	594.88
252.397	609.88
252.63	603.88
252.863	548.88
253.096	551.88
253.329	561.88
253.562	567.88
253.795	629.88
254.028	603.88
254.261	581.88
254.494	557.88
254.727	556.88
254.96	580.88
255.193	643.88
255.426	705.88
255.659	780.88
255.892	783.88
256.124	681.88
256.357	654.88
256.59	683.88
256.823	680.88
257.056	715.88
257.289	823.88
257.521	876.88
257.754	819.88
257.987	759.88
258.22	838.88
258.452	814.88
258.685	678.88
258.918	651.88
259.151	680.88
259.383	634.88
259.616	587.88
259.849	599.88
260.081	702.88
260.314	791.88
260.547	821.88
260.779	827.88
261.012	752.88
261.244	682.88
261.477	671.88
261.71	693.88
261.942	708.88
262.175	693.88
262.407	688.88
262.64	682.88
262.872	631.88
263.105	610.88
263.337	602.88
263.57	653.88
263.802	638.88
264.035	611.88
264.267	557.88
264.499	566.88
264.732	611.88
264.964	652.88
265.197	649.88
265.429	682.88
265.661	795.88
265.894	852.88
266.126	855.88
266.358	789.88
266.591	809.88
266.823	837.88
267.055	796.88
267.287	795.88
267.52	742.88
267.752	743.88
267.984	771.88
268.216	798.88
268.448	812.88
268.681	781.88
268.913	724.88
269.145	675.88
269.377	670.88
269.609	742.88
269.841	854.88
270.073	994.88
270.306	1081.88
270.538	1133.88
270.77	918.88
271.002	827.88
271.234	797.88
271.466	835.88
271.698	911.88
271.93	1063.88
272.162	1043.88
272.394	943.88
272.626	905.88
272.858	783.88
273.09	682.88
273.322	684.88
273.553	681.88
273.785	682.88
274.017	724.88
274.249	760.88
274.481	744.88
274.713	711.88
274.945	696.88
275.176	679.88
275.408	685.88
275.64	671.88
275.872	682.88
276.104	730.88
276.335	827.88
276.567	929.88
276.799	901.88
277.031	851.88
277.262	821.88
277.494	833.88
277.726	896.88
277.957	877.88
278.189	800.88
278.421	769.88
278.652	730.88
278.884	709.88
279.115	714.88
279.347	726.88
279.579	755.88
279.81	746.88
280.042	815.88
280.273	885.88
280.505	871.88
280.736	871.88
280.968	819.88
281.199	716.88
281.431	732.88
281.662	727.88
281.894	732.88
282.125	725.88
282.356	764.88
282.588	759.88
282.819	777.88
283.051	847.88
283.282	879.88
283.513	841.88
283.745	736.88
283.976	712.88
284.207	703.88
284.439	764.88
284.67	758.88
284.901	757.88
285.132	772.88
285.364	777.88
285.595	795.88
285.826	747.88
286.057	736.88
286.288	761.88
286.52	785.88
286.751	836.88
286.982	856.88
287.213	793.88
287.444	737.88
287.675	727.88
287.906	776.88
288.138	833.88
288.369	783.88
288.6	780.88
288.831	725.88
289.062	739.88
289.293	760.88
289.524	773.88
289.755	771.88
289.986	771.88
290.217	691.88
290.448	754.88
290.679	770.88
290.91	771.88
291.141	812.88
291.371	780.88
291.602	825.88
291.833	822.88
292.064	854.88
292.295	843.88
292.526	840.88
292.757	865.88
292.987	815.88
293.218	791.88
293.449	885.88
293.68	956.88
293.91	994.88
294.141	937.88
294.372	914.88
294.603	979.88
294.833	976.88
295.064	933.88
295.295	850.88
295.525	798.88
295.756	761.88
295.987	729.88
296.217	735.88
296.448	772.88
296.679	770.88
296.909	758.88
297.14	794.88
297.37	823.88
297.601	838.88
297.831	902.88
298.062	878.88
298.292	808.88
298.523	797.88
298.753	792.88
298.984	794.88
299.214	784.88
299.445	814.88
299.675	850.88
299.905	827.88
300.136	817.88
300.366	791.88
300.597	761.88
300.827	766.88
301.057	827.88
301.288	851.88
301.518	855.88
301.748	848.88
301.979	900.88
302.209	916.88
302.439	987.88
302.669	1007.88
302.9	953.88
303.13	849.88
303.36	853.88
303.59	860.88
303.82	862.88
304.051	874.88
304.281	884.88
304.511	876.88
304.741	938.88
304.971	1038.88
305.201	1074.88
305.431	971.88
305.661	799.88
305.891	743.88
306.121	756.88
306.352	801.88
306.582	841.88
306.812	883.88
307.042	949.88
307.272	927.88
307.502	973.88
307.731	1066.88
307.961	1099.88
308.191	980.88
308.421	860.88
308.651	837.88
308.881	842.88
309.111	826.88
309.341	811.88
309.571	843.88
309.8	828.88
310.03	820.88
310.26	805.88
310.49	815.88
310.72	863.88
310.949	866.88
311.179	862.88
311.409	845.88
311.639	817.88
311.868	843.88
312.098	874.88
312.328	854.88
312.557	847.88
312.787	872.88
313.017	872.88
313.246	885.88
313.476	871.88
313.706	896.88
313.935	879.88
314.165	884.88
314.394	907.88
314.624	975.88
314.853	1030.88
315.083	1067.88
315.312	1057.88
315.542	975.88
315.771	926.88
316.001	939.88
316.23	973.88
316.46	949.88
316.689	910.88
316.919	872.88
317.148	888.88
317.377	883.88
317.607	953.88
317.836	1053.88
318.065	1071.88
318.295	1038.88
318.524	992.88
318.753	956.88
318.983	953.88
319.212	913.88
319.441	922.88
319.67	910.88
319.9	939.88
320.129	977.88
320.358	1019.88
320.587	1021.88
320.816	1025.88
321.046	1005.88
321.275	976.88
321.504	1004.88
321.733	1032.88
321.962	980.88
322.191	937.88
322.42	913.88
322.649	909.88
322.878	934.88
323.108	915.88
323.337	946.88
323.566	958.88
323.795	970.88
324.024	952.88
324.253	904.88
324.482	951.88
324.71	901.88
324.939	865.88
325.168	911.88
325.397	949.88
325.626	967.88
325.855	908.88
326.084	917.88
326.313	926.88
326.542	933.88
326.77	967.88
326.999	965.88
327.228	913.88
327.457	873.88
327.686	866.88
327.914	919.88
328.143	926.88
328.372	924.88
328.6	932.88
328.829	896.88
329.058	913.88
329.287	908.88
329.515	916.88
329.744	971.88
329.972	1007.88
330.201	1025.88
330.43	1008.88
330.658	993.88
330.887	997.88
331.115	973.88
331.344	989.88
331.572	975.88
331.801	952.88
332.03	971.88
332.258	986.88
332.486	996.88
332.715	998.88
332.943	978.88
333.172	989.88
333.4	991.88
333.629	1009.88
333.857	1098.88
334.085	1205.88
334.314	1363.88
334.542	1466.88
334.771	1290.88
334.999	1152.88
335.227	1099.88
335.455	1069.88
335.684	1051.88
335.912	1078.88
336.14	1113.88
336.369	1066.88
336.597	1010.88
336.825	1017.88
337.053	1047.88
337.281	1112.88
337.51	1117.88
337.738	1170.88
337.966	1109.88
338.194	1029.88
338.422	972.88
338.65	950.88
338.878	966.88
339.106	963.88
339.334	961.88
339.562	938.88
339.79	943.88
340.018	987.88
340.246	1012.88
340.474	1068.88
340.702	1055.88
340.93	1023.88
341.158	997.88
341.386	976.88
341.614	1001.88
341.842	990.88
342.07	986.88
342.298	996.88
342.526	977.88
342.754	972.88
342.981	988.88
343.209	959.88
343.437	957.88
343.665	956.88
343.893	1020.88
344.12	1042.88
344.348	1038.88
344.576	995.88
344.804	917.88
345.031	1010.88
345.259	994.88
345.487	949.88
345.714	918.88
345.942	873.88
346.17	920.88
346.397	945.88
346.625	936.88
346.853	891.88
347.08	880.88
347.308	887.88
347.535	917.88
347.763	955.88
347.99	913.88
348.218	903.88
348.445	897.88
348.673	947.88
348.9	935.88
349.128	963.88
349.355	1010.88
349.583	979.88
349.81	895.88
350.037	854.88
350.265	835.88
350.492	884.88
350.72	898.88
350.947	928.88
351.174	973.88
351.402	896.88
351.629	862.88
351.856	876.88
352.083	891.88
352.311	863.88
352.538	931.88
352.765	964.88
352.992	946.88
353.22	927.88
353.447	890.88
353.674	940.88
353.901	923.88
354.128	886.88
354.355	912.88
354.583	954.88
354.81	953.88
355.037	979.88
355.264	948.88
355.491	921.88
355.718	954.88
355.945	903.88
356.172	870.88
356.399	885.88
356.626	890.88
356.853	933.88
357.08	1059.88
357.307	1130.88
357.534	1051.88
357.761	903.88
357.988	890.88
358.215	870.88
358.441	897.88
358.668	880.88
358.895	904.88
359.122	975.88
359.349	1034.88
359.576	992.88
359.802	930.88
360.029	870.88
360.256	888.88
360.483	909.88
360.709	913.88
360.936	994.88
361.163	1003.88
361.39	1103.88
361.616	1197.88
361.843	1129.88
362.07	1033.88
362.296	941.88
362.523	907.88
362.749	894.88
362.976	929.88
363.203	973.88
363.429	928.88
363.656	892.88
363.882	950.88
364.109	1062.88
364.335	1080.88
364.562	1041.88
364.788	957.88
365.015	919.88
365.241	917.88
365.468	940.88
365.694	987.88
365.92	1001.88
366.147	932.88
366.373	896.88
366.599	915.88
366.826	887.88
367.052	893.88
367.278	937.88
367.505	913.88
367.731	969.88
367.957	984.88
368.184	989.88
368.41	1035.88
368.636	1045.88
368.862	1044.88
369.089	1029.88
369.315	1031.88
369.541	967.88
369.767	938.88
369.993	895.88
370.219	934.88
370.445	964.88
370.672	1017.88
370.898	1080.88
371.124	1044.88
371.35	1012.88
371.576	1027.88
371.802	1043.88
372.028	992.88
372.254	933.88
372.48	931.88
372.706	932.88
372.932	944.88
373.158	943.88
373.384	961.88
373.61	1027.88
373.835	1051.88
374.061	984.88
374.287	951.88
374.513	996.88
374.739	990.88
374.965	999.88
375.191	1027.88
375.416	1027.88
375.642	1024.88
375.868	1076.88
376.094	1098.88
376.319	1033.88
376.545	991.88
376.771	1053.88
376.997	1083.88
377.222	1045.88
377.448	1010.88
377.674	1041.88
377.899	1044.88
378.125	1097.88
378.35	1068.88
378.576	980.88
378.802	935.88
379.027	968.88
379.253	979.88
379.478	993.88
379.704	955.88
379.929	979.88
380.155	1003.88
380.38	1013.88
380.606	995.88
380.831	1012.88
381.057	1067.88
381.282	1039.88
381.507	1057.88
381.733	1120.88
381.958	1127.88
382.184	1052.88
382.409	1021.88
382.634	1041.88
382.86	1010.88
383.085	1072.88
383.31	1047.88
383.535	1197.88
383.761	1200.88
383.986	1174.88
384.211	1121.88
384.436	1097.88
384.662	1164.88
384.887	1197.88
385.112	1122.88
385.337	1151.88
385.562	1149.88
385.787	1119.88
386.013	1171.88
386.238	1165.88
386.463	1170.88
386.688	1253.88
386.913	1314.88
387.138	1226.88
387.363	1179.88
387.588	1132.88
387.813	1179.88
388.038	1192.88
388.263	1235.88
388.488	1145.88
388.713	1085.88
388.938	1094.88
389.163	1073.88
389.387	1115.88
389.612	1113.88
389.837	1131.88
390.062	1108.88
390.287	1118.88
390.512	1156.88
390.736	1121.88
390.961	1100.88
391.186	1071.88
391.411	1073.88
391.636	1096.88
391.86	1115.88
392.085	1129.88
392.31	1120.88
392.534	1119.88
392.759	1149.88
392.984	1155.88
393.208	1132.88
393.433	1193.88
393.658	1231.88
393.882	1210.88
394.107	1174.88
394.331	1129.88
394.556	1139.88
394.78	1181.88
395.005	1166.88
395.229	1240.88
395.454	1268.88
395.678	1282.88
395.903	1224.88
396.127	1220.88
396.352	1204.88
396.576	1260.88
396.801	1280.88
397.025	1215.88
397.249	1201.88
397.474	1210.88
397.698	1233.88
397.922	1248.88
398.147	1355.88
398.371	1364.88
398.595	1348.88
398.82	1304.88
399.044	1349.88
399.268	1358.88
399.492	1473.88
399.717	1479.88
399.941	1501.88
400.165	1436.88
400.389	1445.88
400.613	1436.88
400.837	1668.88
401.062	1782.88
401.286	1534.88
401.51	1451.88
401.734	1463.88
401.958	1422.88
402.182	1345.88
402.406	1281.88
402.63	1320.88
402.854	1284.88
403.078	1302.88
403.302	1319.88
403.526	1353.88
403.75	1360.88
403.974	1321.88
404.198	1365.88
404.422	1423.88
404.645	1474.88
404.869	1401.88
405.093	1338.88
405.317	1279.88
405.541	1339.88
405.765	1385.88
405.988	1358.88
406.212	1398.88
406.436	1380.88
406.66	1466.88
406.883	1500.88
407.107	1671.88
407.331	1786.88
407.555	1863.88
407.778	1695.88
408.002	1465.88
408.226	1383.88
408.449	1420.88
408.673	1355.88
408.896	1365.88
409.12	1412.88
409.344	1351.88
409.567	1333.88
409.791	1343.88
410.014	1381.88
410.238	1469.88
410.461	1537.88
410.685	1365.88
410.908	1310.88
411.132	1352.88
411.355	1348.88
411.578	1315.88
411.802	1332.88
412.025	1383.88
412.249	1272.88
412.472	1303.88
412.695	1298.88
412.919	1307.88
413.142	1295.88
413.365	1327.88
413.589	1356.88
413.812	1389.88
414.035	1418.88
414.258	1333.88
414.482	1285.88
414.705	1299.88
414.928	1277.88
415.151	1266.88
415.374	1307.88
415.597	1349.88
415.821	1347.88
416.044	1347.88
416.267	1352.88
416.49	1265.88
416.713	1279.88
416.936	1323.88
417.159	1375.88
417.382	1358.88
417.605	1317.88
417.828	1287.88
418.051	1349.88
418.274	1328.88
418.497	1307.88
418.72	1293.88
418.943	1265.88
419.166	1324.88
419.389	1362.88
419.611	1292.88
419.834	1281.88
420.057	1301.88
420.28	1285.88
420.503	1287.88
420.726	1351.88
420.948	1321.88
421.171	1287.88
421.394	1332.88
421.617	1327.88
421.839	1334.88
422.062	1307.88
422.285	1258.88
422.507	1272.88
422.73	1236.88
422.953	1204.88
423.175	1196.88
423.398	1270.88
423.621	1265.88
423.843	1288.88
424.066	1305.88
424.288	1385.88
424.511	1413.88
424.733	1361.88
424.956	1251.88
425.178	1251.88
425.401	1229.88
425.623	1261.88
425.846	1269.88
426.068	1345.88
426.291	1335.88
426.513	1284.88
426.735	1316.88
426.958	1454.88
427.18	1477.88
427.402	1341.88
427.625	1423.88
427.847	1368.88
428.069	1297.88
428.292	1261.88
428.514	1194.88
428.736	1203.88
428.958	1241.88
429.181	1273.88
429.403	1500.88
429.625	1772.88
429.847	1470.88
430.069	1293.88
430.292	1461.88
430.514	1429.88
430.736	1368.88
430.958	1378.88
431.18	1281.88
431.402	1204.88
431.624	1209.88
431.846	1139.88
432.068	1130.88
432.29	1164.88
432.512	1171.88
432.734	1233.88
432.956	1256.88
433.178	1337.88
433.4	1298.88
433.622	1310.88
433.844	1247.88
434.066	1183.88
434.287	1168.88
434.509	1217.88
434.731	1287.88
434.953	1348.88
435.175	1332.88
435.397	1281.88
435.618	1254.88
435.84	1250.88
436.062	1221.88
436.284	1264.88
436.505	1265.88
436.727	1296.88
436.949	1258.88
437.17	1231.88
437.392	1222.88
437.614	1194.88
437.835	1156.88
438.057	1234.88
438.278	1259.88
438.5	1216.88
438.721	1250.88
438.943	1254.88
439.165	1253.88
439.386	1199.88
439.608	1250.88
439.829	1247.88
440.05	1254.88
440.272	1249.88
440.493	1245.88
440.715	1279.88
440.936	1335.88
441.158	1426.88
441.379	1374.88
441.6	1396.88
441.822	1315.88
442.043	1337.88
442.264	1323.88
442.486	1251.88
442.707	1234.88
442.928	1234.88
443.149	1288.88
443.371	1347.88
443.592	1394.88
443.813	1387.88
444.034	1346.88
444.255	1333.88
444.476	1413.88
444.698	1388.88
444.919	1379.88
445.14	1509.88
445.361	1453.88
445.582	1435.88
445.803	1370.88
446.024	1382.88
446.245	1422.88
446.466	1373.88
446.687	1351.88
446.908	1324.88
447.129	1348.88
447.35	1321.88
447.571	1273.88
447.792	1217.88
448.013	1230.88
448.234	1261.88
448.455	1290.88
448.675	1304.88
448.896	1205.88
449.117	1176.88
449.338	1229.88
449.559	1317.88
449.779	1348.88
450	1406.88
450.221	1480.88
450.442	1435.88
450.662	1281.88
450.883	1195.88
451.104	1162.88
451.324	1162.88
451.545	1247.88
451.766	1189.88
451.986	1139.88
452.207	1095.88
452.428	1105.88
452.648	1111.88
452.869	1130.88
453.089	1158.88
453.31	1149.88
453.53	1151.88
453.751	1103.88
453.971	1057.88
454.192	1084.88
454.412	1165.88
454.633	1136.88
454.853	1114.88
455.073	1049.88
455.294	1061.88
455.514	1051.88
455.734	1068.88
455.955	1069.88
456.175	1063.88
456.395	1079.88
456.616	1071.88
456.836	1080.88
457.056	1080.88
457.276	1093.88
457.497	1051.88
457.717	1021.88
457.937	1043.88
458.157	1052.88
458.377	1034.88
458.598	1024.88
458.818	1051.88
459.038	1085.88
459.258	1161.88
459.478	1141.88
459.698	1107.88
459.918	1170.88
460.138	1220.88
460.358	1229.88
460.578	1249.88
460.798	1286.88
461.018	1320.88
461.238	1308.88
461.458	1226.88
461.678	1252.88
461.898	1203.88
462.118	1209.88
462.338	1260.88
462.558	1293.88
462.777	1263.88
462.997	1308.88
463.217	1343.88
463.437	1331.88
463.657	1279.88
463.876	1244.88
464.096	1256.88
464.316	1259.88
464.536	1288.88
464.755	1325.88
464.975	1290.88
465.195	1269.88
465.414	1307.88
465.634	1301.88
465.854	1276.88
466.073	1407.88
466.293	1349.88
466.512	1193.88
466.732	1208.88
466.951	1248.88
467.171	1229.88
467.391	1201.88
467.61	1208.88
467.829	1229.88
468.049	1328.88
468.268	1493.88
468.488	1338.88
468.707	1268.88
468.927	1231.88
469.146	1196.88
469.365	1170.88
469.585	1226.88
469.804	1199.88
470.023	1220.88
470.243	1226.88
470.462	1172.88
470.681	1203.88
470.901	1228.88
471.12	1217.88
471.339	1239.88
471.558	1178.88
471.777	1187.88
471.997	1203.88
472.216	1166.88
472.435	1111.88
472.654	1124.88
472.873	1175.88
473.092	1220.88
473.311	1191.88
473.53	1123.88
473.749	1129.88
473.968	1171.88
474.187	1208.88
474.406	1227.88
474.625	1219.88
474.844	1224.88
475.063	1184.88
475.282	1224.88
475.501	1160.88
475.72	1207.88
475.939	1271.88
476.158	1239.88
476.377	1258.88
476.596	1206.88
476.814	1205.88
477.033	1215.88
477.252	1268.88
477.471	1307.88
477.69	1273.88
477.908	1292.88
478.127	1376.88
478.346	1425.88
478.564	1401.88
478.783	1404.88
479.002	1435.88
479.22	1425.88
479.439	1457.88
479.658	1576.88
479.876	1540.88
480.095	1381.88
480.313	1355.88
480.532	1297.88
480.751	1322.88
480.969	1299.88
481.188	1235.88
481.406	1242.88
481.624	1243.88
481.843	1272.88
482.061	1258.88
482.28	1327.88
482.498	1342.88
482.717	1283.88
482.935	1291.88
483.153	1323.88
483.372	1363.88
483.59	1367.88
483.808	1356.88
484.027	1343.88
484.245	1431.88
484.463	1733.88
484.681	1883.88
484.9	1478.88
485.118	1374.88
485.336	1357.88
485.554	1372.88
485.772	1386.88
485.99	1352.88
486.209	1389.88
486.427	1383.88
486.645	1403.88
486.863	1388.88
487.081	1431.88
487.299	1479.88
487.517	1451.88
487.735	1479.88
487.953	1502.88
488.171	1464.88
488.389	1482.88
488.607	1445.88
488.825	1634.88
489.043	1541.88
489.261	1385.88
489.479	1458.88
489.696	1489.88
489.914	1436.88
490.132	1491.88
490.35	1461.88
490.568	1559.88
490.786	1512.88
491.003	1470.88
491.221	1543.88
491.439	1536.88
491.657	1592.88
491.874	1647.88
492.092	1644.88
492.31	1689.88
492.527	1667.88
492.745	1612.88
492.963	1590.88
493.18	1625.88
493.398	1677.88
493.615	1671.88
493.833	1583.88
494.05	1531.88
494.268	1546.88
494.485	1571.88
494.703	1589.88
494.92	1571.88
495.138	1539.88
495.355	1593.88
495.573	1626.88
495.79	1677.88
496.008	1687.88
496.225	1613.88
496.442	1613.88
496.66	1595.88
496.877	1634.88
497.094	1609.88
497.312	1626.88
497.529	1613.88
497.746	1642.88
497.963	1856.88
498.181	1967.88
498.398	1845.88
498.615	1809.88
498.832	1742.88
499.049	1743.88
499.267	1759.88
499.484	1913.88
499.701	2035.88
499.918	2018.88
500.135	2189.88
500.352	2323.88
500.569	2339.88
500.786	2523.88
501.003	2293.88
501.22	2123.88
501.437	2113.88
501.654	2097.88
501.871	2004.88
502.088	1782.88
502.305	1739.88
502.522	1738.88
502.739	1618.88
502.956	1575.88
503.172	1568.88
503.389	1517.88
503.606	1468.88
503.823	1477.88
504.04	1491.88
504.256	1517.88
504.473	1476.88
504.69	1512.88
504.907	1457.88
505.123	1410.88
505.34	1524.88
505.557	1974.88
505.773	1638.88
505.99	1393.88
506.207	1340.88
506.423	1311.88
506.64	1278.88
506.856	1290.88
507.073	1466.88
507.289	1576.88
507.506	1474.88
507.722	1287.88
507.939	1239.88
508.155	1242.88
508.372	1241.88
508.588	1234.88
508.805	1188.88
509.021	1144.88
509.238	1135.88
509.454	1146.88
509.67	1151.88
509.887	1128.88
510.103	1122.88
510.319	1154.88
510.536	1209.88
510.752	1234.88
510.968	1251.88
511.184	1267.88
511.401	1240.88
511.617	1112.88
511.833	1099.88
512.049	1110.88
512.265	1085.88
512.481	1083.88
512.698	1151.88
512.914	1203.88
513.13	1137.88
513.346	1059.88
513.562	1076.88
513.778	1127.88
513.994	1157.88
514.21	1182.88
514.426	1225.88
514.642	1322.88
514.858	1213.88
515.074	1120.88
515.29	1127.88
515.506	1155.88
515.721	1147.88
515.937	1145.88
516.153	1290.88
516.369	1199.88
516.585	1178.88
516.801	1129.88
517.016	1154.88
517.232	1175.88
517.448	1205.88
517.664	1211.88
517.879	1245.88
518.095	1279.88
518.311	1227.88
518.527	1157.88
518.742	1163.88
518.958	1120.88
519.173	1130.88
519.389	1178.88
519.605	1192.88
519.82	1180.88
520.036	1173.88
520.251	1143.88
520.467	1186.88
520.682	1248.88
520.898	1225.88
521.113	1117.88
521.329	1101.88
521.544	1185.88
521.76	1146.88
521.975	1094.88
522.19	1077.88
522.406	1093.88
522.621	1378.88
522.836	1324.88
523.052	1073.88
523.267	1106.88
523.482	1116.88
523.698	1017.88
523.913	1047.88
524.128	1083.88
524.343	1131.88
524.559	1160.88
524.774	1091.88
524.989	1071.88
525.204	1056.88
525.419	1066.88
525.634	1058.88
525.849	1068.88
526.064	1065.88
526.28	1061.88
526.495	997.88
526.71	981.88
526.925	980.88
527.14	973.88
527.355	960.88
527.57	966.88
527.785	1037.88
527.999	983.88
528.214	957.88
528.429	959.88
528.644	1001.88
528.859	1075.88
529.074	1099.88
529.289	1090.88
529.503	1097.88
529.718	1113.88
529.933	1005.88
530.148	956.88
530.363	971.88
530.577	976.88
530.792	990.88
531.007	980.88
531.221	956.88
531.436	1007.88
531.651	986.88
531.865	1047.88
532.08	1018.88
532.295	932.88
532.509	932.88
532.724	936.88
532.938	1000.88
533.153	1056.88
533.367	1046.88
533.582	1043.88
533.796	1048.88
534.011	1015.88
534.225	991.88
534.44	972.88
534.654	935.88
534.868	977.88
535.083	1025.88
535.297	1031.88
535.511	991.88
535.726	1013.88
535.94	973.88
536.154	977.88
536.369	944.88
536.583	945.88
536.797	946.88
537.011	958.88
537.225	925.88
537.44	895.88
537.654	989.88
537.868	928.88
538.082	884.88
538.296	899.88
538.51	934.88
538.724	954.88
538.938	959.88
539.153	978.88
539.367	997.88
539.581	977.88
539.795	1002.88
540.009	972.88
540.222	937.88
540.436	979.88
540.65	1029.88
540.864	1075.88
541.078	1039.88
541.292	1026.88
541.506	1043.88
541.72	1100.88
541.934	1125.88
542.147	1153.88
542.361	1133.88
542.575	1075.88
542.789	1034.88
543.002	973.88
543.216	962.88
543.43	1000.88
543.644	1056.88
543.857	1091.88
544.071	1096.88
544.285	1117.88
544.498	1061.88
544.712	1075.88
544.925	1132.88
545.139	1130.88
545.352	1056.88
545.566	1081.88
545.779	1044.88
545.993	1092.88
546.206	1075.88
546.42	1059.88
546.633	1069.88
546.847	1009.88
547.06	1055.88
547.274	1051.88
547.487	1067.88
547.7	1081.88
547.914	1090.88
548.127	1101.88
548.34	1086.88
548.554	1047.88
548.767	1039.88
548.98	1051.88
549.193	1065.88
549.407	1120.88
549.62	1128.88
549.833	1063.88
550.046	1045.88
550.259	1021.88
550.473	1012.88
550.686	1019.88
550.899	1010.88
551.112	1001.88
551.325	963.88
551.538	1042.88
551.751	1112.88
551.964	940.88
552.177	914.88
552.39	947.88
552.603	982.88
552.816	1023.88
553.029	1047.88
553.242	1073.88
553.455	1081.88
553.667	1047.88
553.88	1025.88
554.093	1010.88
554.306	978.88
554.519	943.88
554.732	959.88
554.944	978.88
555.157	938.88
555.37	929.88
555.583	951.88
555.795	935.88
556.008	893.88
556.221	861.88
556.433	873.88
556.646	876.88
556.859	860.88
557.071	863.88
557.284	875.88
557.496	865.88
557.709	858.88
557.921	861.88
558.134	881.88
558.346	865.88
558.559	871.88
558.771	836.88
558.984	798.88
559.196	784.88
559.409	808.88
559.621	821.88
559.833	814.88
560.046	852.88
560.258	817.88
560.47	829.88
560.683	836.88
560.895	829.88
561.107	821.88
561.32	802.88
561.532	792.88
561.744	797.88
561.956	805.88
562.168	799.88
562.381	793.88
562.593	784.88
562.805	788.88
563.017	752.88
563.229	803.88
563.441	808.88
563.653	788.88
563.865	759.88
564.077	773.88
564.289	783.88
564.501	776.88
564.713	803.88
564.925	834.88
565.137	858.88
565.349	814.88
565.561	801.88
565.773	807.88
565.985	821.88
566.197	877.88
566.408	928.88
566.62	889.88
566.832	883.88
567.044	933.88
567.255	888.88
567.467	911.88
567.679	899.88
567.891	917.88
568.102	849.88
568.314	847.88
568.526	812.88
568.737	777.88
568.949	736.88
569.161	703.88
569.372	685.88
569.584	670.88
569.795	710.88
570.007	694.88
570.218	653.88
570.43	653.88
570.641	657.88
570.853	654.88
571.064	697.88
571.276	656.88
571.487	641.88
571.698	631.88
571.91	633.88
572.121	597.88
572.333	643.88
572.544	601.88
572.755	600.88
572.966	575.88
573.178	572.88
573.389	580.88
573.6	609.88
573.811	635.88
574.023	595.88
574.234	602.88
574.445	567.88
574.656	564.88
574.867	539.88
575.078	592.88
575.289	570.88
575.501	557.88
575.712	538.88
575.923	544.88
576.134	561.88
576.345	543.88
576.556	553.88
576.767	554.88
576.978	521.88
577.188	542.88
577.399	559.88
577.61	515.88
577.821	522.88
578.032	529.88
578.243	515.88
578.454	520.88
578.665	538.88
578.875	486.88
579.086	481.88
579.297	499.88
579.508	519.88
579.718	500.88
579.929	519.88
580.14	487.88
580.35	472.88
580.561	525.88
580.772	538.88
580.982	524.88
581.193	484.88
581.403	500.88
581.614	481.88
581.825	492.88
582.035	471.88
582.246	467.88
582.456	497.88
582.667	485.88
582.877	476.88
583.087	465.88
583.298	479.88
583.508	470.88
583.719	482.88
583.929	495.88
584.139	455.88
584.35	448.88
584.56	452.88
584.77	480.88
584.981	458.88
585.191	475.88
585.401	488.88
585.611	462.88
585.821	477.88
586.032	444.88
586.242	453.88
586.452	456.88
586.662	463.88
586.872	454.88
587.082	445.88
587.292	467.88
587.502	463.88
587.713	446.88
587.923	440.88
588.133	472.88
588.343	471.88
588.553	461.88
588.762	442.88
588.972	447.88
589.182	463.88
589.392	463.88
589.602	445.88
589.812	465.88
590.022	428.88
590.232	419.88
590.441	460.88
590.651	467.88
590.861	453.88
591.071	456.88
591.281	443.88
591.49	438.88
591.7	446.88
591.91	453.88
592.119	452.88
592.329	439.88
592.539	469.88
592.748	465.88
592.958	445.88
593.167	468.88
593.377	463.88
593.587	466.88
593.796	468.88
594.006	484.88
594.215	453.88
594.424	476.88
594.634	469.88
594.843	445.88
595.053	467.88
595.262	443.88
595.472	441.88
595.681	463.88
595.89	424.88
596.1	434.88
596.309	453.88
596.518	443.88
596.727	455.88
596.937	431.88
597.146	418.88
597.355	424.88
597.564	414.88
597.774	394.88
597.983	400.88
598.192	372.88
598.401	385.88
598.61	401.88
598.819	398.88
599.028	408.88
599.237	417.88
599.446	393.88
599.655	375.88
599.864	391.88
600.073	367.88
600.282	396.88
600.491	386.88
600.7	387.88
600.909	378.88
601.118	398.88
601.327	401.88
601.536	427.88
601.745	409.88
601.953	391.88
602.162	407.88
602.371	424.88
602.58	421.88
602.789	427.88
602.997	406.88
603.206	425.88
603.415	408.88
603.623	403.88
603.832	401.88
604.041	391.88
604.249	378.88
604.458	376.88
604.666	390.88
604.875	407.88
605.084	377.88
605.292	416.88
605.501	391.88
605.709	413.88
605.918	401.88
606.126	398.88
606.334	418.88
606.543	411.88
606.751	429.88
606.96	396.88
607.168	401.88
607.376	376.88
607.585	385.88
607.793	376.88
608.001	421.88
608.21	403.88
608.418	386.88
608.626	383.88
608.834	384.88
609.043	402.88
609.251	395.88
609.459	388.88
609.667	409.88
609.875	401.88
610.083	415.88
610.291	409.88
610.499	412.88
610.707	400.88
610.916	387.88
611.124	398.88
611.332	405.88
611.54	393.88
611.748	403.88
611.955	383.88
612.163	388.88
612.371	383.88
612.579	405.88
612.787	383.88
612.995	409.88
613.203	397.88
613.411	354.88
613.618	363.88
613.826	396.88
614.034	389.88
614.242	406.88
614.449	397.88
614.657	375.88
614.865	409.88
615.072	398.88
615.28	377.88
615.488	389.88
615.695	407.88
615.903	378.88
616.111	379.88
616.318	382.88
616.526	380.88
616.733	383.88
616.941	379.88
617.148	399.88
617.356	394.88
617.563	379.88
617.771	383.88
617.978	365.88
618.185	355.88
618.393	364.88
618.6	358.88
618.807	361.88
619.015	375.88
619.222	363.88
619.429	353.88
619.637	353.88
619.844	340.88
620.051	348.88
620.258	348.88
620.466	343.88
620.673	359.88
620.88	355.88
621.087	359.88
621.294	344.88
621.501	323.88
621.708	336.88
621.915	358.88
622.122	361.88
622.329	372.88
622.536	365.88
622.743	347.88
622.95	352.88
623.157	329.88
623.364	333.88
623.571	348.88
623.778	346.88
623.985	347.88
624.192	341.88
624.399	345.88
624.606	342.88
624.812	337.88
625.019	325.88
625.226	335.88
625.433	329.88
625.639	317.88
625.846	326.88
626.053	303.88
626.259	322.88
626.466	297.88
626.673	307.88
626.879	295.88
627.086	300.88
627.293	304.88
627.499	314.88
627.706	316.88
627.912	311.88
628.119	312.88
628.325	325.88
628.532	312.88
628.738	309.88
628.945	302.88
629.151	311.88
629.357	310.88
629.564	331.88
629.77	298.88
629.976	305.88
630.183	313.88
630.389	305.88
630.595	310.88
630.802	309.88
631.008	309.88
631.214	292.88
631.42	290.88
631.627	295.88
631.833	292.88
632.039	284.88
632.245	306.88
632.451	307.88
632.657	283.88
632.863	291.88
633.069	280.88
633.275	283.88
633.481	281.88
633.688	275.88
633.893	276.88
634.099	292.88
634.305	272.88
634.511	261.88
634.717	278.88
634.923	270.88
635.129	271.88
635.335	256.88
635.541	264.88
635.747	272.88
635.952	299.88
636.158	284.88
636.364	276.88
636.57	285.88
636.775	275.88
636.981	276.88
637.187	264.88
637.392	276.88
637.598	287.88
637.804	274.88
638.009	297.88
638.215	281.88
638.421	273.88
638.626	262.88
638.832	275.88
639.037	284.88
639.243	241.88
639.448	264.88
639.654	276.88
639.859	264.88
640.065	261.88
640.27	264.88
640.475	257.88
640.681	266.88
640.886	244.88
641.091	262.88
641.297	271.88
641.502	255.88
641.707	266.88
641.913	275.88
642.118	261.88
642.323	257.88
642.528	272.88
642.733	263.88
642.939	257.88
643.144	267.88
643.349	247.88
643.554	262.88
643.759	272.88
643.964	253.88
644.169	269.88
644.374	285.88
644.579	260.88
644.784	260.88
644.989	278.88
645.194	257.88
645.399	259.88
645.604	276.88
645.809	244.88
646.014	236.88
646.219	262.88
646.423	286.88
646.628	263.88
646.833	270.88
647.038	283.88
647.243	244.88
647.447	244.88
647.652	256.88
647.857	277.88
648.062	268.88
648.266	258.88
648.471	259.88
648.676	270.88
648.88	256.88
649.085	270.88
649.289	255.88
649.494	247.88
649.698	237.88
649.903	264.88
650.107	241.88
650.312	264.88
650.516	255.88
650.721	253.88
650.925	229.88
651.13	241.88
651.334	216.88
651.539	255.88
651.743	246.88
651.947	235.88
652.152	223.88
652.356	216.88
652.56	222.88
652.764	232.88
652.969	232.88
653.173	224.88
653.377	212.88
653.581	225.88
653.785	211.88
653.99	207.88
654.194	212.88
654.398	218.88
654.602	220.88
654.806	206.88
655.01	220.88
655.214	225.88
655.418	208.88
655.622	218.88
655.826	249.88
656.03	230.88
656.234	257.88
656.438	274.88
656.642	261.88
656.846	244.88
657.049	234.88
657.253	225.88
657.457	195.88
657.661	187.88
657.865	193.88
658.068	189.88
658.272	169.88
658.476	162.88
658.68	154.88
658.883	142.88
659.087	143.88
659.291	140.88
659.494	129.88
659.698	139.88
659.901	130.88
660.105	129.88
660.309	126.88
660.512	129.88
660.716	100.88
660.919	109.88
661.123	114.88
661.326	123.88
661.53	128.88
661.733	115.88
661.936	103.88
662.14	94.88
662.343	95.88
662.546	105.88
662.75	86.88
662.953	103.88
663.156	104.88
663.36	90.88
663.563	84.88
663.766	78.88
663.969	84.88
664.173	89.88
664.376	81.88
664.579	100.88
664.782	97.88
664.985	89.88
665.188	80.88
665.391	86.88
665.594	80.88
665.797	83.88
666	75.88
666.203	85.88
666.406	74.88
666.609	85.88
666.812	74.88
667.015	99.88
667.218	83.88
667.421	76.88
667.624	84.88
667.827	85.88
668.03	84.88
668.232	83.88
668.435	83.88
668.638	71.88
668.841	93.88
669.043	88.88
669.246	75.88
669.449	93.88
669.651	86.88
669.854	86.88
670.057	75.88
670.259	85.88
670.462	81.88
670.665	68.88
670.867	84.88
671.07	78.88
671.272	74.88
671.475	93.88
671.677	88.88
671.88	87.88
672.082	84.88
672.284	79.88
672.487	95.88
672.689	74.88
672.892	77.88
