Data from WStandard_LampEnergy5.5LIBS07252019.E.O._I.C._HRD10591_16-09-22-921.txt Node
Date: Thu Jul 25 16:09:22 EDT 2019
User: cochatt
Spectrometer: HR+D1059
Trigger mode: 1
Integration Time (sec): 1.000000E-1
Scans to average: 1
Electric dark correction enabled: true
Nonlinearity correction enabled: false
Boxcar width: 0
XAxis mode: Wavelengths
Number of Pixels in Spectrum: 2048
>>>>>Begin Spectral Data<<<<<
223.165	-24.19
223.4	-24.19
223.635	-24.19
223.869	-9.19
224.104	-27.19
224.338	-8.19
224.573	-14.19
224.808	-14.19
225.042	-11.19
225.277	-10.19
225.511	-0.19
225.746	13.81
225.98	13.81
226.215	-5.19
226.449	21.81
226.683	28.81
226.918	22.81
227.152	22.81
227.387	35.81
227.621	31.81
227.856	47.81
228.09	41.81
228.324	57.81
228.559	48.81
228.793	162.81
229.027	343.81
229.262	345.81
229.496	378.81
229.73	383.81
229.964	409.81
230.199	435.81
230.433	449.81
230.667	478.81
230.901	502.81
231.136	473.81
231.37	447.81
231.604	457.81
231.838	447.81
232.072	467.81
232.306	407.81
232.541	434.81
232.775	519.81
233.009	583.81
233.243	560.81
233.477	517.81
233.711	505.81
233.945	548.81
234.179	513.81
234.413	565.81
234.647	604.81
234.881	580.81
235.115	514.81
235.349	521.81
235.583	537.81
235.817	526.81
236.051	533.81
236.285	536.81
236.519	581.81
236.753	619.81
236.987	640.81
237.221	650.81
237.455	712.81
237.689	695.81
237.922	643.81
238.156	638.81
238.39	651.81
238.624	669.81
238.858	742.81
239.091	717.81
239.325	782.81
239.559	886.81
239.793	922.81
240.027	1031.81
240.26	1030.81
240.494	707.81
240.728	693.81
240.961	722.81
241.195	714.81
241.429	777.81
241.662	777.81
241.896	717.81
242.13	769.81
242.363	843.81
242.597	878.81
242.83	815.81
243.064	879.81
243.298	900.81
243.531	887.81
243.765	937.81
243.998	932.81
244.232	763.81
244.465	759.81
244.699	772.81
244.932	857.81
245.166	978.81
245.399	952.81
245.633	885.81
245.866	855.81
246.099	912.81
246.333	901.81
246.566	920.81
246.8	979.81
247.033	1111.81
247.266	1040.81
247.5	1010.81
247.733	1022.81
247.966	1066.81
248.2	1218.81
248.433	1135.81
248.666	1171.81
248.899	1244.81
249.133	1473.81
249.366	1722.81
249.599	1372.81
249.832	1203.81
250.066	1236.81
250.299	1233.81
250.532	1146.81
250.765	1039.81
250.998	1106.81
251.231	1163.81
251.465	1201.81
251.698	1131.81
251.931	1125.81
252.164	1142.81
252.397	1187.81
252.63	1223.81
252.863	1063.81
253.096	1031.81
253.329	1082.81
253.562	1107.81
253.795	1224.81
254.028	1217.81
254.261	1125.81
254.494	1111.81
254.727	1063.81
254.96	1106.81
255.193	1233.81
255.426	1399.81
255.659	1563.81
255.892	1610.81
256.124	1306.81
256.357	1279.81
256.59	1373.81
256.823	1352.81
257.056	1364.81
257.289	1603.81
257.521	1818.81
257.754	1652.81
257.987	1505.81
258.22	1719.81
258.452	1690.81
258.685	1353.81
258.918	1333.81
259.151	1336.81
259.383	1284.81
259.616	1138.81
259.849	1213.81
260.081	1353.81
260.314	1484.81
260.547	1573.81
260.779	1689.81
261.012	1554.81
261.244	1382.81
261.477	1304.81
261.71	1381.81
261.942	1330.81
262.175	1326.81
262.407	1382.81
262.64	1331.81
262.872	1263.81
263.105	1240.81
263.337	1236.81
263.57	1255.81
263.802	1254.81
264.035	1206.81
264.267	1091.81
264.499	1095.81
264.732	1190.81
264.964	1262.81
265.197	1299.81
265.429	1344.81
265.661	1504.81
265.894	1665.81
266.126	1706.81
266.358	1518.81
266.591	1604.81
266.823	1707.81
267.055	1538.81
267.287	1547.81
267.52	1515.81
267.752	1484.81
267.984	1465.81
268.216	1566.81
268.448	1610.81
268.681	1579.81
268.913	1470.81
269.145	1380.81
269.377	1342.81
269.609	1417.81
269.841	1681.81
270.073	1943.81
270.306	2203.81
270.538	2273.81
270.77	1951.81
271.002	1642.81
271.234	1588.81
271.466	1522.81
271.698	1763.81
271.93	2097.81
272.162	2098.81
272.394	1895.81
272.626	1837.81
272.858	1606.81
273.09	1383.81
273.322	1395.81
273.553	1338.81
273.785	1345.81
274.017	1375.81
274.249	1484.81
274.481	1499.81
274.713	1378.81
274.945	1354.81
275.176	1369.81
275.408	1350.81
275.64	1320.81
275.872	1337.81
276.104	1391.81
276.335	1609.81
276.567	1782.81
276.799	1863.81
277.031	1638.81
277.262	1576.81
277.494	1605.81
277.726	1767.81
277.957	1765.81
278.189	1604.81
278.421	1494.81
278.652	1455.81
278.884	1450.81
279.115	1418.81
279.347	1465.81
279.579	1423.81
279.81	1422.81
280.042	1594.81
280.273	1717.81
280.505	1715.81
280.736	1741.81
280.968	1678.81
281.199	1457.81
281.431	1399.81
281.662	1409.81
281.894	1408.81
282.125	1458.81
282.356	1457.81
282.588	1488.81
282.819	1509.81
283.051	1601.81
283.282	1733.81
283.513	1682.81
283.745	1466.81
283.976	1389.81
284.207	1437.81
284.439	1409.81
284.67	1424.81
284.901	1474.81
285.132	1538.81
285.364	1491.81
285.595	1429.81
285.826	1468.81
286.057	1472.81
286.288	1420.81
286.52	1509.81
286.751	1643.81
286.982	1670.81
287.213	1561.81
287.444	1396.81
287.675	1383.81
287.906	1496.81
288.138	1606.81
288.369	1595.81
288.6	1474.81
288.831	1437.81
289.062	1413.81
289.293	1466.81
289.524	1479.81
289.755	1538.81
289.986	1544.81
290.217	1407.81
290.448	1432.81
290.679	1483.81
290.91	1511.81
291.141	1542.81
291.371	1585.81
291.602	1561.81
291.833	1575.81
292.064	1607.81
292.295	1555.81
292.526	1632.81
292.757	1683.81
292.987	1591.81
293.218	1499.81
293.449	1644.81
293.68	1831.81
293.91	1991.81
294.141	1772.81
294.372	1713.81
294.603	1773.81
294.833	1859.81
295.064	1768.81
295.295	1603.81
295.525	1563.81
295.756	1458.81
295.987	1398.81
296.217	1405.81
296.448	1458.81
296.679	1496.81
296.909	1470.81
297.14	1461.81
297.37	1469.81
297.601	1582.81
297.831	1709.81
298.062	1708.81
298.292	1522.81
298.523	1479.81
298.753	1499.81
298.984	1473.81
299.214	1506.81
299.445	1530.81
299.675	1540.81
299.905	1549.81
300.136	1504.81
300.366	1489.81
300.597	1450.81
300.827	1441.81
301.057	1519.81
301.288	1615.81
301.518	1599.81
301.748	1641.81
301.979	1700.81
302.209	1688.81
302.439	1783.81
302.669	1874.81
302.9	1767.81
303.13	1592.81
303.36	1613.81
303.59	1624.81
303.82	1598.81
304.051	1590.81
304.281	1573.81
304.511	1604.81
304.741	1664.81
304.971	1832.81
305.201	2003.81
305.431	1869.81
305.661	1553.81
305.891	1437.81
306.121	1406.81
306.352	1460.81
306.582	1537.81
306.812	1605.81
307.042	1776.81
307.272	1748.81
307.502	1768.81
307.731	1901.81
307.961	2087.81
308.191	1954.81
308.421	1657.81
308.651	1575.81
308.881	1551.81
309.111	1552.81
309.341	1539.81
309.571	1543.81
309.8	1530.81
310.03	1518.81
310.26	1531.81
310.49	1526.81
310.72	1577.81
310.949	1616.81
311.179	1670.81
311.409	1608.81
311.639	1585.81
311.868	1540.81
312.098	1583.81
312.328	1568.81
312.557	1567.81
312.787	1560.81
313.017	1625.81
313.246	1579.81
313.476	1604.81
313.706	1686.81
313.935	1660.81
314.165	1634.81
314.394	1669.81
314.624	1772.81
314.853	1885.81
315.083	1880.81
315.312	1983.81
315.542	1911.81
315.771	1670.81
316.001	1657.81
316.23	1747.81
316.46	1754.81
316.689	1760.81
316.919	1660.81
317.148	1600.81
317.377	1586.81
317.607	1684.81
317.836	1909.81
318.065	1984.81
318.295	1920.81
318.524	1829.81
318.753	1721.81
318.983	1725.81
319.212	1693.81
319.441	1718.81
319.67	1659.81
319.9	1700.81
320.129	1770.81
320.358	1857.81
320.587	1865.81
320.816	1834.81
321.046	1834.81
321.275	1734.81
321.504	1743.81
321.733	1901.81
321.962	1881.81
322.191	1688.81
322.42	1701.81
322.649	1687.81
322.878	1685.81
323.108	1705.81
323.337	1748.81
323.566	1746.81
323.795	1739.81
324.024	1736.81
324.253	1693.81
324.482	1721.81
324.71	1656.81
324.939	1574.81
325.168	1578.81
325.397	1674.81
325.626	1703.81
325.855	1728.81
326.084	1707.81
326.313	1723.81
326.542	1706.81
326.77	1802.81
326.999	1778.81
327.228	1722.81
327.457	1633.81
327.686	1606.81
327.914	1677.81
328.143	1716.81
328.372	1708.81
328.6	1713.81
328.829	1662.81
329.058	1670.81
329.287	1622.81
329.515	1724.81
329.744	1714.81
329.972	1778.81
330.201	1907.81
330.43	1837.81
330.658	1779.81
330.887	1846.81
331.115	1830.81
331.344	1802.81
331.572	1807.81
331.801	1770.81
332.03	1770.81
332.258	1780.81
332.486	1825.81
332.715	1856.81
332.943	1850.81
333.172	1778.81
333.4	1846.81
333.629	1875.81
333.857	1970.81
334.085	2134.81
334.314	2377.81
334.542	2586.81
334.771	2399.81
334.999	2119.81
335.227	2049.81
335.455	1943.81
335.684	1904.81
335.912	1911.81
336.14	2022.81
336.369	1973.81
336.597	1833.81
336.825	1822.81
337.053	1922.81
337.281	1910.81
337.51	2018.81
337.738	2153.81
337.966	2039.81
338.194	1843.81
338.422	1797.81
338.65	1775.81
338.878	1720.81
339.106	1695.81
339.334	1678.81
339.562	1720.81
339.79	1726.81
340.018	1846.81
340.246	1894.81
340.474	1896.81
340.702	1823.81
340.93	1828.81
341.158	1833.81
341.386	1776.81
341.614	1817.81
341.842	1746.81
342.07	1786.81
342.298	1800.81
342.526	1791.81
342.754	1749.81
342.981	1746.81
343.209	1770.81
343.437	1740.81
343.665	1797.81
343.893	1809.81
344.12	1900.81
344.348	1929.81
344.576	1835.81
344.804	1762.81
345.031	1774.81
345.259	1781.81
345.487	1738.81
345.714	1682.81
345.942	1606.81
346.17	1650.81
346.397	1685.81
346.625	1685.81
346.853	1623.81
347.08	1581.81
347.308	1622.81
347.535	1658.81
347.763	1676.81
347.99	1668.81
348.218	1603.81
348.445	1656.81
348.673	1635.81
348.9	1683.81
349.128	1714.81
349.355	1823.81
349.583	1739.81
349.81	1694.81
350.037	1553.81
350.265	1545.81
350.492	1571.81
350.72	1599.81
350.947	1643.81
351.174	1674.81
351.402	1633.81
351.629	1595.81
351.856	1537.81
352.083	1501.81
352.311	1547.81
352.538	1592.81
352.765	1625.81
352.992	1685.81
353.22	1657.81
353.447	1578.81
353.674	1603.81
353.901	1657.81
354.128	1609.81
354.355	1602.81
354.583	1648.81
354.81	1698.81
355.037	1704.81
355.264	1711.81
355.491	1634.81
355.718	1663.81
355.945	1609.81
356.172	1611.81
356.399	1567.81
356.626	1608.81
356.853	1608.81
357.08	1753.81
357.307	1877.81
357.534	1905.81
357.761	1721.81
357.988	1610.81
358.215	1548.81
358.441	1558.81
358.668	1560.81
358.895	1550.81
359.122	1640.81
359.349	1822.81
359.576	1851.81
359.802	1638.81
360.029	1603.81
360.256	1594.81
360.483	1605.81
360.709	1634.81
360.936	1704.81
361.163	1746.81
361.39	1889.81
361.616	2074.81
361.843	1949.81
362.07	1905.81
362.296	1663.81
362.523	1595.81
362.749	1607.81
362.976	1648.81
363.203	1689.81
363.429	1641.81
363.656	1563.81
363.882	1600.81
364.109	1780.81
364.335	1954.81
364.562	1768.81
364.788	1765.81
365.015	1634.81
365.241	1576.81
365.468	1624.81
365.694	1703.81
365.92	1789.81
366.147	1685.81
366.373	1601.81
366.599	1585.81
366.826	1581.81
367.052	1592.81
367.278	1613.81
367.505	1610.81
367.731	1632.81
367.957	1674.81
368.184	1742.81
368.41	1794.81
368.636	1846.81
368.862	1821.81
369.089	1860.81
369.315	1759.81
369.541	1681.81
369.767	1660.81
369.993	1626.81
370.219	1641.81
370.445	1687.81
370.672	1746.81
370.898	1828.81
371.124	1818.81
371.35	1698.81
371.576	1728.81
371.802	1793.81
372.028	1791.81
372.254	1663.81
372.48	1698.81
372.706	1646.81
372.932	1617.81
373.158	1668.81
373.384	1666.81
373.61	1715.81
373.835	1830.81
374.061	1753.81
374.287	1715.81
374.513	1718.81
374.739	1710.81
374.965	1734.81
375.191	1742.81
375.416	1787.81
375.642	1737.81
375.868	1827.81
376.094	1897.81
376.319	1877.81
376.545	1718.81
376.771	1730.81
376.997	1853.81
377.222	1793.81
377.448	1747.81
377.674	1782.81
377.899	1728.81
378.125	1878.81
378.35	1895.81
378.576	1742.81
378.802	1658.81
379.027	1663.81
379.253	1690.81
379.478	1683.81
379.704	1689.81
379.929	1657.81
380.155	1671.81
380.38	1680.81
380.606	1743.81
380.831	1705.81
381.057	1798.81
381.282	1825.81
381.507	1773.81
381.733	1873.81
381.958	1978.81
382.184	1854.81
382.409	1765.81
382.634	1765.81
382.86	1749.81
383.085	1759.81
383.31	1811.81
383.535	1959.81
383.761	2071.81
383.986	1983.81
384.211	1923.81
384.436	1958.81
384.662	1975.81
384.887	2057.81
385.112	1960.81
385.337	1988.81
385.562	1948.81
385.787	1930.81
386.013	2011.81
386.238	2029.81
386.463	2002.81
386.688	2111.81
386.913	2209.81
387.138	2198.81
387.363	2046.81
387.588	1962.81
387.813	1970.81
388.038	2009.81
388.263	2086.81
388.488	2025.81
388.713	1853.81
388.938	1839.81
389.163	1903.81
389.387	1938.81
389.612	1927.81
389.837	2002.81
390.062	1992.81
390.287	1997.81
390.512	1926.81
390.736	1937.81
390.961	1905.81
391.186	1844.81
391.411	1861.81
391.636	1925.81
391.86	1951.81
392.085	1934.81
392.31	1937.81
392.534	1964.81
392.759	1991.81
392.984	1934.81
393.208	1990.81
393.433	1992.81
393.658	2090.81
393.882	2106.81
394.107	1993.81
394.331	1944.81
394.556	1926.81
394.78	2002.81
395.005	2061.81
395.229	2075.81
395.454	2264.81
395.678	2307.81
395.903	2148.81
396.127	2100.81
396.352	2094.81
396.576	2145.81
396.801	2112.81
397.025	2153.81
397.249	2122.81
397.474	2099.81
397.698	2100.81
397.922	2175.81
398.147	2266.81
398.371	2319.81
398.595	2342.81
398.82	2266.81
399.044	2292.81
399.268	2358.81
399.492	2535.81
399.717	2645.81
399.941	2685.81
400.165	2609.81
400.389	2523.81
400.613	2475.81
400.837	2685.81
401.062	3084.81
401.286	2683.81
401.51	2439.81
401.734	2526.81
401.958	2472.81
402.182	2289.81
402.406	2204.81
402.63	2201.81
402.854	2208.81
403.078	2241.81
403.302	2281.81
403.526	2313.81
403.75	2333.81
403.974	2366.81
404.198	2326.81
404.422	2378.81
404.645	2479.81
404.869	2480.81
405.093	2265.81
405.317	2273.81
405.541	2386.81
405.765	2377.81
405.988	2330.81
406.212	2424.81
406.436	2450.81
406.66	2486.81
406.883	2480.81
407.107	2803.81
407.331	3004.81
407.555	3272.81
407.778	3026.81
408.002	2584.81
408.226	2459.81
408.449	2485.81
408.673	2373.81
408.896	2392.81
409.12	2402.81
409.344	2398.81
409.567	2334.81
409.791	2373.81
410.014	2408.81
410.238	2502.81
410.461	2637.81
410.685	2406.81
410.908	2285.81
411.132	2329.81
411.355	2303.81
411.578	2289.81
411.802	2234.81
412.025	2340.81
412.249	2276.81
412.472	2242.81
412.695	2187.81
412.919	2228.81
413.142	2217.81
413.365	2240.81
413.589	2305.81
413.812	2343.81
414.035	2437.81
414.258	2232.81
414.482	2185.81
414.705	2218.81
414.928	2218.81
415.151	2238.81
415.374	2259.81
415.597	2302.81
415.821	2263.81
416.044	2406.81
416.267	2351.81
416.49	2191.81
416.713	2142.81
416.936	2237.81
417.159	2319.81
417.382	2276.81
417.605	2185.81
417.828	2253.81
418.051	2318.81
418.274	2232.81
418.497	2170.81
418.72	2138.81
418.943	2073.81
419.166	2268.81
419.389	2403.81
419.611	2260.81
419.834	2239.81
420.057	2200.81
420.28	2120.81
420.503	2168.81
420.726	2208.81
420.948	2193.81
421.171	2122.81
421.394	2150.81
421.617	2211.81
421.839	2173.81
422.062	2166.81
422.285	2117.81
422.507	2162.81
422.73	2090.81
422.953	2021.81
423.175	2034.81
423.398	2128.81
423.621	2138.81
423.843	2165.81
424.066	2150.81
424.288	2229.81
424.511	2298.81
424.733	2256.81
424.956	2045.81
425.178	2002.81
425.401	2083.81
425.623	2106.81
425.846	2060.81
426.068	2185.81
426.291	2177.81
426.513	2185.81
426.735	2154.81
426.958	2300.81
427.18	2483.81
427.402	2205.81
427.625	2241.81
427.847	2344.81
428.069	2203.81
428.292	2110.81
428.514	2040.81
428.736	2029.81
428.958	2102.81
429.181	2104.81
429.403	2362.81
429.625	2909.81
429.847	2582.81
430.069	2139.81
430.292	2309.81
430.514	2441.81
430.736	2269.81
430.958	2321.81
431.18	2222.81
431.402	2059.81
431.624	2058.81
431.846	2072.81
432.068	2054.81
432.29	2043.81
432.512	2068.81
432.734	2107.81
432.956	2130.81
433.178	2231.81
433.4	2221.81
433.622	2237.81
433.844	2135.81
434.066	2077.81
434.287	2077.81
434.509	2115.81
434.731	2239.81
434.953	2350.81
435.175	2326.81
435.397	2233.81
435.618	2204.81
435.84	2197.81
436.062	2143.81
436.284	2135.81
436.505	2165.81
436.727	2222.81
436.949	2139.81
437.17	2088.81
437.392	2050.81
437.614	2113.81
437.835	2023.81
438.057	2186.81
438.278	2264.81
438.5	2112.81
438.721	2063.81
438.943	2087.81
439.165	2037.81
439.386	1992.81
439.608	2015.81
439.829	2053.81
440.05	2066.81
440.272	2051.81
440.493	2038.81
440.715	2060.81
440.936	2181.81
441.158	2391.81
441.379	2378.81
441.6	2218.81
441.822	2230.81
442.043	2207.81
442.264	2161.81
442.486	2090.81
442.707	2031.81
442.928	2032.81
443.149	2151.81
443.371	2219.81
443.592	2299.81
443.813	2267.81
444.034	2250.81
444.255	2259.81
444.476	2362.81
444.698	2395.81
444.919	2327.81
445.14	2368.81
445.361	2379.81
445.582	2433.81
445.803	2303.81
446.024	2274.81
446.245	2406.81
446.466	2289.81
446.687	2169.81
446.908	2127.81
447.129	2119.81
447.35	2098.81
447.571	2086.81
447.792	2021.81
448.013	2013.81
448.234	2054.81
448.455	2109.81
448.675	2131.81
448.896	1985.81
449.117	1967.81
449.338	2036.81
449.559	2120.81
449.779	2209.81
450	2420.81
450.221	2597.81
450.442	2507.81
450.662	2211.81
450.883	1946.81
451.104	1912.81
451.324	2005.81
451.545	2055.81
451.766	2020.81
451.986	1907.81
452.207	1882.81
452.428	1847.81
452.648	1856.81
452.869	1863.81
453.089	1983.81
453.31	2017.81
453.53	2046.81
453.751	2020.81
453.971	1852.81
454.192	1937.81
454.412	2079.81
454.633	1969.81
454.853	1914.81
455.073	1796.81
455.294	1787.81
455.514	1809.81
455.734	1832.81
455.955	1862.81
456.175	1878.81
456.395	1887.81
456.616	1916.81
456.836	1962.81
457.056	1866.81
457.276	1888.81
457.497	1837.81
457.717	1804.81
457.937	1827.81
458.157	1873.81
458.377	1847.81
458.598	1820.81
458.818	1865.81
459.038	1953.81
459.258	2116.81
459.478	2075.81
459.698	2026.81
459.918	2034.81
460.138	2151.81
460.358	2229.81
460.578	2203.81
460.798	2262.81
461.018	2419.81
461.238	2317.81
461.458	2215.81
461.678	2227.81
461.898	2163.81
462.118	2117.81
462.338	2185.81
462.558	2230.81
462.777	2253.81
462.997	2344.81
463.217	2485.81
463.437	2422.81
463.657	2240.81
463.876	2193.81
464.096	2271.81
464.316	2199.81
464.536	2296.81
464.755	2265.81
464.975	2328.81
465.195	2227.81
465.414	2337.81
465.634	2305.81
465.854	2158.81
466.073	2311.81
466.293	2312.81
466.512	2027.81
466.732	1992.81
466.951	2079.81
467.171	2093.81
467.391	1986.81
467.61	1967.81
467.829	2026.81
468.049	2098.81
468.268	2351.81
468.488	2238.81
468.707	2097.81
468.927	2054.81
469.146	2003.81
469.365	1972.81
469.585	2009.81
469.804	1962.81
470.023	2035.81
470.243	2038.81
470.462	2049.81
470.681	1966.81
470.901	2049.81
471.12	2045.81
471.339	2015.81
471.558	1958.81
471.777	1981.81
471.997	1948.81
472.216	1971.81
472.435	1928.81
472.654	1919.81
472.873	2022.81
473.092	2157.81
473.311	2025.81
473.53	1930.81
473.749	1911.81
473.968	1967.81
474.187	2062.81
474.406	2194.81
474.625	2051.81
474.844	2056.81
475.063	2036.81
475.282	2078.81
475.501	2069.81
475.72	2062.81
475.939	2117.81
476.158	2109.81
476.377	2045.81
476.596	2093.81
476.814	2114.81
477.033	2150.81
477.252	2193.81
477.471	2256.81
477.69	2135.81
477.908	2120.81
478.127	2269.81
478.346	2409.81
478.564	2409.81
478.783	2394.81
479.002	2479.81
479.22	2417.81
479.439	2502.81
479.658	2815.81
479.876	2804.81
480.095	2444.81
480.313	2357.81
480.532	2294.81
480.751	2324.81
480.969	2377.81
481.188	2267.81
481.406	2328.81
481.624	2239.81
481.843	2229.81
482.061	2283.81
482.28	2357.81
482.498	2352.81
482.717	2345.81
482.935	2227.81
483.153	2248.81
483.372	2286.81
483.59	2226.81
483.808	2305.81
484.027	2336.81
484.245	2418.81
484.463	2790.81
484.681	3166.81
484.9	2514.81
485.118	2346.81
485.336	2361.81
485.554	2411.81
485.772	2509.81
485.99	2439.81
486.209	2472.81
486.427	2390.81
486.645	2455.81
486.863	2345.81
487.081	2474.81
487.299	2529.81
487.517	2496.81
487.735	2370.81
487.953	2329.81
488.171	2343.81
488.389	2311.81
488.607	2341.81
488.825	2559.81
489.043	2659.81
489.261	2375.81
489.479	2473.81
489.696	2481.81
489.914	2493.81
490.132	2438.81
490.35	2386.81
490.568	2518.81
490.786	2415.81
491.003	2273.81
491.221	2374.81
491.439	2477.81
491.657	2399.81
491.874	2468.81
492.092	2485.81
492.31	2486.81
492.527	2432.81
492.745	2438.81
492.963	2392.81
493.18	2505.81
493.398	2644.81
493.615	2681.81
493.833	2480.81
494.05	2483.81
494.268	2437.81
494.485	2501.81
494.703	2484.81
494.92	2454.81
495.138	2429.81
495.355	2475.81
495.573	2563.81
495.79	2682.81
496.008	2757.81
496.225	2589.81
496.442	2586.81
496.66	2641.81
496.877	2584.81
497.094	2690.81
497.312	2683.81
497.529	2638.81
497.746	2731.81
497.963	3189.81
498.181	3544.81
498.398	3294.81
498.615	3256.81
498.832	3155.81
499.049	3122.81
499.267	3155.81
499.484	3335.81
499.701	3605.81
499.918	3645.81
500.135	3890.81
500.352	4238.81
500.569	4134.81
500.786	4394.81
501.003	4200.81
501.22	3777.81
501.437	3667.81
501.654	3676.81
501.871	3544.81
502.088	3163.81
502.305	3169.81
502.522	3015.81
502.739	2807.81
502.956	2760.81
503.172	2741.81
503.389	2682.81
503.606	2626.81
503.823	2628.81
504.04	2604.81
504.256	2624.81
504.473	2641.81
504.69	2705.81
504.907	2581.81
505.123	2425.81
505.34	2597.81
505.557	3290.81
505.773	2847.81
505.99	2365.81
506.207	2264.81
506.423	2249.81
506.64	2193.81
506.856	2226.81
507.073	2497.81
507.289	2645.81
507.506	2614.81
507.722	2229.81
507.939	2130.81
508.155	2139.81
508.372	2179.81
508.588	2099.81
508.805	2055.81
509.021	2060.81
509.238	2019.81
509.454	2043.81
509.67	2057.81
509.887	1998.81
510.103	1981.81
510.319	2009.81
510.536	2133.81
510.752	2178.81
510.968	2195.81
511.184	2319.81
511.401	2284.81
511.617	1974.81
511.833	1983.81
512.049	1922.81
512.265	1968.81
512.481	1946.81
512.698	2013.81
512.914	2139.81
513.13	2120.81
513.346	2003.81
513.562	1925.81
513.778	1969.81
513.994	2101.81
514.21	2124.81
514.426	2162.81
514.642	2374.81
514.858	2225.81
515.074	2082.81
515.29	2003.81
515.506	2073.81
515.721	2084.81
515.937	2092.81
516.153	2365.81
516.369	2280.81
516.585	2112.81
516.801	2069.81
517.016	2033.81
517.232	2132.81
517.448	2218.81
517.664	2197.81
517.879	2176.81
518.095	2289.81
518.311	2161.81
518.527	2110.81
518.742	2061.81
518.958	1979.81
519.173	1973.81
519.389	2017.81
519.605	2013.81
519.82	2054.81
520.036	2069.81
520.251	1978.81
520.467	2020.81
520.682	2146.81
520.898	2264.81
521.113	1993.81
521.329	1976.81
521.544	2129.81
521.76	2052.81
521.975	1926.81
522.19	1852.81
522.406	1847.81
522.621	2194.81
522.836	2282.81
523.052	1912.81
523.267	1871.81
523.482	1860.81
523.698	1802.81
523.913	1780.81
524.128	1796.81
524.343	1878.81
524.559	1941.81
524.774	1799.81
524.989	1775.81
525.204	1798.81
525.419	1753.81
525.634	1799.81
525.849	1831.81
526.064	1805.81
526.28	1849.81
526.495	1767.81
526.71	1750.81
526.925	1751.81
527.14	1738.81
527.355	1675.81
527.57	1707.81
527.785	1791.81
527.999	1721.81
528.214	1681.81
528.429	1631.81
528.644	1655.81
528.859	1693.81
529.074	1739.81
529.289	1734.81
529.503	1738.81
529.718	1737.81
529.933	1715.81
530.148	1644.81
530.363	1654.81
530.577	1656.81
530.792	1718.81
531.007	1740.81
531.221	1704.81
531.436	1730.81
531.651	1755.81
531.865	1862.81
532.08	1773.81
532.295	1679.81
532.509	1622.81
532.724	1659.81
532.938	1774.81
533.153	1860.81
533.367	1791.81
533.582	1746.81
533.796	1677.81
534.011	1663.81
534.225	1704.81
534.44	1658.81
534.654	1658.81
534.868	1651.81
535.083	1737.81
535.297	1702.81
535.511	1701.81
535.726	1661.81
535.94	1662.81
536.154	1649.81
536.369	1643.81
536.583	1641.81
536.797	1605.81
537.011	1702.81
537.225	1618.81
537.44	1576.81
537.654	1670.81
537.868	1561.81
538.082	1525.81
538.296	1538.81
538.51	1567.81
538.724	1543.81
538.938	1565.81
539.153	1598.81
539.367	1622.81
539.581	1600.81
539.795	1670.81
540.009	1661.81
540.222	1621.81
540.436	1630.81
540.65	1780.81
540.864	1781.81
541.078	1653.81
541.292	1573.81
541.506	1593.81
541.72	1602.81
541.934	1593.81
542.147	1655.81
542.361	1606.81
542.575	1550.81
542.789	1518.81
543.002	1496.81
543.216	1517.81
543.43	1614.81
543.644	1654.81
543.857	1740.81
544.071	1669.81
544.285	1606.81
544.498	1613.81
544.712	1565.81
544.925	1630.81
545.139	1617.81
545.352	1523.81
545.566	1491.81
545.779	1488.81
545.993	1500.81
546.206	1588.81
546.42	1502.81
546.633	1478.81
546.847	1484.81
547.06	1489.81
547.274	1477.81
547.487	1522.81
547.7	1506.81
547.914	1506.81
548.127	1502.81
548.34	1556.81
548.554	1528.81
548.767	1527.81
548.98	1531.81
549.193	1508.81
549.407	1575.81
549.62	1581.81
549.833	1478.81
550.046	1513.81
550.259	1501.81
550.473	1474.81
550.686	1483.81
550.899	1433.81
551.112	1432.81
551.325	1419.81
551.538	1516.81
551.751	1762.81
551.964	1459.81
552.177	1429.81
552.39	1473.81
552.603	1465.81
552.816	1486.81
553.029	1530.81
553.242	1589.81
553.455	1520.81
553.667	1466.81
553.88	1451.81
554.093	1467.81
554.306	1435.81
554.519	1407.81
554.732	1371.81
554.944	1400.81
555.157	1453.81
555.37	1403.81
555.583	1423.81
555.795	1350.81
556.008	1346.81
556.221	1314.81
556.433	1294.81
556.646	1289.81
556.859	1318.81
557.071	1286.81
557.284	1290.81
557.496	1298.81
557.709	1267.81
557.921	1249.81
558.134	1230.81
558.346	1247.81
558.559	1234.81
558.771	1241.81
558.984	1226.81
559.196	1238.81
559.409	1194.81
559.621	1192.81
559.833	1207.81
560.046	1248.81
560.258	1244.81
560.47	1239.81
560.683	1259.81
560.895	1224.81
561.107	1223.81
561.32	1239.81
561.532	1250.81
561.744	1208.81
561.956	1207.81
562.168	1217.81
562.381	1165.81
562.593	1199.81
562.805	1165.81
563.017	1194.81
563.229	1205.81
563.441	1222.81
563.653	1198.81
563.865	1191.81
564.077	1178.81
564.289	1193.81
564.501	1227.81
564.713	1255.81
564.925	1296.81
565.137	1363.81
565.349	1308.81
565.561	1261.81
565.773	1292.81
565.985	1319.81
566.197	1367.81
566.408	1455.81
566.62	1463.81
566.832	1471.81
567.044	1491.81
567.255	1474.81
567.467	1470.81
567.679	1505.81
567.891	1510.81
568.102	1521.81
568.314	1481.81
568.526	1404.81
568.737	1358.81
568.949	1273.81
569.161	1230.81
569.372	1213.81
569.584	1162.81
569.795	1194.81
570.007	1141.81
570.218	1105.81
570.43	1073.81
570.641	1114.81
570.853	1087.81
571.064	1075.81
571.276	1117.81
571.487	1091.81
571.698	1040.81
571.91	1037.81
572.121	1006.81
572.333	1022.81
572.544	995.81
572.755	979.81
572.966	959.81
573.178	996.81
573.389	969.81
573.6	1021.81
573.811	1048.81
574.023	981.81
574.234	974.81
574.445	910.81
574.656	910.81
574.867	912.81
575.078	938.81
575.289	934.81
575.501	899.81
575.712	912.81
575.923	908.81
576.134	907.81
576.345	904.81
576.556	892.81
576.767	874.81
576.978	885.81
577.188	883.81
577.399	835.81
577.61	877.81
577.821	852.81
578.032	826.81
578.243	863.81
578.454	857.81
578.665	827.81
578.875	810.81
579.086	811.81
579.297	861.81
579.508	866.81
579.718	848.81
579.929	842.81
580.14	801.81
580.35	832.81
580.561	835.81
580.772	900.81
580.982	823.81
581.193	791.81
581.403	818.81
581.614	810.81
581.825	797.81
582.035	782.81
582.246	771.81
582.456	794.81
582.667	815.81
582.877	793.81
583.087	773.81
583.298	770.81
583.508	768.81
583.719	771.81
583.929	777.81
584.139	790.81
584.35	745.81
584.56	764.81
584.77	800.81
584.981	777.81
585.191	747.81
585.401	797.81
585.611	761.81
585.821	780.81
586.032	749.81
586.242	743.81
586.452	738.81
586.662	750.81
586.872	738.81
587.082	742.81
587.292	767.81
587.502	772.81
587.713	766.81
587.923	773.81
588.133	746.81
588.343	769.81
588.553	743.81
588.762	733.81
588.972	731.81
589.182	748.81
589.392	757.81
589.602	751.81
589.812	723.81
590.022	720.81
590.232	708.81
590.441	749.81
590.651	751.81
590.861	749.81
591.071	720.81
591.281	733.81
591.49	720.81
591.7	708.81
591.91	731.81
592.119	722.81
592.329	727.81
592.539	766.81
592.748	751.81
592.958	761.81
593.167	790.81
593.377	781.81
593.587	802.81
593.796	780.81
594.006	796.81
594.215	804.81
594.424	774.81
594.634	745.81
594.843	755.81
595.053	756.81
595.262	728.81
595.472	699.81
595.681	739.81
595.89	725.81
596.1	686.81
596.309	694.81
596.518	689.81
596.727	692.81
596.937	692.81
597.146	648.81
597.355	650.81
597.564	646.81
597.774	619.81
597.983	630.81
598.192	640.81
598.401	612.81
598.61	633.81
598.819	627.81
599.028	654.81
599.237	624.81
599.446	622.81
599.655	625.81
599.864	601.81
600.073	623.81
600.282	597.81
600.491	613.81
600.7	600.81
600.909	575.81
601.118	590.81
601.327	590.81
601.536	580.81
601.745	599.81
601.953	586.81
602.162	614.81
602.371	568.81
602.58	607.81
602.789	594.81
602.997	584.81
603.206	578.81
603.415	594.81
603.623	578.81
603.832	596.81
604.041	567.81
604.249	557.81
604.458	576.81
604.666	569.81
604.875	583.81
605.084	596.81
605.292	591.81
605.501	573.81
605.709	549.81
605.918	547.81
606.126	562.81
606.334	535.81
606.543	547.81
606.751	534.81
606.96	554.81
607.168	569.81
607.376	553.81
607.585	550.81
607.793	534.81
608.001	549.81
608.21	539.81
608.418	552.81
608.626	545.81
608.834	553.81
609.043	536.81
609.251	540.81
609.459	523.81
609.667	550.81
609.875	525.81
610.083	549.81
610.291	545.81
610.499	537.81
610.707	517.81
610.916	521.81
611.124	513.81
611.332	526.81
611.54	538.81
611.748	527.81
611.955	536.81
612.163	513.81
612.371	523.81
612.579	512.81
612.787	515.81
612.995	508.81
613.203	513.81
613.411	524.81
613.618	511.81
613.826	513.81
614.034	529.81
614.242	519.81
614.449	490.81
614.657	514.81
614.865	512.81
615.072	511.81
615.28	530.81
615.488	513.81
615.695	543.81
615.903	525.81
616.111	521.81
616.318	512.81
616.526	492.81
616.733	511.81
616.941	485.81
617.148	488.81
617.356	482.81
617.563	494.81
617.771	493.81
617.978	506.81
618.185	493.81
618.393	487.81
618.6	488.81
618.807	495.81
619.015	505.81
619.222	483.81
619.429	493.81
619.637	492.81
619.844	467.81
620.051	482.81
620.258	465.81
620.466	476.81
620.673	451.81
620.88	438.81
621.087	435.81
621.294	445.81
621.501	459.81
621.708	419.81
621.915	455.81
622.122	454.81
622.329	456.81
622.536	472.81
622.743	459.81
622.95	468.81
623.157	435.81
623.364	437.81
623.571	447.81
623.778	429.81
623.985	447.81
624.192	409.81
624.399	429.81
624.606	418.81
624.812	424.81
625.019	441.81
625.226	439.81
625.433	446.81
625.639	435.81
625.846	430.81
626.053	426.81
626.259	419.81
626.466	423.81
626.673	401.81
626.879	386.81
627.086	409.81
627.293	377.81
627.499	402.81
627.706	398.81
627.912	413.81
628.119	405.81
628.325	411.81
628.532	409.81
628.738	393.81
628.945	393.81
629.151	390.81
629.357	396.81
629.564	399.81
629.77	415.81
629.976	396.81
630.183	386.81
630.389	401.81
630.595	401.81
630.802	402.81
631.008	392.81
631.214	381.81
631.42	365.81
631.627	374.81
631.833	350.81
632.039	361.81
632.245	394.81
632.451	373.81
632.657	362.81
632.863	356.81
633.069	345.81
633.275	371.81
633.481	373.81
633.688	374.81
633.893	331.81
634.099	356.81
634.305	372.81
634.511	367.81
634.717	357.81
634.923	351.81
635.129	339.81
635.335	339.81
635.541	366.81
635.747	344.81
635.952	364.81
636.158	345.81
636.364	351.81
636.57	362.81
636.775	344.81
636.981	362.81
637.187	346.81
637.392	358.81
637.598	339.81
637.804	359.81
638.009	351.81
638.215	331.81
638.421	337.81
638.626	355.81
638.832	338.81
639.037	345.81
639.243	323.81
639.448	335.81
639.654	337.81
639.859	325.81
640.065	311.81
640.27	328.81
640.475	329.81
640.681	338.81
640.886	323.81
641.091	327.81
641.297	324.81
641.502	323.81
641.707	329.81
641.913	306.81
642.118	341.81
642.323	325.81
642.528	329.81
642.733	318.81
642.939	316.81
643.144	320.81
643.349	339.81
643.554	323.81
643.759	313.81
643.964	315.81
644.169	299.81
644.374	311.81
644.579	319.81
644.784	302.81
644.989	308.81
645.194	308.81
645.399	296.81
645.604	314.81
645.809	308.81
646.014	301.81
646.219	298.81
646.423	315.81
646.628	329.81
646.833	321.81
647.038	298.81
647.243	309.81
647.447	297.81
647.652	305.81
647.857	308.81
648.062	321.81
648.266	298.81
648.471	327.81
648.676	294.81
648.88	303.81
649.085	312.81
649.289	297.81
649.494	301.81
649.698	294.81
649.903	292.81
650.107	304.81
650.312	280.81
650.516	315.81
650.721	294.81
650.925	285.81
651.13	283.81
651.334	277.81
651.539	277.81
651.743	272.81
651.947	270.81
652.152	276.81
652.356	270.81
652.56	228.81
652.764	264.81
652.969	258.81
653.173	251.81
653.377	243.81
653.581	256.81
653.785	237.81
653.99	247.81
654.194	258.81
654.398	251.81
654.602	249.81
654.806	227.81
655.01	247.81
655.214	230.81
655.418	248.81
655.622	234.81
655.826	263.81
656.03	249.81
656.234	253.81
656.438	270.81
656.642	275.81
656.846	269.81
657.049	240.81
657.253	224.81
657.457	218.81
657.661	195.81
657.865	189.81
658.068	196.81
658.272	154.81
658.476	156.81
658.68	154.81
658.883	155.81
659.087	133.81
659.291	155.81
659.494	130.81
659.698	127.81
659.901	127.81
660.105	120.81
660.309	125.81
660.512	115.81
660.716	117.81
660.919	124.81
661.123	110.81
661.326	114.81
661.53	101.81
661.733	111.81
661.936	96.81
662.14	85.81
662.343	108.81
662.546	106.81
662.75	104.81
662.953	83.81
663.156	83.81
663.36	93.81
663.563	83.81
663.766	80.81
663.969	99.81
664.173	78.81
664.376	91.81
664.579	92.81
664.782	94.81
664.985	79.81
665.188	68.81
665.391	79.81
665.594	87.81
665.797	75.81
666	87.81
666.203	77.81
666.406	79.81
666.609	87.81
666.812	91.81
667.015	77.81
667.218	86.81
667.421	75.81
667.624	94.81
667.827	74.81
668.03	71.81
668.232	87.81
668.435	77.81
668.638	62.81
668.841	85.81
669.043	83.81
669.246	84.81
669.449	88.81
669.651	85.81
669.854	70.81
670.057	75.81
670.259	77.81
670.462	86.81
670.665	91.81
670.867	81.81
671.07	68.81
671.272	82.81
671.475	80.81
671.677	84.81
671.88	78.81
672.082	81.81
672.284	77.81
672.487	80.81
672.689	58.81
672.892	86.81
