Data from WStandard_LampEnergy5.5LIBS07252019.E.O._I.C._HRD10591_16-08-52-920.txt Node
Date: Thu Jul 25 16:08:52 EDT 2019
User: cochatt
Spectrometer: HR+D1059
Trigger mode: 1
Integration Time (sec): 1.000000E-1
Scans to average: 1
Electric dark correction enabled: true
Nonlinearity correction enabled: false
Boxcar width: 0
XAxis mode: Wavelengths
Number of Pixels in Spectrum: 2048
>>>>>Begin Spectral Data<<<<<
223.165	-7.94
223.4	-7.94
223.635	-7.94
223.869	-13.94
224.104	-11.94
224.338	-20.94
224.573	-2.94
224.808	-22.94
225.042	-16.94
225.277	3.06
225.511	2.06
225.746	8.06
225.98	10.06
226.215	13.06
226.449	16.06
226.683	6.06
226.918	10.06
227.152	29.06
227.387	24.06
227.621	30.06
227.856	38.06
228.09	50.06
228.324	56.06
228.559	62.06
228.793	132.06
229.027	340.06
229.262	344.06
229.496	354.06
229.73	376.06
229.964	422.06
230.199	433.06
230.433	436.06
230.667	445.06
230.901	516.06
231.136	465.06
231.37	429.06
231.604	447.06
231.838	462.06
232.072	445.06
232.306	419.06
232.541	469.06
232.775	539.06
233.009	578.06
233.243	564.06
233.477	514.06
233.711	519.06
233.945	542.06
234.179	519.06
234.413	544.06
234.647	601.06
234.881	559.06
235.115	532.06
235.349	512.06
235.583	532.06
235.817	534.06
236.051	510.06
236.285	521.06
236.519	551.06
236.753	628.06
236.987	648.06
237.221	650.06
237.455	709.06
237.689	681.06
237.922	639.06
238.156	618.06
238.39	629.06
238.624	662.06
238.858	663.06
239.091	716.06
239.325	757.06
239.559	866.06
239.793	899.06
240.027	972.06
240.26	990.06
240.494	713.06
240.728	658.06
240.961	674.06
241.195	716.06
241.429	783.06
241.662	761.06
241.896	745.06
242.13	748.06
242.363	808.06
242.597	865.06
242.83	832.06
243.064	833.06
243.298	899.06
243.531	877.06
243.765	892.06
243.998	863.06
244.232	786.06
244.465	747.06
244.699	756.06
244.932	828.06
245.166	1011.06
245.399	940.06
245.633	886.06
245.866	827.06
246.099	890.06
246.333	900.06
246.566	899.06
246.8	986.06
247.033	1120.06
247.266	1032.06
247.5	1004.06
247.733	989.06
247.966	1062.06
248.2	1174.06
248.433	1135.06
248.666	1144.06
248.899	1221.06
249.133	1422.06
249.366	1664.06
249.599	1339.06
249.832	1158.06
250.066	1180.06
250.299	1223.06
250.532	1129.06
250.765	986.06
250.998	1090.06
251.231	1129.06
251.465	1176.06
251.698	1122.06
251.931	1100.06
252.164	1146.06
252.397	1172.06
252.63	1204.06
252.863	1029.06
253.096	991.06
253.329	1104.06
253.562	1119.06
253.795	1218.06
254.028	1219.06
254.261	1131.06
254.494	1138.06
254.727	1053.06
254.96	1078.06
255.193	1198.06
255.426	1390.06
255.659	1565.06
255.892	1624.06
256.124	1286.06
256.357	1239.06
256.59	1356.06
256.823	1373.06
257.056	1354.06
257.289	1592.06
257.521	1823.06
257.754	1619.06
257.987	1504.06
258.22	1704.06
258.452	1637.06
258.685	1333.06
258.918	1299.06
259.151	1268.06
259.383	1252.06
259.616	1108.06
259.849	1154.06
260.081	1288.06
260.314	1459.06
260.547	1582.06
260.779	1606.06
261.012	1565.06
261.244	1374.06
261.477	1264.06
261.71	1354.06
261.942	1345.06
262.175	1302.06
262.407	1388.06
262.64	1297.06
262.872	1200.06
263.105	1164.06
263.337	1204.06
263.57	1247.06
263.802	1252.06
264.035	1159.06
264.267	1077.06
264.499	1074.06
264.732	1151.06
264.964	1242.06
265.197	1279.06
265.429	1319.06
265.661	1486.06
265.894	1664.06
266.126	1733.06
266.358	1489.06
266.591	1556.06
266.823	1693.06
267.055	1562.06
267.287	1497.06
267.52	1529.06
267.752	1476.06
267.984	1458.06
268.216	1559.06
268.448	1573.06
268.681	1565.06
268.913	1424.06
269.145	1321.06
269.377	1324.06
269.609	1404.06
269.841	1662.06
270.073	1929.06
270.306	2138.06
270.538	2250.06
270.77	1975.06
271.002	1656.06
271.234	1548.06
271.466	1545.06
271.698	1705.06
271.93	2058.06
272.162	2073.06
272.394	1841.06
272.626	1832.06
272.858	1605.06
273.09	1416.06
273.322	1370.06
273.553	1263.06
273.785	1307.06
274.017	1374.06
274.249	1522.06
274.481	1532.06
274.713	1410.06
274.945	1321.06
275.176	1341.06
275.408	1332.06
275.64	1304.06
275.872	1291.06
276.104	1373.06
276.335	1572.06
276.567	1768.06
276.799	1818.06
277.031	1628.06
277.262	1514.06
277.494	1626.06
277.726	1772.06
277.957	1758.06
278.189	1569.06
278.421	1454.06
278.652	1420.06
278.884	1378.06
279.115	1377.06
279.347	1454.06
279.579	1378.06
279.81	1348.06
280.042	1496.06
280.273	1666.06
280.505	1687.06
280.736	1733.06
280.968	1641.06
281.199	1447.06
281.431	1368.06
281.662	1357.06
281.894	1365.06
282.125	1395.06
282.356	1470.06
282.588	1493.06
282.819	1457.06
283.051	1553.06
283.282	1716.06
283.513	1682.06
283.745	1445.06
283.976	1360.06
284.207	1385.06
284.439	1413.06
284.67	1439.06
284.901	1501.06
285.132	1524.06
285.364	1458.06
285.595	1488.06
285.826	1461.06
286.057	1439.06
286.288	1428.06
286.52	1485.06
286.751	1599.06
286.982	1647.06
287.213	1539.06
287.444	1381.06
287.675	1394.06
287.906	1466.06
288.138	1586.06
288.369	1585.06
288.6	1462.06
288.831	1419.06
289.062	1446.06
289.293	1454.06
289.524	1493.06
289.755	1459.06
289.986	1477.06
290.217	1374.06
290.448	1384.06
290.679	1430.06
290.91	1460.06
291.141	1489.06
291.371	1587.06
291.602	1521.06
291.833	1528.06
292.064	1546.06
292.295	1524.06
292.526	1543.06
292.757	1633.06
292.987	1560.06
293.218	1472.06
293.449	1588.06
293.68	1781.06
293.91	1971.06
294.141	1796.06
294.372	1714.06
294.603	1732.06
294.833	1834.06
295.064	1724.06
295.295	1570.06
295.525	1505.06
295.756	1459.06
295.987	1366.06
296.217	1375.06
296.448	1436.06
296.679	1426.06
296.909	1380.06
297.14	1401.06
297.37	1438.06
297.601	1497.06
297.831	1638.06
298.062	1666.06
298.292	1509.06
298.523	1469.06
298.753	1445.06
298.984	1468.06
299.214	1473.06
299.445	1517.06
299.675	1529.06
299.905	1534.06
300.136	1497.06
300.366	1437.06
300.597	1408.06
300.827	1409.06
301.057	1464.06
301.288	1541.06
301.518	1550.06
301.748	1611.06
301.979	1651.06
302.209	1640.06
302.439	1820.06
302.669	1882.06
302.9	1705.06
303.13	1575.06
303.36	1541.06
303.59	1580.06
303.82	1539.06
304.051	1560.06
304.281	1542.06
304.511	1589.06
304.741	1639.06
304.971	1796.06
305.201	1954.06
305.431	1874.06
305.661	1559.06
305.891	1379.06
306.121	1394.06
306.352	1442.06
306.582	1510.06
306.812	1589.06
307.042	1734.06
307.272	1722.06
307.502	1762.06
307.731	1877.06
307.961	2089.06
308.191	1884.06
308.421	1641.06
308.651	1566.06
308.881	1506.06
309.111	1533.06
309.341	1469.06
309.571	1539.06
309.8	1513.06
310.03	1496.06
310.26	1470.06
310.49	1482.06
310.72	1516.06
310.949	1588.06
311.179	1576.06
311.409	1594.06
311.639	1529.06
311.868	1495.06
312.098	1520.06
312.328	1510.06
312.557	1524.06
312.787	1546.06
313.017	1570.06
313.246	1569.06
313.476	1578.06
313.706	1628.06
313.935	1632.06
314.165	1605.06
314.394	1656.06
314.624	1737.06
314.853	1829.06
315.083	1879.06
315.312	2029.06
315.542	1796.06
315.771	1654.06
316.001	1636.06
316.23	1672.06
316.46	1697.06
316.689	1688.06
316.919	1597.06
317.148	1513.06
317.377	1544.06
317.607	1649.06
317.836	1879.06
318.065	1944.06
318.295	1851.06
318.524	1786.06
318.753	1693.06
318.983	1702.06
319.212	1673.06
319.441	1625.06
319.67	1625.06
319.9	1689.06
320.129	1773.06
320.358	1825.06
320.587	1816.06
320.816	1868.06
321.046	1842.06
321.275	1732.06
321.504	1709.06
321.733	1896.06
321.962	1798.06
322.191	1690.06
322.42	1660.06
322.649	1662.06
322.878	1621.06
323.108	1675.06
323.337	1716.06
323.566	1714.06
323.795	1691.06
324.024	1715.06
324.253	1639.06
324.482	1694.06
324.71	1658.06
324.939	1561.06
325.168	1586.06
325.397	1630.06
325.626	1724.06
325.855	1701.06
326.084	1644.06
326.313	1633.06
326.542	1674.06
326.77	1744.06
326.999	1737.06
327.228	1630.06
327.457	1587.06
327.686	1576.06
327.914	1622.06
328.143	1702.06
328.372	1639.06
328.6	1638.06
328.829	1630.06
329.058	1570.06
329.287	1593.06
329.515	1672.06
329.744	1665.06
329.972	1712.06
330.201	1804.06
330.43	1802.06
330.658	1746.06
330.887	1733.06
331.115	1720.06
331.344	1757.06
331.572	1711.06
331.801	1722.06
332.03	1742.06
332.258	1735.06
332.486	1759.06
332.715	1773.06
332.943	1810.06
333.172	1745.06
333.4	1760.06
333.629	1820.06
333.857	1912.06
334.085	2078.06
334.314	2309.06
334.542	2562.06
334.771	2380.06
334.999	2058.06
335.227	1947.06
335.455	1926.06
335.684	1854.06
335.912	1884.06
336.14	1957.06
336.369	1887.06
336.597	1780.06
336.825	1765.06
337.053	1800.06
337.281	1896.06
337.51	1950.06
337.738	2098.06
337.966	2013.06
338.194	1809.06
338.422	1753.06
338.65	1720.06
338.878	1737.06
339.106	1710.06
339.334	1664.06
339.562	1597.06
339.79	1656.06
340.018	1795.06
340.246	1844.06
340.474	1850.06
340.702	1789.06
340.93	1780.06
341.158	1784.06
341.386	1796.06
341.614	1748.06
341.842	1722.06
342.07	1686.06
342.298	1761.06
342.526	1741.06
342.754	1689.06
342.981	1692.06
343.209	1740.06
343.437	1699.06
343.665	1728.06
343.893	1769.06
344.12	1837.06
344.348	1878.06
344.576	1809.06
344.804	1713.06
345.031	1708.06
345.259	1720.06
345.487	1663.06
345.714	1608.06
345.942	1557.06
346.17	1594.06
346.397	1655.06
346.625	1654.06
346.853	1581.06
347.08	1516.06
347.308	1519.06
347.535	1625.06
347.763	1703.06
347.99	1664.06
348.218	1568.06
348.445	1576.06
348.673	1615.06
348.9	1635.06
349.128	1681.06
349.355	1760.06
349.583	1712.06
349.81	1642.06
350.037	1518.06
350.265	1494.06
350.492	1523.06
350.72	1572.06
350.947	1616.06
351.174	1651.06
351.402	1610.06
351.629	1504.06
351.856	1479.06
352.083	1512.06
352.311	1497.06
352.538	1581.06
352.765	1580.06
352.992	1614.06
353.22	1655.06
353.447	1518.06
353.674	1520.06
353.901	1607.06
354.128	1542.06
354.355	1543.06
354.583	1606.06
354.81	1671.06
355.037	1652.06
355.264	1647.06
355.491	1564.06
355.718	1645.06
355.945	1612.06
356.172	1549.06
356.399	1534.06
356.626	1502.06
356.853	1587.06
357.08	1714.06
357.307	1904.06
357.534	1874.06
357.761	1690.06
357.988	1534.06
358.215	1501.06
358.441	1535.06
358.668	1520.06
358.895	1500.06
359.122	1621.06
359.349	1760.06
359.576	1806.06
359.802	1621.06
360.029	1559.06
360.256	1513.06
360.483	1519.06
360.709	1586.06
360.936	1644.06
361.163	1695.06
361.39	1810.06
361.616	2029.06
361.843	1908.06
362.07	1852.06
362.296	1613.06
362.523	1564.06
362.749	1587.06
362.976	1604.06
363.203	1641.06
363.429	1590.06
363.656	1516.06
363.882	1565.06
364.109	1722.06
364.335	1878.06
364.562	1768.06
364.788	1669.06
365.015	1608.06
365.241	1528.06
365.468	1571.06
365.694	1641.06
365.92	1726.06
366.147	1656.06
366.373	1540.06
366.599	1495.06
366.826	1534.06
367.052	1566.06
367.278	1535.06
367.505	1588.06
367.731	1649.06
367.957	1594.06
368.184	1662.06
368.41	1727.06
368.636	1801.06
368.862	1768.06
369.089	1786.06
369.315	1749.06
369.541	1645.06
369.767	1604.06
369.993	1556.06
370.219	1577.06
370.445	1601.06
370.672	1698.06
370.898	1764.06
371.124	1776.06
371.35	1662.06
371.576	1680.06
371.802	1772.06
372.028	1701.06
372.254	1642.06
372.48	1631.06
372.706	1607.06
372.932	1585.06
373.158	1584.06
373.384	1642.06
373.61	1654.06
373.835	1770.06
374.061	1718.06
374.287	1638.06
374.513	1695.06
374.739	1674.06
374.965	1695.06
375.191	1704.06
375.416	1720.06
375.642	1751.06
375.868	1801.06
376.094	1839.06
376.319	1756.06
376.545	1672.06
376.771	1705.06
376.997	1769.06
377.222	1746.06
377.448	1704.06
377.674	1725.06
377.899	1704.06
378.125	1800.06
378.35	1806.06
378.576	1668.06
378.802	1592.06
379.027	1627.06
379.253	1602.06
379.478	1632.06
379.704	1628.06
379.929	1645.06
380.155	1667.06
380.38	1670.06
380.606	1682.06
380.831	1648.06
381.057	1753.06
381.282	1753.06
381.507	1718.06
381.733	1820.06
381.958	1891.06
382.184	1767.06
382.409	1729.06
382.634	1730.06
382.86	1733.06
383.085	1750.06
383.31	1744.06
383.535	1889.06
383.761	2050.06
383.986	1909.06
384.211	1876.06
384.436	1841.06
384.662	1935.06
384.887	2034.06
385.112	1934.06
385.337	1944.06
385.562	1881.06
385.787	1871.06
386.013	1904.06
386.238	1958.06
386.463	1902.06
386.688	2028.06
386.913	2174.06
387.138	2147.06
387.363	1994.06
387.588	1959.06
387.813	1945.06
388.038	1970.06
388.263	2037.06
388.488	1988.06
388.713	1827.06
388.938	1823.06
389.163	1831.06
389.387	1869.06
389.612	1865.06
389.837	1898.06
390.062	1937.06
390.287	1920.06
390.512	1905.06
390.736	1852.06
390.961	1825.06
391.186	1801.06
391.411	1836.06
391.636	1884.06
391.86	1879.06
392.085	1888.06
392.31	1849.06
392.534	1892.06
392.759	1930.06
392.984	1890.06
393.208	1904.06
393.433	1930.06
393.658	1964.06
393.882	2062.06
394.107	1894.06
394.331	1870.06
394.556	1894.06
394.78	1893.06
395.005	1983.06
395.229	2024.06
395.454	2169.06
395.678	2186.06
395.903	2113.06
396.127	2028.06
396.352	1994.06
396.576	2101.06
396.801	2091.06
397.025	2101.06
397.249	2043.06
397.474	2083.06
397.698	1996.06
397.922	2086.06
398.147	2191.06
398.371	2243.06
398.595	2268.06
398.82	2154.06
399.044	2197.06
399.268	2341.06
399.492	2382.06
399.717	2573.06
399.941	2588.06
400.165	2501.06
400.389	2426.06
400.613	2398.06
400.837	2617.06
401.062	3065.06
401.286	2638.06
401.51	2407.06
401.734	2516.06
401.958	2392.06
402.182	2254.06
402.406	2208.06
402.63	2140.06
402.854	2148.06
403.078	2157.06
403.302	2255.06
403.526	2248.06
403.75	2241.06
403.974	2256.06
404.198	2250.06
404.422	2315.06
404.645	2424.06
404.869	2399.06
405.093	2253.06
405.317	2189.06
405.541	2263.06
405.765	2305.06
405.988	2276.06
406.212	2342.06
406.436	2374.06
406.66	2415.06
406.883	2416.06
407.107	2704.06
407.331	2907.06
407.555	3140.06
407.778	2935.06
408.002	2444.06
408.226	2382.06
408.449	2440.06
408.673	2281.06
408.896	2327.06
409.12	2368.06
409.344	2299.06
409.567	2217.06
409.791	2312.06
410.014	2275.06
410.238	2409.06
410.461	2548.06
410.685	2320.06
410.908	2202.06
411.132	2240.06
411.355	2235.06
411.578	2206.06
411.802	2224.06
412.025	2232.06
412.249	2207.06
412.472	2151.06
412.695	2141.06
412.919	2150.06
413.142	2124.06
413.365	2188.06
413.589	2240.06
413.812	2356.06
414.035	2373.06
414.258	2186.06
414.482	2148.06
414.705	2160.06
414.928	2136.06
415.151	2126.06
415.374	2189.06
415.597	2171.06
415.821	2189.06
416.044	2288.06
416.267	2298.06
416.49	2054.06
416.713	2063.06
416.936	2151.06
417.159	2204.06
417.382	2260.06
417.605	2102.06
417.828	2167.06
418.051	2195.06
418.274	2154.06
418.497	2062.06
418.72	2080.06
418.943	2095.06
419.166	2186.06
419.389	2302.06
419.611	2187.06
419.834	2148.06
420.057	2174.06
420.28	2017.06
420.503	2049.06
420.726	2114.06
420.948	2149.06
421.171	2031.06
421.394	2096.06
421.617	2153.06
421.839	2142.06
422.062	2080.06
422.285	2018.06
422.507	2061.06
422.73	2014.06
422.953	1995.06
423.175	1983.06
423.398	2037.06
423.621	2071.06
423.843	2066.06
424.066	2105.06
424.288	2170.06
424.511	2197.06
424.733	2149.06
424.956	1970.06
425.178	1982.06
425.401	1994.06
425.623	2003.06
425.846	1984.06
426.068	2120.06
426.291	2143.06
426.513	2119.06
426.735	2095.06
426.958	2237.06
427.18	2421.06
427.402	2184.06
427.625	2230.06
427.847	2286.06
428.069	2106.06
428.292	2070.06
428.514	1980.06
428.736	1996.06
428.958	2014.06
429.181	2021.06
429.403	2267.06
429.625	2765.06
429.847	2512.06
430.069	2111.06
430.292	2308.06
430.514	2362.06
430.736	2151.06
430.958	2274.06
431.18	2169.06
431.402	2028.06
431.624	1986.06
431.846	1956.06
432.068	1992.06
432.29	1982.06
432.512	2000.06
432.734	2062.06
432.956	2082.06
433.178	2176.06
433.4	2198.06
433.622	2183.06
433.844	2042.06
434.066	1961.06
434.287	2000.06
434.509	2017.06
434.731	2176.06
434.953	2293.06
435.175	2256.06
435.397	2105.06
435.618	2135.06
435.84	2114.06
436.062	2080.06
436.284	2121.06
436.505	2090.06
436.727	2147.06
436.949	2097.06
437.17	2034.06
437.392	2030.06
437.614	2015.06
437.835	1988.06
438.057	2109.06
438.278	2188.06
438.5	2028.06
438.721	2004.06
438.943	1987.06
439.165	1975.06
439.386	1947.06
439.608	1994.06
439.829	2003.06
440.05	2014.06
440.272	1954.06
440.493	1932.06
440.715	2026.06
440.936	2150.06
441.158	2321.06
441.379	2297.06
441.6	2197.06
441.822	2180.06
442.043	2190.06
442.264	2100.06
442.486	1997.06
442.707	2013.06
442.928	1954.06
443.149	2030.06
443.371	2184.06
443.592	2250.06
443.813	2219.06
444.034	2192.06
444.255	2186.06
444.476	2253.06
444.698	2269.06
444.919	2288.06
445.14	2305.06
445.361	2320.06
445.582	2426.06
445.803	2293.06
446.024	2185.06
446.245	2271.06
446.466	2213.06
446.687	2095.06
446.908	2067.06
447.129	2007.06
447.35	2032.06
447.571	2007.06
447.792	1970.06
448.013	1928.06
448.234	1991.06
448.455	2075.06
448.675	2100.06
448.896	1918.06
449.117	1905.06
449.338	1955.06
449.559	2023.06
449.779	2151.06
450	2401.06
450.221	2515.06
450.442	2454.06
450.662	2152.06
450.883	1935.06
451.104	1860.06
451.324	1918.06
451.545	1962.06
451.766	1916.06
451.986	1854.06
452.207	1868.06
452.428	1827.06
452.648	1799.06
452.869	1842.06
453.089	1934.06
453.31	1977.06
453.53	2000.06
453.751	1973.06
453.971	1836.06
454.192	1863.06
454.412	1978.06
454.633	1909.06
454.853	1886.06
455.073	1772.06
455.294	1753.06
455.514	1745.06
455.734	1729.06
455.955	1798.06
456.175	1822.06
456.395	1807.06
456.616	1846.06
456.836	1878.06
457.056	1842.06
457.276	1818.06
457.497	1777.06
457.717	1727.06
457.937	1768.06
458.157	1832.06
458.377	1822.06
458.598	1791.06
458.818	1779.06
459.038	1943.06
459.258	2031.06
459.478	2024.06
459.698	1950.06
459.918	2001.06
460.138	2133.06
460.358	2146.06
460.578	2147.06
460.798	2204.06
461.018	2368.06
461.238	2222.06
461.458	2143.06
461.678	2130.06
461.898	2106.06
462.118	2029.06
462.338	2133.06
462.558	2164.06
462.777	2156.06
462.997	2247.06
463.217	2408.06
463.437	2361.06
463.657	2172.06
463.876	2140.06
464.096	2177.06
464.316	2157.06
464.536	2184.06
464.755	2216.06
464.975	2286.06
465.195	2160.06
465.414	2245.06
465.634	2264.06
465.854	2117.06
466.073	2248.06
466.293	2170.06
466.512	1993.06
466.732	1938.06
466.951	2016.06
467.171	2080.06
467.391	1958.06
467.61	1876.06
467.829	1919.06
468.049	2057.06
468.268	2333.06
468.488	2172.06
468.707	2050.06
468.927	2000.06
469.146	1956.06
469.365	1901.06
469.585	1972.06
469.804	1972.06
470.023	1933.06
470.243	1979.06
470.462	1962.06
470.681	1926.06
470.901	1948.06
471.12	1991.06
471.339	1934.06
471.558	1880.06
471.777	1882.06
471.997	1906.06
472.216	1931.06
472.435	1841.06
472.654	1881.06
472.873	1935.06
473.092	2114.06
473.311	1966.06
473.53	1870.06
473.749	1866.06
473.968	1881.06
474.187	2048.06
474.406	2152.06
474.625	2017.06
474.844	1972.06
475.063	1988.06
475.282	2064.06
475.501	1987.06
475.72	1980.06
475.939	2082.06
476.158	2004.06
476.377	1967.06
476.596	2028.06
476.814	2063.06
477.033	2058.06
477.252	2129.06
477.471	2220.06
477.69	2096.06
477.908	2089.06
478.127	2167.06
478.346	2362.06
478.564	2356.06
478.783	2280.06
479.002	2404.06
479.22	2374.06
479.439	2449.06
479.658	2713.06
479.876	2756.06
480.095	2352.06
480.313	2282.06
480.532	2225.06
480.751	2192.06
480.969	2299.06
481.188	2238.06
481.406	2185.06
481.624	2148.06
481.843	2164.06
482.061	2232.06
482.28	2275.06
482.498	2314.06
482.717	2269.06
482.935	2169.06
483.153	2177.06
483.372	2222.06
483.59	2139.06
483.808	2187.06
484.027	2262.06
484.245	2361.06
484.463	2711.06
484.681	3089.06
484.9	2457.06
485.118	2256.06
485.336	2187.06
485.554	2301.06
485.772	2375.06
485.99	2338.06
486.209	2376.06
486.427	2343.06
486.645	2356.06
486.863	2285.06
487.081	2376.06
487.299	2409.06
487.517	2434.06
487.735	2310.06
487.953	2304.06
488.171	2227.06
488.389	2275.06
488.607	2262.06
488.825	2488.06
489.043	2564.06
489.261	2328.06
489.479	2385.06
489.696	2453.06
489.914	2447.06
490.132	2364.06
490.35	2295.06
490.568	2405.06
490.786	2337.06
491.003	2195.06
491.221	2364.06
491.439	2366.06
491.657	2367.06
491.874	2329.06
492.092	2414.06
492.31	2405.06
492.527	2401.06
492.745	2349.06
492.963	2328.06
493.18	2394.06
493.398	2601.06
493.615	2681.06
493.833	2422.06
494.05	2377.06
494.268	2410.06
494.485	2456.06
494.703	2460.06
494.92	2334.06
495.138	2369.06
495.355	2390.06
495.573	2497.06
495.79	2606.06
496.008	2673.06
496.225	2528.06
496.442	2537.06
496.66	2576.06
496.877	2497.06
497.094	2633.06
497.312	2621.06
497.529	2579.06
497.746	2634.06
497.963	3041.06
498.181	3516.06
498.398	3194.06
498.615	3138.06
498.832	3066.06
499.049	3093.06
499.267	3028.06
499.484	3218.06
499.701	3477.06
499.918	3500.06
500.135	3767.06
500.352	4071.06
500.569	4001.06
500.786	4229.06
501.003	4020.06
501.22	3614.06
501.437	3613.06
501.654	3532.06
501.871	3436.06
502.088	3006.06
502.305	3034.06
502.522	2960.06
502.739	2744.06
502.956	2665.06
503.172	2614.06
503.389	2558.06
503.606	2496.06
503.823	2514.06
504.04	2496.06
504.256	2540.06
504.473	2545.06
504.69	2656.06
504.907	2529.06
505.123	2345.06
505.34	2473.06
505.557	3198.06
505.773	2725.06
505.99	2369.06
506.207	2173.06
506.423	2163.06
506.64	2167.06
506.856	2135.06
507.073	2432.06
507.289	2603.06
507.506	2540.06
507.722	2164.06
507.939	2075.06
508.155	2080.06
508.372	2139.06
508.588	2039.06
508.805	2000.06
509.021	1964.06
509.238	1995.06
509.454	1953.06
509.67	2001.06
509.887	1926.06
510.103	1919.06
510.319	1973.06
510.536	2052.06
510.752	2149.06
510.968	2168.06
511.184	2237.06
511.401	2201.06
511.617	1955.06
511.833	1911.06
512.049	1900.06
512.265	1953.06
512.481	1911.06
512.698	1960.06
512.914	2092.06
513.13	2054.06
513.346	1968.06
513.562	1862.06
513.778	1905.06
513.994	1993.06
514.21	2089.06
514.426	2068.06
514.642	2321.06
514.858	2156.06
515.074	1960.06
515.29	1914.06
515.506	1978.06
515.721	2033.06
515.937	2053.06
516.153	2275.06
516.369	2190.06
516.585	2066.06
516.801	1998.06
517.016	1959.06
517.232	2072.06
517.448	2131.06
517.664	2143.06
517.879	2123.06
518.095	2234.06
518.311	2142.06
518.527	2017.06
518.742	2015.06
518.958	1889.06
519.173	1932.06
519.389	1952.06
519.605	1957.06
519.82	1972.06
520.036	2003.06
520.251	1945.06
520.467	1921.06
520.682	2127.06
520.898	2180.06
521.113	1933.06
521.329	1904.06
521.544	2052.06
521.76	1972.06
521.975	1827.06
522.19	1812.06
522.406	1811.06
522.621	2147.06
522.836	2212.06
523.052	1832.06
523.267	1800.06
523.482	1818.06
523.698	1743.06
523.913	1692.06
524.128	1777.06
524.343	1861.06
524.559	1880.06
524.774	1772.06
524.989	1770.06
525.204	1751.06
525.419	1684.06
525.634	1725.06
525.849	1728.06
526.064	1755.06
526.28	1731.06
526.495	1706.06
526.71	1669.06
526.925	1697.06
527.14	1716.06
527.355	1633.06
527.57	1652.06
527.785	1723.06
527.999	1660.06
528.214	1649.06
528.429	1616.06
528.644	1608.06
528.859	1680.06
529.074	1679.06
529.289	1632.06
529.503	1635.06
529.718	1691.06
529.933	1662.06
530.148	1611.06
530.363	1633.06
530.577	1624.06
530.792	1708.06
531.007	1682.06
531.221	1699.06
531.436	1690.06
531.651	1714.06
531.865	1849.06
532.08	1734.06
532.295	1648.06
532.509	1573.06
532.724	1609.06
532.938	1691.06
533.153	1772.06
533.367	1667.06
533.582	1673.06
533.796	1638.06
534.011	1646.06
534.225	1676.06
534.44	1645.06
534.654	1599.06
534.868	1609.06
535.083	1693.06
535.297	1692.06
535.511	1604.06
535.726	1660.06
535.94	1645.06
536.154	1624.06
536.369	1576.06
536.583	1586.06
536.797	1566.06
537.011	1634.06
537.225	1564.06
537.44	1530.06
537.654	1632.06
537.868	1596.06
538.082	1504.06
538.296	1504.06
538.51	1481.06
538.724	1525.06
538.938	1519.06
539.153	1570.06
539.367	1556.06
539.581	1558.06
539.795	1615.06
540.009	1609.06
540.222	1567.06
540.436	1578.06
540.65	1722.06
540.864	1765.06
541.078	1624.06
541.292	1540.06
541.506	1522.06
541.72	1552.06
541.934	1558.06
542.147	1565.06
542.361	1563.06
542.575	1505.06
542.789	1500.06
543.002	1473.06
543.216	1475.06
543.43	1590.06
543.644	1621.06
543.857	1664.06
544.071	1622.06
544.285	1596.06
544.498	1531.06
544.712	1573.06
544.925	1583.06
545.139	1562.06
545.352	1500.06
545.566	1475.06
545.779	1430.06
545.993	1500.06
546.206	1502.06
546.42	1464.06
546.633	1440.06
546.847	1436.06
547.06	1415.06
547.274	1455.06
547.487	1444.06
547.7	1448.06
547.914	1464.06
548.127	1493.06
548.34	1487.06
548.554	1496.06
548.767	1481.06
548.98	1476.06
549.193	1453.06
549.407	1513.06
549.62	1533.06
549.833	1485.06
550.046	1467.06
550.259	1458.06
550.473	1432.06
550.686	1446.06
550.899	1428.06
551.112	1455.06
551.325	1368.06
551.538	1482.06
551.751	1722.06
551.964	1461.06
552.177	1354.06
552.39	1402.06
552.603	1454.06
552.816	1459.06
553.029	1492.06
553.242	1495.06
553.455	1444.06
553.667	1444.06
553.88	1461.06
554.093	1440.06
554.306	1348.06
554.519	1357.06
554.732	1365.06
554.944	1364.06
555.157	1407.06
555.37	1374.06
555.583	1377.06
555.795	1296.06
556.008	1305.06
556.221	1268.06
556.433	1287.06
556.646	1284.06
556.859	1236.06
557.071	1255.06
557.284	1208.06
557.496	1239.06
557.709	1244.06
557.921	1188.06
558.134	1200.06
558.346	1217.06
558.559	1219.06
558.771	1185.06
558.984	1174.06
559.196	1149.06
559.409	1178.06
559.621	1153.06
559.833	1172.06
560.046	1221.06
560.258	1232.06
560.47	1173.06
560.683	1200.06
560.895	1178.06
561.107	1188.06
561.32	1188.06
561.532	1224.06
561.744	1187.06
561.956	1218.06
562.168	1134.06
562.381	1146.06
562.593	1140.06
562.805	1152.06
563.017	1142.06
563.229	1147.06
563.441	1172.06
563.653	1180.06
563.865	1176.06
564.077	1143.06
564.289	1180.06
564.501	1142.06
564.713	1222.06
564.925	1239.06
565.137	1361.06
565.349	1248.06
565.561	1206.06
565.773	1248.06
565.985	1265.06
566.197	1361.06
566.408	1413.06
566.62	1430.06
566.832	1414.06
567.044	1475.06
567.255	1441.06
567.467	1424.06
567.679	1432.06
567.891	1502.06
568.102	1475.06
568.314	1426.06
568.526	1356.06
568.737	1262.06
568.949	1258.06
569.161	1200.06
569.372	1139.06
569.584	1113.06
569.795	1133.06
570.007	1134.06
570.218	1084.06
570.43	1097.06
570.641	1063.06
570.853	1081.06
571.064	1090.06
571.276	1062.06
571.487	1042.06
571.698	990.06
571.91	1003.06
572.121	1001.06
572.333	953.06
572.544	978.06
572.755	932.06
572.966	930.06
573.178	961.06
573.389	982.06
573.6	1022.06
573.811	1038.06
574.023	957.06
574.234	954.06
574.445	919.06
574.656	924.06
574.867	892.06
575.078	910.06
575.289	915.06
575.501	898.06
575.712	864.06
575.923	896.06
576.134	900.06
576.345	876.06
576.556	867.06
576.767	840.06
576.978	848.06
577.188	874.06
577.399	801.06
577.61	818.06
577.821	836.06
578.032	794.06
578.243	841.06
578.454	830.06
578.665	793.06
578.875	830.06
579.086	792.06
579.297	807.06
579.508	832.06
579.718	840.06
579.929	807.06
580.14	774.06
580.35	789.06
580.561	792.06
580.772	860.06
580.982	809.06
581.193	791.06
581.403	783.06
581.614	791.06
581.825	757.06
582.035	744.06
582.246	787.06
582.456	783.06
582.667	768.06
582.877	782.06
583.087	744.06
583.298	774.06
583.508	742.06
583.719	764.06
583.929	764.06
584.139	756.06
584.35	729.06
584.56	713.06
584.77	778.06
584.981	768.06
585.191	739.06
585.401	751.06
585.611	737.06
585.821	728.06
586.032	743.06
586.242	711.06
586.452	733.06
586.662	759.06
586.872	720.06
587.082	741.06
587.292	751.06
587.502	741.06
587.713	744.06
587.923	722.06
588.133	737.06
588.343	727.06
588.553	712.06
588.762	740.06
588.972	702.06
589.182	726.06
589.392	723.06
589.602	697.06
589.812	752.06
590.022	701.06
590.232	708.06
590.441	715.06
590.651	710.06
590.861	695.06
591.071	726.06
591.281	695.06
591.49	696.06
591.7	702.06
591.91	721.06
592.119	703.06
592.329	725.06
592.539	738.06
592.748	749.06
592.958	699.06
593.167	750.06
593.377	739.06
593.587	738.06
593.796	737.06
594.006	760.06
594.215	741.06
594.424	745.06
594.634	724.06
594.843	732.06
595.053	751.06
595.262	726.06
595.472	704.06
595.681	700.06
595.89	682.06
596.1	662.06
596.309	691.06
596.518	675.06
596.727	656.06
596.937	664.06
597.146	607.06
597.355	623.06
597.564	644.06
597.774	650.06
597.983	642.06
598.192	620.06
598.401	627.06
598.61	598.06
598.819	593.06
599.028	606.06
599.237	608.06
599.446	599.06
599.655	586.06
599.864	603.06
600.073	581.06
600.282	591.06
600.491	560.06
600.7	582.06
600.909	576.06
601.118	586.06
601.327	595.06
601.536	590.06
601.745	573.06
601.953	574.06
602.162	560.06
602.371	585.06
602.58	585.06
602.789	585.06
602.997	562.06
603.206	551.06
603.415	575.06
603.623	560.06
603.832	551.06
604.041	567.06
604.249	552.06
604.458	541.06
604.666	553.06
604.875	581.06
605.084	542.06
605.292	576.06
605.501	547.06
605.709	549.06
605.918	558.06
606.126	576.06
606.334	545.06
606.543	528.06
606.751	542.06
606.96	539.06
607.168	543.06
607.376	519.06
607.585	540.06
607.793	523.06
608.001	522.06
608.21	536.06
608.418	533.06
608.626	527.06
608.834	540.06
609.043	541.06
609.251	510.06
609.459	523.06
609.667	523.06
609.875	521.06
610.083	532.06
610.291	537.06
610.499	549.06
610.707	517.06
610.916	484.06
611.124	531.06
611.332	510.06
611.54	520.06
611.748	479.06
611.955	490.06
612.163	498.06
612.371	513.06
612.579	497.06
612.787	504.06
612.995	537.06
613.203	520.06
613.411	505.06
613.618	504.06
613.826	510.06
614.034	492.06
614.242	468.06
614.449	485.06
614.657	504.06
614.865	499.06
615.072	495.06
615.28	510.06
615.488	520.06
615.695	545.06
615.903	509.06
616.111	514.06
616.318	515.06
616.526	485.06
616.733	500.06
616.941	489.06
617.148	493.06
617.356	492.06
617.563	516.06
617.771	496.06
617.978	479.06
618.185	479.06
618.393	478.06
618.6	476.06
618.807	452.06
619.015	465.06
619.222	496.06
619.429	472.06
619.637	470.06
619.844	449.06
620.051	457.06
620.258	471.06
620.466	462.06
620.673	442.06
620.88	429.06
621.087	437.06
621.294	433.06
621.501	438.06
621.708	452.06
621.915	441.06
622.122	464.06
622.329	445.06
622.536	443.06
622.743	451.06
622.95	462.06
623.157	436.06
623.364	438.06
623.571	432.06
623.778	426.06
623.985	448.06
624.192	445.06
624.399	414.06
624.606	421.06
624.812	424.06
625.019	412.06
625.226	427.06
625.433	411.06
625.639	430.06
625.846	427.06
626.053	401.06
626.259	391.06
626.466	391.06
626.673	392.06
626.879	399.06
627.086	395.06
627.293	388.06
627.499	382.06
627.706	408.06
627.912	422.06
628.119	399.06
628.325	409.06
628.532	382.06
628.738	387.06
628.945	387.06
629.151	394.06
629.357	417.06
629.564	392.06
629.77	394.06
629.976	373.06
630.183	367.06
630.389	404.06
630.595	400.06
630.802	397.06
631.008	388.06
631.214	366.06
631.42	377.06
631.627	366.06
631.833	364.06
632.039	333.06
632.245	372.06
632.451	352.06
632.657	366.06
632.863	366.06
633.069	368.06
633.275	356.06
633.481	372.06
633.688	368.06
633.893	345.06
634.099	342.06
634.305	341.06
634.511	353.06
634.717	344.06
634.923	328.06
635.129	333.06
635.335	348.06
635.541	335.06
635.747	343.06
635.952	329.06
636.158	345.06
636.364	352.06
636.57	360.06
636.775	351.06
636.981	330.06
637.187	353.06
637.392	330.06
637.598	330.06
637.804	319.06
638.009	349.06
638.215	314.06
638.421	322.06
638.626	326.06
638.832	323.06
639.037	325.06
639.243	318.06
639.448	322.06
639.654	319.06
639.859	323.06
640.065	310.06
640.27	323.06
640.475	320.06
640.681	332.06
640.886	336.06
641.091	335.06
641.297	317.06
641.502	322.06
641.707	318.06
641.913	330.06
642.118	308.06
642.323	316.06
642.528	282.06
642.733	291.06
642.939	307.06
643.144	307.06
643.349	317.06
643.554	311.06
643.759	318.06
643.964	296.06
644.169	300.06
644.374	302.06
644.579	295.06
644.784	316.06
644.989	302.06
645.194	303.06
645.399	299.06
645.604	292.06
645.809	305.06
646.014	288.06
646.219	306.06
646.423	305.06
646.628	303.06
646.833	304.06
647.038	297.06
647.243	292.06
647.447	296.06
647.652	313.06
647.857	309.06
648.062	298.06
648.266	316.06
648.471	320.06
648.676	316.06
648.88	307.06
649.085	303.06
649.289	289.06
649.494	295.06
649.698	302.06
649.903	298.06
650.107	300.06
650.312	293.06
650.516	270.06
650.721	287.06
650.925	277.06
651.13	268.06
651.334	254.06
651.539	281.06
651.743	270.06
651.947	259.06
652.152	270.06
652.356	266.06
652.56	258.06
652.764	245.06
652.969	240.06
653.173	243.06
653.377	252.06
653.581	241.06
653.785	250.06
653.99	261.06
654.194	230.06
654.398	239.06
654.602	256.06
654.806	242.06
655.01	240.06
655.214	227.06
655.418	220.06
655.622	248.06
655.826	241.06
656.03	270.06
656.234	248.06
656.438	249.06
656.642	256.06
656.846	249.06
657.049	240.06
657.253	222.06
657.457	199.06
657.661	200.06
657.865	192.06
658.068	169.06
658.272	153.06
658.476	160.06
658.68	122.06
658.883	151.06
659.087	144.06
659.291	139.06
659.494	143.06
659.698	135.06
659.901	124.06
660.105	114.06
660.309	116.06
660.512	119.06
660.716	114.06
660.919	105.06
661.123	113.06
661.326	83.06
661.53	97.06
661.733	92.06
661.936	85.06
662.14	88.06
662.343	95.06
662.546	100.06
662.75	99.06
662.953	86.06
663.156	81.06
663.36	87.06
663.563	80.06
663.766	71.06
663.969	87.06
664.173	93.06
664.376	85.06
664.579	79.06
664.782	91.06
664.985	77.06
665.188	84.06
665.391	79.06
665.594	70.06
665.797	77.06
666	70.06
666.203	70.06
666.406	73.06
666.609	75.06
666.812	78.06
667.015	81.06
667.218	77.06
667.421	67.06
667.624	80.06
667.827	74.06
668.03	63.06
668.232	74.06
668.435	84.06
668.638	61.06
668.841	94.06
669.043	72.06
669.246	82.06
669.449	75.06
669.651	83.06
669.854	77.06
670.057	86.06
670.259	82.06
670.462	80.06
670.665	64.06
670.867	80.06
671.07	74.06
671.272	79.06
671.475	91.06
671.677	79.06
671.88	70.06
672.082	76.06
672.284	68.06
672.487	90.06
672.689	79.06
672.892	96.06
