Data from WStandard_LampEnergy5.5LIBS07252019.E.O._I.C._HRD10591_16-06-44-920.txt Node
Date: Thu Jul 25 16:06:44 EDT 2019
User: cochatt
Spectrometer: HR+D1059
Trigger mode: 1
Integration Time (sec): 1.000000E-1
Scans to average: 1
Electric dark correction enabled: true
Nonlinearity correction enabled: false
Boxcar width: 0
XAxis mode: Wavelengths
Number of Pixels in Spectrum: 2048
>>>>>Begin Spectral Data<<<<<
223.165	-15.06
223.4	-15.06
223.635	-15.06
223.869	-24.06
224.104	-17.06
224.338	-21.06
224.573	-16.06
224.808	-18.06
225.042	-14.06
225.277	-8.06
225.511	5.94
225.746	4.94
225.98	1.94
226.215	18.94
226.449	31.94
226.683	11.94
226.918	23.94
227.152	33.94
227.387	48.94
227.621	37.94
227.856	40.94
228.09	38.94
228.324	50.94
228.559	45.94
228.793	147.94
229.027	353.94
229.262	361.94
229.496	385.94
229.73	405.94
229.964	438.94
230.199	441.94
230.433	491.94
230.667	499.94
230.901	507.94
231.136	479.94
231.37	477.94
231.604	467.94
231.838	475.94
232.072	486.94
232.306	453.94
232.541	487.94
232.775	543.94
233.009	618.94
233.243	607.94
233.477	525.94
233.711	564.94
233.945	568.94
234.179	545.94
234.413	600.94
234.647	639.94
234.881	607.94
235.115	549.94
235.349	557.94
235.583	569.94
235.817	583.94
236.051	548.94
236.285	533.94
236.519	587.94
236.753	656.94
236.987	701.94
237.221	673.94
237.455	748.94
237.689	751.94
237.922	670.94
238.156	662.94
238.39	669.94
238.624	715.94
238.858	762.94
239.091	788.94
239.325	804.94
239.559	921.94
239.793	968.94
240.027	1039.94
240.26	1027.94
240.494	747.94
240.728	726.94
240.961	722.94
241.195	744.94
241.429	848.94
241.662	837.94
241.896	730.94
242.13	757.94
242.363	851.94
242.597	898.94
242.83	891.94
243.064	893.94
243.298	972.94
243.531	972.94
243.765	931.94
243.998	926.94
244.232	813.94
244.465	784.94
244.699	825.94
244.932	907.94
245.166	1030.94
245.399	984.94
245.633	903.94
245.866	891.94
246.099	926.94
246.333	948.94
246.566	978.94
246.8	1063.94
247.033	1157.94
247.266	1096.94
247.5	1073.94
247.733	1067.94
247.966	1093.94
248.2	1275.94
248.433	1192.94
248.666	1218.94
248.899	1325.94
249.133	1523.94
249.366	1789.94
249.599	1413.94
249.832	1279.94
250.066	1301.94
250.299	1337.94
250.532	1219.94
250.765	1083.94
250.998	1181.94
251.231	1217.94
251.465	1255.94
251.698	1187.94
251.931	1161.94
252.164	1201.94
252.397	1255.94
252.63	1257.94
252.863	1097.94
253.096	1081.94
253.329	1138.94
253.562	1192.94
253.795	1296.94
254.028	1271.94
254.261	1159.94
254.494	1127.94
254.727	1106.94
254.96	1177.94
255.193	1250.94
255.426	1415.94
255.659	1650.94
255.892	1701.94
256.124	1390.94
256.357	1320.94
256.59	1393.94
256.823	1425.94
257.056	1431.94
257.289	1682.94
257.521	1919.94
257.754	1721.94
257.987	1622.94
258.22	1819.94
258.452	1785.94
258.685	1405.94
258.918	1370.94
259.151	1388.94
259.383	1339.94
259.616	1192.94
259.849	1221.94
260.081	1409.94
260.314	1551.94
260.547	1682.94
260.779	1741.94
261.012	1635.94
261.244	1467.94
261.477	1381.94
261.71	1429.94
261.942	1427.94
262.175	1358.94
262.407	1463.94
262.64	1409.94
262.872	1299.94
263.105	1223.94
263.337	1281.94
263.57	1289.94
263.802	1293.94
264.035	1215.94
264.267	1143.94
264.499	1136.94
264.732	1224.94
264.964	1317.94
265.197	1338.94
265.429	1426.94
265.661	1565.94
265.894	1740.94
266.126	1840.94
266.358	1623.94
266.591	1655.94
266.823	1836.94
267.055	1609.94
267.287	1603.94
267.52	1557.94
267.752	1561.94
267.984	1550.94
268.216	1622.94
268.448	1691.94
268.681	1647.94
268.913	1534.94
269.145	1437.94
269.377	1409.94
269.609	1487.94
269.841	1745.94
270.073	2015.94
270.306	2249.94
270.538	2440.94
270.77	2076.94
271.002	1701.94
271.234	1652.94
271.466	1629.94
271.698	1826.94
271.93	2254.94
272.162	2250.94
272.394	2013.94
272.626	1919.94
272.858	1665.94
273.09	1480.94
273.322	1441.94
273.553	1381.94
273.785	1397.94
274.017	1457.94
274.249	1619.94
274.481	1607.94
274.713	1466.94
274.945	1421.94
275.176	1422.94
275.408	1415.94
275.64	1386.94
275.872	1356.94
276.104	1425.94
276.335	1642.94
276.567	1888.94
276.799	1886.94
277.031	1723.94
277.262	1610.94
277.494	1637.94
277.726	1775.94
277.957	1880.94
278.189	1711.94
278.421	1554.94
278.652	1475.94
278.884	1518.94
279.115	1492.94
279.347	1507.94
279.579	1445.94
279.81	1482.94
280.042	1583.94
280.273	1749.94
280.505	1753.94
280.736	1811.94
280.968	1729.94
281.199	1494.94
281.431	1419.94
281.662	1422.94
281.894	1440.94
282.125	1471.94
282.356	1547.94
282.588	1575.94
282.819	1480.94
283.051	1627.94
283.282	1785.94
283.513	1749.94
283.745	1470.94
283.976	1401.94
284.207	1407.94
284.439	1444.94
284.67	1486.94
284.901	1531.94
285.132	1589.94
285.364	1518.94
285.595	1522.94
285.826	1539.94
286.057	1484.94
286.288	1466.94
286.52	1556.94
286.751	1658.94
286.982	1741.94
287.213	1634.94
287.444	1423.94
287.675	1439.94
287.906	1542.94
288.138	1589.94
288.369	1561.94
288.6	1541.94
288.831	1469.94
289.062	1465.94
289.293	1501.94
289.524	1496.94
289.755	1534.94
289.986	1551.94
290.217	1416.94
290.448	1485.94
290.679	1499.94
290.91	1511.94
291.141	1585.94
291.371	1640.94
291.602	1611.94
291.833	1592.94
292.064	1613.94
292.295	1618.94
292.526	1673.94
292.757	1742.94
292.987	1634.94
293.218	1521.94
293.449	1644.94
293.68	1862.94
293.91	2043.94
294.141	1861.94
294.372	1754.94
294.603	1797.94
294.833	1896.94
295.064	1801.94
295.295	1690.94
295.525	1589.94
295.756	1460.94
295.987	1389.94
296.217	1476.94
296.448	1519.94
296.679	1513.94
296.909	1507.94
297.14	1506.94
297.37	1511.94
297.601	1598.94
297.831	1705.94
298.062	1762.94
298.292	1564.94
298.523	1497.94
298.753	1517.94
298.984	1530.94
299.214	1518.94
299.445	1563.94
299.675	1603.94
299.905	1593.94
300.136	1564.94
300.366	1534.94
300.597	1469.94
300.827	1455.94
301.057	1535.94
301.288	1615.94
301.518	1590.94
301.748	1622.94
301.979	1730.94
302.209	1741.94
302.439	1801.94
302.669	1975.94
302.9	1843.94
303.13	1641.94
303.36	1605.94
303.59	1650.94
303.82	1640.94
304.051	1623.94
304.281	1654.94
304.511	1633.94
304.741	1709.94
304.971	1877.94
305.201	2090.94
305.431	1933.94
305.661	1591.94
305.891	1442.94
306.121	1402.94
306.352	1508.94
306.582	1562.94
306.812	1695.94
307.042	1848.94
307.272	1799.94
307.502	1846.94
307.731	2014.94
307.961	2160.94
308.191	1975.94
308.421	1732.94
308.651	1577.94
308.881	1595.94
309.111	1593.94
309.341	1513.94
309.571	1559.94
309.8	1577.94
310.03	1566.94
310.26	1555.94
310.49	1564.94
310.72	1586.94
310.949	1684.94
311.179	1684.94
311.409	1675.94
311.639	1610.94
311.868	1573.94
312.098	1598.94
312.328	1569.94
312.557	1571.94
312.787	1601.94
313.017	1713.94
313.246	1637.94
313.476	1632.94
313.706	1688.94
313.935	1691.94
314.165	1666.94
314.394	1711.94
314.624	1794.94
314.853	1915.94
315.083	1983.94
315.312	2070.94
315.542	1949.94
315.771	1679.94
316.001	1662.94
316.23	1757.94
316.46	1810.94
316.689	1745.94
316.919	1688.94
317.148	1596.94
317.377	1610.94
317.607	1761.94
317.836	1927.94
318.065	2017.94
318.295	1957.94
318.524	1888.94
318.753	1762.94
318.983	1762.94
319.212	1734.94
319.441	1684.94
319.67	1674.94
319.9	1743.94
320.129	1807.94
320.358	1898.94
320.587	1958.94
320.816	1917.94
321.046	1837.94
321.275	1750.94
321.504	1802.94
321.733	1961.94
321.962	1914.94
322.191	1727.94
322.42	1722.94
322.649	1677.94
322.878	1700.94
323.108	1717.94
323.337	1795.94
323.566	1786.94
323.795	1750.94
324.024	1789.94
324.253	1733.94
324.482	1765.94
324.71	1743.94
324.939	1607.94
325.168	1673.94
325.397	1722.94
325.626	1816.94
325.855	1801.94
326.084	1689.94
326.313	1726.94
326.542	1729.94
326.77	1777.94
326.999	1832.94
327.228	1728.94
327.457	1637.94
327.686	1628.94
327.914	1672.94
328.143	1742.94
328.372	1729.94
328.6	1742.94
328.829	1729.94
329.058	1685.94
329.287	1703.94
329.515	1722.94
329.744	1753.94
329.972	1848.94
330.201	1927.94
330.43	1853.94
330.658	1847.94
330.887	1838.94
331.115	1872.94
331.344	1813.94
331.572	1795.94
331.801	1828.94
332.03	1784.94
332.258	1808.94
332.486	1831.94
332.715	1873.94
332.943	1877.94
333.172	1778.94
333.4	1856.94
333.629	1877.94
333.857	1973.94
334.085	2207.94
334.314	2422.94
334.542	2735.94
334.771	2529.94
334.999	2237.94
335.227	2063.94
335.455	1966.94
335.684	1929.94
335.912	1993.94
336.14	2072.94
336.369	2004.94
336.597	1857.94
336.825	1811.94
337.053	1938.94
337.281	1976.94
337.51	2094.94
337.738	2173.94
337.966	2083.94
338.194	1872.94
338.422	1869.94
338.65	1806.94
338.878	1815.94
339.106	1722.94
339.334	1731.94
339.562	1675.94
339.79	1741.94
340.018	1825.94
340.246	1939.94
340.474	1942.94
340.702	1901.94
340.93	1887.94
341.158	1873.94
341.386	1836.94
341.614	1828.94
341.842	1760.94
342.07	1794.94
342.298	1808.94
342.526	1823.94
342.754	1773.94
342.981	1768.94
343.209	1790.94
343.437	1783.94
343.665	1781.94
343.893	1841.94
344.12	1962.94
344.348	1925.94
344.576	1894.94
344.804	1758.94
345.031	1776.94
345.259	1821.94
345.487	1781.94
345.714	1687.94
345.942	1664.94
346.17	1637.94
346.397	1704.94
346.625	1745.94
346.853	1608.94
347.08	1609.94
347.308	1571.94
347.535	1649.94
347.763	1730.94
347.99	1683.94
348.218	1634.94
348.445	1626.94
348.673	1625.94
348.9	1711.94
349.128	1737.94
349.355	1797.94
349.583	1736.94
349.81	1673.94
350.037	1557.94
350.265	1539.94
350.492	1606.94
350.72	1611.94
350.947	1687.94
351.174	1761.94
351.402	1618.94
351.629	1571.94
351.856	1548.94
352.083	1539.94
352.311	1531.94
352.538	1559.94
352.765	1687.94
352.992	1701.94
353.22	1676.94
353.447	1584.94
353.674	1612.94
353.901	1682.94
354.128	1616.94
354.355	1586.94
354.583	1682.94
354.81	1726.94
355.037	1716.94
355.264	1693.94
355.491	1673.94
355.718	1687.94
355.945	1649.94
356.172	1605.94
356.399	1591.94
356.626	1598.94
356.853	1639.94
357.08	1779.94
357.307	2005.94
357.534	1971.94
357.761	1747.94
357.988	1590.94
358.215	1543.94
358.441	1616.94
358.668	1533.94
358.895	1583.94
359.122	1693.94
359.349	1855.94
359.576	1865.94
359.802	1669.94
360.029	1574.94
360.256	1562.94
360.483	1598.94
360.709	1604.94
360.936	1731.94
361.163	1768.94
361.39	1924.94
361.616	2088.94
361.843	2022.94
362.07	1907.94
362.296	1666.94
362.523	1592.94
362.749	1610.94
362.976	1663.94
363.203	1664.94
363.429	1623.94
363.656	1551.94
363.882	1641.94
364.109	1767.94
364.335	1977.94
364.562	1841.94
364.788	1752.94
365.015	1649.94
365.241	1615.94
365.468	1615.94
365.694	1715.94
365.92	1751.94
366.147	1742.94
366.373	1593.94
366.599	1600.94
366.826	1545.94
367.052	1611.94
367.278	1598.94
367.505	1624.94
367.731	1686.94
367.957	1723.94
368.184	1706.94
368.41	1824.94
368.636	1812.94
368.862	1848.94
369.089	1889.94
369.315	1786.94
369.541	1743.94
369.767	1703.94
369.993	1663.94
370.219	1605.94
370.445	1635.94
370.672	1725.94
370.898	1866.94
371.124	1839.94
371.35	1723.94
371.576	1746.94
371.802	1830.94
372.028	1763.94
372.254	1729.94
372.48	1659.94
372.706	1636.94
372.932	1664.94
373.158	1669.94
373.384	1702.94
373.61	1755.94
373.835	1854.94
374.061	1713.94
374.287	1733.94
374.513	1728.94
374.739	1727.94
374.965	1744.94
375.191	1754.94
375.416	1762.94
375.642	1783.94
375.868	1865.94
376.094	1887.94
376.319	1866.94
376.545	1733.94
376.771	1747.94
376.997	1832.94
377.222	1840.94
377.448	1797.94
377.674	1823.94
377.899	1800.94
378.125	1884.94
378.35	1897.94
378.576	1720.94
378.802	1695.94
379.027	1674.94
379.253	1677.94
379.478	1706.94
379.704	1710.94
379.929	1697.94
380.155	1749.94
380.38	1754.94
380.606	1773.94
380.831	1764.94
381.057	1838.94
381.282	1891.94
381.507	1786.94
381.733	1881.94
381.958	1969.94
382.184	1831.94
382.409	1760.94
382.634	1803.94
382.86	1806.94
383.085	1757.94
383.31	1811.94
383.535	1971.94
383.761	2082.94
383.986	2015.94
384.211	1945.94
384.436	1951.94
384.662	1984.94
384.887	2053.94
385.112	1975.94
385.337	1978.94
385.562	1978.94
385.787	1985.94
386.013	2024.94
386.238	2045.94
386.463	1998.94
386.688	2142.94
386.913	2271.94
387.138	2180.94
387.363	2037.94
387.588	2032.94
387.813	2036.94
388.038	1995.94
388.263	2130.94
388.488	2079.94
388.713	1826.94
388.938	1881.94
389.163	1895.94
389.387	1940.94
389.612	1894.94
389.837	1978.94
390.062	1961.94
390.287	1975.94
390.512	1927.94
390.736	1896.94
390.961	1858.94
391.186	1853.94
391.411	1880.94
391.636	1956.94
391.86	1958.94
392.085	1951.94
392.31	1915.94
392.534	1995.94
392.759	1995.94
392.984	1921.94
393.208	2005.94
393.433	2054.94
393.658	2148.94
393.882	2121.94
394.107	2001.94
394.331	1955.94
394.556	1988.94
394.78	1958.94
395.005	2012.94
395.229	2098.94
395.454	2282.94
395.678	2297.94
395.903	2161.94
396.127	2084.94
396.352	2125.94
396.576	2168.94
396.801	2163.94
397.025	2160.94
397.249	2178.94
397.474	2169.94
397.698	2106.94
397.922	2142.94
398.147	2246.94
398.371	2367.94
398.595	2353.94
398.82	2213.94
399.044	2289.94
399.268	2410.94
399.492	2535.94
399.717	2631.94
399.941	2666.94
400.165	2568.94
400.389	2513.94
400.613	2462.94
400.837	2662.94
401.062	3140.94
401.286	2672.94
401.51	2349.94
401.734	2544.94
401.958	2487.94
402.182	2327.94
402.406	2197.94
402.63	2232.94
402.854	2196.94
403.078	2245.94
403.302	2283.94
403.526	2346.94
403.75	2359.94
403.974	2389.94
404.198	2321.94
404.422	2375.94
404.645	2512.94
404.869	2441.94
405.093	2300.94
405.317	2247.94
405.541	2381.94
405.765	2349.94
405.988	2319.94
406.212	2390.94
406.436	2443.94
406.66	2497.94
406.883	2474.94
407.107	2800.94
407.331	3073.94
407.555	3251.94
407.778	3010.94
408.002	2500.94
408.226	2400.94
408.449	2461.94
408.673	2394.94
408.896	2390.94
409.12	2446.94
409.344	2375.94
409.567	2305.94
409.791	2346.94
410.014	2378.94
410.238	2477.94
410.461	2616.94
410.685	2374.94
410.908	2253.94
411.132	2330.94
411.355	2317.94
411.578	2269.94
411.802	2318.94
412.025	2355.94
412.249	2246.94
412.472	2193.94
412.695	2223.94
412.919	2193.94
413.142	2181.94
413.365	2238.94
413.589	2281.94
413.812	2346.94
414.035	2465.94
414.258	2255.94
414.482	2237.94
414.705	2235.94
414.928	2207.94
415.151	2209.94
415.374	2233.94
415.597	2266.94
415.821	2265.94
416.044	2333.94
416.267	2387.94
416.49	2182.94
416.713	2129.94
416.936	2184.94
417.159	2262.94
417.382	2330.94
417.605	2182.94
417.828	2218.94
418.051	2273.94
418.274	2233.94
418.497	2151.94
418.72	2166.94
418.943	2149.94
419.166	2299.94
419.389	2400.94
419.611	2233.94
419.834	2231.94
420.057	2293.94
420.28	2166.94
420.503	2144.94
420.726	2194.94
420.948	2196.94
421.171	2091.94
421.394	2146.94
421.617	2269.94
421.839	2224.94
422.062	2200.94
422.285	2146.94
422.507	2117.94
422.73	2102.94
422.953	2056.94
423.175	2044.94
423.398	2141.94
423.621	2158.94
423.843	2109.94
424.066	2155.94
424.288	2250.94
424.511	2292.94
424.733	2260.94
424.956	2073.94
425.178	2013.94
425.401	2075.94
425.623	2081.94
425.846	2070.94
426.068	2205.94
426.291	2252.94
426.513	2202.94
426.735	2205.94
426.958	2311.94
427.18	2495.94
427.402	2237.94
427.625	2282.94
427.847	2367.94
428.069	2191.94
428.292	2080.94
428.514	2031.94
428.736	2063.94
428.958	2071.94
429.181	2102.94
429.403	2319.94
429.625	2927.94
429.847	2527.94
430.069	2116.94
430.292	2326.94
430.514	2447.94
430.736	2247.94
430.958	2329.94
431.18	2239.94
431.402	2073.94
431.624	2073.94
431.846	2073.94
432.068	2017.94
432.29	2063.94
432.512	2098.94
432.734	2133.94
432.956	2138.94
433.178	2250.94
433.4	2215.94
433.622	2206.94
433.844	2122.94
434.066	2057.94
434.287	2036.94
434.509	2117.94
434.731	2251.94
434.953	2392.94
435.175	2336.94
435.397	2213.94
435.618	2231.94
435.84	2208.94
436.062	2158.94
436.284	2180.94
436.505	2205.94
436.727	2210.94
436.949	2134.94
437.17	2143.94
437.392	2097.94
437.614	2067.94
437.835	2023.94
438.057	2181.94
438.278	2246.94
438.5	2157.94
438.721	2073.94
438.943	2080.94
439.165	2061.94
439.386	2014.94
439.608	2025.94
439.829	2063.94
440.05	2080.94
440.272	2049.94
440.493	2015.94
440.715	2063.94
440.936	2198.94
441.158	2403.94
441.379	2355.94
441.6	2323.94
441.822	2272.94
442.043	2212.94
442.264	2150.94
442.486	2072.94
442.707	2068.94
442.928	2047.94
443.149	2144.94
443.371	2254.94
443.592	2330.94
443.813	2299.94
444.034	2212.94
444.255	2243.94
444.476	2324.94
444.698	2369.94
444.919	2351.94
445.14	2409.94
445.361	2423.94
445.582	2452.94
445.803	2377.94
446.024	2245.94
446.245	2370.94
446.466	2282.94
446.687	2190.94
446.908	2161.94
447.129	2094.94
447.35	2181.94
447.571	2158.94
447.792	2075.94
448.013	2025.94
448.234	2079.94
448.455	2165.94
448.675	2151.94
448.896	2019.94
449.117	1951.94
449.338	2029.94
449.559	2084.94
449.779	2243.94
450	2468.94
450.221	2627.94
450.442	2560.94
450.662	2277.94
450.883	1984.94
451.104	1915.94
451.324	2001.94
451.545	2054.94
451.766	2039.94
451.986	1970.94
452.207	1958.94
452.428	1905.94
452.648	1842.94
452.869	1880.94
453.089	2034.94
453.31	2012.94
453.53	2114.94
453.751	1999.94
453.971	1871.94
454.192	1960.94
454.412	2087.94
454.633	2040.94
454.853	1975.94
455.073	1845.94
455.294	1800.94
455.514	1795.94
455.734	1803.94
455.955	1874.94
456.175	1898.94
456.395	1874.94
456.616	1914.94
456.836	1958.94
457.056	1909.94
457.276	1917.94
457.497	1845.94
457.717	1792.94
457.937	1876.94
458.157	1859.94
458.377	1892.94
458.598	1823.94
458.818	1859.94
459.038	1984.94
459.258	2082.94
459.478	2075.94
459.698	2045.94
459.918	2057.94
460.138	2151.94
460.358	2207.94
460.578	2259.94
460.798	2290.94
461.018	2440.94
461.238	2310.94
461.458	2196.94
461.678	2248.94
461.898	2181.94
462.118	2110.94
462.338	2260.94
462.558	2209.94
462.777	2177.94
462.997	2285.94
463.217	2471.94
463.437	2437.94
463.657	2223.94
463.876	2250.94
464.096	2218.94
464.316	2185.94
464.536	2289.94
464.755	2330.94
464.975	2314.94
465.195	2251.94
465.414	2329.94
465.634	2362.94
465.854	2181.94
466.073	2385.94
466.293	2286.94
466.512	2035.94
466.732	2018.94
466.951	2170.94
467.171	2112.94
467.391	2041.94
467.61	1950.94
467.829	2017.94
468.049	2109.94
468.268	2455.94
468.488	2287.94
468.707	2109.94
468.927	2087.94
469.146	2045.94
469.365	2006.94
469.585	2066.94
469.804	2022.94
470.023	2035.94
470.243	2085.94
470.462	2050.94
470.681	1934.94
470.901	2033.94
471.12	1994.94
471.339	2002.94
471.558	1977.94
471.777	1948.94
471.997	1968.94
472.216	1991.94
472.435	1912.94
472.654	1954.94
472.873	2024.94
473.092	2205.94
473.311	2109.94
473.53	1954.94
473.749	1941.94
473.968	1990.94
474.187	2127.94
474.406	2203.94
474.625	2058.94
474.844	2077.94
475.063	2040.94
475.282	2119.94
475.501	2069.94
475.72	2027.94
475.939	2161.94
476.158	2091.94
476.377	2065.94
476.596	2068.94
476.814	2117.94
477.033	2130.94
477.252	2226.94
477.471	2248.94
477.69	2159.94
477.908	2151.94
478.127	2254.94
478.346	2448.94
478.564	2491.94
478.783	2403.94
479.002	2468.94
479.22	2399.94
479.439	2468.94
479.658	2806.94
479.876	2843.94
480.095	2496.94
480.313	2378.94
480.532	2193.94
480.751	2269.94
480.969	2325.94
481.188	2279.94
481.406	2305.94
481.624	2229.94
481.843	2255.94
482.061	2278.94
482.28	2317.94
482.498	2362.94
482.717	2411.94
482.935	2245.94
483.153	2265.94
483.372	2258.94
483.59	2265.94
483.808	2244.94
484.027	2323.94
484.245	2481.94
484.463	2819.94
484.681	3311.94
484.9	2491.94
485.118	2298.94
485.336	2305.94
485.554	2344.94
485.772	2505.94
485.99	2434.94
486.209	2466.94
486.427	2423.94
486.645	2452.94
486.863	2422.94
487.081	2436.94
487.299	2509.94
487.517	2474.94
487.735	2362.94
487.953	2311.94
488.171	2331.94
488.389	2327.94
488.607	2350.94
488.825	2591.94
489.043	2587.94
489.261	2359.94
489.479	2485.94
489.696	2496.94
489.914	2519.94
490.132	2433.94
490.35	2367.94
490.568	2480.94
490.786	2437.94
491.003	2334.94
491.221	2397.94
491.439	2429.94
491.657	2461.94
491.874	2495.94
492.092	2484.94
492.31	2462.94
492.527	2435.94
492.745	2449.94
492.963	2357.94
493.18	2540.94
493.398	2737.94
493.615	2757.94
493.833	2514.94
494.05	2437.94
494.268	2461.94
494.485	2501.94
494.703	2486.94
494.92	2410.94
495.138	2405.94
495.355	2469.94
495.573	2566.94
495.79	2690.94
496.008	2806.94
496.225	2536.94
496.442	2545.94
496.66	2628.94
496.877	2605.94
497.094	2774.94
497.312	2734.94
497.529	2646.94
497.746	2728.94
497.963	3193.94
498.181	3601.94
498.398	3365.94
498.615	3267.94
498.832	3182.94
499.049	3148.94
499.267	3151.94
499.484	3386.94
499.701	3663.94
499.918	3655.94
500.135	3944.94
500.352	4212.94
500.569	4205.94
500.786	4401.94
501.003	4167.94
501.22	3736.94
501.437	3690.94
501.654	3633.94
501.871	3541.94
502.088	3141.94
502.305	3111.94
502.522	3014.94
502.739	2827.94
502.956	2724.94
503.172	2722.94
503.389	2656.94
503.606	2607.94
503.823	2620.94
504.04	2609.94
504.256	2572.94
504.473	2674.94
504.69	2707.94
504.907	2608.94
505.123	2425.94
505.34	2584.94
505.557	3293.94
505.773	2857.94
505.99	2349.94
506.207	2288.94
506.423	2190.94
506.64	2233.94
506.856	2186.94
507.073	2575.94
507.289	2749.94
507.506	2628.94
507.722	2261.94
507.939	2146.94
508.155	2170.94
508.372	2171.94
508.588	2110.94
508.805	2034.94
509.021	2013.94
509.238	2025.94
509.454	1992.94
509.67	2014.94
509.887	2015.94
510.103	2007.94
510.319	2029.94
510.536	2159.94
510.752	2202.94
510.968	2173.94
511.184	2333.94
511.401	2305.94
511.617	2010.94
511.833	1972.94
512.049	1961.94
512.265	1939.94
512.481	1964.94
512.698	2041.94
512.914	2184.94
513.13	2100.94
513.346	2004.94
513.562	1912.94
513.778	1985.94
513.994	2065.94
514.21	2152.94
514.426	2138.94
514.642	2445.94
514.858	2251.94
515.074	2090.94
515.29	1992.94
515.506	2069.94
515.721	2101.94
515.937	2127.94
516.153	2440.94
516.369	2308.94
516.585	2142.94
516.801	2066.94
517.016	2023.94
517.232	2109.94
517.448	2171.94
517.664	2189.94
517.879	2167.94
518.095	2334.94
518.311	2213.94
518.527	2057.94
518.742	2053.94
518.958	1947.94
519.173	1986.94
519.389	1977.94
519.605	2046.94
519.82	2082.94
520.036	2047.94
520.251	1976.94
520.467	2031.94
520.682	2150.94
520.898	2292.94
521.113	2031.94
521.329	1973.94
521.544	2101.94
521.76	2041.94
521.975	1906.94
522.19	1937.94
522.406	1905.94
522.621	2245.94
522.836	2321.94
523.052	1896.94
523.267	1895.94
523.482	1893.94
523.698	1826.94
523.913	1775.94
524.128	1813.94
524.343	1938.94
524.559	1965.94
524.774	1837.94
524.989	1813.94
525.204	1798.94
525.419	1766.94
525.634	1763.94
525.849	1782.94
526.064	1823.94
526.28	1853.94
526.495	1752.94
526.71	1721.94
526.925	1693.94
527.14	1771.94
527.355	1698.94
527.57	1665.94
527.785	1733.94
527.999	1724.94
528.214	1665.94
528.429	1690.94
528.644	1677.94
528.859	1692.94
529.074	1701.94
529.289	1698.94
529.503	1767.94
529.718	1763.94
529.933	1709.94
530.148	1679.94
530.363	1666.94
530.577	1733.94
530.792	1732.94
531.007	1729.94
531.221	1693.94
531.436	1728.94
531.651	1827.94
531.865	1883.94
532.08	1791.94
532.295	1688.94
532.509	1620.94
532.724	1663.94
532.938	1706.94
533.153	1876.94
533.367	1810.94
533.582	1709.94
533.796	1669.94
534.011	1727.94
534.225	1722.94
534.44	1701.94
534.654	1679.94
534.868	1655.94
535.083	1723.94
535.297	1792.94
535.511	1691.94
535.726	1666.94
535.94	1666.94
536.154	1681.94
536.369	1641.94
536.583	1645.94
536.797	1610.94
537.011	1661.94
537.225	1615.94
537.44	1593.94
537.654	1653.94
537.868	1637.94
538.082	1581.94
538.296	1527.94
538.51	1559.94
538.724	1528.94
538.938	1534.94
539.153	1610.94
539.367	1585.94
539.581	1591.94
539.795	1679.94
540.009	1633.94
540.222	1634.94
540.436	1662.94
540.65	1810.94
540.864	1803.94
541.078	1723.94
541.292	1552.94
541.506	1629.94
541.72	1576.94
541.934	1631.94
542.147	1656.94
542.361	1569.94
542.575	1533.94
542.789	1514.94
543.002	1488.94
543.216	1546.94
543.43	1643.94
543.644	1671.94
543.857	1731.94
544.071	1658.94
544.285	1625.94
544.498	1585.94
544.712	1603.94
544.925	1598.94
545.139	1635.94
545.352	1556.94
545.566	1482.94
545.779	1487.94
545.993	1557.94
546.206	1545.94
546.42	1528.94
546.633	1503.94
546.847	1475.94
547.06	1488.94
547.274	1496.94
547.487	1488.94
547.7	1484.94
547.914	1517.94
548.127	1532.94
548.34	1567.94
548.554	1537.94
548.767	1528.94
548.98	1498.94
549.193	1535.94
549.407	1567.94
549.62	1604.94
549.833	1526.94
550.046	1522.94
550.259	1531.94
550.473	1482.94
550.686	1518.94
550.899	1435.94
551.112	1441.94
551.325	1424.94
551.538	1545.94
551.751	1798.94
551.964	1466.94
552.177	1418.94
552.39	1460.94
552.603	1463.94
552.816	1471.94
553.029	1551.94
553.242	1598.94
553.455	1513.94
553.667	1514.94
553.88	1503.94
554.093	1487.94
554.306	1402.94
554.519	1411.94
554.732	1384.94
554.944	1419.94
555.157	1437.94
555.37	1405.94
555.583	1388.94
555.795	1364.94
556.008	1341.94
556.221	1330.94
556.433	1262.94
556.646	1272.94
556.859	1295.94
557.071	1307.94
557.284	1243.94
557.496	1293.94
557.709	1249.94
557.921	1243.94
558.134	1218.94
558.346	1243.94
558.559	1262.94
558.771	1247.94
558.984	1187.94
559.196	1185.94
559.409	1181.94
559.621	1209.94
559.833	1220.94
560.046	1304.94
560.258	1264.94
560.47	1236.94
560.683	1257.94
560.895	1251.94
561.107	1241.94
561.32	1245.94
561.532	1264.94
561.744	1229.94
561.956	1229.94
562.168	1226.94
562.381	1179.94
562.593	1184.94
562.805	1177.94
563.017	1161.94
563.229	1201.94
563.441	1248.94
563.653	1185.94
563.865	1182.94
564.077	1203.94
564.289	1210.94
564.501	1239.94
564.713	1239.94
564.925	1281.94
565.137	1373.94
565.349	1299.94
565.561	1275.94
565.773	1281.94
565.985	1325.94
566.197	1355.94
566.408	1453.94
566.62	1431.94
566.832	1457.94
567.044	1474.94
567.255	1413.94
567.467	1478.94
567.679	1545.94
567.891	1563.94
568.102	1495.94
568.314	1437.94
568.526	1383.94
568.737	1346.94
568.949	1277.94
569.161	1246.94
569.372	1185.94
569.584	1177.94
569.795	1182.94
570.007	1144.94
570.218	1112.94
570.43	1089.94
570.641	1080.94
570.853	1110.94
571.064	1102.94
571.276	1081.94
571.487	1081.94
571.698	1022.94
571.91	1032.94
572.121	1010.94
572.333	1006.94
572.544	1023.94
572.755	970.94
572.966	963.94
573.178	954.94
573.389	954.94
573.6	1012.94
573.811	1101.94
574.023	1009.94
574.234	966.94
574.445	935.94
574.656	899.94
574.867	894.94
575.078	930.94
575.289	937.94
575.501	905.94
575.712	885.94
575.923	930.94
576.134	910.94
576.345	904.94
576.556	893.94
576.767	866.94
576.978	893.94
577.188	867.94
577.399	865.94
577.61	868.94
577.821	839.94
578.032	839.94
578.243	827.94
578.454	833.94
578.665	850.94
578.875	820.94
579.086	813.94
579.297	837.94
579.508	838.94
579.718	853.94
579.929	839.94
580.14	827.94
580.35	798.94
580.561	824.94
580.772	894.94
580.982	841.94
581.193	817.94
581.403	777.94
581.614	774.94
581.825	793.94
582.035	777.94
582.246	779.94
582.456	799.94
582.667	795.94
582.877	769.94
583.087	813.94
583.298	796.94
583.508	803.94
583.719	769.94
583.929	777.94
584.139	783.94
584.35	747.94
584.56	735.94
584.77	749.94
584.981	769.94
585.191	754.94
585.401	806.94
585.611	762.94
585.821	786.94
586.032	735.94
586.242	741.94
586.452	727.94
586.662	774.94
586.872	747.94
587.082	720.94
587.292	779.94
587.502	769.94
587.713	763.94
587.923	751.94
588.133	741.94
588.343	765.94
588.553	726.94
588.762	707.94
588.972	722.94
589.182	753.94
589.392	733.94
589.602	763.94
589.812	752.94
590.022	725.94
590.232	707.94
590.441	735.94
590.651	749.94
590.861	733.94
591.071	719.94
591.281	708.94
591.49	750.94
591.7	724.94
591.91	738.94
592.119	716.94
592.329	746.94
592.539	762.94
592.748	743.94
592.958	767.94
593.167	791.94
593.377	768.94
593.587	770.94
593.796	767.94
594.006	780.94
594.215	760.94
594.424	759.94
594.634	751.94
594.843	740.94
595.053	758.94
595.262	705.94
595.472	722.94
595.681	727.94
595.89	721.94
596.1	695.94
596.309	686.94
596.518	663.94
596.727	678.94
596.937	666.94
597.146	666.94
597.355	631.94
597.564	665.94
597.774	627.94
597.983	656.94
598.192	616.94
598.401	635.94
598.61	633.94
598.819	613.94
599.028	629.94
599.237	646.94
599.446	618.94
599.655	579.94
599.864	624.94
600.073	611.94
600.282	600.94
600.491	601.94
600.7	614.94
600.909	588.94
601.118	609.94
601.327	615.94
601.536	599.94
601.745	583.94
601.953	593.94
602.162	594.94
602.371	605.94
602.58	609.94
602.789	563.94
602.997	598.94
603.206	587.94
603.415	557.94
603.623	581.94
603.832	569.94
604.041	574.94
604.249	546.94
604.458	573.94
604.666	580.94
604.875	578.94
605.084	574.94
605.292	592.94
605.501	580.94
605.709	541.94
605.918	565.94
606.126	538.94
606.334	535.94
606.543	566.94
606.751	554.94
606.96	562.94
607.168	557.94
607.376	535.94
607.585	551.94
607.793	532.94
608.001	561.94
608.21	566.94
608.418	537.94
608.626	554.94
608.834	536.94
609.043	552.94
609.251	543.94
609.459	541.94
609.667	560.94
609.875	523.94
610.083	581.94
610.291	565.94
610.499	550.94
610.707	535.94
610.916	503.94
611.124	555.94
611.332	541.94
611.54	538.94
611.748	531.94
611.955	513.94
612.163	511.94
612.371	506.94
612.579	496.94
612.787	507.94
612.995	514.94
613.203	525.94
613.411	521.94
613.618	523.94
613.826	536.94
614.034	510.94
614.242	523.94
614.449	501.94
614.657	529.94
614.865	517.94
615.072	499.94
615.28	498.94
615.488	521.94
615.695	538.94
615.903	521.94
616.111	531.94
616.318	513.94
616.526	525.94
616.733	519.94
616.941	506.94
617.148	510.94
617.356	477.94
617.563	505.94
617.771	502.94
617.978	487.94
618.185	499.94
618.393	484.94
618.6	487.94
618.807	496.94
619.015	478.94
619.222	493.94
619.429	485.94
619.637	487.94
619.844	493.94
620.051	469.94
620.258	470.94
620.466	456.94
620.673	465.94
620.88	455.94
621.087	433.94
621.294	453.94
621.501	463.94
621.708	450.94
621.915	467.94
622.122	454.94
622.329	475.94
622.536	466.94
622.743	445.94
622.95	468.94
623.157	452.94
623.364	442.94
623.571	431.94
623.778	456.94
623.985	464.94
624.192	462.94
624.399	446.94
624.606	443.94
624.812	440.94
625.019	440.94
625.226	432.94
625.433	449.94
625.639	420.94
625.846	423.94
626.053	416.94
626.259	400.94
626.466	426.94
626.673	403.94
626.879	415.94
627.086	420.94
627.293	411.94
627.499	429.94
627.706	416.94
627.912	407.94
628.119	399.94
628.325	418.94
628.532	393.94
628.738	417.94
628.945	396.94
629.151	402.94
629.357	404.94
629.564	402.94
629.77	398.94
629.976	382.94
630.183	383.94
630.389	408.94
630.595	405.94
630.802	385.94
631.008	382.94
631.214	393.94
631.42	375.94
631.627	361.94
631.833	365.94
632.039	377.94
632.245	374.94
632.451	380.94
632.657	374.94
632.863	382.94
633.069	371.94
633.275	373.94
633.481	355.94
633.688	369.94
633.893	362.94
634.099	345.94
634.305	360.94
634.511	361.94
634.717	361.94
634.923	353.94
635.129	337.94
635.335	351.94
635.541	343.94
635.747	358.94
635.952	353.94
636.158	357.94
636.364	359.94
636.57	350.94
636.775	350.94
636.981	343.94
637.187	341.94
637.392	340.94
637.598	331.94
637.804	335.94
638.009	347.94
638.215	345.94
638.421	327.94
638.626	333.94
638.832	341.94
639.037	345.94
639.243	318.94
639.448	320.94
639.654	322.94
639.859	338.94
640.065	343.94
640.27	321.94
640.475	330.94
640.681	321.94
640.886	337.94
641.091	327.94
641.297	352.94
641.502	346.94
641.707	330.94
641.913	319.94
642.118	323.94
642.323	343.94
642.528	315.94
642.733	322.94
642.939	310.94
643.144	314.94
643.349	311.94
643.554	329.94
643.759	314.94
643.964	315.94
644.169	315.94
644.374	302.94
644.579	315.94
644.784	332.94
644.989	317.94
645.194	304.94
645.399	317.94
645.604	298.94
645.809	327.94
646.014	334.94
646.219	294.94
646.423	305.94
646.628	310.94
646.833	315.94
647.038	317.94
647.243	309.94
647.447	308.94
647.652	309.94
647.857	299.94
648.062	313.94
648.266	321.94
648.471	322.94
648.676	318.94
648.88	337.94
649.085	309.94
649.289	334.94
649.494	313.94
649.698	316.94
649.903	295.94
650.107	300.94
650.312	317.94
650.516	278.94
650.721	275.94
650.925	270.94
651.13	291.94
651.334	311.94
651.539	284.94
651.743	267.94
651.947	285.94
652.152	263.94
652.356	263.94
652.56	262.94
652.764	278.94
652.969	254.94
653.173	263.94
653.377	265.94
653.581	229.94
653.785	255.94
653.99	243.94
654.194	232.94
654.398	229.94
654.602	254.94
654.806	230.94
655.01	243.94
655.214	224.94
655.418	233.94
655.622	261.94
655.826	242.94
656.03	244.94
656.234	254.94
656.438	243.94
656.642	248.94
656.846	255.94
657.049	241.94
657.253	209.94
657.457	218.94
657.661	201.94
657.865	185.94
658.068	154.94
658.272	171.94
658.476	175.94
658.68	159.94
658.883	157.94
659.087	134.94
659.291	123.94
659.494	142.94
659.698	136.94
659.901	126.94
660.105	122.94
660.309	113.94
660.512	111.94
660.716	103.94
660.919	101.94
661.123	121.94
661.326	90.94
661.53	95.94
661.733	98.94
661.936	105.94
662.14	98.94
662.343	97.94
662.546	99.94
662.75	97.94
662.953	109.94
663.156	105.94
663.36	91.94
663.563	68.94
663.766	81.94
663.969	78.94
664.173	69.94
664.376	68.94
664.579	88.94
664.782	92.94
664.985	73.94
665.188	61.94
665.391	71.94
665.594	92.94
665.797	87.94
666	66.94
666.203	70.94
666.406	84.94
666.609	56.94
666.812	90.94
667.015	75.94
667.218	78.94
667.421	78.94
667.624	77.94
667.827	74.94
668.03	79.94
668.232	76.94
668.435	84.94
668.638	80.94
668.841	85.94
669.043	83.94
669.246	76.94
669.449	93.94
669.651	81.94
669.854	81.94
670.057	69.94
670.259	79.94
670.462	79.94
670.665	80.94
670.867	80.94
671.07	83.94
671.272	87.94
671.475	88.94
671.677	85.94
671.88	73.94
672.082	79.94
672.284	85.94
672.487	73.94
672.689	61.94
672.892	78.94
