Data from WStandard_LampEnergy8_LIBS07252019.E.O._I.C._HRD10591_15-59-23-929.txt Node
Date: Thu Jul 25 15:59:23 EDT 2019
User: cochatt
Spectrometer: HR+D1059
Trigger mode: 1
Integration Time (sec): 1.000000E-1
Scans to average: 1
Electric dark correction enabled: true
Nonlinearity correction enabled: false
Boxcar width: 0
XAxis mode: Wavelengths
Number of Pixels in Spectrum: 2048
>>>>>Begin Spectral Data<<<<<
223.165	-22.56
223.4	-22.56
223.635	-22.56
223.869	-19.56
224.104	-23.56
224.338	-20.56
224.573	-7.56
224.808	-21.56
225.042	-3.56
225.277	-1.56
225.511	4.44
225.746	8.44
225.98	1.44
226.215	14.44
226.449	18.44
226.683	29.44
226.918	24.44
227.152	19.44
227.387	43.44
227.621	45.44
227.856	51.44
228.09	54.44
228.324	74.44
228.559	64.44
228.793	103.44
229.027	223.44
229.262	205.44
229.496	232.44
229.73	226.44
229.964	258.44
230.199	259.44
230.433	281.44
230.667	269.44
230.901	276.44
231.136	292.44
231.37	248.44
231.604	252.44
231.838	277.44
232.072	255.44
232.306	262.44
232.541	283.44
232.775	308.44
233.009	338.44
233.243	317.44
233.477	294.44
233.711	316.44
233.945	308.44
234.179	324.44
234.413	309.44
234.647	342.44
234.881	326.44
235.115	295.44
235.349	314.44
235.583	308.44
235.817	292.44
236.051	286.44
236.285	282.44
236.519	331.44
236.753	376.44
236.987	348.44
237.221	355.44
237.455	391.44
237.689	374.44
237.922	347.44
238.156	334.44
238.39	345.44
238.624	360.44
238.858	394.44
239.091	392.44
239.325	453.44
239.559	477.44
239.793	487.44
240.027	518.44
240.26	512.44
240.494	402.44
240.728	376.44
240.961	373.44
241.195	386.44
241.429	427.44
241.662	401.44
241.896	406.44
242.13	404.44
242.363	438.44
242.597	471.44
242.83	467.44
243.064	448.44
243.298	482.44
243.531	478.44
243.765	460.44
243.998	440.44
244.232	415.44
244.465	394.44
244.699	440.44
244.932	470.44
245.166	506.44
245.399	500.44
245.633	440.44
245.866	445.44
246.099	458.44
246.333	480.44
246.566	495.44
246.8	513.44
247.033	558.44
247.266	545.44
247.5	521.44
247.733	546.44
247.966	572.44
248.2	626.44
248.433	592.44
248.666	636.44
248.899	676.44
249.133	752.44
249.366	816.44
249.599	677.44
249.832	603.44
250.066	622.44
250.299	640.44
250.532	603.44
250.765	540.44
250.998	570.44
251.231	604.44
251.465	588.44
251.698	588.44
251.931	583.44
252.164	593.44
252.397	604.44
252.63	629.44
252.863	555.44
253.096	548.44
253.329	575.44
253.562	579.44
253.795	629.44
254.028	611.44
254.261	586.44
254.494	577.44
254.727	557.44
254.96	585.44
255.193	644.44
255.426	733.44
255.659	796.44
255.892	776.44
256.124	671.44
256.357	673.44
256.59	699.44
256.823	709.44
257.056	704.44
257.289	809.44
257.521	901.44
257.754	813.44
257.987	782.44
258.22	836.44
258.452	814.44
258.685	674.44
258.918	660.44
259.151	659.44
259.383	646.44
259.616	593.44
259.849	617.44
260.081	708.44
260.314	790.44
260.547	824.44
260.779	821.44
261.012	766.44
261.244	713.44
261.477	666.44
261.71	699.44
261.942	681.44
262.175	686.44
262.407	715.44
262.64	656.44
262.872	627.44
263.105	630.44
263.337	644.44
263.57	652.44
263.802	647.44
264.035	619.44
264.267	572.44
264.499	565.44
264.732	643.44
264.964	662.44
265.197	681.44
265.429	718.44
265.661	800.44
265.894	845.44
266.126	851.44
266.358	784.44
266.591	804.44
266.823	847.44
267.055	786.44
267.287	783.44
267.52	785.44
267.752	772.44
267.984	775.44
268.216	797.44
268.448	811.44
268.681	804.44
268.913	729.44
269.145	728.44
269.377	722.44
269.609	791.44
269.841	869.44
270.073	1008.44
270.306	1103.44
270.538	1128.44
270.77	935.44
271.002	865.44
271.234	805.44
271.466	818.44
271.698	932.44
271.93	1061.44
272.162	1055.44
272.394	950.44
272.626	903.44
272.858	803.44
273.09	717.44
273.322	719.44
273.553	677.44
273.785	709.44
274.017	739.44
274.249	746.44
274.481	756.44
274.713	745.44
274.945	717.44
275.176	726.44
275.408	693.44
275.64	696.44
275.872	709.44
276.104	752.44
276.335	826.44
276.567	924.44
276.799	920.44
277.031	823.44
277.262	816.44
277.494	834.44
277.726	916.44
277.957	866.44
278.189	803.44
278.421	758.44
278.652	747.44
278.884	735.44
279.115	729.44
279.347	735.44
279.579	733.44
279.81	718.44
280.042	797.44
280.273	875.44
280.505	894.44
280.736	884.44
280.968	814.44
281.199	738.44
281.431	715.44
281.662	726.44
281.894	725.44
282.125	769.44
282.356	782.44
282.588	764.44
282.819	784.44
283.051	840.44
283.282	905.44
283.513	843.44
283.745	772.44
283.976	680.44
284.207	736.44
284.439	760.44
284.67	753.44
284.901	782.44
285.132	769.44
285.364	758.44
285.595	757.44
285.826	775.44
286.057	778.44
286.288	750.44
286.52	794.44
286.751	838.44
286.982	870.44
287.213	804.44
287.444	744.44
287.675	729.44
287.906	796.44
288.138	841.44
288.369	805.44
288.6	759.44
288.831	751.44
289.062	740.44
289.293	773.44
289.524	764.44
289.755	754.44
289.986	761.44
290.217	730.44
290.448	753.44
290.679	778.44
290.91	811.44
291.141	830.44
291.371	814.44
291.602	811.44
291.833	808.44
292.064	820.44
292.295	843.44
292.526	856.44
292.757	867.44
292.987	836.44
293.218	806.44
293.449	890.44
293.68	937.44
293.91	1017.44
294.141	960.44
294.372	893.44
294.603	940.44
294.833	951.44
295.064	920.44
295.295	838.44
295.525	816.44
295.756	776.44
295.987	761.44
296.217	764.44
296.448	747.44
296.679	791.44
296.909	796.44
297.14	804.44
297.37	784.44
297.601	845.44
297.831	876.44
298.062	847.44
298.292	822.44
298.523	766.44
298.753	794.44
298.984	802.44
299.214	840.44
299.445	832.44
299.675	840.44
299.905	825.44
300.136	797.44
300.366	805.44
300.597	774.44
300.827	801.44
301.057	834.44
301.288	879.44
301.518	861.44
301.748	882.44
301.979	928.44
302.209	931.44
302.439	1002.44
302.669	1011.44
302.9	936.44
303.13	842.44
303.36	873.44
303.59	902.44
303.82	851.44
304.051	869.44
304.281	894.44
304.511	848.44
304.741	910.44
304.971	1003.44
305.201	1074.44
305.431	967.44
305.661	801.44
305.891	747.44
306.121	766.44
306.352	832.44
306.582	854.44
306.812	889.44
307.042	948.44
307.272	955.44
307.502	981.44
307.731	1080.44
307.961	1077.44
308.191	980.44
308.421	876.44
308.651	851.44
308.881	819.44
309.111	824.44
309.341	843.44
309.571	839.44
309.8	833.44
310.03	812.44
310.26	828.44
310.49	838.44
310.72	846.44
310.949	885.44
311.179	892.44
311.409	849.44
311.639	844.44
311.868	845.44
312.098	841.44
312.328	865.44
312.557	853.44
312.787	852.44
313.017	894.44
313.246	870.44
313.476	854.44
313.706	887.44
313.935	906.44
314.165	925.44
314.394	926.44
314.624	993.44
314.853	1034.44
315.083	1045.44
315.312	1052.44
315.542	980.44
315.771	902.44
316.001	909.44
316.23	965.44
316.46	978.44
316.689	950.44
316.919	889.44
317.148	851.44
317.377	898.44
317.607	968.44
317.836	1056.44
318.065	1090.44
318.295	1046.44
318.524	1016.44
318.753	977.44
318.983	941.44
319.212	964.44
319.441	925.44
319.67	920.44
319.9	947.44
320.129	968.44
320.358	1033.44
320.587	1065.44
320.816	1026.44
321.046	998.44
321.275	972.44
321.504	1014.44
321.733	1056.44
321.962	982.44
322.191	966.44
322.42	916.44
322.649	909.44
322.878	908.44
323.108	921.44
323.337	960.44
323.566	968.44
323.795	978.44
324.024	946.44
324.253	925.44
324.482	970.44
324.71	906.44
324.939	883.44
325.168	916.44
325.397	956.44
325.626	986.44
325.855	964.44
326.084	936.44
326.313	926.44
326.542	933.44
326.77	968.44
326.999	983.44
327.228	912.44
327.457	889.44
327.686	894.44
327.914	932.44
328.143	948.44
328.372	933.44
328.6	924.44
328.829	915.44
329.058	925.44
329.287	918.44
329.515	966.44
329.744	963.44
329.972	1009.44
330.201	1070.44
330.43	1017.44
330.658	969.44
330.887	1002.44
331.115	1012.44
331.344	992.44
331.572	994.44
331.801	994.44
332.03	982.44
332.258	1017.44
332.486	1029.44
332.715	1035.44
332.943	1000.44
333.172	993.44
333.4	1018.44
333.629	1050.44
333.857	1121.44
334.085	1255.44
334.314	1403.44
334.542	1419.44
334.771	1321.44
334.999	1182.44
335.227	1102.44
335.455	1064.44
335.684	1019.44
335.912	1092.44
336.14	1114.44
336.369	1060.44
336.597	989.44
336.825	1004.44
337.053	1042.44
337.281	1109.44
337.51	1161.44
337.738	1191.44
337.966	1100.44
338.194	1009.44
338.422	990.44
338.65	984.44
338.878	951.44
339.106	954.44
339.334	955.44
339.562	940.44
339.79	967.44
340.018	1010.44
340.246	1044.44
340.474	1036.44
340.702	1042.44
340.93	1041.44
341.158	1007.44
341.386	1008.44
341.614	986.44
341.842	983.44
342.07	977.44
342.298	991.44
342.526	979.44
342.754	961.44
342.981	974.44
343.209	962.44
343.437	993.44
343.665	990.44
343.893	999.44
344.12	1058.44
344.348	1048.44
344.576	1013.44
344.804	995.44
345.031	976.44
345.259	968.44
345.487	947.44
345.714	898.44
345.942	908.44
346.17	925.44
346.397	935.44
346.625	966.44
346.853	890.44
347.08	902.44
347.308	901.44
347.535	926.44
347.763	924.44
347.99	909.44
348.218	891.44
348.445	905.44
348.673	902.44
348.9	926.44
349.128	960.44
349.355	1004.44
349.583	1009.44
349.81	939.44
350.037	849.44
350.265	877.44
350.492	918.44
350.72	906.44
350.947	949.44
351.174	955.44
351.402	908.44
351.629	889.44
351.856	856.44
352.083	873.44
352.311	866.44
352.538	897.44
352.765	929.44
352.992	973.44
353.22	925.44
353.447	899.44
353.674	917.44
353.901	951.44
354.128	887.44
354.355	910.44
354.583	989.44
354.81	969.44
355.037	938.44
355.264	953.44
355.491	945.44
355.718	922.44
355.945	911.44
356.172	905.44
356.399	884.44
356.626	922.44
356.853	987.44
357.08	1021.44
357.307	1103.44
357.534	1046.44
357.761	945.44
357.988	892.44
358.215	861.44
358.441	904.44
358.668	886.44
358.895	916.44
359.122	988.44
359.349	1057.44
359.576	980.44
359.802	918.44
360.029	877.44
360.256	891.44
360.483	930.44
360.709	934.44
360.936	969.44
361.163	1020.44
361.39	1095.44
361.616	1176.44
361.843	1156.44
362.07	1102.44
362.296	912.44
362.523	920.44
362.749	949.44
362.976	952.44
363.203	957.44
363.429	917.44
363.656	920.44
363.882	957.44
364.109	1068.44
364.335	1116.44
364.562	1041.44
364.788	946.44
365.015	920.44
365.241	901.44
365.468	950.44
365.694	971.44
365.92	1001.44
366.147	978.44
366.373	893.44
366.599	904.44
366.826	888.44
367.052	922.44
367.278	911.44
367.505	957.44
367.731	939.44
367.957	967.44
368.184	996.44
368.41	1087.44
368.636	1049.44
368.862	1038.44
369.089	1054.44
369.315	988.44
369.541	969.44
369.767	944.44
369.993	926.44
370.219	922.44
370.445	950.44
370.672	1027.44
370.898	1093.44
371.124	1065.44
371.35	993.44
371.576	1042.44
371.802	1021.44
372.028	1037.44
372.254	959.44
372.48	920.44
372.706	909.44
372.932	956.44
373.158	940.44
373.384	988.44
373.61	1002.44
373.835	1052.44
374.061	990.44
374.287	1000.44
374.513	1001.44
374.739	1016.44
374.965	1022.44
375.191	1033.44
375.416	1021.44
375.642	1010.44
375.868	1128.44
376.094	1114.44
376.319	1054.44
376.545	1050.44
376.771	1060.44
376.997	1096.44
377.222	1061.44
377.448	1009.44
377.674	1084.44
377.899	1068.44
378.125	1126.44
378.35	1083.44
378.576	990.44
378.802	970.44
379.027	966.44
379.253	1004.44
379.478	989.44
379.704	971.44
379.929	1035.44
380.155	1042.44
380.38	1019.44
380.606	1006.44
380.831	990.44
381.057	1039.44
381.282	1076.44
381.507	1060.44
381.733	1132.44
381.958	1146.44
382.184	1046.44
382.409	1032.44
382.634	1056.44
382.86	1067.44
383.085	1011.44
383.31	1088.44
383.535	1168.44
383.761	1236.44
383.986	1171.44
384.211	1109.44
384.436	1107.44
384.662	1176.44
384.887	1180.44
385.112	1140.44
385.337	1159.44
385.562	1152.44
385.787	1133.44
386.013	1166.44
386.238	1141.44
386.463	1158.44
386.688	1274.44
386.913	1328.44
387.138	1225.44
387.363	1183.44
387.588	1173.44
387.813	1131.44
388.038	1181.44
388.263	1225.44
388.488	1170.44
388.713	1097.44
388.938	1094.44
389.163	1084.44
389.387	1121.44
389.612	1114.44
389.837	1155.44
390.062	1138.44
390.287	1130.44
390.512	1141.44
390.736	1124.44
390.961	1107.44
391.186	1083.44
391.411	1096.44
391.636	1097.44
391.86	1133.44
392.085	1109.44
392.31	1142.44
392.534	1108.44
392.759	1172.44
392.984	1155.44
393.208	1151.44
393.433	1210.44
393.658	1184.44
393.882	1201.44
394.107	1142.44
394.331	1131.44
394.556	1147.44
394.78	1159.44
395.005	1191.44
395.229	1228.44
395.454	1326.44
395.678	1291.44
395.903	1236.44
396.127	1180.44
396.352	1224.44
396.576	1244.44
396.801	1246.44
397.025	1245.44
397.249	1225.44
397.474	1245.44
397.698	1217.44
397.922	1291.44
398.147	1361.44
398.371	1362.44
398.595	1365.44
398.82	1295.44
399.044	1356.44
399.268	1386.44
399.492	1442.44
399.717	1508.44
399.941	1511.44
400.165	1451.44
400.389	1448.44
400.613	1435.44
400.837	1652.44
401.062	1830.44
401.286	1552.44
401.51	1458.44
401.734	1500.44
401.958	1432.44
402.182	1338.44
402.406	1308.44
402.63	1278.44
402.854	1288.44
403.078	1338.44
403.302	1342.44
403.526	1373.44
403.75	1354.44
403.974	1376.44
404.198	1351.44
404.422	1432.44
404.645	1478.44
404.869	1452.44
405.093	1344.44
405.317	1296.44
405.541	1344.44
405.765	1359.44
405.988	1368.44
406.212	1365.44
406.436	1380.44
406.66	1446.44
406.883	1492.44
407.107	1727.44
407.331	1804.44
407.555	1893.44
407.778	1725.44
408.002	1460.44
408.226	1408.44
408.449	1398.44
408.673	1379.44
408.896	1417.44
409.12	1400.44
409.344	1383.44
409.567	1354.44
409.791	1371.44
410.014	1354.44
410.238	1489.44
410.461	1536.44
410.685	1410.44
410.908	1329.44
411.132	1339.44
411.355	1358.44
411.578	1314.44
411.802	1366.44
412.025	1334.44
412.249	1329.44
412.472	1307.44
412.695	1300.44
412.919	1309.44
413.142	1306.44
413.365	1354.44
413.589	1361.44
413.812	1410.44
414.035	1436.44
414.258	1330.44
414.482	1286.44
414.705	1334.44
414.928	1300.44
415.151	1329.44
415.374	1292.44
415.597	1340.44
415.821	1329.44
416.044	1374.44
416.267	1371.44
416.49	1286.44
416.713	1265.44
416.936	1331.44
417.159	1358.44
417.382	1381.44
417.605	1320.44
417.828	1365.44
418.051	1364.44
418.274	1306.44
418.497	1292.44
418.72	1267.44
418.943	1282.44
419.166	1334.44
419.389	1403.44
419.611	1286.44
419.834	1312.44
420.057	1324.44
420.28	1290.44
420.503	1315.44
420.726	1351.44
420.948	1322.44
421.171	1255.44
421.394	1275.44
421.617	1338.44
421.839	1285.44
422.062	1306.44
422.285	1259.44
422.507	1292.44
422.73	1275.44
422.953	1219.44
423.175	1218.44
423.398	1264.44
423.621	1249.44
423.843	1280.44
424.066	1329.44
424.288	1419.44
424.511	1388.44
424.733	1389.44
424.956	1261.44
425.178	1206.44
425.401	1261.44
425.623	1280.44
425.846	1268.44
426.068	1336.44
426.291	1353.44
426.513	1305.44
426.735	1329.44
426.958	1443.44
427.18	1480.44
427.402	1367.44
427.625	1445.44
427.847	1384.44
428.069	1282.44
428.292	1269.44
428.514	1234.44
428.736	1211.44
428.958	1236.44
429.181	1293.44
429.403	1515.44
429.625	1714.44
429.847	1457.44
430.069	1304.44
430.292	1466.44
430.514	1453.44
430.736	1376.44
430.958	1360.44
431.18	1283.44
431.402	1261.44
431.624	1200.44
431.846	1185.44
432.068	1108.44
432.29	1166.44
432.512	1206.44
432.734	1250.44
432.956	1292.44
433.178	1345.44
433.4	1320.44
433.622	1304.44
433.844	1253.44
434.066	1183.44
434.287	1195.44
434.509	1201.44
434.731	1288.44
434.953	1362.44
435.175	1336.44
435.397	1275.44
435.618	1264.44
435.84	1235.44
436.062	1225.44
436.284	1286.44
436.505	1285.44
436.727	1316.44
436.949	1275.44
437.17	1252.44
437.392	1229.44
437.614	1198.44
437.835	1192.44
438.057	1245.44
438.278	1251.44
438.5	1228.44
438.721	1228.44
438.943	1265.44
439.165	1253.44
439.386	1236.44
439.608	1231.44
439.829	1260.44
440.05	1276.44
440.272	1264.44
440.493	1270.44
440.715	1266.44
440.936	1334.44
441.158	1429.44
441.379	1408.44
441.6	1374.44
441.822	1382.44
442.043	1368.44
442.264	1305.44
442.486	1269.44
442.707	1273.44
442.928	1247.44
443.149	1282.44
443.371	1361.44
443.592	1410.44
443.813	1381.44
444.034	1382.44
444.255	1363.44
444.476	1375.44
444.698	1452.44
444.919	1409.44
445.14	1480.44
445.361	1445.44
445.582	1441.44
445.803	1413.44
446.024	1367.44
446.245	1444.44
446.466	1360.44
446.687	1326.44
446.908	1351.44
447.129	1269.44
447.35	1316.44
447.571	1312.44
447.792	1279.44
448.013	1245.44
448.234	1273.44
448.455	1314.44
448.675	1317.44
448.896	1208.44
449.117	1196.44
449.338	1247.44
449.559	1266.44
449.779	1339.44
450	1443.44
450.221	1498.44
450.442	1433.44
450.662	1264.44
450.883	1206.44
451.104	1168.44
451.324	1193.44
451.545	1204.44
451.766	1210.44
451.986	1132.44
452.207	1130.44
452.428	1087.44
452.648	1091.44
452.869	1109.44
453.089	1174.44
453.31	1138.44
453.53	1166.44
453.751	1143.44
453.971	1056.44
454.192	1102.44
454.412	1139.44
454.633	1158.44
454.853	1129.44
455.073	1062.44
455.294	1092.44
455.514	1082.44
455.734	1090.44
455.955	1091.44
456.175	1072.44
456.395	1084.44
456.616	1094.44
456.836	1114.44
457.056	1088.44
457.276	1096.44
457.497	1063.44
457.717	1029.44
457.937	1058.44
458.157	1047.44
458.377	1054.44
458.598	1024.44
458.818	1052.44
459.038	1126.44
459.258	1154.44
459.478	1150.44
459.698	1094.44
459.918	1159.44
460.138	1197.44
460.358	1264.44
460.578	1259.44
460.798	1290.44
461.018	1370.44
461.238	1305.44
461.458	1242.44
461.678	1232.44
461.898	1204.44
462.118	1210.44
462.338	1277.44
462.558	1277.44
462.777	1269.44
462.997	1331.44
463.217	1396.44
463.437	1358.44
463.657	1260.44
463.876	1266.44
464.096	1256.44
464.316	1257.44
464.536	1310.44
464.755	1309.44
464.975	1345.44
465.195	1300.44
465.414	1322.44
465.634	1324.44
465.854	1288.44
466.073	1404.44
466.293	1381.44
466.512	1232.44
466.732	1216.44
466.951	1257.44
467.171	1235.44
467.391	1213.44
467.61	1221.44
467.829	1209.44
468.049	1323.44
468.268	1442.44
468.488	1351.44
468.707	1290.44
468.927	1259.44
469.146	1206.44
469.365	1205.44
469.585	1225.44
469.804	1225.44
470.023	1230.44
470.243	1286.44
470.462	1259.44
470.681	1210.44
470.901	1246.44
471.12	1233.44
471.339	1240.44
471.558	1206.44
471.777	1200.44
471.997	1204.44
472.216	1161.44
472.435	1136.44
472.654	1137.44
472.873	1153.44
473.092	1232.44
473.311	1182.44
473.53	1139.44
473.749	1157.44
473.968	1180.44
474.187	1224.44
474.406	1237.44
474.625	1221.44
474.844	1213.44
475.063	1212.44
475.282	1222.44
475.501	1190.44
475.72	1207.44
475.939	1307.44
476.158	1238.44
476.377	1224.44
476.596	1246.44
476.814	1195.44
477.033	1227.44
477.252	1260.44
477.471	1324.44
477.69	1293.44
477.908	1304.44
478.127	1302.44
478.346	1409.44
478.564	1404.44
478.783	1383.44
479.002	1451.44
479.22	1423.44
479.439	1485.44
479.658	1614.44
479.876	1550.44
480.095	1381.44
480.313	1353.44
480.532	1285.44
480.751	1311.44
480.969	1292.44
481.188	1260.44
481.406	1240.44
481.624	1228.44
481.843	1260.44
482.061	1302.44
482.28	1349.44
482.498	1358.44
482.717	1299.44
482.935	1278.44
483.153	1355.44
483.372	1365.44
483.59	1388.44
483.808	1348.44
484.027	1397.44
484.245	1472.44
484.463	1735.44
484.681	1936.44
484.9	1473.44
485.118	1388.44
485.336	1346.44
485.554	1402.44
485.772	1404.44
485.99	1351.44
486.209	1367.44
486.427	1363.44
486.645	1413.44
486.863	1434.44
487.081	1442.44
487.299	1473.44
487.517	1419.44
487.735	1447.44
487.953	1520.44
488.171	1492.44
488.389	1484.44
488.607	1472.44
488.825	1642.44
489.043	1546.44
489.261	1395.44
489.479	1462.44
489.696	1508.44
489.914	1474.44
490.132	1454.44
490.35	1473.44
490.568	1538.44
490.786	1505.44
491.003	1505.44
491.221	1560.44
491.439	1563.44
491.657	1557.44
491.874	1612.44
492.092	1658.44
492.31	1689.44
492.527	1673.44
492.745	1590.44
492.963	1593.44
493.18	1609.44
493.398	1717.44
493.615	1693.44
493.833	1626.44
494.05	1569.44
494.268	1574.44
494.485	1561.44
494.703	1592.44
494.92	1518.44
495.138	1558.44
495.355	1565.44
495.573	1609.44
495.79	1705.44
496.008	1679.44
496.225	1592.44
496.442	1606.44
496.66	1662.44
496.877	1598.44
497.094	1632.44
497.312	1656.44
497.529	1633.44
497.746	1639.44
497.963	1824.44
498.181	1959.44
498.398	1921.44
498.615	1834.44
498.832	1765.44
499.049	1780.44
499.267	1792.44
499.484	1883.44
499.701	2058.44
499.918	2085.44
500.135	2201.44
500.352	2348.44
500.569	2384.44
500.786	2559.44
501.003	2340.44
501.22	2116.44
501.437	2076.44
501.654	2099.44
501.871	1987.44
502.088	1760.44
502.305	1781.44
502.522	1656.44
502.739	1628.44
502.956	1590.44
503.172	1527.44
503.389	1523.44
503.606	1493.44
503.823	1487.44
504.04	1486.44
504.256	1510.44
504.473	1483.44
504.69	1564.44
504.907	1446.44
505.123	1422.44
505.34	1598.44
505.557	2032.44
505.773	1626.44
505.99	1361.44
506.207	1294.44
506.423	1321.44
506.64	1314.44
506.856	1342.44
507.073	1524.44
507.289	1584.44
507.506	1482.44
507.722	1303.44
507.939	1244.44
508.155	1241.44
508.372	1250.44
508.588	1196.44
508.805	1184.44
509.021	1185.44
509.238	1169.44
509.454	1178.44
509.67	1154.44
509.887	1141.44
510.103	1123.44
510.319	1149.44
510.536	1192.44
510.752	1211.44
510.968	1221.44
511.184	1306.44
511.401	1256.44
511.617	1125.44
511.833	1118.44
512.049	1106.44
512.265	1144.44
512.481	1142.44
512.698	1174.44
512.914	1189.44
513.13	1129.44
513.346	1126.44
513.562	1091.44
513.778	1122.44
513.994	1184.44
514.21	1177.44
514.426	1194.44
514.642	1350.44
514.858	1258.44
515.074	1140.44
515.29	1116.44
515.506	1197.44
515.721	1175.44
515.937	1210.44
516.153	1303.44
516.369	1249.44
516.585	1178.44
516.801	1146.44
517.016	1168.44
517.232	1207.44
517.448	1228.44
517.664	1209.44
517.879	1230.44
518.095	1300.44
518.311	1230.44
518.527	1183.44
518.742	1166.44
518.958	1132.44
519.173	1128.44
519.389	1154.44
519.605	1210.44
519.82	1169.44
520.036	1193.44
520.251	1138.44
520.467	1176.44
520.682	1250.44
520.898	1257.44
521.113	1142.44
521.329	1131.44
521.544	1204.44
521.76	1146.44
521.975	1088.44
522.19	1097.44
522.406	1121.44
522.621	1401.44
522.836	1334.44
523.052	1101.44
523.267	1097.44
523.482	1088.44
523.698	1066.44
523.913	1069.44
524.128	1096.44
524.343	1133.44
524.559	1201.44
524.774	1119.44
524.989	1091.44
525.204	1087.44
525.419	1067.44
525.634	1078.44
525.849	1076.44
526.064	1068.44
526.28	1084.44
526.495	1024.44
526.71	1003.44
526.925	1000.44
527.14	992.44
527.355	1004.44
527.57	977.44
527.785	1012.44
527.999	994.44
528.214	1008.44
528.429	992.44
528.644	1050.44
528.859	1060.44
529.074	1108.44
529.289	1107.44
529.503	1111.44
529.718	1076.44
529.933	1030.44
530.148	967.44
530.363	982.44
530.577	991.44
530.792	966.44
531.007	974.44
531.221	956.44
531.436	998.44
531.651	1030.44
531.865	1056.44
532.08	1000.44
532.295	957.44
532.509	939.44
532.724	948.44
532.938	1022.44
533.153	1041.44
533.367	1052.44
533.582	1028.44
533.796	1028.44
534.011	1018.44
534.225	998.44
534.44	972.44
534.654	977.44
534.868	976.44
535.083	1053.44
535.297	1050.44
535.511	1025.44
535.726	989.44
535.94	1002.44
536.154	981.44
536.369	985.44
536.583	960.44
536.797	962.44
537.011	971.44
537.225	931.44
537.44	926.44
537.654	956.44
537.868	931.44
538.082	904.44
538.296	923.44
538.51	933.44
538.724	945.44
538.938	972.44
539.153	1005.44
539.367	986.44
539.581	973.44
539.795	981.44
540.009	976.44
540.222	941.44
540.436	1001.44
540.65	1072.44
540.864	1105.44
541.078	1079.44
541.292	1038.44
541.506	1090.44
541.72	1084.44
541.934	1140.44
542.147	1188.44
542.361	1130.44
542.575	1067.44
542.789	1038.44
543.002	966.44
543.216	1000.44
543.43	1015.44
543.644	1065.44
543.857	1111.44
544.071	1109.44
544.285	1102.44
544.498	1080.44
544.712	1090.44
544.925	1155.44
545.139	1133.44
545.352	1078.44
545.566	1079.44
545.779	1060.44
545.993	1113.44
546.206	1112.44
546.42	1091.44
546.633	1067.44
546.847	1068.44
547.06	1056.44
547.274	1081.44
547.487	1109.44
547.7	1108.44
547.914	1130.44
548.127	1082.44
548.34	1075.44
548.554	1054.44
548.767	1085.44
548.98	1053.44
549.193	1067.44
549.407	1142.44
549.62	1118.44
549.833	1060.44
550.046	1032.44
550.259	1048.44
550.473	1034.44
550.686	1051.44
550.899	1004.44
551.112	1003.44
551.325	966.44
551.538	1068.44
551.751	1167.44
551.964	934.44
552.177	961.44
552.39	985.44
552.603	1004.44
552.816	1039.44
553.029	1054.44
553.242	1082.44
553.455	1066.44
553.667	1045.44
553.88	1033.44
554.093	1014.44
554.306	1022.44
554.519	955.44
554.732	948.44
554.944	979.44
555.157	988.44
555.37	977.44
555.583	966.44
555.795	944.44
556.008	904.44
556.221	869.44
556.433	856.44
556.646	880.44
556.859	877.44
557.071	857.44
557.284	890.44
557.496	872.44
557.709	871.44
557.921	854.44
558.134	868.44
558.346	866.44
558.559	872.44
558.771	875.44
558.984	827.44
559.196	806.44
559.409	802.44
559.621	797.44
559.833	812.44
560.046	831.44
560.258	834.44
560.47	841.44
560.683	822.44
560.895	827.44
561.107	813.44
561.32	846.44
561.532	822.44
561.744	837.44
561.956	841.44
562.168	811.44
562.381	780.44
562.593	764.44
562.805	800.44
563.017	780.44
563.229	796.44
563.441	796.44
563.653	777.44
563.865	772.44
564.077	754.44
564.289	786.44
564.501	783.44
564.713	818.44
564.925	828.44
565.137	898.44
565.349	776.44
565.561	808.44
565.773	829.44
565.985	830.44
566.197	854.44
566.408	912.44
566.62	907.44
566.832	896.44
567.044	916.44
567.255	916.44
567.467	877.44
567.679	914.44
567.891	933.44
568.102	871.44
568.314	860.44
568.526	805.44
568.737	788.44
568.949	746.44
569.161	699.44
569.372	680.44
569.584	679.44
569.795	727.44
570.007	669.44
570.218	646.44
570.43	626.44
570.641	653.44
570.853	672.44
571.064	670.44
571.276	673.44
571.487	648.44
571.698	654.44
571.91	635.44
572.121	626.44
572.333	613.44
572.544	616.44
572.755	584.44
572.966	595.44
573.178	576.44
573.389	602.44
573.6	610.44
573.811	645.44
574.023	603.44
574.234	583.44
574.445	567.44
574.656	552.44
574.867	573.44
575.078	592.44
575.289	582.44
575.501	549.44
575.712	539.44
575.923	568.44
576.134	566.44
576.345	578.44
576.556	543.44
576.767	541.44
576.978	549.44
577.188	540.44
577.399	543.44
577.61	539.44
577.821	514.44
578.032	526.44
578.243	518.44
578.454	519.44
578.665	501.44
578.875	486.44
579.086	508.44
579.297	500.44
579.508	533.44
579.718	501.44
579.929	518.44
580.14	501.44
580.35	483.44
580.561	519.44
580.772	572.44
580.982	526.44
581.193	485.44
581.403	482.44
581.614	502.44
581.825	472.44
582.035	471.44
582.246	470.44
582.456	482.44
582.667	483.44
582.877	469.44
583.087	484.44
583.298	450.44
583.508	463.44
583.719	474.44
583.929	481.44
584.139	493.44
584.35	466.44
584.56	430.44
584.77	475.44
584.981	466.44
585.191	506.44
585.401	480.44
585.611	462.44
585.821	449.44
586.032	467.44
586.242	460.44
586.452	422.44
586.662	483.44
586.872	434.44
587.082	454.44
587.292	440.44
587.502	453.44
587.713	456.44
587.923	472.44
588.133	473.44
588.343	459.44
588.553	458.44
588.762	460.44
588.972	456.44
589.182	468.44
589.392	473.44
589.602	455.44
589.812	439.44
590.022	432.44
590.232	437.44
590.441	450.44
590.651	460.44
590.861	432.44
591.071	436.44
591.281	438.44
591.49	446.44
591.7	429.44
591.91	448.44
592.119	442.44
592.329	448.44
592.539	437.44
592.748	447.44
592.958	456.44
593.167	459.44
593.377	465.44
593.587	472.44
593.796	456.44
594.006	475.44
594.215	481.44
594.424	473.44
594.634	465.44
594.843	468.44
595.053	472.44
595.262	460.44
595.472	453.44
595.681	467.44
595.89	435.44
596.1	445.44
596.309	424.44
596.518	432.44
596.727	446.44
596.937	436.44
597.146	397.44
597.355	420.44
597.564	408.44
597.774	417.44
597.983	404.44
598.192	388.44
598.401	388.44
598.61	377.44
598.819	390.44
599.028	408.44
599.237	391.44
599.446	402.44
599.655	384.44
599.864	385.44
600.073	388.44
600.282	389.44
600.491	395.44
600.7	400.44
600.909	382.44
601.118	374.44
601.327	410.44
601.536	422.44
601.745	413.44
601.953	425.44
602.162	417.44
602.371	432.44
602.58	415.44
602.789	411.44
602.997	402.44
603.206	427.44
603.415	388.44
603.623	393.44
603.832	420.44
604.041	400.44
604.249	402.44
604.458	376.44
604.666	396.44
604.875	365.44
605.084	371.44
605.292	423.44
605.501	388.44
605.709	394.44
605.918	404.44
606.126	408.44
606.334	410.44
606.543	410.44
606.751	411.44
606.96	414.44
607.168	425.44
607.376	371.44
607.585	412.44
607.793	405.44
608.001	405.44
608.21	401.44
608.418	424.44
608.626	390.44
608.834	402.44
609.043	422.44
609.251	417.44
609.459	394.44
609.667	409.44
609.875	407.44
610.083	402.44
610.291	399.44
610.499	419.44
610.707	396.44
610.916	408.44
611.124	409.44
611.332	405.44
611.54	403.44
611.748	411.44
611.955	392.44
612.163	392.44
612.371	399.44
612.579	364.44
612.787	390.44
612.995	380.44
613.203	404.44
613.411	390.44
613.618	389.44
613.826	397.44
614.034	420.44
614.242	390.44
614.449	370.44
614.657	392.44
614.865	387.44
615.072	409.44
615.28	392.44
615.488	391.44
615.695	396.44
615.903	384.44
616.111	399.44
616.318	378.44
616.526	383.44
616.733	385.44
616.941	396.44
617.148	377.44
617.356	377.44
617.563	376.44
617.771	400.44
617.978	373.44
618.185	365.44
618.393	380.44
618.6	368.44
618.807	386.44
619.015	375.44
619.222	352.44
619.429	380.44
619.637	374.44
619.844	358.44
620.051	338.44
620.258	369.44
620.466	349.44
620.673	371.44
620.88	349.44
621.087	350.44
621.294	348.44
621.501	346.44
621.708	336.44
621.915	348.44
622.122	351.44
622.329	363.44
622.536	354.44
622.743	345.44
622.95	351.44
623.157	346.44
623.364	350.44
623.571	350.44
623.778	345.44
623.985	337.44
624.192	358.44
624.399	346.44
624.606	352.44
624.812	344.44
625.019	333.44
625.226	334.44
625.433	330.44
625.639	315.44
625.846	310.44
626.053	294.44
626.259	296.44
626.466	288.44
626.673	285.44
626.879	291.44
627.086	295.44
627.293	316.44
627.499	322.44
627.706	314.44
627.912	323.44
628.119	329.44
628.325	320.44
628.532	333.44
628.738	318.44
628.945	326.44
629.151	305.44
629.357	315.44
629.564	309.44
629.77	325.44
629.976	307.44
630.183	306.44
630.389	297.44
630.595	297.44
630.802	313.44
631.008	313.44
631.214	302.44
631.42	287.44
631.627	294.44
631.833	291.44
632.039	284.44
632.245	289.44
632.451	300.44
632.657	312.44
632.863	294.44
633.069	288.44
633.275	277.44
633.481	284.44
633.688	297.44
633.893	279.44
634.099	274.44
634.305	283.44
634.511	283.44
634.717	273.44
634.923	263.44
635.129	263.44
635.335	270.44
635.541	295.44
635.747	278.44
635.952	293.44
636.158	284.44
636.364	309.44
636.57	304.44
636.775	272.44
636.981	283.44
637.187	276.44
637.392	298.44
637.598	287.44
637.804	264.44
638.009	288.44
638.215	276.44
638.421	292.44
638.626	278.44
638.832	280.44
639.037	264.44
639.243	254.44
639.448	261.44
639.654	260.44
639.859	276.44
640.065	293.44
640.27	271.44
640.475	272.44
640.681	262.44
640.886	269.44
641.091	278.44
641.297	242.44
641.502	258.44
641.707	278.44
641.913	279.44
642.118	273.44
642.323	254.44
642.528	281.44
642.733	274.44
642.939	247.44
643.144	258.44
643.349	269.44
643.554	263.44
643.759	265.44
643.964	260.44
644.169	248.44
644.374	251.44
644.579	272.44
644.784	255.44
644.989	274.44
645.194	270.44
645.399	260.44
645.604	251.44
645.809	262.44
646.014	270.44
646.219	261.44
646.423	262.44
646.628	245.44
646.833	270.44
647.038	257.44
647.243	266.44
647.447	260.44
647.652	264.44
647.857	256.44
648.062	262.44
648.266	255.44
648.471	247.44
648.676	276.44
648.88	267.44
649.085	265.44
649.289	249.44
649.494	252.44
649.698	260.44
649.903	254.44
650.107	257.44
650.312	252.44
650.516	248.44
650.721	247.44
650.925	245.44
651.13	250.44
651.334	241.44
651.539	252.44
651.743	215.44
651.947	229.44
652.152	235.44
652.356	233.44
652.56	237.44
652.764	225.44
652.969	225.44
653.173	237.44
653.377	245.44
653.581	222.44
653.785	205.44
653.99	227.44
654.194	250.44
654.398	220.44
654.602	217.44
654.806	226.44
655.01	231.44
655.214	215.44
655.418	229.44
655.622	233.44
655.826	227.44
656.03	237.44
656.234	243.44
656.438	256.44
656.642	254.44
656.846	244.44
657.049	240.44
657.253	225.44
657.457	203.44
657.661	208.44
657.865	204.44
658.068	180.44
658.272	164.44
658.476	166.44
658.68	162.44
658.883	157.44
659.087	148.44
659.291	140.44
659.494	139.44
659.698	142.44
659.901	131.44
660.105	139.44
660.309	137.44
660.512	127.44
660.716	119.44
660.919	113.44
661.123	121.44
661.326	119.44
661.53	112.44
661.733	106.44
661.936	102.44
662.14	90.44
662.343	102.44
662.546	92.44
662.75	98.44
662.953	102.44
663.156	94.44
663.36	92.44
663.563	75.44
663.766	90.44
663.969	99.44
664.173	87.44
664.376	77.44
664.579	101.44
664.782	92.44
664.985	78.44
665.188	93.44
665.391	92.44
665.594	80.44
665.797	84.44
666	73.44
666.203	85.44
666.406	97.44
666.609	84.44
666.812	97.44
667.015	89.44
667.218	85.44
667.421	84.44
667.624	81.44
667.827	85.44
668.03	79.44
668.232	74.44
668.435	96.44
668.638	98.44
668.841	96.44
669.043	76.44
669.246	90.44
669.449	77.44
669.651	81.44
669.854	76.44
670.057	78.44
670.259	73.44
670.462	83.44
670.665	80.44
670.867	84.44
671.07	94.44
671.272	92.44
671.475	72.44
671.677	76.44
671.88	91.44
672.082	82.44
672.284	87.44
672.487	78.44
672.689	77.44
672.892	84.44
