Data from WStandard_LampEnergy5.5LIBS07252019.E.O._I.C._HRD10591_16-08-49-920.txt Node
Date: Thu Jul 25 16:08:49 EDT 2019
User: cochatt
Spectrometer: HR+D1059
Trigger mode: 1
Integration Time (sec): 1.000000E-1
Scans to average: 1
Electric dark correction enabled: true
Nonlinearity correction enabled: false
Boxcar width: 0
XAxis mode: Wavelengths
Number of Pixels in Spectrum: 2048
>>>>>Begin Spectral Data<<<<<
223.165	-21.56
223.4	-21.56
223.635	-21.56
223.869	-23.56
224.104	-11.56
224.338	-20.56
224.573	-4.56
224.808	-24.56
225.042	-11.56
225.277	-6.56
225.511	-11.56
225.746	15.44
225.98	12.44
226.215	14.44
226.449	15.44
226.683	21.44
226.918	27.44
227.152	29.44
227.387	38.44
227.621	48.44
227.856	50.44
228.09	47.44
228.324	46.44
228.559	55.44
228.793	152.44
229.027	334.44
229.262	354.44
229.496	384.44
229.73	372.44
229.964	414.44
230.199	459.44
230.433	456.44
230.667	494.44
230.901	488.44
231.136	472.44
231.37	436.44
231.604	430.44
231.838	437.44
232.072	451.44
232.306	443.44
232.541	458.44
232.775	503.44
233.009	610.44
233.243	572.44
233.477	518.44
233.711	523.44
233.945	555.44
234.179	523.44
234.413	580.44
234.647	605.44
234.881	573.44
235.115	527.44
235.349	539.44
235.583	561.44
235.817	529.44
236.051	515.44
236.285	539.44
236.519	551.44
236.753	636.44
236.987	664.44
237.221	640.44
237.455	711.44
237.689	692.44
237.922	644.44
238.156	631.44
238.39	639.44
238.624	664.44
238.858	694.44
239.091	738.44
239.325	783.44
239.559	890.44
239.793	929.44
240.027	1023.44
240.26	1016.44
240.494	731.44
240.728	702.44
240.961	685.44
241.195	707.44
241.429	784.44
241.662	783.44
241.896	747.44
242.13	734.44
242.363	824.44
242.597	883.44
242.83	840.44
243.064	871.44
243.298	907.44
243.531	898.44
243.765	901.44
243.998	867.44
244.232	798.44
244.465	734.44
244.699	755.44
244.932	854.44
245.166	998.44
245.399	964.44
245.633	855.44
245.866	856.44
246.099	897.44
246.333	913.44
246.566	902.44
246.8	1042.44
247.033	1124.44
247.266	1016.44
247.5	1008.44
247.733	995.44
247.966	1086.44
248.2	1162.44
248.433	1129.44
248.666	1220.44
248.899	1269.44
249.133	1475.44
249.366	1686.44
249.599	1370.44
249.832	1210.44
250.066	1220.44
250.299	1210.44
250.532	1143.44
250.765	1014.44
250.998	1086.44
251.231	1156.44
251.465	1189.44
251.698	1127.44
251.931	1096.44
252.164	1158.44
252.397	1239.44
252.63	1189.44
252.863	1067.44
253.096	1041.44
253.329	1130.44
253.562	1120.44
253.795	1236.44
254.028	1226.44
254.261	1147.44
254.494	1112.44
254.727	1078.44
254.96	1105.44
255.193	1209.44
255.426	1332.44
255.659	1546.44
255.892	1622.44
256.124	1302.44
256.357	1270.44
256.59	1358.44
256.823	1379.44
257.056	1344.44
257.289	1632.44
257.521	1849.44
257.754	1643.44
257.987	1560.44
258.22	1740.44
258.452	1717.44
258.685	1385.44
258.918	1334.44
259.151	1326.44
259.383	1250.44
259.616	1136.44
259.849	1188.44
260.081	1347.44
260.314	1527.44
260.547	1655.44
260.779	1637.44
261.012	1572.44
261.244	1400.44
261.477	1314.44
261.71	1368.44
261.942	1378.44
262.175	1318.44
262.407	1393.44
262.64	1331.44
262.872	1244.44
263.105	1188.44
263.337	1236.44
263.57	1259.44
263.802	1228.44
264.035	1199.44
264.267	1111.44
264.499	1070.44
264.732	1158.44
264.964	1235.44
265.197	1315.44
265.429	1340.44
265.661	1508.44
265.894	1690.44
266.126	1720.44
266.358	1515.44
266.591	1558.44
266.823	1741.44
267.055	1556.44
267.287	1535.44
267.52	1496.44
267.752	1508.44
267.984	1490.44
268.216	1567.44
268.448	1571.44
268.681	1527.44
268.913	1455.44
269.145	1374.44
269.377	1334.44
269.609	1432.44
269.841	1700.44
270.073	1950.44
270.306	2125.44
270.538	2331.44
270.77	1994.44
271.002	1642.44
271.234	1568.44
271.466	1572.44
271.698	1727.44
271.93	2138.44
272.162	2116.44
272.394	1942.44
272.626	1844.44
272.858	1608.44
273.09	1383.44
273.322	1376.44
273.553	1334.44
273.785	1360.44
274.017	1389.44
274.249	1508.44
274.481	1519.44
274.713	1391.44
274.945	1357.44
275.176	1341.44
275.408	1363.44
275.64	1313.44
275.872	1315.44
276.104	1395.44
276.335	1590.44
276.567	1807.44
276.799	1818.44
277.031	1621.44
277.262	1577.44
277.494	1611.44
277.726	1780.44
277.957	1743.44
278.189	1648.44
278.421	1470.44
278.652	1445.44
278.884	1435.44
279.115	1437.44
279.347	1463.44
279.579	1371.44
279.81	1440.44
280.042	1531.44
280.273	1712.44
280.505	1700.44
280.736	1726.44
280.968	1650.44
281.199	1456.44
281.431	1398.44
281.662	1365.44
281.894	1376.44
282.125	1416.44
282.356	1518.44
282.588	1479.44
282.819	1484.44
283.051	1603.44
283.282	1727.44
283.513	1691.44
283.745	1506.44
283.976	1386.44
284.207	1367.44
284.439	1417.44
284.67	1462.44
284.901	1476.44
285.132	1500.44
285.364	1458.44
285.595	1466.44
285.826	1486.44
286.057	1451.44
286.288	1446.44
286.52	1518.44
286.751	1596.44
286.982	1697.44
287.213	1567.44
287.444	1414.44
287.675	1388.44
287.906	1466.44
288.138	1572.44
288.369	1548.44
288.6	1492.44
288.831	1424.44
289.062	1424.44
289.293	1483.44
289.524	1444.44
289.755	1518.44
289.986	1494.44
290.217	1389.44
290.448	1448.44
290.679	1482.44
290.91	1457.44
291.141	1516.44
291.371	1616.44
291.602	1572.44
291.833	1513.44
292.064	1554.44
292.295	1536.44
292.526	1602.44
292.757	1685.44
292.987	1562.44
293.218	1500.44
293.449	1603.44
293.68	1813.44
293.91	1967.44
294.141	1820.44
294.372	1707.44
294.603	1812.44
294.833	1868.44
295.064	1772.44
295.295	1591.44
295.525	1544.44
295.756	1447.44
295.987	1378.44
296.217	1406.44
296.448	1456.44
296.679	1459.44
296.909	1468.44
297.14	1450.44
297.37	1461.44
297.601	1583.44
297.831	1652.44
298.062	1680.44
298.292	1559.44
298.523	1442.44
298.753	1494.44
298.984	1466.44
299.214	1526.44
299.445	1548.44
299.675	1567.44
299.905	1531.44
300.136	1547.44
300.366	1476.44
300.597	1426.44
300.827	1436.44
301.057	1449.44
301.288	1571.44
301.518	1575.44
301.748	1592.44
301.979	1706.44
302.209	1675.44
302.439	1816.44
302.669	1854.44
302.9	1786.44
303.13	1592.44
303.36	1573.44
303.59	1628.44
303.82	1566.44
304.051	1550.44
304.281	1592.44
304.511	1622.44
304.741	1645.44
304.971	1816.44
305.201	2034.44
305.431	1910.44
305.661	1559.44
305.891	1404.44
306.121	1418.44
306.352	1451.44
306.582	1519.44
306.812	1588.44
307.042	1756.44
307.272	1728.44
307.502	1829.44
307.731	1924.44
307.961	2040.44
308.191	1926.44
308.421	1692.44
308.651	1560.44
308.881	1545.44
309.111	1496.44
309.341	1496.44
309.571	1550.44
309.8	1522.44
310.03	1501.44
310.26	1526.44
310.49	1514.44
310.72	1563.44
310.949	1604.44
311.179	1624.44
311.409	1603.44
311.639	1556.44
311.868	1526.44
312.098	1535.44
312.328	1566.44
312.557	1532.44
312.787	1567.44
313.017	1579.44
313.246	1604.44
313.476	1597.44
313.706	1645.44
313.935	1633.44
314.165	1620.44
314.394	1685.44
314.624	1744.44
314.853	1871.44
315.083	1904.44
315.312	2015.44
315.542	1848.44
315.771	1696.44
316.001	1634.44
316.23	1714.44
316.46	1733.44
316.689	1726.44
316.919	1623.44
317.148	1532.44
317.377	1600.44
317.607	1691.44
317.836	1887.44
318.065	1956.44
318.295	1887.44
318.524	1810.44
318.753	1689.44
318.983	1715.44
319.212	1644.44
319.441	1660.44
319.67	1652.44
319.9	1678.44
320.129	1737.44
320.358	1839.44
320.587	1827.44
320.816	1876.44
321.046	1816.44
321.275	1720.44
321.504	1711.44
321.733	1898.44
321.962	1867.44
322.191	1687.44
322.42	1709.44
322.649	1695.44
322.878	1668.44
323.108	1690.44
323.337	1676.44
323.566	1744.44
323.795	1686.44
324.024	1742.44
324.253	1666.44
324.482	1760.44
324.71	1670.44
324.939	1625.44
325.168	1602.44
325.397	1642.44
325.626	1733.44
325.855	1756.44
326.084	1642.44
326.313	1652.44
326.542	1702.44
326.77	1783.44
326.999	1748.44
327.228	1633.44
327.457	1594.44
327.686	1602.44
327.914	1610.44
328.143	1682.44
328.372	1698.44
328.6	1704.44
328.829	1665.44
329.058	1642.44
329.287	1647.44
329.515	1699.44
329.744	1717.44
329.972	1813.44
330.201	1874.44
330.43	1807.44
330.658	1761.44
330.887	1784.44
331.115	1802.44
331.344	1789.44
331.572	1710.44
331.801	1741.44
332.03	1744.44
332.258	1798.44
332.486	1795.44
332.715	1784.44
332.943	1815.44
333.172	1751.44
333.4	1831.44
333.629	1865.44
333.857	1958.44
334.085	2102.44
334.314	2383.44
334.542	2592.44
334.771	2420.44
334.999	2153.44
335.227	2014.44
335.455	1887.44
335.684	1925.44
335.912	1940.44
336.14	1983.44
336.369	1956.44
336.597	1818.44
336.825	1801.44
337.053	1810.44
337.281	1946.44
337.51	2027.44
337.738	2100.44
337.966	2070.44
338.194	1811.44
338.422	1765.44
338.65	1751.44
338.878	1740.44
339.106	1685.44
339.334	1650.44
339.562	1678.44
339.79	1698.44
340.018	1798.44
340.246	1846.44
340.474	1875.44
340.702	1833.44
340.93	1822.44
341.158	1799.44
341.386	1753.44
341.614	1762.44
341.842	1726.44
342.07	1731.44
342.298	1772.44
342.526	1792.44
342.754	1752.44
342.981	1719.44
343.209	1725.44
343.437	1736.44
343.665	1755.44
343.893	1811.44
344.12	1868.44
344.348	1892.44
344.576	1799.44
344.804	1774.44
345.031	1722.44
345.259	1770.44
345.487	1712.44
345.714	1637.44
345.942	1605.44
346.17	1627.44
346.397	1658.44
346.625	1727.44
346.853	1572.44
347.08	1547.44
347.308	1541.44
347.535	1596.44
347.763	1659.44
347.99	1644.44
348.218	1566.44
348.445	1590.44
348.673	1628.44
348.9	1650.44
349.128	1697.44
349.355	1755.44
349.583	1723.44
349.81	1686.44
350.037	1555.44
350.265	1525.44
350.492	1555.44
350.72	1568.44
350.947	1653.44
351.174	1671.44
351.402	1627.44
351.629	1492.44
351.856	1534.44
352.083	1547.44
352.311	1508.44
352.538	1581.44
352.765	1634.44
352.992	1692.44
353.22	1599.44
353.447	1575.44
353.674	1599.44
353.901	1631.44
354.128	1587.44
354.355	1546.44
354.583	1598.44
354.81	1703.44
355.037	1676.44
355.264	1671.44
355.491	1650.44
355.718	1625.44
355.945	1625.44
356.172	1605.44
356.399	1545.44
356.626	1560.44
356.853	1612.44
357.08	1720.44
357.307	1918.44
357.534	1948.44
357.761	1676.44
357.988	1532.44
358.215	1542.44
358.441	1524.44
358.668	1570.44
358.895	1530.44
359.122	1634.44
359.349	1824.44
359.576	1820.44
359.802	1638.44
360.029	1580.44
360.256	1543.44
360.483	1568.44
360.709	1593.44
360.936	1679.44
361.163	1682.44
361.39	1862.44
361.616	2002.44
361.843	1956.44
362.07	1880.44
362.296	1686.44
362.523	1574.44
362.749	1596.44
362.976	1634.44
363.203	1647.44
363.429	1600.44
363.656	1556.44
363.882	1615.44
364.109	1763.44
364.335	1923.44
364.562	1734.44
364.788	1692.44
365.015	1668.44
365.241	1579.44
365.468	1625.44
365.694	1651.44
365.92	1706.44
366.147	1721.44
366.373	1583.44
366.599	1559.44
366.826	1553.44
367.052	1567.44
367.278	1574.44
367.505	1586.44
367.731	1639.44
367.957	1635.44
368.184	1675.44
368.41	1774.44
368.636	1820.44
368.862	1790.44
369.089	1802.44
369.315	1755.44
369.541	1661.44
369.767	1622.44
369.993	1632.44
370.219	1619.44
370.445	1584.44
370.672	1678.44
370.898	1806.44
371.124	1808.44
371.35	1723.44
371.576	1754.44
371.802	1873.44
372.028	1725.44
372.254	1646.44
372.48	1640.44
372.706	1596.44
372.932	1636.44
373.158	1630.44
373.384	1652.44
373.61	1684.44
373.835	1770.44
374.061	1732.44
374.287	1686.44
374.513	1698.44
374.739	1689.44
374.965	1719.44
375.191	1724.44
375.416	1768.44
375.642	1730.44
375.868	1815.44
376.094	1890.44
376.319	1820.44
376.545	1707.44
376.771	1702.44
376.997	1783.44
377.222	1749.44
377.448	1730.44
377.674	1779.44
377.899	1734.44
378.125	1860.44
378.35	1851.44
378.576	1699.44
378.802	1705.44
379.027	1645.44
379.253	1653.44
379.478	1668.44
379.704	1652.44
379.929	1691.44
380.155	1697.44
380.38	1692.44
380.606	1699.44
380.831	1712.44
381.057	1791.44
381.282	1784.44
381.507	1770.44
381.733	1866.44
381.958	1952.44
382.184	1782.44
382.409	1725.44
382.634	1771.44
382.86	1735.44
383.085	1749.44
383.31	1773.44
383.535	1971.44
383.761	2010.44
383.986	1978.44
384.211	1890.44
384.436	1831.44
384.662	1964.44
384.887	2041.44
385.112	1952.44
385.337	1929.44
385.562	1920.44
385.787	1901.44
386.013	1982.44
386.238	1985.44
386.463	1948.44
386.688	2013.44
386.913	2158.44
387.138	2167.44
387.363	1965.44
387.588	1983.44
387.813	1968.44
388.038	1997.44
388.263	2096.44
388.488	2008.44
388.713	1850.44
388.938	1834.44
389.163	1868.44
389.387	1908.44
389.612	1931.44
389.837	1948.44
390.062	1920.44
390.287	1934.44
390.512	1946.44
390.736	1908.44
390.961	1886.44
391.186	1850.44
391.411	1848.44
391.636	1903.44
391.86	1933.44
392.085	1929.44
392.31	1867.44
392.534	1928.44
392.759	1919.44
392.984	1949.44
393.208	1940.44
393.433	2021.44
393.658	2052.44
393.882	2091.44
394.107	1956.44
394.331	1894.44
394.556	1927.44
394.78	1976.44
395.005	1961.44
395.229	2046.44
395.454	2199.44
395.678	2202.44
395.903	2114.44
396.127	2022.44
396.352	2035.44
396.576	2119.44
396.801	2108.44
397.025	2114.44
397.249	2149.44
397.474	2064.44
397.698	2075.44
397.922	2111.44
398.147	2157.44
398.371	2264.44
398.595	2286.44
398.82	2192.44
399.044	2266.44
399.268	2366.44
399.492	2501.44
399.717	2598.44
399.941	2599.44
400.165	2520.44
400.389	2515.44
400.613	2403.44
400.837	2668.44
401.062	3053.44
401.286	2653.44
401.51	2426.44
401.734	2483.44
401.958	2445.44
402.182	2319.44
402.406	2214.44
402.63	2174.44
402.854	2216.44
403.078	2238.44
403.302	2247.44
403.526	2288.44
403.75	2300.44
403.974	2309.44
404.198	2334.44
404.422	2329.44
404.645	2466.44
404.869	2431.44
405.093	2252.44
405.317	2228.44
405.541	2304.44
405.765	2353.44
405.988	2285.44
406.212	2362.44
406.436	2387.44
406.66	2478.44
406.883	2431.44
407.107	2715.44
407.331	2951.44
407.555	3199.44
407.778	3026.44
408.002	2501.44
408.226	2409.44
408.449	2420.44
408.673	2330.44
408.896	2349.44
409.12	2426.44
409.344	2335.44
409.567	2300.44
409.791	2329.44
410.014	2296.44
410.238	2453.44
410.461	2565.44
410.685	2354.44
410.908	2275.44
411.132	2313.44
411.355	2258.44
411.578	2215.44
411.802	2249.44
412.025	2246.44
412.249	2219.44
412.472	2162.44
412.695	2205.44
412.919	2164.44
413.142	2179.44
413.365	2213.44
413.589	2233.44
413.812	2329.44
414.035	2382.44
414.258	2224.44
414.482	2184.44
414.705	2227.44
414.928	2141.44
415.151	2198.44
415.374	2194.44
415.597	2223.44
415.821	2214.44
416.044	2314.44
416.267	2328.44
416.49	2124.44
416.713	2127.44
416.936	2176.44
417.159	2191.44
417.382	2299.44
417.605	2146.44
417.828	2188.44
418.051	2235.44
418.274	2111.44
418.497	2156.44
418.72	2144.44
418.943	2102.44
419.166	2217.44
419.389	2322.44
419.611	2222.44
419.834	2171.44
420.057	2211.44
420.28	2133.44
420.503	2091.44
420.726	2156.44
420.948	2139.44
421.171	2074.44
421.394	2109.44
421.617	2201.44
421.839	2167.44
422.062	2123.44
422.285	2091.44
422.507	2083.44
422.73	2022.44
422.953	2017.44
423.175	2015.44
423.398	2071.44
423.621	2100.44
423.843	2133.44
424.066	2116.44
424.288	2179.44
424.511	2231.44
424.733	2219.44
424.956	2014.44
425.178	2009.44
425.401	2030.44
425.623	2015.44
425.846	2030.44
426.068	2150.44
426.291	2187.44
426.513	2154.44
426.735	2168.44
426.958	2271.44
427.18	2421.44
427.402	2198.44
427.625	2237.44
427.847	2286.44
428.069	2140.44
428.292	2070.44
428.514	1964.44
428.736	2034.44
428.958	2055.44
429.181	2081.44
429.403	2277.44
429.625	2811.44
429.847	2551.44
430.069	2135.44
430.292	2323.44
430.514	2411.44
430.736	2215.44
430.958	2281.44
431.18	2156.44
431.402	2036.44
431.624	2030.44
431.846	1993.44
432.068	1990.44
432.29	2006.44
432.512	2039.44
432.734	2101.44
432.956	2132.44
433.178	2201.44
433.4	2186.44
433.622	2207.44
433.844	2114.44
434.066	2007.44
434.287	1999.44
434.509	2079.44
434.731	2161.44
434.953	2379.44
435.175	2263.44
435.397	2175.44
435.618	2191.44
435.84	2153.44
436.062	2094.44
436.284	2120.44
436.505	2124.44
436.727	2162.44
436.949	2095.44
437.17	2060.44
437.392	2054.44
437.614	2081.44
437.835	2014.44
438.057	2126.44
438.278	2240.44
438.5	2052.44
438.721	2024.44
438.943	2053.44
439.165	2036.44
439.386	2022.44
439.608	1967.44
439.829	2007.44
440.05	2026.44
440.272	1986.44
440.493	1968.44
440.715	2005.44
440.936	2110.44
441.158	2423.44
441.379	2320.44
441.6	2241.44
441.822	2142.44
442.043	2175.44
442.264	2131.44
442.486	2048.44
442.707	2014.44
442.928	2017.44
443.149	2090.44
443.371	2216.44
443.592	2294.44
443.813	2289.44
444.034	2240.44
444.255	2241.44
444.476	2248.44
444.698	2321.44
444.919	2291.44
445.14	2314.44
445.361	2375.44
445.582	2413.44
445.803	2321.44
446.024	2247.44
446.245	2317.44
446.466	2269.44
446.687	2109.44
446.908	2098.44
447.129	2084.44
447.35	2108.44
447.571	2105.44
447.792	2006.44
448.013	1981.44
448.234	2039.44
448.455	2103.44
448.675	2140.44
448.896	1946.44
449.117	1927.44
449.338	1994.44
449.559	2055.44
449.779	2214.44
450	2374.44
450.221	2570.44
450.442	2496.44
450.662	2151.44
450.883	1976.44
451.104	1872.44
451.324	1968.44
451.545	2050.44
451.766	1989.44
451.986	1855.44
452.207	1914.44
452.428	1826.44
452.648	1843.44
452.869	1885.44
453.089	1984.44
453.31	1986.44
453.53	2029.44
453.751	1955.44
453.971	1870.44
454.192	1885.44
454.412	2062.44
454.633	1948.44
454.853	1881.44
455.073	1756.44
455.294	1746.44
455.514	1742.44
455.734	1815.44
455.955	1850.44
456.175	1812.44
456.395	1831.44
456.616	1892.44
456.836	1941.44
457.056	1861.44
457.276	1890.44
457.497	1844.44
457.717	1750.44
457.937	1789.44
458.157	1882.44
458.377	1818.44
458.598	1812.44
458.818	1822.44
459.038	1980.44
459.258	2031.44
459.478	2038.44
459.698	1964.44
459.918	2076.44
460.138	2129.44
460.358	2164.44
460.578	2159.44
460.798	2283.44
461.018	2395.44
461.238	2276.44
461.458	2149.44
461.678	2187.44
461.898	2141.44
462.118	2080.44
462.338	2184.44
462.558	2174.44
462.777	2182.44
462.997	2264.44
463.217	2412.44
463.437	2446.44
463.657	2245.44
463.876	2235.44
464.096	2192.44
464.316	2169.44
464.536	2278.44
464.755	2260.44
464.975	2297.44
465.195	2197.44
465.414	2287.44
465.634	2311.44
465.854	2190.44
466.073	2302.44
466.293	2229.44
466.512	1994.44
466.732	1980.44
466.951	2066.44
467.171	2027.44
467.391	1954.44
467.61	1930.44
467.829	1940.44
468.049	2119.44
468.268	2324.44
468.488	2217.44
468.707	2135.44
468.927	2036.44
469.146	1964.44
469.365	1954.44
469.585	1980.44
469.804	1954.44
470.023	1978.44
470.243	2020.44
470.462	1968.44
470.681	1943.44
470.901	1970.44
471.12	1974.44
471.339	1963.44
471.558	1907.44
471.777	1908.44
471.997	1910.44
472.216	1947.44
472.435	1878.44
472.654	1933.44
472.873	2001.44
473.092	2178.44
473.311	2052.44
473.53	1917.44
473.749	1918.44
473.968	1933.44
474.187	2044.44
474.406	2147.44
474.625	2111.44
474.844	2015.44
475.063	1996.44
475.282	2060.44
475.501	2040.44
475.72	1998.44
475.939	2106.44
476.158	2030.44
476.377	1994.44
476.596	2056.44
476.814	2083.44
477.033	2086.44
477.252	2156.44
477.471	2229.44
477.69	2084.44
477.908	2086.44
478.127	2211.44
478.346	2396.44
478.564	2405.44
478.783	2319.44
479.002	2477.44
479.22	2424.44
479.439	2468.44
479.658	2783.44
479.876	2805.44
480.095	2458.44
480.313	2333.44
480.532	2220.44
480.751	2290.44
480.969	2295.44
481.188	2249.44
481.406	2250.44
481.624	2171.44
481.843	2185.44
482.061	2234.44
482.28	2301.44
482.498	2318.44
482.717	2278.44
482.935	2169.44
483.153	2213.44
483.372	2209.44
483.59	2231.44
483.808	2189.44
484.027	2277.44
484.245	2446.44
484.463	2762.44
484.681	3151.44
484.9	2482.44
485.118	2333.44
485.336	2258.44
485.554	2326.44
485.772	2459.44
485.99	2420.44
486.209	2406.44
486.427	2414.44
486.645	2401.44
486.863	2392.44
487.081	2406.44
487.299	2487.44
487.517	2394.44
487.735	2326.44
487.953	2308.44
488.171	2275.44
488.389	2316.44
488.607	2330.44
488.825	2514.44
489.043	2588.44
489.261	2327.44
489.479	2426.44
489.696	2492.44
489.914	2460.44
490.132	2400.44
490.35	2343.44
490.568	2424.44
490.786	2312.44
491.003	2302.44
491.221	2365.44
491.439	2431.44
491.657	2394.44
491.874	2436.44
492.092	2415.44
492.31	2444.44
492.527	2383.44
492.745	2388.44
492.963	2384.44
493.18	2456.44
493.398	2683.44
493.615	2743.44
493.833	2460.44
494.05	2382.44
494.268	2452.44
494.485	2529.44
494.703	2415.44
494.92	2375.44
495.138	2415.44
495.355	2423.44
495.573	2490.44
495.79	2660.44
496.008	2710.44
496.225	2484.44
496.442	2532.44
496.66	2607.44
496.877	2578.44
497.094	2681.44
497.312	2667.44
497.529	2647.44
497.746	2691.44
497.963	3092.44
498.181	3491.44
498.398	3246.44
498.615	3198.44
498.832	3114.44
499.049	3098.44
499.267	3122.44
499.484	3294.44
499.701	3538.44
499.918	3557.44
500.135	3870.44
500.352	4130.44
500.569	4064.44
500.786	4287.44
501.003	4048.44
501.22	3642.44
501.437	3570.44
501.654	3629.44
501.871	3495.44
502.088	3099.44
502.305	3096.44
502.522	2936.44
502.739	2763.44
502.956	2712.44
503.172	2648.44
503.389	2649.44
503.606	2550.44
503.823	2598.44
504.04	2579.44
504.256	2566.44
504.473	2589.44
504.69	2673.44
504.907	2518.44
505.123	2418.44
505.34	2482.44
505.557	3171.44
505.773	2794.44
505.99	2362.44
506.207	2244.44
506.423	2216.44
506.64	2166.44
506.856	2191.44
507.073	2460.44
507.289	2624.44
507.506	2516.44
507.722	2218.44
507.939	2103.44
508.155	2138.44
508.372	2140.44
508.588	2066.44
508.805	2037.44
509.021	2025.44
509.238	2004.44
509.454	1971.44
509.67	1993.44
509.887	1969.44
510.103	1970.44
510.319	1983.44
510.536	2087.44
510.752	2117.44
510.968	2135.44
511.184	2291.44
511.401	2261.44
511.617	2007.44
511.833	1944.44
512.049	1945.44
512.265	1922.44
512.481	1914.44
512.698	2040.44
512.914	2135.44
513.13	2039.44
513.346	1933.44
513.562	1927.44
513.778	1948.44
513.994	1998.44
514.21	2070.44
514.426	2110.44
514.642	2338.44
514.858	2166.44
515.074	2040.44
515.29	1977.44
515.506	2013.44
515.721	2055.44
515.937	2066.44
516.153	2364.44
516.369	2279.44
516.585	2154.44
516.801	2006.44
517.016	2017.44
517.232	2136.44
517.448	2094.44
517.664	2132.44
517.879	2217.44
518.095	2267.44
518.311	2149.44
518.527	2058.44
518.742	2039.44
518.958	1982.44
519.173	1966.44
519.389	2029.44
519.605	1999.44
519.82	1993.44
520.036	2008.44
520.251	2004.44
520.467	1984.44
520.682	2159.44
520.898	2243.44
521.113	2019.44
521.329	1901.44
521.544	2092.44
521.76	1945.44
521.975	1877.44
522.19	1861.44
522.406	1852.44
522.621	2215.44
522.836	2236.44
523.052	1842.44
523.267	1847.44
523.482	1881.44
523.698	1821.44
523.913	1711.44
524.128	1779.44
524.343	1875.44
524.559	1913.44
524.774	1790.44
524.989	1769.44
525.204	1760.44
525.419	1710.44
525.634	1737.44
525.849	1784.44
526.064	1778.44
526.28	1805.44
526.495	1719.44
526.71	1698.44
526.925	1737.44
527.14	1730.44
527.355	1687.44
527.57	1687.44
527.785	1744.44
527.999	1694.44
528.214	1660.44
528.429	1635.44
528.644	1635.44
528.859	1677.44
529.074	1707.44
529.289	1694.44
529.503	1694.44
529.718	1722.44
529.933	1704.44
530.148	1630.44
530.363	1656.44
530.577	1671.44
530.792	1702.44
531.007	1685.44
531.221	1678.44
531.436	1694.44
531.651	1749.44
531.865	1868.44
532.08	1711.44
532.295	1658.44
532.509	1626.44
532.724	1646.44
532.938	1726.44
533.153	1847.44
533.367	1696.44
533.582	1709.44
533.796	1692.44
534.011	1686.44
534.225	1664.44
534.44	1670.44
534.654	1636.44
534.868	1621.44
535.083	1664.44
535.297	1735.44
535.511	1662.44
535.726	1672.44
535.94	1671.44
536.154	1637.44
536.369	1631.44
536.583	1613.44
536.797	1572.44
537.011	1652.44
537.225	1583.44
537.44	1570.44
537.654	1634.44
537.868	1590.44
538.082	1555.44
538.296	1509.44
538.51	1517.44
538.724	1526.44
538.938	1518.44
539.153	1576.44
539.367	1605.44
539.581	1544.44
539.795	1628.44
540.009	1637.44
540.222	1607.44
540.436	1603.44
540.65	1758.44
540.864	1796.44
541.078	1689.44
541.292	1592.44
541.506	1570.44
541.72	1571.44
541.934	1599.44
542.147	1602.44
542.361	1581.44
542.575	1543.44
542.789	1496.44
543.002	1466.44
543.216	1523.44
543.43	1609.44
543.644	1624.44
543.857	1695.44
544.071	1634.44
544.285	1616.44
544.498	1531.44
544.712	1530.44
544.925	1584.44
545.139	1643.44
545.352	1548.44
545.566	1452.44
545.779	1448.44
545.993	1537.44
546.206	1544.44
546.42	1491.44
546.633	1428.44
546.847	1424.44
547.06	1476.44
547.274	1467.44
547.487	1486.44
547.7	1476.44
547.914	1493.44
548.127	1516.44
548.34	1526.44
548.554	1509.44
548.767	1474.44
548.98	1488.44
549.193	1476.44
549.407	1541.44
549.62	1590.44
549.833	1491.44
550.046	1491.44
550.259	1457.44
550.473	1441.44
550.686	1471.44
550.899	1430.44
551.112	1418.44
551.325	1419.44
551.538	1471.44
551.751	1725.44
551.964	1407.44
552.177	1366.44
552.39	1423.44
552.603	1452.44
552.816	1458.44
553.029	1551.44
553.242	1572.44
553.455	1480.44
553.667	1451.44
553.88	1473.44
554.093	1451.44
554.306	1411.44
554.519	1386.44
554.732	1358.44
554.944	1353.44
555.157	1422.44
555.37	1392.44
555.583	1360.44
555.795	1334.44
556.008	1300.44
556.221	1300.44
556.433	1294.44
556.646	1274.44
556.859	1280.44
557.071	1264.44
557.284	1272.44
557.496	1267.44
557.709	1284.44
557.921	1241.44
558.134	1234.44
558.346	1221.44
558.559	1231.44
558.771	1228.44
558.984	1190.44
559.196	1196.44
559.409	1155.44
559.621	1195.44
559.833	1187.44
560.046	1237.44
560.258	1225.44
560.47	1213.44
560.683	1212.44
560.895	1223.44
561.107	1217.44
561.32	1230.44
561.532	1230.44
561.744	1220.44
561.956	1191.44
562.168	1212.44
562.381	1183.44
562.593	1164.44
562.805	1192.44
563.017	1161.44
563.229	1218.44
563.441	1219.44
563.653	1157.44
563.865	1190.44
564.077	1183.44
564.289	1194.44
564.501	1191.44
564.713	1193.44
564.925	1311.44
565.137	1371.44
565.349	1275.44
565.561	1238.44
565.773	1288.44
565.985	1291.44
566.197	1372.44
566.408	1453.44
566.62	1458.44
566.832	1480.44
567.044	1465.44
567.255	1435.44
567.467	1415.44
567.679	1507.44
567.891	1526.44
568.102	1476.44
568.314	1455.44
568.526	1364.44
568.737	1330.44
568.949	1271.44
569.161	1216.44
569.372	1186.44
569.584	1148.44
569.795	1133.44
570.007	1138.44
570.218	1084.44
570.43	1081.44
570.641	1142.44
570.853	1113.44
571.064	1082.44
571.276	1091.44
571.487	1083.44
571.698	1015.44
571.91	1033.44
572.121	1013.44
572.333	968.44
572.544	988.44
572.755	956.44
572.966	936.44
573.178	947.44
573.389	957.44
573.6	985.44
573.811	1040.44
574.023	952.44
574.234	955.44
574.445	927.44
574.656	902.44
574.867	923.44
575.078	933.44
575.289	931.44
575.501	902.44
575.712	908.44
575.923	900.44
576.134	908.44
576.345	872.44
576.556	893.44
576.767	871.44
576.978	862.44
577.188	848.44
577.399	854.44
577.61	849.44
577.821	824.44
578.032	839.44
578.243	820.44
578.454	831.44
578.665	862.44
578.875	807.44
579.086	802.44
579.297	780.44
579.508	859.44
579.718	843.44
579.929	813.44
580.14	811.44
580.35	798.44
580.561	822.44
580.772	886.44
580.982	827.44
581.193	783.44
581.403	791.44
581.614	781.44
581.825	772.44
582.035	797.44
582.246	798.44
582.456	814.44
582.667	819.44
582.877	772.44
583.087	731.44
583.298	761.44
583.508	768.44
583.719	774.44
583.929	771.44
584.139	767.44
584.35	743.44
584.56	721.44
584.77	750.44
584.981	743.44
585.191	777.44
585.401	758.44
585.611	739.44
585.821	775.44
586.032	729.44
586.242	728.44
586.452	734.44
586.662	764.44
586.872	747.44
587.082	720.44
587.292	760.44
587.502	746.44
587.713	770.44
587.923	761.44
588.133	735.44
588.343	746.44
588.553	746.44
588.762	752.44
588.972	702.44
589.182	760.44
589.392	746.44
589.602	728.44
589.812	727.44
590.022	725.44
590.232	686.44
590.441	741.44
590.651	752.44
590.861	717.44
591.071	700.44
591.281	700.44
591.49	697.44
591.7	718.44
591.91	717.44
592.119	730.44
592.329	736.44
592.539	745.44
592.748	744.44
592.958	736.44
593.167	764.44
593.377	768.44
593.587	756.44
593.796	767.44
594.006	765.44
594.215	759.44
594.424	751.44
594.634	747.44
594.843	759.44
595.053	752.44
595.262	730.44
595.472	685.44
595.681	694.44
595.89	696.44
596.1	669.44
596.309	683.44
596.518	674.44
596.727	685.44
596.937	643.44
597.146	652.44
597.355	652.44
597.564	676.44
597.774	623.44
597.983	642.44
598.192	612.44
598.401	622.44
598.61	610.44
598.819	634.44
599.028	626.44
599.237	633.44
599.446	627.44
599.655	603.44
599.864	626.44
600.073	585.44
600.282	580.44
600.491	600.44
600.7	591.44
600.909	563.44
601.118	602.44
601.327	589.44
601.536	601.44
601.745	578.44
601.953	592.44
602.162	592.44
602.371	602.44
602.58	586.44
602.789	584.44
602.997	611.44
603.206	593.44
603.415	585.44
603.623	570.44
603.832	572.44
604.041	580.44
604.249	559.44
604.458	564.44
604.666	570.44
604.875	577.44
605.084	565.44
605.292	581.44
605.501	545.44
605.709	564.44
605.918	542.44
606.126	540.44
606.334	551.44
606.543	554.44
606.751	562.44
606.96	529.44
607.168	552.44
607.376	538.44
607.585	543.44
607.793	550.44
608.001	550.44
608.21	555.44
608.418	540.44
608.626	557.44
608.834	541.44
609.043	550.44
609.251	518.44
609.459	527.44
609.667	525.44
609.875	535.44
610.083	548.44
610.291	558.44
610.499	534.44
610.707	533.44
610.916	537.44
611.124	520.44
611.332	530.44
611.54	525.44
611.748	527.44
611.955	519.44
612.163	499.44
612.371	524.44
612.579	518.44
612.787	499.44
612.995	504.44
613.203	514.44
613.411	509.44
613.618	517.44
613.826	515.44
614.034	524.44
614.242	525.44
614.449	502.44
614.657	515.44
614.865	495.44
615.072	502.44
615.28	502.44
615.488	503.44
615.695	537.44
615.903	548.44
616.111	488.44
616.318	490.44
616.526	486.44
616.733	487.44
616.941	499.44
617.148	516.44
617.356	490.44
617.563	487.44
617.771	503.44
617.978	492.44
618.185	519.44
618.393	472.44
618.6	487.44
618.807	501.44
619.015	487.44
619.222	463.44
619.429	483.44
619.637	483.44
619.844	486.44
620.051	472.44
620.258	455.44
620.466	475.44
620.673	460.44
620.88	453.44
621.087	431.44
621.294	462.44
621.501	438.44
621.708	464.44
621.915	463.44
622.122	442.44
622.329	468.44
622.536	462.44
622.743	456.44
622.95	452.44
623.157	445.44
623.364	438.44
623.571	440.44
623.778	450.44
623.985	443.44
624.192	444.44
624.399	443.44
624.606	442.44
624.812	423.44
625.019	418.44
625.226	412.44
625.433	435.44
625.639	403.44
625.846	418.44
626.053	409.44
626.259	387.44
626.466	436.44
626.673	383.44
626.879	403.44
627.086	414.44
627.293	413.44
627.499	381.44
627.706	387.44
627.912	404.44
628.119	436.44
628.325	413.44
628.532	406.44
628.738	419.44
628.945	386.44
629.151	380.44
629.357	408.44
629.564	400.44
629.77	397.44
629.976	389.44
630.183	373.44
630.389	387.44
630.595	382.44
630.802	394.44
631.008	382.44
631.214	382.44
631.42	384.44
631.627	386.44
631.833	378.44
632.039	392.44
632.245	379.44
632.451	365.44
632.657	384.44
632.863	355.44
633.069	374.44
633.275	367.44
633.481	366.44
633.688	347.44
633.893	349.44
634.099	359.44
634.305	356.44
634.511	351.44
634.717	356.44
634.923	340.44
635.129	353.44
635.335	352.44
635.541	357.44
635.747	342.44
635.952	354.44
636.158	358.44
636.364	340.44
636.57	334.44
636.775	336.44
636.981	361.44
637.187	351.44
637.392	357.44
637.598	348.44
637.804	329.44
638.009	340.44
638.215	338.44
638.421	317.44
638.626	322.44
638.832	340.44
639.037	317.44
639.243	331.44
639.448	323.44
639.654	335.44
639.859	340.44
640.065	338.44
640.27	323.44
640.475	309.44
640.681	297.44
640.886	343.44
641.091	314.44
641.297	322.44
641.502	319.44
641.707	320.44
641.913	328.44
642.118	310.44
642.323	297.44
642.528	294.44
642.733	306.44
642.939	319.44
643.144	302.44
643.349	328.44
643.554	337.44
643.759	317.44
643.964	326.44
644.169	316.44
644.374	318.44
644.579	324.44
644.784	331.44
644.989	316.44
645.194	296.44
645.399	322.44
645.604	306.44
645.809	295.44
646.014	326.44
646.219	299.44
646.423	307.44
646.628	325.44
646.833	302.44
647.038	284.44
647.243	307.44
647.447	314.44
647.652	347.44
647.857	322.44
648.062	327.44
648.266	296.44
648.471	317.44
648.676	294.44
648.88	297.44
649.085	316.44
649.289	306.44
649.494	314.44
649.698	294.44
649.903	306.44
650.107	313.44
650.312	309.44
650.516	286.44
650.721	290.44
650.925	296.44
651.13	280.44
651.334	279.44
651.539	276.44
651.743	272.44
651.947	271.44
652.152	277.44
652.356	284.44
652.56	268.44
652.764	264.44
652.969	260.44
653.173	244.44
653.377	246.44
653.581	240.44
653.785	233.44
653.99	240.44
654.194	233.44
654.398	248.44
654.602	251.44
654.806	238.44
655.01	256.44
655.214	234.44
655.418	231.44
655.622	251.44
655.826	253.44
656.03	250.44
656.234	248.44
656.438	266.44
656.642	277.44
656.846	260.44
657.049	243.44
657.253	230.44
657.457	211.44
657.661	198.44
657.865	191.44
658.068	187.44
658.272	159.44
658.476	171.44
658.68	170.44
658.883	151.44
659.087	154.44
659.291	147.44
659.494	146.44
659.698	121.44
659.901	114.44
660.105	124.44
660.309	132.44
660.512	130.44
660.716	128.44
660.919	118.44
661.123	117.44
661.326	92.44
661.53	108.44
661.733	110.44
661.936	100.44
662.14	108.44
662.343	94.44
662.546	87.44
662.75	95.44
662.953	103.44
663.156	82.44
663.36	83.44
663.563	93.44
663.766	91.44
663.969	107.44
664.173	84.44
664.376	100.44
664.579	79.44
664.782	90.44
664.985	96.44
665.188	69.44
665.391	85.44
665.594	98.44
665.797	96.44
666	87.44
666.203	83.44
666.406	94.44
666.609	83.44
666.812	86.44
667.015	81.44
667.218	86.44
667.421	88.44
667.624	84.44
667.827	96.44
668.03	79.44
668.232	88.44
668.435	95.44
668.638	84.44
668.841	91.44
669.043	91.44
669.246	74.44
669.449	70.44
669.651	85.44
669.854	75.44
670.057	77.44
670.259	93.44
670.462	92.44
670.665	78.44
670.867	94.44
671.07	93.44
671.272	94.44
671.475	83.44
671.677	100.44
671.88	83.44
672.082	89.44
672.284	88.44
672.487	82.44
672.689	84.44
672.892	93.44
