Data from WStandard_LampEnergy5.5LIBS07252019.E.O._I.C._HRD10591_16-09-23-921.txt Node
Date: Thu Jul 25 16:09:23 EDT 2019
User: cochatt
Spectrometer: HR+D1059
Trigger mode: 1
Integration Time (sec): 1.000000E-1
Scans to average: 1
Electric dark correction enabled: true
Nonlinearity correction enabled: false
Boxcar width: 0
XAxis mode: Wavelengths
Number of Pixels in Spectrum: 2048
>>>>>Begin Spectral Data<<<<<
223.165	-18.56
223.4	-18.56
223.635	-18.56
223.869	-16.56
224.104	-13.56
224.338	-8.56
224.573	-16.56
224.808	-1.56
225.042	-6.56
225.277	-6.56
225.511	-4.56
225.746	5.44
225.98	6.44
226.215	7.44
226.449	14.44
226.683	18.44
226.918	15.44
227.152	25.44
227.387	36.44
227.621	40.44
227.856	47.44
228.09	52.44
228.324	36.44
228.559	68.44
228.793	141.44
229.027	348.44
229.262	364.44
229.496	369.44
229.73	367.44
229.964	436.44
230.199	451.44
230.433	438.44
230.667	481.44
230.901	505.44
231.136	451.44
231.37	452.44
231.604	450.44
231.838	440.44
232.072	440.44
232.306	422.44
232.541	454.44
232.775	520.44
233.009	584.44
233.243	570.44
233.477	487.44
233.711	533.44
233.945	540.44
234.179	521.44
234.413	555.44
234.647	618.44
234.881	549.44
235.115	523.44
235.349	519.44
235.583	557.44
235.817	532.44
236.051	523.44
236.285	523.44
236.519	566.44
236.753	644.44
236.987	664.44
237.221	643.44
237.455	726.44
237.689	683.44
237.922	648.44
238.156	614.44
238.39	638.44
238.624	686.44
238.858	708.44
239.091	751.44
239.325	758.44
239.559	875.44
239.793	918.44
240.027	1000.44
240.26	982.44
240.494	729.44
240.728	690.44
240.961	705.44
241.195	698.44
241.429	796.44
241.662	774.44
241.896	715.44
242.13	728.44
242.363	822.44
242.597	843.44
242.83	816.44
243.064	854.44
243.298	898.44
243.531	864.44
243.765	885.44
243.998	862.44
244.232	754.44
244.465	743.44
244.699	748.44
244.932	848.44
245.166	961.44
245.399	948.44
245.633	857.44
245.866	843.44
246.099	890.44
246.333	902.44
246.566	910.44
246.8	1018.44
247.033	1107.44
247.266	1004.44
247.5	1005.44
247.733	1006.44
247.966	1070.44
248.2	1193.44
248.433	1141.44
248.666	1150.44
248.899	1253.44
249.133	1477.44
249.366	1645.44
249.599	1370.44
249.832	1209.44
250.066	1236.44
250.299	1223.44
250.532	1153.44
250.765	1011.44
250.998	1102.44
251.231	1138.44
251.465	1180.44
251.698	1114.44
251.931	1116.44
252.164	1145.44
252.397	1187.44
252.63	1163.44
252.863	1061.44
253.096	1072.44
253.329	1115.44
253.562	1113.44
253.795	1227.44
254.028	1204.44
254.261	1110.44
254.494	1129.44
254.727	1051.44
254.96	1082.44
255.193	1208.44
255.426	1350.44
255.659	1562.44
255.892	1610.44
256.124	1313.44
256.357	1293.44
256.59	1348.44
256.823	1359.44
257.056	1318.44
257.289	1622.44
257.521	1833.44
257.754	1637.44
257.987	1522.44
258.22	1662.44
258.452	1637.44
258.685	1355.44
258.918	1301.44
259.151	1315.44
259.383	1271.44
259.616	1102.44
259.849	1188.44
260.081	1334.44
260.314	1495.44
260.547	1639.44
260.779	1619.44
261.012	1533.44
261.244	1378.44
261.477	1281.44
261.71	1340.44
261.942	1361.44
262.175	1309.44
262.407	1371.44
262.64	1324.44
262.872	1235.44
263.105	1180.44
263.337	1205.44
263.57	1234.44
263.802	1260.44
264.035	1162.44
264.267	1087.44
264.499	1078.44
264.732	1143.44
264.964	1268.44
265.197	1301.44
265.429	1362.44
265.661	1445.44
265.894	1608.44
266.126	1715.44
266.358	1520.44
266.591	1564.44
266.823	1686.44
267.055	1556.44
267.287	1495.44
267.52	1493.44
267.752	1443.44
267.984	1509.44
268.216	1571.44
268.448	1601.44
268.681	1539.44
268.913	1441.44
269.145	1322.44
269.377	1328.44
269.609	1415.44
269.841	1636.44
270.073	1955.44
270.306	2178.44
270.538	2331.44
270.77	1932.44
271.002	1634.44
271.234	1584.44
271.466	1550.44
271.698	1741.44
271.93	2091.44
272.162	2104.44
272.394	1912.44
272.626	1816.44
272.858	1617.44
273.09	1368.44
273.322	1380.44
273.553	1310.44
273.785	1343.44
274.017	1358.44
274.249	1487.44
274.481	1491.44
274.713	1390.44
274.945	1338.44
275.176	1364.44
275.408	1319.44
275.64	1299.44
275.872	1294.44
276.104	1386.44
276.335	1571.44
276.567	1802.44
276.799	1812.44
277.031	1621.44
277.262	1558.44
277.494	1561.44
277.726	1776.44
277.957	1768.44
278.189	1632.44
278.421	1482.44
278.652	1416.44
278.884	1381.44
279.115	1399.44
279.347	1428.44
279.579	1415.44
279.81	1414.44
280.042	1549.44
280.273	1722.44
280.505	1705.44
280.736	1756.44
280.968	1653.44
281.199	1482.44
281.431	1374.44
281.662	1394.44
281.894	1409.44
282.125	1407.44
282.356	1497.44
282.588	1467.44
282.819	1486.44
283.051	1570.44
283.282	1706.44
283.513	1687.44
283.745	1472.44
283.976	1351.44
284.207	1360.44
284.439	1418.44
284.67	1406.44
284.901	1484.44
285.132	1477.44
285.364	1452.44
285.595	1515.44
285.826	1472.44
286.057	1474.44
286.288	1435.44
286.52	1472.44
286.751	1622.44
286.982	1662.44
287.213	1528.44
287.444	1377.44
287.675	1400.44
287.906	1478.44
288.138	1586.44
288.369	1528.44
288.6	1446.44
288.831	1411.44
289.062	1422.44
289.293	1452.44
289.524	1463.44
289.755	1522.44
289.986	1511.44
290.217	1380.44
290.448	1397.44
290.679	1448.44
290.91	1477.44
291.141	1474.44
291.371	1546.44
291.602	1554.44
291.833	1511.44
292.064	1606.44
292.295	1543.44
292.526	1554.44
292.757	1667.44
292.987	1594.44
293.218	1488.44
293.449	1593.44
293.68	1786.44
293.91	1974.44
294.141	1806.44
294.372	1668.44
294.603	1731.44
294.833	1876.44
295.064	1686.44
295.295	1573.44
295.525	1513.44
295.756	1422.44
295.987	1342.44
296.217	1412.44
296.448	1434.44
296.679	1409.44
296.909	1452.44
297.14	1449.44
297.37	1464.44
297.601	1528.44
297.831	1684.44
298.062	1676.44
298.292	1542.44
298.523	1482.44
298.753	1463.44
298.984	1490.44
299.214	1477.44
299.445	1476.44
299.675	1575.44
299.905	1558.44
300.136	1520.44
300.366	1478.44
300.597	1423.44
300.827	1422.44
301.057	1483.44
301.288	1571.44
301.518	1606.44
301.748	1570.44
301.979	1662.44
302.209	1686.44
302.439	1835.44
302.669	1871.44
302.9	1753.44
303.13	1572.44
303.36	1556.44
303.59	1606.44
303.82	1588.44
304.051	1561.44
304.281	1557.44
304.511	1586.44
304.741	1634.44
304.971	1817.44
305.201	2016.44
305.431	1873.44
305.661	1532.44
305.891	1403.44
306.121	1387.44
306.352	1430.44
306.582	1513.44
306.812	1600.44
307.042	1703.44
307.272	1695.44
307.502	1742.44
307.731	1917.44
307.961	2008.44
308.191	1928.44
308.421	1657.44
308.651	1575.44
308.881	1505.44
309.111	1522.44
309.341	1495.44
309.571	1466.44
309.8	1540.44
310.03	1517.44
310.26	1459.44
310.49	1481.44
310.72	1538.44
310.949	1610.44
311.179	1614.44
311.409	1613.44
311.639	1534.44
311.868	1511.44
312.098	1562.44
312.328	1562.44
312.557	1539.44
312.787	1544.44
313.017	1608.44
313.246	1570.44
313.476	1589.44
313.706	1629.44
313.935	1623.44
314.165	1633.44
314.394	1659.44
314.624	1748.44
314.853	1836.44
315.083	1859.44
315.312	1954.44
315.542	1869.44
315.771	1650.44
316.001	1643.44
316.23	1700.44
316.46	1689.44
316.689	1703.44
316.919	1581.44
317.148	1582.44
317.377	1576.44
317.607	1661.44
317.836	1869.44
318.065	1947.44
318.295	1880.44
318.524	1798.44
318.753	1720.44
318.983	1714.44
319.212	1693.44
319.441	1639.44
319.67	1625.44
319.9	1655.44
320.129	1721.44
320.358	1799.44
320.587	1831.44
320.816	1833.44
321.046	1797.44
321.275	1696.44
321.504	1747.44
321.733	1874.44
321.962	1799.44
322.191	1682.44
322.42	1677.44
322.649	1662.44
322.878	1661.44
323.108	1685.44
323.337	1711.44
323.566	1689.44
323.795	1735.44
324.024	1731.44
324.253	1702.44
324.482	1717.44
324.71	1658.44
324.939	1562.44
325.168	1573.44
325.397	1642.44
325.626	1733.44
325.855	1738.44
326.084	1659.44
326.313	1652.44
326.542	1703.44
326.77	1708.44
326.999	1799.44
327.228	1660.44
327.457	1602.44
327.686	1586.44
327.914	1578.44
328.143	1683.44
328.372	1682.44
328.6	1674.44
328.829	1621.44
329.058	1634.44
329.287	1618.44
329.515	1651.44
329.744	1704.44
329.972	1770.44
330.201	1861.44
330.43	1819.44
330.658	1776.44
330.887	1742.44
331.115	1758.44
331.344	1749.44
331.572	1774.44
331.801	1734.44
332.03	1734.44
332.258	1745.44
332.486	1798.44
332.715	1815.44
332.943	1836.44
333.172	1737.44
333.4	1776.44
333.629	1762.44
333.857	1918.44
334.085	2076.44
334.314	2330.44
334.542	2593.44
334.771	2404.44
334.999	2090.44
335.227	1978.44
335.455	1900.44
335.684	1908.44
335.912	1920.44
336.14	1999.44
336.369	1946.44
336.597	1802.44
336.825	1785.44
337.053	1830.44
337.281	1905.44
337.51	2016.44
337.738	2076.44
337.966	1998.44
338.194	1854.44
338.422	1784.44
338.65	1751.44
338.878	1709.44
339.106	1664.44
339.334	1670.44
339.562	1655.44
339.79	1722.44
340.018	1773.44
340.246	1854.44
340.474	1861.44
340.702	1803.44
340.93	1826.44
341.158	1799.44
341.386	1754.44
341.614	1737.44
341.842	1750.44
342.07	1742.44
342.298	1776.44
342.526	1744.44
342.754	1731.44
342.981	1740.44
343.209	1761.44
343.437	1736.44
343.665	1705.44
343.893	1725.44
344.12	1868.44
344.348	1900.44
344.576	1776.44
344.804	1712.44
345.031	1692.44
345.259	1752.44
345.487	1683.44
345.714	1622.44
345.942	1600.44
346.17	1606.44
346.397	1667.44
346.625	1688.44
346.853	1592.44
347.08	1530.44
347.308	1563.44
347.535	1610.44
347.763	1647.44
347.99	1605.44
348.218	1596.44
348.445	1577.44
348.673	1636.44
348.9	1648.44
349.128	1699.44
349.355	1735.44
349.583	1710.44
349.81	1612.44
350.037	1560.44
350.265	1483.44
350.492	1536.44
350.72	1562.44
350.947	1610.44
351.174	1633.44
351.402	1614.44
351.629	1562.44
351.856	1478.44
352.083	1482.44
352.311	1486.44
352.538	1558.44
352.765	1642.44
352.992	1661.44
353.22	1641.44
353.447	1522.44
353.674	1592.44
353.901	1628.44
354.128	1558.44
354.355	1556.44
354.583	1627.44
354.81	1661.44
355.037	1643.44
355.264	1627.44
355.491	1609.44
355.718	1622.44
355.945	1592.44
356.172	1554.44
356.399	1616.44
356.626	1530.44
356.853	1570.44
357.08	1690.44
357.307	1910.44
357.534	1921.44
357.761	1675.44
357.988	1561.44
358.215	1520.44
358.441	1522.44
358.668	1493.44
358.895	1512.44
359.122	1581.44
359.349	1758.44
359.576	1788.44
359.802	1620.44
360.029	1575.44
360.256	1487.44
360.483	1570.44
360.709	1611.44
360.936	1652.44
361.163	1685.44
361.39	1824.44
361.616	1991.44
361.843	1960.44
362.07	1821.44
362.296	1618.44
362.523	1580.44
362.749	1564.44
362.976	1611.44
363.203	1645.44
363.429	1611.44
363.656	1572.44
363.882	1613.44
364.109	1781.44
364.335	1938.44
364.562	1762.44
364.788	1677.44
365.015	1611.44
365.241	1561.44
365.468	1594.44
365.694	1660.44
365.92	1701.44
366.147	1672.44
366.373	1558.44
366.599	1538.44
366.826	1555.44
367.052	1536.44
367.278	1600.44
367.505	1564.44
367.731	1627.44
367.957	1611.44
368.184	1677.44
368.41	1741.44
368.636	1784.44
368.862	1769.44
369.089	1806.44
369.315	1714.44
369.541	1696.44
369.767	1653.44
369.993	1597.44
370.219	1582.44
370.445	1627.44
370.672	1685.44
370.898	1787.44
371.124	1812.44
371.35	1677.44
371.576	1722.44
371.802	1828.44
372.028	1718.44
372.254	1641.44
372.48	1626.44
372.706	1618.44
372.932	1657.44
373.158	1617.44
373.384	1635.44
373.61	1721.44
373.835	1800.44
374.061	1702.44
374.287	1708.44
374.513	1669.44
374.739	1694.44
374.965	1686.44
375.191	1698.44
375.416	1729.44
375.642	1725.44
375.868	1818.44
376.094	1846.44
376.319	1802.44
376.545	1659.44
376.771	1712.44
376.997	1771.44
377.222	1746.44
377.448	1720.44
377.674	1716.44
377.899	1751.44
378.125	1856.44
378.35	1824.44
378.576	1677.44
378.802	1616.44
379.027	1622.44
379.253	1662.44
379.478	1651.44
379.704	1656.44
379.929	1659.44
380.155	1651.44
380.38	1676.44
380.606	1703.44
380.831	1668.44
381.057	1770.44
381.282	1753.44
381.507	1735.44
381.733	1829.44
381.958	1905.44
382.184	1738.44
382.409	1709.44
382.634	1732.44
382.86	1713.44
383.085	1735.44
383.31	1790.44
383.535	1918.44
383.761	2050.44
383.986	1905.44
384.211	1894.44
384.436	1862.44
384.662	1920.44
384.887	2023.44
385.112	1932.44
385.337	1940.44
385.562	1932.44
385.787	1930.44
386.013	2017.44
386.238	1968.44
386.463	1938.44
386.688	2021.44
386.913	2213.44
387.138	2145.44
387.363	1996.44
387.588	1915.44
387.813	1932.44
388.038	1958.44
388.263	2059.44
388.488	2006.44
388.713	1835.44
388.938	1842.44
389.163	1841.44
389.387	1912.44
389.612	1897.44
389.837	1950.44
390.062	1951.44
390.287	1924.44
390.512	1926.44
390.736	1858.44
390.961	1832.44
391.186	1815.44
391.411	1810.44
391.636	1897.44
391.86	1912.44
392.085	1924.44
392.31	1875.44
392.534	1946.44
392.759	1989.44
392.984	1946.44
393.208	1950.44
393.433	1979.44
393.658	1991.44
393.882	2078.44
394.107	1954.44
394.331	1930.44
394.556	1882.44
394.78	1960.44
395.005	1994.44
395.229	2044.44
395.454	2180.44
395.678	2220.44
395.903	2121.44
396.127	2013.44
396.352	2058.44
396.576	2123.44
396.801	2122.44
397.025	2073.44
397.249	2061.44
397.474	2033.44
397.698	2085.44
397.922	2074.44
398.147	2180.44
398.371	2260.44
398.595	2294.44
398.82	2189.44
399.044	2255.44
399.268	2338.44
399.492	2505.44
399.717	2632.44
399.941	2616.44
400.165	2504.44
400.389	2468.44
400.613	2429.44
400.837	2644.44
401.062	3056.44
401.286	2631.44
401.51	2389.44
401.734	2474.44
401.958	2403.44
402.182	2246.44
402.406	2180.44
402.63	2151.44
402.854	2197.44
403.078	2209.44
403.302	2201.44
403.526	2317.44
403.75	2283.44
403.974	2297.44
404.198	2242.44
404.422	2332.44
404.645	2432.44
404.869	2459.44
405.093	2268.44
405.317	2198.44
405.541	2280.44
405.765	2309.44
405.988	2290.44
406.212	2333.44
406.436	2364.44
406.66	2432.44
406.883	2505.44
407.107	2752.44
407.331	2984.44
407.555	3173.44
407.778	3021.44
408.002	2477.44
408.226	2441.44
408.449	2373.44
408.673	2344.44
408.896	2316.44
409.12	2363.44
409.344	2340.44
409.567	2270.44
409.791	2291.44
410.014	2324.44
410.238	2411.44
410.461	2560.44
410.685	2347.44
410.908	2190.44
411.132	2288.44
411.355	2278.44
411.578	2174.44
411.802	2202.44
412.025	2260.44
412.249	2240.44
412.472	2164.44
412.695	2143.44
412.919	2185.44
413.142	2136.44
413.365	2144.44
413.589	2246.44
413.812	2298.44
414.035	2408.44
414.258	2201.44
414.482	2185.44
414.705	2228.44
414.928	2173.44
415.151	2171.44
415.374	2199.44
415.597	2207.44
415.821	2246.44
416.044	2295.44
416.267	2317.44
416.49	2066.44
416.713	2066.44
416.936	2136.44
417.159	2213.44
417.382	2280.44
417.605	2142.44
417.828	2181.44
418.051	2244.44
418.274	2194.44
418.497	2106.44
418.72	2064.44
418.943	2106.44
419.166	2241.44
419.389	2344.44
419.611	2181.44
419.834	2159.44
420.057	2191.44
420.28	2091.44
420.503	2085.44
420.726	2170.44
420.948	2120.44
421.171	2090.44
421.394	2108.44
421.617	2197.44
421.839	2156.44
422.062	2107.44
422.285	2062.44
422.507	2076.44
422.73	2065.44
422.953	2025.44
423.175	2011.44
423.398	2088.44
423.621	2046.44
423.843	2122.44
424.066	2154.44
424.288	2225.44
424.511	2221.44
424.733	2216.44
424.956	2014.44
425.178	1998.44
425.401	2019.44
425.623	2048.44
425.846	2030.44
426.068	2153.44
426.291	2188.44
426.513	2140.44
426.735	2132.44
426.958	2272.44
427.18	2408.44
427.402	2172.44
427.625	2219.44
427.847	2276.44
428.069	2177.44
428.292	2054.44
428.514	1980.44
428.736	1998.44
428.958	2044.44
429.181	2027.44
429.403	2277.44
429.625	2854.44
429.847	2516.44
430.069	2088.44
430.292	2290.44
430.514	2389.44
430.736	2164.44
430.958	2305.44
431.18	2165.44
431.402	2035.44
431.624	1997.44
431.846	2015.44
432.068	1988.44
432.29	2021.44
432.512	2040.44
432.734	2042.44
432.956	2134.44
433.178	2194.44
433.4	2167.44
433.622	2178.44
433.844	2106.44
434.066	2006.44
434.287	1997.44
434.509	2080.44
434.731	2140.44
434.953	2299.44
435.175	2277.44
435.397	2153.44
435.618	2141.44
435.84	2158.44
436.062	2101.44
436.284	2125.44
436.505	2147.44
436.727	2144.44
436.949	2096.44
437.17	2053.44
437.392	2040.44
437.614	2022.44
437.835	2008.44
438.057	2105.44
438.278	2210.44
438.5	2050.44
438.721	2036.44
438.943	2041.44
439.165	1989.44
439.386	1965.44
439.608	1960.44
439.829	2004.44
440.05	2012.44
440.272	2020.44
440.493	1982.44
440.715	2026.44
440.936	2096.44
441.158	2397.44
441.379	2328.44
441.6	2214.44
441.822	2155.44
442.043	2190.44
442.264	2093.44
442.486	1972.44
442.707	1977.44
442.928	1982.44
443.149	2097.44
443.371	2205.44
443.592	2234.44
443.813	2201.44
444.034	2218.44
444.255	2192.44
444.476	2248.44
444.698	2324.44
444.919	2290.44
445.14	2384.44
445.361	2392.44
445.582	2380.44
445.803	2332.44
446.024	2189.44
446.245	2308.44
446.466	2216.44
446.687	2136.44
446.908	2101.44
447.129	2026.44
447.35	2076.44
447.571	2047.44
447.792	2028.44
448.013	1956.44
448.234	2004.44
448.455	2069.44
448.675	2130.44
448.896	1910.44
449.117	1896.44
449.338	1998.44
449.559	2081.44
449.779	2156.44
450	2413.44
450.221	2571.44
450.442	2466.44
450.662	2162.44
450.883	1936.44
451.104	1864.44
451.324	1955.44
451.545	2010.44
451.766	1960.44
451.986	1883.44
452.207	1889.44
452.428	1848.44
452.648	1821.44
452.869	1863.44
453.089	1989.44
453.31	1984.44
453.53	2017.44
453.751	1982.44
453.971	1812.44
454.192	1860.44
454.412	2024.44
454.633	1969.44
454.853	1876.44
455.073	1732.44
455.294	1708.44
455.514	1813.44
455.734	1748.44
455.955	1850.44
456.175	1774.44
456.395	1812.44
456.616	1840.44
456.836	1937.44
457.056	1867.44
457.276	1854.44
457.497	1797.44
457.717	1753.44
457.937	1750.44
458.157	1828.44
458.377	1832.44
458.598	1815.44
458.818	1838.44
459.038	1926.44
459.258	2034.44
459.478	2059.44
459.698	1959.44
459.918	1998.44
460.138	2147.44
460.358	2152.44
460.578	2147.44
460.798	2252.44
461.018	2387.44
461.238	2294.44
461.458	2164.44
461.678	2137.44
461.898	2132.44
462.118	2064.44
462.338	2189.44
462.558	2156.44
462.777	2153.44
462.997	2234.44
463.217	2413.44
463.437	2416.44
463.657	2176.44
463.876	2173.44
464.096	2149.44
464.316	2157.44
464.536	2201.44
464.755	2263.44
464.975	2279.44
465.195	2191.44
465.414	2276.44
465.634	2300.44
465.854	2197.44
466.073	2241.44
466.293	2221.44
466.512	2014.44
466.732	1955.44
466.951	2078.44
467.171	2034.44
467.391	1953.44
467.61	1900.44
467.829	1970.44
468.049	2120.44
468.268	2332.44
468.488	2190.44
468.707	2076.44
468.927	2016.44
469.146	1989.44
469.365	1922.44
469.585	1960.44
469.804	1959.44
470.023	1987.44
470.243	2010.44
470.462	1992.44
470.681	1944.44
470.901	1949.44
471.12	1987.44
471.339	1961.44
471.558	1882.44
471.777	1932.44
471.997	1994.44
472.216	1959.44
472.435	1876.44
472.654	1900.44
472.873	2007.44
473.092	2156.44
473.311	2054.44
473.53	1864.44
473.749	1871.44
473.968	1972.44
474.187	2072.44
474.406	2151.44
474.625	1987.44
474.844	2004.44
475.063	1970.44
475.282	2056.44
475.501	1991.44
475.72	1972.44
475.939	2124.44
476.158	2030.44
476.377	1996.44
476.596	2036.44
476.814	2088.44
477.033	2073.44
477.252	2168.44
477.471	2213.44
477.69	2117.44
477.908	2072.44
478.127	2198.44
478.346	2411.44
478.564	2373.44
478.783	2355.44
479.002	2425.44
479.22	2361.44
479.439	2445.44
479.658	2745.44
479.876	2766.44
480.095	2396.44
480.313	2278.44
480.532	2210.44
480.751	2213.44
480.969	2281.44
481.188	2276.44
481.406	2244.44
481.624	2162.44
481.843	2208.44
482.061	2288.44
482.28	2285.44
482.498	2350.44
482.717	2305.44
482.935	2212.44
483.153	2239.44
483.372	2200.44
483.59	2209.44
483.808	2244.44
484.027	2276.44
484.245	2328.44
484.463	2761.44
484.681	3176.44
484.9	2460.44
485.118	2314.44
485.336	2261.44
485.554	2314.44
485.772	2431.44
485.99	2401.44
486.209	2403.44
486.427	2369.44
486.645	2401.44
486.863	2363.44
487.081	2407.44
487.299	2499.44
487.517	2455.44
487.735	2314.44
487.953	2304.44
488.171	2231.44
488.389	2266.44
488.607	2337.44
488.825	2531.44
489.043	2578.44
489.261	2324.44
489.479	2429.44
489.696	2445.44
489.914	2449.44
490.132	2386.44
490.35	2328.44
490.568	2424.44
490.786	2319.44
491.003	2242.44
491.221	2351.44
491.439	2427.44
491.657	2377.44
491.874	2416.44
492.092	2434.44
492.31	2409.44
492.527	2389.44
492.745	2375.44
492.963	2354.44
493.18	2459.44
493.398	2602.44
493.615	2668.44
493.833	2420.44
494.05	2398.44
494.268	2437.44
494.485	2504.44
494.703	2443.44
494.92	2354.44
495.138	2392.44
495.355	2417.44
495.573	2498.44
495.79	2676.44
496.008	2652.44
496.225	2482.44
496.442	2509.44
496.66	2584.44
496.877	2524.44
497.094	2669.44
497.312	2649.44
497.529	2585.44
497.746	2699.44
497.963	3122.44
498.181	3470.44
498.398	3210.44
498.615	3187.44
498.832	3106.44
499.049	3009.44
499.267	3086.44
499.484	3369.44
499.701	3555.44
499.918	3531.44
500.135	3845.44
500.352	4124.44
500.569	4122.44
500.786	4342.44
501.003	4061.44
501.22	3735.44
501.437	3629.44
501.654	3486.44
501.871	3444.44
502.088	3071.44
502.305	3045.44
502.522	2953.44
502.739	2763.44
502.956	2681.44
503.172	2654.44
503.389	2592.44
503.606	2558.44
503.823	2558.44
504.04	2593.44
504.256	2561.44
504.473	2539.44
504.69	2666.44
504.907	2482.44
505.123	2398.44
505.34	2492.44
505.557	3200.44
505.773	2740.44
505.99	2336.44
506.207	2227.44
506.423	2176.44
506.64	2182.44
506.856	2173.44
507.073	2407.44
507.289	2651.44
507.506	2530.44
507.722	2232.44
507.939	2091.44
508.155	2106.44
508.372	2144.44
508.588	2069.44
508.805	1971.44
509.021	2018.44
509.238	1986.44
509.454	1983.44
509.67	2004.44
509.887	1988.44
510.103	1996.44
510.319	1994.44
510.536	2084.44
510.752	2104.44
510.968	2137.44
511.184	2237.44
511.401	2297.44
511.617	1981.44
511.833	1928.44
512.049	1919.44
512.265	1928.44
512.481	1911.44
512.698	2017.44
512.914	2110.44
513.13	2074.44
513.346	1924.44
513.562	1878.44
513.778	1918.44
513.994	2028.44
514.21	2110.44
514.426	2089.44
514.642	2306.44
514.858	2195.44
515.074	2025.44
515.29	1919.44
515.506	1985.44
515.721	2055.44
515.937	2037.44
516.153	2319.44
516.369	2215.44
516.585	2116.44
516.801	2037.44
517.016	2001.44
517.232	2071.44
517.448	2147.44
517.664	2084.44
517.879	2123.44
518.095	2237.44
518.311	2157.44
518.527	2022.44
518.742	2036.44
518.958	1959.44
519.173	1946.44
519.389	1994.44
519.605	1962.44
519.82	2030.44
520.036	2049.44
520.251	1953.44
520.467	2007.44
520.682	2104.44
520.898	2191.44
521.113	2007.44
521.329	1920.44
521.544	2085.44
521.76	1969.44
521.975	1941.44
522.19	1858.44
522.406	1837.44
522.621	2181.44
522.836	2222.44
523.052	1835.44
523.267	1867.44
523.482	1864.44
523.698	1793.44
523.913	1696.44
524.128	1777.44
524.343	1879.44
524.559	1911.44
524.774	1779.44
524.989	1759.44
525.204	1785.44
525.419	1801.44
525.634	1706.44
525.849	1758.44
526.064	1793.44
526.28	1781.44
526.495	1722.44
526.71	1690.44
526.925	1708.44
527.14	1729.44
527.355	1682.44
527.57	1700.44
527.785	1720.44
527.999	1726.44
528.214	1677.44
528.429	1618.44
528.644	1638.44
528.859	1691.44
529.074	1661.44
529.289	1685.44
529.503	1709.44
529.718	1660.44
529.933	1658.44
530.148	1624.44
530.363	1626.44
530.577	1656.44
530.792	1686.44
531.007	1710.44
531.221	1634.44
531.436	1720.44
531.651	1761.44
531.865	1829.44
532.08	1752.44
532.295	1621.44
532.509	1576.44
532.724	1634.44
532.938	1714.44
533.153	1840.44
533.367	1739.44
533.582	1690.44
533.796	1654.44
534.011	1662.44
534.225	1686.44
534.44	1616.44
534.654	1630.44
534.868	1629.44
535.083	1703.44
535.297	1686.44
535.511	1629.44
535.726	1649.44
535.94	1643.44
536.154	1648.44
536.369	1637.44
536.583	1597.44
536.797	1556.44
537.011	1644.44
537.225	1603.44
537.44	1564.44
537.654	1625.44
537.868	1602.44
538.082	1531.44
538.296	1475.44
538.51	1491.44
538.724	1516.44
538.938	1498.44
539.153	1560.44
539.367	1572.44
539.581	1567.44
539.795	1616.44
540.009	1598.44
540.222	1605.44
540.436	1641.44
540.65	1741.44
540.864	1787.44
541.078	1680.44
541.292	1528.44
541.506	1536.44
541.72	1578.44
541.934	1539.44
542.147	1610.44
542.361	1533.44
542.575	1510.44
542.789	1508.44
543.002	1476.44
543.216	1514.44
543.43	1599.44
543.644	1662.44
543.857	1696.44
544.071	1618.44
544.285	1568.44
544.498	1530.44
544.712	1567.44
544.925	1575.44
545.139	1615.44
545.352	1506.44
545.566	1488.44
545.779	1464.44
545.993	1523.44
546.206	1517.44
546.42	1459.44
546.633	1460.44
546.847	1476.44
547.06	1500.44
547.274	1448.44
547.487	1457.44
547.7	1478.44
547.914	1486.44
548.127	1509.44
548.34	1513.44
548.554	1524.44
548.767	1482.44
548.98	1497.44
549.193	1492.44
549.407	1523.44
549.62	1556.44
549.833	1500.44
550.046	1464.44
550.259	1488.44
550.473	1461.44
550.686	1429.44
550.899	1440.44
551.112	1409.44
551.325	1397.44
551.538	1474.44
551.751	1727.44
551.964	1420.44
552.177	1404.44
552.39	1410.44
552.603	1445.44
552.816	1467.44
553.029	1518.44
553.242	1549.44
553.455	1464.44
553.667	1476.44
553.88	1456.44
554.093	1452.44
554.306	1392.44
554.519	1380.44
554.732	1354.44
554.944	1383.44
555.157	1408.44
555.37	1332.44
555.583	1402.44
555.795	1353.44
556.008	1317.44
556.221	1302.44
556.433	1278.44
556.646	1291.44
556.859	1270.44
557.071	1259.44
557.284	1240.44
557.496	1258.44
557.709	1243.44
557.921	1233.44
558.134	1214.44
558.346	1229.44
558.559	1242.44
558.771	1215.44
558.984	1212.44
559.196	1176.44
559.409	1194.44
559.621	1216.44
559.833	1176.44
560.046	1252.44
560.258	1231.44
560.47	1225.44
560.683	1204.44
560.895	1203.44
561.107	1174.44
561.32	1234.44
561.532	1267.44
561.744	1189.44
561.956	1162.44
562.168	1162.44
562.381	1187.44
562.593	1150.44
562.805	1161.44
563.017	1152.44
563.229	1192.44
563.441	1210.44
563.653	1172.44
563.865	1181.44
564.077	1181.44
564.289	1195.44
564.501	1205.44
564.713	1252.44
564.925	1275.44
565.137	1327.44
565.349	1285.44
565.561	1234.44
565.773	1257.44
565.985	1276.44
566.197	1340.44
566.408	1422.44
566.62	1460.44
566.832	1438.44
567.044	1406.44
567.255	1396.44
567.467	1445.44
567.679	1469.44
567.891	1493.44
568.102	1482.44
568.314	1446.44
568.526	1375.44
568.737	1322.44
568.949	1244.44
569.161	1189.44
569.372	1176.44
569.584	1172.44
569.795	1163.44
570.007	1124.44
570.218	1090.44
570.43	1101.44
570.641	1080.44
570.853	1058.44
571.064	1076.44
571.276	1086.44
571.487	1037.44
571.698	1014.44
571.91	1013.44
572.121	982.44
572.333	973.44
572.544	974.44
572.755	948.44
572.966	937.44
573.178	944.44
573.389	946.44
573.6	1007.44
573.811	1069.44
574.023	986.44
574.234	939.44
574.445	899.44
574.656	889.44
574.867	889.44
575.078	926.44
575.289	913.44
575.501	892.44
575.712	874.44
575.923	890.44
576.134	892.44
576.345	878.44
576.556	884.44
576.767	867.44
576.978	853.44
577.188	853.44
577.399	837.44
577.61	841.44
577.821	843.44
578.032	821.44
578.243	837.44
578.454	828.44
578.665	827.44
578.875	804.44
579.086	782.44
579.297	817.44
579.508	854.44
579.718	808.44
579.929	820.44
580.14	802.44
580.35	800.44
580.561	814.44
580.772	881.44
580.982	843.44
581.193	794.44
581.403	775.44
581.614	782.44
581.825	788.44
582.035	767.44
582.246	779.44
582.456	773.44
582.667	788.44
582.877	769.44
583.087	759.44
583.298	748.44
583.508	747.44
583.719	734.44
583.929	797.44
584.139	764.44
584.35	715.44
584.56	749.44
584.77	764.44
584.981	756.44
585.191	760.44
585.401	770.44
585.611	760.44
585.821	742.44
586.032	719.44
586.242	730.44
586.452	712.44
586.662	732.44
586.872	705.44
587.082	725.44
587.292	745.44
587.502	735.44
587.713	768.44
587.923	727.44
588.133	740.44
588.343	749.44
588.553	716.44
588.762	706.44
588.972	713.44
589.182	738.44
589.392	736.44
589.602	722.44
589.812	725.44
590.022	704.44
590.232	711.44
590.441	735.44
590.651	738.44
590.861	726.44
591.071	720.44
591.281	684.44
591.49	714.44
591.7	720.44
591.91	714.44
592.119	708.44
592.329	736.44
592.539	732.44
592.748	744.44
592.958	731.44
593.167	726.44
593.377	754.44
593.587	729.44
593.796	748.44
594.006	778.44
594.215	753.44
594.424	737.44
594.634	742.44
594.843	745.44
595.053	736.44
595.262	733.44
595.472	726.44
595.681	714.44
595.89	698.44
596.1	695.44
596.309	713.44
596.518	669.44
596.727	688.44
596.937	672.44
597.146	642.44
597.355	639.44
597.564	662.44
597.774	606.44
597.983	611.44
598.192	617.44
598.401	594.44
598.61	641.44
598.819	628.44
599.028	624.44
599.237	613.44
599.446	619.44
599.655	586.44
599.864	596.44
600.073	597.44
600.282	577.44
600.491	581.44
600.7	597.44
600.909	584.44
601.118	580.44
601.327	589.44
601.536	597.44
601.745	594.44
601.953	587.44
602.162	576.44
602.371	609.44
602.58	590.44
602.789	584.44
602.997	567.44
603.206	581.44
603.415	549.44
603.623	576.44
603.832	564.44
604.041	549.44
604.249	576.44
604.458	570.44
604.666	547.44
604.875	568.44
605.084	569.44
605.292	591.44
605.501	550.44
605.709	547.44
605.918	548.44
606.126	540.44
606.334	550.44
606.543	542.44
606.751	574.44
606.96	539.44
607.168	538.44
607.376	525.44
607.585	554.44
607.793	536.44
608.001	544.44
608.21	532.44
608.418	546.44
608.626	552.44
608.834	519.44
609.043	530.44
609.251	520.44
609.459	524.44
609.667	541.44
609.875	535.44
610.083	534.44
610.291	561.44
610.499	548.44
610.707	528.44
610.916	517.44
611.124	530.44
611.332	537.44
611.54	491.44
611.748	517.44
611.955	523.44
612.163	508.44
612.371	513.44
612.579	502.44
612.787	518.44
612.995	507.44
613.203	530.44
613.411	484.44
613.618	518.44
613.826	514.44
614.034	511.44
614.242	499.44
614.449	518.44
614.657	489.44
614.865	488.44
615.072	503.44
615.28	494.44
615.488	504.44
615.695	548.44
615.903	505.44
616.111	516.44
616.318	522.44
616.526	489.44
616.733	498.44
616.941	485.44
617.148	491.44
617.356	487.44
617.563	496.44
617.771	484.44
617.978	480.44
618.185	475.44
618.393	480.44
618.6	448.44
618.807	483.44
619.015	483.44
619.222	501.44
619.429	484.44
619.637	485.44
619.844	485.44
620.051	464.44
620.258	438.44
620.466	473.44
620.673	440.44
620.88	427.44
621.087	437.44
621.294	435.44
621.501	456.44
621.708	459.44
621.915	439.44
622.122	452.44
622.329	444.44
622.536	444.44
622.743	446.44
622.95	462.44
623.157	428.44
623.364	436.44
623.571	453.44
623.778	449.44
623.985	428.44
624.192	460.44
624.399	448.44
624.606	434.44
624.812	418.44
625.019	408.44
625.226	429.44
625.433	409.44
625.639	427.44
625.846	416.44
626.053	400.44
626.259	425.44
626.466	398.44
626.673	407.44
626.879	401.44
627.086	396.44
627.293	391.44
627.499	406.44
627.706	400.44
627.912	391.44
628.119	392.44
628.325	403.44
628.532	402.44
628.738	410.44
628.945	424.44
629.151	404.44
629.357	392.44
629.564	399.44
629.77	397.44
629.976	394.44
630.183	403.44
630.389	384.44
630.595	386.44
630.802	375.44
631.008	372.44
631.214	384.44
631.42	372.44
631.627	373.44
631.833	369.44
632.039	360.44
632.245	363.44
632.451	385.44
632.657	361.44
632.863	355.44
633.069	350.44
633.275	370.44
633.481	335.44
633.688	360.44
633.893	361.44
634.099	344.44
634.305	366.44
634.511	346.44
634.717	342.44
634.923	339.44
635.129	326.44
635.335	338.44
635.541	362.44
635.747	352.44
635.952	360.44
636.158	367.44
636.364	345.44
636.57	345.44
636.775	348.44
636.981	332.44
637.187	353.44
637.392	327.44
637.598	326.44
637.804	333.44
638.009	348.44
638.215	320.44
638.421	332.44
638.626	341.44
638.832	336.44
639.037	299.44
639.243	336.44
639.448	312.44
639.654	317.44
639.859	314.44
640.065	325.44
640.27	313.44
640.475	316.44
640.681	323.44
640.886	317.44
641.091	331.44
641.297	329.44
641.502	319.44
641.707	313.44
641.913	323.44
642.118	312.44
642.323	325.44
642.528	306.44
642.733	313.44
642.939	326.44
643.144	304.44
643.349	322.44
643.554	333.44
643.759	307.44
643.964	310.44
644.169	306.44
644.374	299.44
644.579	296.44
644.784	321.44
644.989	296.44
645.194	310.44
645.399	314.44
645.604	298.44
645.809	309.44
646.014	314.44
646.219	321.44
646.423	315.44
646.628	306.44
646.833	324.44
647.038	302.44
647.243	289.44
647.447	303.44
647.652	310.44
647.857	304.44
648.062	321.44
648.266	307.44
648.471	320.44
648.676	312.44
648.88	324.44
649.085	316.44
649.289	296.44
649.494	290.44
649.698	317.44
649.903	290.44
650.107	281.44
650.312	298.44
650.516	285.44
650.721	290.44
650.925	288.44
651.13	267.44
651.334	282.44
651.539	267.44
651.743	272.44
651.947	252.44
652.152	254.44
652.356	269.44
652.56	267.44
652.764	267.44
652.969	269.44
653.173	242.44
653.377	245.44
653.581	225.44
653.785	254.44
653.99	246.44
654.194	267.44
654.398	233.44
654.602	228.44
654.806	240.44
655.01	236.44
655.214	257.44
655.418	234.44
655.622	240.44
655.826	256.44
656.03	253.44
656.234	246.44
656.438	260.44
656.642	275.44
656.846	245.44
657.049	242.44
657.253	210.44
657.457	208.44
657.661	184.44
657.865	201.44
658.068	172.44
658.272	150.44
658.476	165.44
658.68	153.44
658.883	158.44
659.087	158.44
659.291	138.44
659.494	132.44
659.698	121.44
659.901	123.44
660.105	127.44
660.309	120.44
660.512	97.44
660.716	104.44
660.919	119.44
661.123	118.44
661.326	109.44
661.53	104.44
661.733	110.44
661.936	90.44
662.14	97.44
662.343	105.44
662.546	92.44
662.75	91.44
662.953	97.44
663.156	95.44
663.36	86.44
663.563	81.44
663.766	89.44
663.969	84.44
664.173	91.44
664.376	88.44
664.579	75.44
664.782	77.44
664.985	85.44
665.188	95.44
665.391	93.44
665.594	86.44
665.797	84.44
666	73.44
666.203	75.44
666.406	82.44
666.609	83.44
666.812	79.44
667.015	83.44
667.218	77.44
667.421	84.44
667.624	76.44
667.827	86.44
668.03	78.44
668.232	78.44
668.435	88.44
668.638	75.44
668.841	76.44
669.043	73.44
669.246	82.44
669.449	81.44
669.651	85.44
669.854	75.44
670.057	71.44
670.259	77.44
670.462	85.44
670.665	75.44
670.867	88.44
671.07	76.44
671.272	70.44
671.475	98.44
671.677	73.44
671.88	82.44
672.082	73.44
672.284	82.44
672.487	80.44
672.689	84.44
672.892	78.44
