Data from WStandard_LampEnergy5.5LIBS07252019.E.O._I.C._HRD10591_16-08-34-920.txt Node
Date: Thu Jul 25 16:08:34 EDT 2019
User: cochatt
Spectrometer: HR+D1059
Trigger mode: 1
Integration Time (sec): 1.000000E-1
Scans to average: 1
Electric dark correction enabled: true
Nonlinearity correction enabled: false
Boxcar width: 0
XAxis mode: Wavelengths
Number of Pixels in Spectrum: 2048
>>>>>Begin Spectral Data<<<<<
223.165	-11.62
223.4	-11.62
223.635	-11.62
223.869	-6.62
224.104	-22.62
224.338	-24.62
224.573	-14.62
224.808	-8.62
225.042	-12.62
225.277	-7.62
225.511	7.38
225.746	7.38
225.98	-1.62
226.215	5.38
226.449	19.38
226.683	22.38
226.918	26.38
227.152	22.38
227.387	53.38
227.621	32.38
227.856	45.38
228.09	42.38
228.324	35.38
228.559	52.38
228.793	171.38
229.027	359.38
229.262	378.38
229.496	405.38
229.73	399.38
229.964	461.38
230.199	457.38
230.433	485.38
230.667	505.38
230.901	550.38
231.136	489.38
231.37	460.38
231.604	455.38
231.838	468.38
232.072	456.38
232.306	454.38
232.541	487.38
232.775	562.38
233.009	631.38
233.243	579.38
233.477	551.38
233.711	544.38
233.945	574.38
234.179	549.38
234.413	582.38
234.647	665.38
234.881	598.38
235.115	568.38
235.349	562.38
235.583	578.38
235.817	563.38
236.051	553.38
236.285	541.38
236.519	593.38
236.753	671.38
236.987	671.38
237.221	676.38
237.455	734.38
237.689	724.38
237.922	681.38
238.156	689.38
238.39	695.38
238.624	710.38
238.858	744.38
239.091	779.38
239.325	801.38
239.559	924.38
239.793	966.38
240.027	1059.38
240.26	1049.38
240.494	775.38
240.728	718.38
240.961	734.38
241.195	768.38
241.429	828.38
241.662	818.38
241.896	750.38
242.13	766.38
242.363	860.38
242.597	917.38
242.83	877.38
243.064	893.38
243.298	953.38
243.531	921.38
243.765	928.38
243.998	937.38
244.232	828.38
244.465	774.38
244.699	827.38
244.932	911.38
245.166	1054.38
245.399	993.38
245.633	904.38
245.866	868.38
246.099	941.38
246.333	942.38
246.566	980.38
246.8	1039.38
247.033	1167.38
247.266	1089.38
247.5	1039.38
247.733	1077.38
247.966	1135.38
248.2	1246.38
248.433	1194.38
248.666	1226.38
248.899	1385.38
249.133	1548.38
249.366	1751.38
249.599	1433.38
249.832	1252.38
250.066	1276.38
250.299	1340.38
250.532	1187.38
250.765	1100.38
250.998	1149.38
251.231	1203.38
251.465	1261.38
251.698	1209.38
251.931	1192.38
252.164	1206.38
252.397	1282.38
252.63	1299.38
252.863	1109.38
253.096	1127.38
253.329	1160.38
253.562	1207.38
253.795	1288.38
254.028	1297.38
254.261	1176.38
254.494	1175.38
254.727	1089.38
254.96	1153.38
255.193	1258.38
255.426	1423.38
255.659	1657.38
255.892	1708.38
256.124	1376.38
256.357	1319.38
256.59	1438.38
256.823	1453.38
257.056	1452.38
257.289	1728.38
257.521	1958.38
257.754	1739.38
257.987	1607.38
258.22	1770.38
258.452	1803.38
258.685	1413.38
258.918	1372.38
259.151	1408.38
259.383	1347.38
259.616	1172.38
259.849	1245.38
260.081	1370.38
260.314	1561.38
260.547	1706.38
260.779	1716.38
261.012	1611.38
261.244	1473.38
261.477	1363.38
261.71	1447.38
261.942	1387.38
262.175	1384.38
262.407	1476.38
262.64	1349.38
262.872	1282.38
263.105	1257.38
263.337	1287.38
263.57	1324.38
263.802	1325.38
264.035	1238.38
264.267	1160.38
264.499	1126.38
264.732	1193.38
264.964	1313.38
265.197	1379.38
265.429	1385.38
265.661	1543.38
265.894	1766.38
266.126	1821.38
266.358	1609.38
266.591	1641.38
266.823	1801.38
267.055	1675.38
267.287	1609.38
267.52	1581.38
267.752	1541.38
267.984	1547.38
268.216	1630.38
268.448	1694.38
268.681	1642.38
268.913	1526.38
269.145	1469.38
269.377	1395.38
269.609	1476.38
269.841	1740.38
270.073	2056.38
270.306	2322.38
270.538	2521.38
270.77	2078.38
271.002	1757.38
271.234	1654.38
271.466	1607.38
271.698	1861.38
271.93	2206.38
272.162	2237.38
272.394	1989.38
272.626	1916.38
272.858	1701.38
273.09	1450.38
273.322	1442.38
273.553	1402.38
273.785	1446.38
274.017	1466.38
274.249	1601.38
274.481	1577.38
274.713	1432.38
274.945	1375.38
275.176	1467.38
275.408	1421.38
275.64	1422.38
275.872	1369.38
276.104	1461.38
276.335	1654.38
276.567	1899.38
276.799	1969.38
277.031	1734.38
277.262	1591.38
277.494	1679.38
277.726	1862.38
277.957	1881.38
278.189	1673.38
278.421	1541.38
278.652	1472.38
278.884	1476.38
279.115	1476.38
279.347	1524.38
279.579	1496.38
279.81	1471.38
280.042	1607.38
280.273	1782.38
280.505	1728.38
280.736	1831.38
280.968	1736.38
281.199	1541.38
281.431	1449.38
281.662	1459.38
281.894	1447.38
282.125	1502.38
282.356	1551.38
282.588	1586.38
282.819	1524.38
283.051	1671.38
283.282	1816.38
283.513	1771.38
283.745	1569.38
283.976	1403.38
284.207	1445.38
284.439	1473.38
284.67	1507.38
284.901	1522.38
285.132	1558.38
285.364	1558.38
285.595	1565.38
285.826	1539.38
286.057	1523.38
286.288	1486.38
286.52	1594.38
286.751	1706.38
286.982	1774.38
287.213	1626.38
287.444	1477.38
287.675	1448.38
287.906	1542.38
288.138	1627.38
288.369	1616.38
288.6	1532.38
288.831	1482.38
289.062	1474.38
289.293	1561.38
289.524	1528.38
289.755	1577.38
289.986	1595.38
290.217	1437.38
290.448	1494.38
290.679	1509.38
290.91	1548.38
291.141	1594.38
291.371	1642.38
291.602	1650.38
291.833	1601.38
292.064	1671.38
292.295	1623.38
292.526	1646.38
292.757	1723.38
292.987	1705.38
293.218	1554.38
293.449	1658.38
293.68	1890.38
293.91	2051.38
294.141	1894.38
294.372	1815.38
294.603	1848.38
294.833	1945.38
295.064	1850.38
295.295	1665.38
295.525	1595.38
295.756	1502.38
295.987	1410.38
296.217	1482.38
296.448	1473.38
296.679	1525.38
296.909	1527.38
297.14	1470.38
297.37	1525.38
297.601	1615.38
297.831	1743.38
298.062	1771.38
298.292	1621.38
298.523	1537.38
298.753	1511.38
298.984	1546.38
299.214	1567.38
299.445	1569.38
299.675	1636.38
299.905	1630.38
300.136	1596.38
300.366	1552.38
300.597	1503.38
300.827	1493.38
301.057	1531.38
301.288	1627.38
301.518	1633.38
301.748	1659.38
301.979	1760.38
302.209	1770.38
302.439	1890.38
302.669	1973.38
302.9	1833.38
303.13	1676.38
303.36	1660.38
303.59	1705.38
303.82	1660.38
304.051	1658.38
304.281	1637.38
304.511	1675.38
304.741	1733.38
304.971	1939.38
305.201	2083.38
305.431	1884.38
305.661	1644.38
305.891	1460.38
306.121	1441.38
306.352	1503.38
306.582	1578.38
306.812	1694.38
307.042	1853.38
307.272	1845.38
307.502	1855.38
307.731	1999.38
307.961	2165.38
308.191	2003.38
308.421	1734.38
308.651	1640.38
308.881	1559.38
309.111	1620.38
309.341	1573.38
309.571	1601.38
309.8	1566.38
310.03	1575.38
310.26	1592.38
310.49	1575.38
310.72	1606.38
310.949	1682.38
311.179	1726.38
311.409	1667.38
311.639	1649.38
311.868	1578.38
312.098	1622.38
312.328	1607.38
312.557	1595.38
312.787	1633.38
313.017	1675.38
313.246	1672.38
313.476	1674.38
313.706	1700.38
313.935	1669.38
314.165	1690.38
314.394	1763.38
314.624	1841.38
314.853	1950.38
315.083	1962.38
315.312	2121.38
315.542	1931.38
315.771	1721.38
316.001	1702.38
316.23	1804.38
316.46	1823.38
316.689	1760.38
316.919	1691.38
317.148	1628.38
317.377	1662.38
317.607	1741.38
317.836	1980.38
318.065	2071.38
318.295	2006.38
318.524	1873.38
318.753	1809.38
318.983	1809.38
319.212	1771.38
319.441	1703.38
319.67	1750.38
319.9	1742.38
320.129	1879.38
320.358	1941.38
320.587	1951.38
320.816	1931.38
321.046	1886.38
321.275	1773.38
321.504	1815.38
321.733	1969.38
321.962	1915.38
322.191	1743.38
322.42	1764.38
322.649	1731.38
322.878	1717.38
323.108	1739.38
323.337	1790.38
323.566	1795.38
323.795	1780.38
324.024	1784.38
324.253	1726.38
324.482	1810.38
324.71	1754.38
324.939	1660.38
325.168	1671.38
325.397	1741.38
325.626	1824.38
325.855	1813.38
326.084	1737.38
326.313	1723.38
326.542	1808.38
326.77	1817.38
326.999	1847.38
327.228	1778.38
327.457	1677.38
327.686	1643.38
327.914	1690.38
328.143	1736.38
328.372	1755.38
328.6	1731.38
328.829	1698.38
329.058	1680.38
329.287	1707.38
329.515	1746.38
329.744	1781.38
329.972	1821.38
330.201	1916.38
330.43	1871.38
330.658	1846.38
330.887	1841.38
331.115	1835.38
331.344	1881.38
331.572	1836.38
331.801	1816.38
332.03	1808.38
332.258	1842.38
332.486	1854.38
332.715	1893.38
332.943	1859.38
333.172	1815.38
333.4	1846.38
333.629	1954.38
333.857	1993.38
334.085	2167.38
334.314	2481.38
334.542	2763.38
334.771	2527.38
334.999	2213.38
335.227	2101.38
335.455	1971.38
335.684	1956.38
335.912	1994.38
336.14	2100.38
336.369	2006.38
336.597	1941.38
336.825	1832.38
337.053	1925.38
337.281	2049.38
337.51	2113.38
337.738	2227.38
337.966	2113.38
338.194	1919.38
338.422	1851.38
338.65	1817.38
338.878	1828.38
339.106	1790.38
339.334	1768.38
339.562	1718.38
339.79	1804.38
340.018	1879.38
340.246	1921.38
340.474	1951.38
340.702	1898.38
340.93	1915.38
341.158	1871.38
341.386	1852.38
341.614	1830.38
341.842	1801.38
342.07	1817.38
342.298	1823.38
342.526	1849.38
342.754	1796.38
342.981	1787.38
343.209	1749.38
343.437	1802.38
343.665	1834.38
343.893	1899.38
344.12	1945.38
344.348	2001.38
344.576	1904.38
344.804	1840.38
345.031	1816.38
345.259	1813.38
345.487	1755.38
345.714	1697.38
345.942	1675.38
346.17	1702.38
346.397	1750.38
346.625	1745.38
346.853	1652.38
347.08	1623.38
347.308	1617.38
347.535	1677.38
347.763	1756.38
347.99	1695.38
348.218	1651.38
348.445	1633.38
348.673	1675.38
348.9	1708.38
349.128	1758.38
349.355	1820.38
349.583	1805.38
349.81	1708.38
350.037	1579.38
350.265	1555.38
350.492	1603.38
350.72	1615.38
350.947	1674.38
351.174	1729.38
351.402	1654.38
351.629	1588.38
351.856	1576.38
352.083	1555.38
352.311	1556.38
352.538	1581.38
352.765	1704.38
352.992	1755.38
353.22	1702.38
353.447	1644.38
353.674	1672.38
353.901	1678.38
354.128	1634.38
354.355	1652.38
354.583	1717.38
354.81	1729.38
355.037	1731.38
355.264	1734.38
355.491	1686.38
355.718	1666.38
355.945	1658.38
356.172	1629.38
356.399	1565.38
356.626	1623.38
356.853	1687.38
357.08	1758.38
357.307	1975.38
357.534	1994.38
357.761	1706.38
357.988	1606.38
358.215	1593.38
358.441	1620.38
358.668	1616.38
358.895	1574.38
359.122	1685.38
359.349	1837.38
359.576	1861.38
359.802	1715.38
360.029	1646.38
360.256	1614.38
360.483	1602.38
360.709	1662.38
360.936	1753.38
361.163	1745.38
361.39	1952.38
361.616	2052.38
361.843	2022.38
362.07	1903.38
362.296	1681.38
362.523	1622.38
362.749	1651.38
362.976	1674.38
363.203	1710.38
363.429	1675.38
363.656	1621.38
363.882	1677.38
364.109	1839.38
364.335	1985.38
364.562	1877.38
364.788	1760.38
365.015	1701.38
365.241	1639.38
365.468	1657.38
365.694	1757.38
365.92	1797.38
366.147	1741.38
366.373	1623.38
366.599	1580.38
366.826	1613.38
367.052	1629.38
367.278	1624.38
367.505	1666.38
367.731	1717.38
367.957	1700.38
368.184	1762.38
368.41	1857.38
368.636	1848.38
368.862	1841.38
369.089	1922.38
369.315	1819.38
369.541	1756.38
369.767	1723.38
369.993	1659.38
370.219	1635.38
370.445	1705.38
370.672	1737.38
370.898	1854.38
371.124	1878.38
371.35	1725.38
371.576	1813.38
371.802	1865.38
372.028	1809.38
372.254	1729.38
372.48	1679.38
372.706	1673.38
372.932	1690.38
373.158	1713.38
373.384	1721.38
373.61	1767.38
373.835	1871.38
374.061	1779.38
374.287	1753.38
374.513	1756.38
374.739	1789.38
374.965	1786.38
375.191	1789.38
375.416	1795.38
375.642	1823.38
375.868	1919.38
376.094	1993.38
376.319	1875.38
376.545	1738.38
376.771	1757.38
376.997	1871.38
377.222	1843.38
377.448	1823.38
377.674	1828.38
377.899	1777.38
378.125	1888.38
378.35	1964.38
378.576	1735.38
378.802	1707.38
379.027	1708.38
379.253	1687.38
379.478	1736.38
379.704	1738.38
379.929	1759.38
380.155	1731.38
380.38	1772.38
380.606	1772.38
380.831	1800.38
381.057	1814.38
381.282	1895.38
381.507	1803.38
381.733	1912.38
381.958	1996.38
382.184	1839.38
382.409	1822.38
382.634	1822.38
382.86	1845.38
383.085	1805.38
383.31	1879.38
383.535	1975.38
383.761	2109.38
383.986	2003.38
384.211	1941.38
384.436	1949.38
384.662	1993.38
384.887	2098.38
385.112	2005.38
385.337	2077.38
385.562	2012.38
385.787	2008.38
386.013	2065.38
386.238	2017.38
386.463	2016.38
386.688	2150.38
386.913	2252.38
387.138	2202.38
387.363	2039.38
387.588	2063.38
387.813	2065.38
388.038	2075.38
388.263	2130.38
388.488	2059.38
388.713	1884.38
388.938	1849.38
389.163	1918.38
389.387	1974.38
389.612	1994.38
389.837	2005.38
390.062	2072.38
390.287	1998.38
390.512	1979.38
390.736	2013.38
390.961	1947.38
391.186	1886.38
391.411	1941.38
391.636	2028.38
391.86	1960.38
392.085	1991.38
392.31	1988.38
392.534	2013.38
392.759	2019.38
392.984	1995.38
393.208	1981.38
393.433	2050.38
393.658	2132.38
393.882	2116.38
394.107	2005.38
394.331	1923.38
394.556	1969.38
394.78	1995.38
395.005	2071.38
395.229	2100.38
395.454	2327.38
395.678	2330.38
395.903	2255.38
396.127	2135.38
396.352	2133.38
396.576	2189.38
396.801	2197.38
397.025	2194.38
397.249	2141.38
397.474	2176.38
397.698	2137.38
397.922	2257.38
398.147	2304.38
398.371	2388.38
398.595	2391.38
398.82	2254.38
399.044	2292.38
399.268	2481.38
399.492	2538.38
399.717	2691.38
399.941	2707.38
400.165	2685.38
400.389	2585.38
400.613	2538.38
400.837	2754.38
401.062	3196.38
401.286	2737.38
401.51	2476.38
401.734	2608.38
401.958	2507.38
402.182	2365.38
402.406	2286.38
402.63	2277.38
402.854	2265.38
403.078	2275.38
403.302	2351.38
403.526	2417.38
403.75	2327.38
403.974	2397.38
404.198	2389.38
404.422	2451.38
404.645	2571.38
404.869	2526.38
405.093	2353.38
405.317	2305.38
405.541	2387.38
405.765	2401.38
405.988	2367.38
406.212	2467.38
406.436	2463.38
406.66	2559.38
406.883	2565.38
407.107	2889.38
407.331	3125.38
407.555	3377.38
407.778	3105.38
408.002	2630.38
408.226	2486.38
408.449	2525.38
408.673	2415.38
408.896	2453.38
409.12	2512.38
409.344	2403.38
409.567	2355.38
409.791	2399.38
410.014	2458.38
410.238	2506.38
410.461	2701.38
410.685	2455.38
410.908	2341.38
411.132	2378.38
411.355	2400.38
411.578	2299.38
411.802	2313.38
412.025	2416.38
412.249	2331.38
412.472	2241.38
412.695	2184.38
412.919	2247.38
413.142	2247.38
413.365	2289.38
413.589	2331.38
413.812	2383.38
414.035	2462.38
414.258	2268.38
414.482	2215.38
414.705	2294.38
414.928	2254.38
415.151	2222.38
415.374	2303.38
415.597	2319.38
415.821	2316.38
416.044	2425.38
416.267	2420.38
416.49	2190.38
416.713	2182.38
416.936	2217.38
417.159	2344.38
417.382	2328.38
417.605	2222.38
417.828	2261.38
418.051	2333.38
418.274	2267.38
418.497	2160.38
418.72	2207.38
418.943	2147.38
419.166	2327.38
419.389	2453.38
419.611	2276.38
419.834	2221.38
420.057	2236.38
420.28	2177.38
420.503	2187.38
420.726	2200.38
420.948	2245.38
421.171	2166.38
421.394	2219.38
421.617	2278.38
421.839	2239.38
422.062	2156.38
422.285	2147.38
422.507	2230.38
422.73	2112.38
422.953	2092.38
423.175	2118.38
423.398	2159.38
423.621	2199.38
423.843	2211.38
424.066	2216.38
424.288	2267.38
424.511	2354.38
424.733	2286.38
424.956	2100.38
425.178	2060.38
425.401	2124.38
425.623	2131.38
425.846	2105.38
426.068	2231.38
426.291	2274.38
426.513	2253.38
426.735	2190.38
426.958	2295.38
427.18	2503.38
427.402	2322.38
427.625	2361.38
427.847	2372.38
428.069	2210.38
428.292	2176.38
428.514	2064.38
428.736	2064.38
428.958	2123.38
429.181	2119.38
429.403	2354.38
429.625	2933.38
429.847	2617.38
430.069	2165.38
430.292	2393.38
430.514	2499.38
430.736	2289.38
430.958	2415.38
431.18	2330.38
431.402	2133.38
431.624	2121.38
431.846	2086.38
432.068	2049.38
432.29	2117.38
432.512	2131.38
432.734	2190.38
432.956	2195.38
433.178	2275.38
433.4	2251.38
433.622	2239.38
433.844	2169.38
434.066	2118.38
434.287	2108.38
434.509	2193.38
434.731	2293.38
434.953	2404.38
435.175	2407.38
435.397	2234.38
435.618	2237.38
435.84	2183.38
436.062	2189.38
436.284	2216.38
436.505	2211.38
436.727	2258.38
436.949	2204.38
437.17	2119.38
437.392	2135.38
437.614	2137.38
437.835	2072.38
438.057	2230.38
438.278	2305.38
438.5	2140.38
438.721	2129.38
438.943	2128.38
439.165	2084.38
439.386	2078.38
439.608	2055.38
439.829	2094.38
440.05	2133.38
440.272	2070.38
440.493	2060.38
440.715	2089.38
440.936	2225.38
441.158	2469.38
441.379	2390.38
441.6	2345.38
441.822	2261.38
442.043	2228.38
442.264	2233.38
442.486	2092.38
442.707	2142.38
442.928	2102.38
443.149	2163.38
443.371	2286.38
443.592	2345.38
443.813	2293.38
444.034	2290.38
444.255	2298.38
444.476	2337.38
444.698	2389.38
444.919	2359.38
445.14	2503.38
445.361	2413.38
445.582	2508.38
445.803	2356.38
446.024	2327.38
446.245	2412.38
446.466	2285.38
446.687	2163.38
446.908	2193.38
447.129	2126.38
447.35	2179.38
447.571	2206.38
447.792	2101.38
448.013	2055.38
448.234	2090.38
448.455	2204.38
448.675	2219.38
448.896	2011.38
449.117	1976.38
449.338	2075.38
449.559	2156.38
449.779	2262.38
450	2501.38
450.221	2695.38
450.442	2611.38
450.662	2258.38
450.883	2001.38
451.104	1979.38
451.324	2014.38
451.545	2070.38
451.766	2086.38
451.986	1977.38
452.207	1951.38
452.428	1943.38
452.648	1877.38
452.869	1918.38
453.089	2137.38
453.31	2077.38
453.53	2114.38
453.751	2037.38
453.971	1925.38
454.192	1946.38
454.412	2110.38
454.633	1987.38
454.853	1941.38
455.073	1837.38
455.294	1833.38
455.514	1852.38
455.734	1879.38
455.955	1917.38
456.175	1877.38
456.395	1902.38
456.616	1958.38
456.836	1974.38
457.056	1921.38
457.276	1966.38
457.497	1889.38
457.717	1819.38
457.937	1843.38
458.157	1926.38
458.377	1881.38
458.598	1904.38
458.818	1927.38
459.038	2015.38
459.258	2132.38
459.478	2191.38
459.698	2068.38
459.918	2137.38
460.138	2209.38
460.358	2265.38
460.578	2295.38
460.798	2329.38
461.018	2489.38
461.238	2394.38
461.458	2242.38
461.678	2273.38
461.898	2297.38
462.118	2219.38
462.338	2281.38
462.558	2222.38
462.777	2265.38
462.997	2396.38
463.217	2488.38
463.437	2483.38
463.657	2359.38
463.876	2314.38
464.096	2264.38
464.316	2201.38
464.536	2403.38
464.755	2370.38
464.975	2437.38
465.195	2297.38
465.414	2402.38
465.634	2406.38
465.854	2243.38
466.073	2394.38
466.293	2337.38
466.512	2053.38
466.732	2062.38
466.951	2186.38
467.171	2100.38
467.391	2045.38
467.61	2031.38
467.829	2029.38
468.049	2210.38
468.268	2411.38
468.488	2318.38
468.707	2178.38
468.927	2062.38
469.146	2070.38
469.365	2003.38
469.585	2063.38
469.804	2061.38
470.023	2056.38
470.243	2073.38
470.462	2064.38
470.681	2005.38
470.901	2065.38
471.12	2096.38
471.339	2030.38
471.558	1982.38
471.777	1990.38
471.997	2002.38
472.216	1998.38
472.435	1951.38
472.654	1997.38
472.873	2065.38
473.092	2225.38
473.311	2092.38
473.53	1973.38
473.749	1951.38
473.968	2062.38
474.187	2164.38
474.406	2214.38
474.625	2111.38
474.844	2055.38
475.063	2025.38
475.282	2162.38
475.501	2122.38
475.72	2073.38
475.939	2201.38
476.158	2163.38
476.377	2057.38
476.596	2145.38
476.814	2154.38
477.033	2134.38
477.252	2268.38
477.471	2343.38
477.69	2170.38
477.908	2188.38
478.127	2276.38
478.346	2518.38
478.564	2513.38
478.783	2474.38
479.002	2585.38
479.22	2439.38
479.439	2511.38
479.658	2890.38
479.876	2908.38
480.095	2517.38
480.313	2406.38
480.532	2322.38
480.751	2299.38
480.969	2428.38
481.188	2345.38
481.406	2339.38
481.624	2252.38
481.843	2270.38
482.061	2340.38
482.28	2372.38
482.498	2436.38
482.717	2395.38
482.935	2294.38
483.153	2297.38
483.372	2323.38
483.59	2244.38
483.808	2307.38
484.027	2370.38
484.245	2500.38
484.463	2860.38
484.681	3224.38
484.9	2587.38
485.118	2390.38
485.336	2357.38
485.554	2439.38
485.772	2521.38
485.99	2465.38
486.209	2515.38
486.427	2510.38
486.645	2487.38
486.863	2461.38
487.081	2534.38
487.299	2608.38
487.517	2543.38
487.735	2366.38
487.953	2357.38
488.171	2337.38
488.389	2382.38
488.607	2369.38
488.825	2627.38
489.043	2696.38
489.261	2453.38
489.479	2545.38
489.696	2637.38
489.914	2536.38
490.132	2515.38
490.35	2462.38
490.568	2582.38
490.786	2457.38
491.003	2334.38
491.221	2419.38
491.439	2504.38
491.657	2487.38
491.874	2514.38
492.092	2539.38
492.31	2493.38
492.527	2499.38
492.745	2491.38
492.963	2476.38
493.18	2493.38
493.398	2715.38
493.615	2794.38
493.833	2559.38
494.05	2462.38
494.268	2507.38
494.485	2591.38
494.703	2515.38
494.92	2442.38
495.138	2517.38
495.355	2519.38
495.573	2598.38
495.79	2795.38
496.008	2803.38
496.225	2593.38
496.442	2619.38
496.66	2679.38
496.877	2672.38
497.094	2789.38
497.312	2811.38
497.529	2741.38
497.746	2811.38
497.963	3247.38
498.181	3687.38
498.398	3401.38
498.615	3327.38
498.832	3220.38
499.049	3209.38
499.267	3209.38
499.484	3438.38
499.701	3739.38
499.918	3697.38
500.135	3996.38
500.352	4318.38
500.569	4324.38
500.786	4513.38
501.003	4184.38
501.22	3808.38
501.437	3765.38
501.654	3732.38
501.871	3583.38
502.088	3213.38
502.305	3198.38
502.522	3066.38
502.739	2834.38
502.956	2808.38
503.172	2809.38
503.389	2656.38
503.606	2635.38
503.823	2674.38
504.04	2697.38
504.256	2703.38
504.473	2646.38
504.69	2758.38
504.907	2580.38
505.123	2521.38
505.34	2610.38
505.557	3285.38
505.773	2892.38
505.99	2395.38
506.207	2275.38
506.423	2296.38
506.64	2218.38
506.856	2260.38
507.073	2521.38
507.289	2778.38
507.506	2596.38
507.722	2264.38
507.939	2182.38
508.155	2217.38
508.372	2234.38
508.588	2173.38
508.805	2079.38
509.021	2082.38
509.238	2046.38
509.454	2018.38
509.67	2089.38
509.887	2079.38
510.103	2053.38
510.319	2101.38
510.536	2183.38
510.752	2269.38
510.968	2262.38
511.184	2412.38
511.401	2358.38
511.617	2035.38
511.833	1991.38
512.049	1970.38
512.265	1969.38
512.481	1972.38
512.698	2056.38
512.914	2228.38
513.13	2145.38
513.346	2028.38
513.562	1995.38
513.778	2025.38
513.994	2123.38
514.21	2183.38
514.426	2200.38
514.642	2473.38
514.858	2318.38
515.074	2122.38
515.29	2008.38
515.506	2101.38
515.721	2111.38
515.937	2175.38
516.153	2445.38
516.369	2329.38
516.585	2187.38
516.801	2093.38
517.016	2090.38
517.232	2188.38
517.448	2195.38
517.664	2243.38
517.879	2227.38
518.095	2371.38
518.311	2229.38
518.527	2150.38
518.742	2077.38
518.958	1994.38
519.173	2061.38
519.389	2068.38
519.605	2071.38
519.82	2070.38
520.036	2108.38
520.251	2008.38
520.467	2052.38
520.682	2216.38
520.898	2320.38
521.113	2092.38
521.329	1979.38
521.544	2166.38
521.76	2078.38
521.975	1953.38
522.19	1921.38
522.406	1965.38
522.621	2268.38
522.836	2320.38
523.052	1887.38
523.267	1913.38
523.482	1927.38
523.698	1833.38
523.913	1771.38
524.128	1862.38
524.343	1962.38
524.559	1976.38
524.774	1852.38
524.989	1841.38
525.204	1824.38
525.419	1784.38
525.634	1781.38
525.849	1838.38
526.064	1833.38
526.28	1867.38
526.495	1777.38
526.71	1771.38
526.925	1785.38
527.14	1777.38
527.355	1737.38
527.57	1714.38
527.785	1813.38
527.999	1758.38
528.214	1748.38
528.429	1668.38
528.644	1718.38
528.859	1754.38
529.074	1713.38
529.289	1746.38
529.503	1772.38
529.718	1777.38
529.933	1785.38
530.148	1725.38
530.363	1714.38
530.577	1728.38
530.792	1759.38
531.007	1757.38
531.221	1752.38
531.436	1800.38
531.651	1856.38
531.865	1882.38
532.08	1797.38
532.295	1761.38
532.509	1656.38
532.724	1702.38
532.938	1748.38
533.153	1898.38
533.367	1772.38
533.582	1751.38
533.796	1711.38
534.011	1743.38
534.225	1751.38
534.44	1717.38
534.654	1689.38
534.868	1703.38
535.083	1799.38
535.297	1755.38
535.511	1726.38
535.726	1713.38
535.94	1713.38
536.154	1705.38
536.369	1678.38
536.583	1664.38
536.797	1673.38
537.011	1755.38
537.225	1637.38
537.44	1604.38
537.654	1690.38
537.868	1640.38
538.082	1578.38
538.296	1562.38
538.51	1595.38
538.724	1581.38
538.938	1572.38
539.153	1642.38
539.367	1632.38
539.581	1647.38
539.795	1715.38
540.009	1697.38
540.222	1671.38
540.436	1674.38
540.65	1843.38
540.864	1841.38
541.078	1709.38
541.292	1636.38
541.506	1628.38
541.72	1603.38
541.934	1611.38
542.147	1652.38
542.361	1663.38
542.575	1606.38
542.789	1561.38
543.002	1524.38
543.216	1553.38
543.43	1660.38
543.644	1715.38
543.857	1771.38
544.071	1682.38
544.285	1644.38
544.498	1575.38
544.712	1629.38
544.925	1612.38
545.139	1659.38
545.352	1583.38
545.566	1542.38
545.779	1510.38
545.993	1535.38
546.206	1601.38
546.42	1533.38
546.633	1479.38
546.847	1491.38
547.06	1492.38
547.274	1493.38
547.487	1505.38
547.7	1542.38
547.914	1526.38
548.127	1559.38
548.34	1565.38
548.554	1574.38
548.767	1552.38
548.98	1544.38
549.193	1551.38
549.407	1612.38
549.62	1656.38
549.833	1547.38
550.046	1521.38
550.259	1526.38
550.473	1557.38
550.686	1510.38
550.899	1483.38
551.112	1471.38
551.325	1476.38
551.538	1581.38
551.751	1807.38
551.964	1476.38
552.177	1429.38
552.39	1469.38
552.603	1484.38
552.816	1555.38
553.029	1568.38
553.242	1570.38
553.455	1533.38
553.667	1516.38
553.88	1522.38
554.093	1533.38
554.306	1473.38
554.519	1418.38
554.732	1385.38
554.944	1449.38
555.157	1461.38
555.37	1405.38
555.583	1428.38
555.795	1413.38
556.008	1386.38
556.221	1357.38
556.433	1312.38
556.646	1336.38
556.859	1354.38
557.071	1299.38
557.284	1315.38
557.496	1312.38
557.709	1271.38
557.921	1257.38
558.134	1302.38
558.346	1301.38
558.559	1259.38
558.771	1275.38
558.984	1247.38
559.196	1207.38
559.409	1204.38
559.621	1218.38
559.833	1242.38
560.046	1266.38
560.258	1243.38
560.47	1252.38
560.683	1265.38
560.895	1268.38
561.107	1226.38
561.32	1303.38
561.532	1294.38
561.744	1241.38
561.956	1275.38
562.168	1255.38
562.381	1194.38
562.593	1207.38
562.805	1221.38
563.017	1194.38
563.229	1213.38
563.441	1240.38
563.653	1225.38
563.865	1229.38
564.077	1223.38
564.289	1205.38
564.501	1206.38
564.713	1286.38
564.925	1338.38
565.137	1374.38
565.349	1303.38
565.561	1291.38
565.773	1317.38
565.985	1314.38
566.197	1395.38
566.408	1446.38
566.62	1480.38
566.832	1495.38
567.044	1505.38
567.255	1483.38
567.467	1491.38
567.679	1528.38
567.891	1581.38
568.102	1542.38
568.314	1490.38
568.526	1393.38
568.737	1345.38
568.949	1310.38
569.161	1263.38
569.372	1225.38
569.584	1183.38
569.795	1217.38
570.007	1201.38
570.218	1121.38
570.43	1128.38
570.641	1153.38
570.853	1131.38
571.064	1160.38
571.276	1096.38
571.487	1098.38
571.698	1083.38
571.91	1042.38
572.121	1026.38
572.333	1001.38
572.544	1041.38
572.755	988.38
572.966	974.38
573.178	988.38
573.389	974.38
573.6	1049.38
573.811	1094.38
574.023	990.38
574.234	982.38
574.445	952.38
574.656	914.38
574.867	939.38
575.078	967.38
575.289	946.38
575.501	922.38
575.712	930.38
575.923	919.38
576.134	940.38
576.345	891.38
576.556	922.38
576.767	905.38
576.978	898.38
577.188	917.38
577.399	871.38
577.61	879.38
577.821	869.38
578.032	846.38
578.243	884.38
578.454	860.38
578.665	838.38
578.875	835.38
579.086	817.38
579.297	846.38
579.508	911.38
579.718	864.38
579.929	833.38
580.14	858.38
580.35	817.38
580.561	844.38
580.772	919.38
580.982	830.38
581.193	808.38
581.403	810.38
581.614	807.38
581.825	791.38
582.035	782.38
582.246	803.38
582.456	794.38
582.667	804.38
582.877	793.38
583.087	826.38
583.298	761.38
583.508	778.38
583.719	800.38
583.929	808.38
584.139	805.38
584.35	753.38
584.56	792.38
584.77	787.38
584.981	803.38
585.191	798.38
585.401	803.38
585.611	783.38
585.821	801.38
586.032	781.38
586.242	765.38
586.452	727.38
586.662	757.38
586.872	782.38
587.082	757.38
587.292	783.38
587.502	785.38
587.713	783.38
587.923	778.38
588.133	768.38
588.343	748.38
588.553	742.38
588.762	741.38
588.972	718.38
589.182	780.38
589.392	737.38
589.602	781.38
589.812	739.38
590.022	721.38
590.232	732.38
590.441	723.38
590.651	765.38
590.861	777.38
591.071	718.38
591.281	741.38
591.49	737.38
591.7	738.38
591.91	733.38
592.119	732.38
592.329	770.38
592.539	796.38
592.748	767.38
592.958	776.38
593.167	803.38
593.377	761.38
593.587	783.38
593.796	783.38
594.006	780.38
594.215	793.38
594.424	763.38
594.634	755.38
594.843	745.38
595.053	762.38
595.262	733.38
595.472	733.38
595.681	739.38
595.89	730.38
596.1	717.38
596.309	744.38
596.518	689.38
596.727	695.38
596.937	676.38
597.146	674.38
597.355	654.38
597.564	663.38
597.774	670.38
597.983	649.38
598.192	653.38
598.401	662.38
598.61	641.38
598.819	647.38
599.028	651.38
599.237	636.38
599.446	635.38
599.655	633.38
599.864	618.38
600.073	637.38
600.282	621.38
600.491	618.38
600.7	622.38
600.909	599.38
601.118	601.38
601.327	609.38
601.536	612.38
601.745	608.38
601.953	591.38
602.162	609.38
602.371	619.38
602.58	595.38
602.789	618.38
602.997	597.38
603.206	595.38
603.415	609.38
603.623	593.38
603.832	591.38
604.041	571.38
604.249	593.38
604.458	589.38
604.666	557.38
604.875	586.38
605.084	579.38
605.292	601.38
605.501	575.38
605.709	564.38
605.918	583.38
606.126	557.38
606.334	572.38
606.543	547.38
606.751	571.38
606.96	592.38
607.168	566.38
607.376	545.38
607.585	547.38
607.793	569.38
608.001	542.38
608.21	543.38
608.418	564.38
608.626	521.38
608.834	549.38
609.043	558.38
609.251	561.38
609.459	554.38
609.667	552.38
609.875	551.38
610.083	567.38
610.291	585.38
610.499	560.38
610.707	538.38
610.916	553.38
611.124	533.38
611.332	543.38
611.54	553.38
611.748	519.38
611.955	535.38
612.163	514.38
612.371	498.38
612.579	502.38
612.787	525.38
612.995	533.38
613.203	521.38
613.411	534.38
613.618	513.38
613.826	541.38
614.034	521.38
614.242	528.38
614.449	515.38
614.657	515.38
614.865	528.38
615.072	518.38
615.28	536.38
615.488	536.38
615.695	563.38
615.903	514.38
616.111	527.38
616.318	545.38
616.526	521.38
616.733	501.38
616.941	519.38
617.148	521.38
617.356	486.38
617.563	509.38
617.771	493.38
617.978	503.38
618.185	518.38
618.393	494.38
618.6	530.38
618.807	495.38
619.015	533.38
619.222	511.38
619.429	493.38
619.637	478.38
619.844	477.38
620.051	502.38
620.258	482.38
620.466	471.38
620.673	475.38
620.88	456.38
621.087	458.38
621.294	443.38
621.501	447.38
621.708	452.38
621.915	470.38
622.122	472.38
622.329	476.38
622.536	484.38
622.743	449.38
622.95	462.38
623.157	447.38
623.364	458.38
623.571	456.38
623.778	466.38
623.985	440.38
624.192	455.38
624.399	453.38
624.606	453.38
624.812	445.38
625.019	428.38
625.226	433.38
625.433	443.38
625.639	447.38
625.846	426.38
626.053	407.38
626.259	419.38
626.466	401.38
626.673	425.38
626.879	412.38
627.086	419.38
627.293	410.38
627.499	419.38
627.706	418.38
627.912	423.38
628.119	409.38
628.325	417.38
628.532	404.38
628.738	405.38
628.945	423.38
629.151	407.38
629.357	392.38
629.564	413.38
629.77	405.38
629.976	400.38
630.183	385.38
630.389	398.38
630.595	399.38
630.802	410.38
631.008	397.38
631.214	376.38
631.42	407.38
631.627	381.38
631.833	388.38
632.039	383.38
632.245	391.38
632.451	371.38
632.657	390.38
632.863	383.38
633.069	371.38
633.275	349.38
633.481	363.38
633.688	364.38
633.893	365.38
634.099	360.38
634.305	346.38
634.511	363.38
634.717	379.38
634.923	365.38
635.129	341.38
635.335	374.38
635.541	353.38
635.747	361.38
635.952	375.38
636.158	356.38
636.364	371.38
636.57	361.38
636.775	357.38
636.981	335.38
637.187	360.38
637.392	365.38
637.598	332.38
637.804	358.38
638.009	336.38
638.215	350.38
638.421	343.38
638.626	345.38
638.832	358.38
639.037	343.38
639.243	343.38
639.448	356.38
639.654	342.38
639.859	338.38
640.065	308.38
640.27	327.38
640.475	349.38
640.681	336.38
640.886	347.38
641.091	324.38
641.297	311.38
641.502	332.38
641.707	313.38
641.913	329.38
642.118	325.38
642.323	328.38
642.528	325.38
642.733	322.38
642.939	333.38
643.144	320.38
643.349	319.38
643.554	341.38
643.759	320.38
643.964	326.38
644.169	323.38
644.374	323.38
644.579	333.38
644.784	326.38
644.989	309.38
645.194	299.38
645.399	322.38
645.604	309.38
645.809	307.38
646.014	322.38
646.219	322.38
646.423	341.38
646.628	326.38
646.833	307.38
647.038	317.38
647.243	323.38
647.447	319.38
647.652	313.38
647.857	293.38
648.062	320.38
648.266	311.38
648.471	315.38
648.676	324.38
648.88	317.38
649.085	314.38
649.289	307.38
649.494	330.38
649.698	311.38
649.903	298.38
650.107	301.38
650.312	289.38
650.516	280.38
650.721	308.38
650.925	309.38
651.13	287.38
651.334	265.38
651.539	284.38
651.743	283.38
651.947	284.38
652.152	272.38
652.356	267.38
652.56	266.38
652.764	271.38
652.969	262.38
653.173	270.38
653.377	257.38
653.581	250.38
653.785	247.38
653.99	250.38
654.194	249.38
654.398	250.38
654.602	241.38
654.806	258.38
655.01	259.38
655.214	233.38
655.418	243.38
655.622	247.38
655.826	265.38
656.03	252.38
656.234	263.38
656.438	271.38
656.642	294.38
656.846	276.38
657.049	248.38
657.253	236.38
657.457	190.38
657.661	205.38
657.865	183.38
658.068	186.38
658.272	171.38
658.476	167.38
658.68	161.38
658.883	154.38
659.087	131.38
659.291	139.38
659.494	121.38
659.698	143.38
659.901	124.38
660.105	124.38
660.309	115.38
660.512	125.38
660.716	122.38
660.919	121.38
661.123	110.38
661.326	106.38
661.53	98.38
661.733	110.38
661.936	101.38
662.14	96.38
662.343	107.38
662.546	94.38
662.75	92.38
662.953	98.38
663.156	88.38
663.36	104.38
663.563	87.38
663.766	99.38
663.969	88.38
664.173	88.38
664.376	95.38
664.579	87.38
664.782	93.38
664.985	79.38
665.188	84.38
665.391	97.38
665.594	90.38
665.797	98.38
666	86.38
666.203	79.38
666.406	65.38
666.609	79.38
666.812	90.38
667.015	91.38
667.218	76.38
667.421	85.38
667.624	81.38
667.827	94.38
668.03	80.38
668.232	84.38
668.435	85.38
668.638	84.38
668.841	93.38
669.043	85.38
669.246	75.38
669.449	90.38
669.651	81.38
669.854	71.38
670.057	83.38
670.259	90.38
670.462	78.38
670.665	98.38
670.867	86.38
671.07	85.38
671.272	99.38
671.475	94.38
671.677	79.38
671.88	80.38
672.082	87.38
672.284	84.38
672.487	93.38
672.689	91.38
672.892	93.38
