Data from WStandard_LampEnergy10_LIBS07252019.E.O._I.C._HRD10591_15-53-27-928.txt Node
Date: Thu Jul 25 15:53:27 EDT 2019
User: cochatt
Spectrometer: HR+D1059
Trigger mode: 1
Integration Time (sec): 1.000000E-1
Scans to average: 1
Electric dark correction enabled: true
Nonlinearity correction enabled: false
Boxcar width: 0
XAxis mode: Wavelengths
Number of Pixels in Spectrum: 2048
>>>>>Begin Spectral Data<<<<<
223.165	-11.12
223.4	-11.12
223.635	-11.12
223.869	-5.12
224.104	6.88
224.338	-19.12
224.573	-26.12
224.808	-24.12
225.042	1.88
225.277	-12.12
225.511	-9.12
225.746	3.88
225.98	-11.12
226.215	6.88
226.449	18.88
226.683	15.88
226.918	30.88
227.152	32.88
227.387	24.88
227.621	43.88
227.856	60.88
228.09	57.88
228.324	45.88
228.559	57.88
228.793	75.88
229.027	138.88
229.262	142.88
229.496	155.88
229.73	148.88
229.964	167.88
230.199	173.88
230.433	168.88
230.667	183.88
230.901	208.88
231.136	193.88
231.37	160.88
231.604	194.88
231.838	172.88
232.072	185.88
232.306	167.88
232.541	191.88
232.775	209.88
233.009	219.88
233.243	214.88
233.477	196.88
233.711	186.88
233.945	203.88
234.179	192.88
234.413	208.88
234.647	204.88
234.881	198.88
235.115	193.88
235.349	194.88
235.583	224.88
235.817	210.88
236.051	198.88
236.285	209.88
236.519	202.88
236.753	232.88
236.987	228.88
237.221	196.88
237.455	252.88
237.689	241.88
237.922	222.88
238.156	213.88
238.39	218.88
238.624	225.88
238.858	260.88
239.091	252.88
239.325	256.88
239.559	290.88
239.793	312.88
240.027	306.88
240.26	293.88
240.494	250.88
240.728	236.88
240.961	226.88
241.195	248.88
241.429	276.88
241.662	254.88
241.896	246.88
242.13	250.88
242.363	262.88
242.597	271.88
242.83	292.88
243.064	292.88
243.298	287.88
243.531	291.88
243.765	288.88
243.998	277.88
244.232	264.88
244.465	244.88
244.699	260.88
244.932	286.88
245.166	317.88
245.399	301.88
245.633	295.88
245.866	288.88
246.099	292.88
246.333	315.88
246.566	300.88
246.8	337.88
247.033	366.88
247.266	338.88
247.5	330.88
247.733	337.88
247.966	341.88
248.2	354.88
248.433	373.88
248.666	369.88
248.899	402.88
249.133	449.88
249.366	455.88
249.599	394.88
249.832	372.88
250.066	369.88
250.299	365.88
250.532	354.88
250.765	336.88
250.998	337.88
251.231	340.88
251.465	374.88
251.698	354.88
251.931	341.88
252.164	380.88
252.397	354.88
252.63	349.88
252.863	322.88
253.096	336.88
253.329	351.88
253.562	362.88
253.795	364.88
254.028	368.88
254.261	346.88
254.494	331.88
254.727	363.88
254.96	360.88
255.193	373.88
255.426	408.88
255.659	490.88
255.892	469.88
256.124	389.88
256.357	396.88
256.59	389.88
256.823	414.88
257.056	440.88
257.289	473.88
257.521	521.88
257.754	482.88
257.987	468.88
258.22	480.88
258.452	460.88
258.685	408.88
258.918	378.88
259.151	401.88
259.383	371.88
259.616	332.88
259.849	372.88
260.081	414.88
260.314	462.88
260.547	472.88
260.779	474.88
261.012	444.88
261.244	403.88
261.477	397.88
261.71	409.88
261.942	403.88
262.175	396.88
262.407	425.88
262.64	390.88
262.872	374.88
263.105	369.88
263.337	378.88
263.57	394.88
263.802	404.88
264.035	352.88
264.267	341.88
264.499	327.88
264.732	390.88
264.964	397.88
265.197	406.88
265.429	440.88
265.661	458.88
265.894	489.88
266.126	508.88
266.358	468.88
266.591	456.88
266.823	494.88
267.055	460.88
267.287	469.88
267.52	446.88
267.752	447.88
267.984	464.88
268.216	469.88
268.448	466.88
268.681	465.88
268.913	427.88
269.145	406.88
269.377	407.88
269.609	473.88
269.841	499.88
270.073	573.88
270.306	608.88
270.538	658.88
270.77	554.88
271.002	530.88
271.234	497.88
271.466	502.88
271.698	528.88
271.93	591.88
272.162	610.88
272.394	554.88
272.626	545.88
272.858	471.88
273.09	438.88
273.322	428.88
273.553	410.88
273.785	413.88
274.017	427.88
274.249	440.88
274.481	430.88
274.713	425.88
274.945	408.88
275.176	433.88
275.408	397.88
275.64	408.88
275.872	418.88
276.104	432.88
276.335	496.88
276.567	535.88
276.799	517.88
277.031	492.88
277.262	479.88
277.494	516.88
277.726	530.88
277.957	511.88
278.189	458.88
278.421	443.88
278.652	427.88
278.884	435.88
279.115	439.88
279.347	459.88
279.579	438.88
279.81	459.88
280.042	492.88
280.273	503.88
280.505	517.88
280.736	506.88
280.968	494.88
281.199	461.88
281.431	425.88
281.662	437.88
281.894	466.88
282.125	448.88
282.356	468.88
282.588	466.88
282.819	461.88
283.051	488.88
283.282	524.88
283.513	507.88
283.745	464.88
283.976	440.88
284.207	437.88
284.439	434.88
284.67	445.88
284.901	461.88
285.132	459.88
285.364	450.88
285.595	465.88
285.826	447.88
286.057	455.88
286.288	460.88
286.52	484.88
286.751	513.88
286.982	506.88
287.213	455.88
287.444	440.88
287.675	439.88
287.906	467.88
288.138	506.88
288.369	494.88
288.6	454.88
288.831	448.88
289.062	450.88
289.293	471.88
289.524	468.88
289.755	459.88
289.986	478.88
290.217	443.88
290.448	445.88
290.679	440.88
290.91	463.88
291.141	487.88
291.371	487.88
291.602	485.88
291.833	497.88
292.064	531.88
292.295	506.88
292.526	508.88
292.757	525.88
292.987	488.88
293.218	505.88
293.449	524.88
293.68	586.88
293.91	605.88
294.141	562.88
294.372	556.88
294.603	564.88
294.833	569.88
295.064	547.88
295.295	495.88
295.525	481.88
295.756	445.88
295.987	466.88
296.217	460.88
296.448	470.88
296.679	476.88
296.909	480.88
297.14	489.88
297.37	487.88
297.601	513.88
297.831	536.88
298.062	522.88
298.292	486.88
298.523	468.88
298.753	492.88
298.984	477.88
299.214	473.88
299.445	488.88
299.675	500.88
299.905	503.88
300.136	501.88
300.366	470.88
300.597	490.88
300.827	493.88
301.057	502.88
301.288	521.88
301.518	520.88
301.748	539.88
301.979	572.88
302.209	560.88
302.439	587.88
302.669	600.88
302.9	550.88
303.13	527.88
303.36	532.88
303.59	520.88
303.82	545.88
304.051	505.88
304.281	541.88
304.511	544.88
304.741	582.88
304.971	615.88
305.201	636.88
305.431	570.88
305.661	492.88
305.891	473.88
306.121	454.88
306.352	520.88
306.582	530.88
306.812	552.88
307.042	592.88
307.272	579.88
307.502	619.88
307.731	658.88
307.961	631.88
308.191	597.88
308.421	516.88
308.651	504.88
308.881	503.88
309.111	490.88
309.341	514.88
309.571	531.88
309.8	505.88
310.03	510.88
310.26	509.88
310.49	490.88
310.72	543.88
310.949	552.88
311.179	542.88
311.409	528.88
311.639	528.88
311.868	518.88
312.098	534.88
312.328	522.88
312.557	519.88
312.787	510.88
313.017	532.88
313.246	538.88
313.476	530.88
313.706	529.88
313.935	531.88
314.165	555.88
314.394	579.88
314.624	605.88
314.853	629.88
315.083	650.88
315.312	649.88
315.542	601.88
315.771	548.88
316.001	573.88
316.23	580.88
316.46	572.88
316.689	553.88
316.919	518.88
317.148	525.88
317.377	556.88
317.607	601.88
317.836	652.88
318.065	647.88
318.295	627.88
318.524	595.88
318.753	584.88
318.983	571.88
319.212	580.88
319.441	566.88
319.67	557.88
319.9	588.88
320.129	610.88
320.358	616.88
320.587	626.88
320.816	634.88
321.046	632.88
321.275	608.88
321.504	604.88
321.733	637.88
321.962	613.88
322.191	564.88
322.42	570.88
322.649	546.88
322.878	566.88
323.108	547.88
323.337	581.88
323.566	603.88
323.795	582.88
324.024	583.88
324.253	573.88
324.482	575.88
324.71	561.88
324.939	532.88
325.168	558.88
325.397	570.88
325.626	575.88
325.855	573.88
326.084	582.88
326.313	553.88
326.542	565.88
326.77	610.88
326.999	600.88
327.228	547.88
327.457	549.88
327.686	583.88
327.914	570.88
328.143	592.88
328.372	577.88
328.6	569.88
328.829	548.88
329.058	552.88
329.287	580.88
329.515	574.88
329.744	602.88
329.972	626.88
330.201	634.88
330.43	630.88
330.658	600.88
330.887	564.88
331.115	600.88
331.344	592.88
331.572	584.88
331.801	618.88
332.03	602.88
332.258	606.88
332.486	624.88
332.715	631.88
332.943	611.88
333.172	596.88
333.4	607.88
333.629	668.88
333.857	688.88
334.085	770.88
334.314	838.88
334.542	829.88
334.771	753.88
334.999	714.88
335.227	672.88
335.455	650.88
335.684	647.88
335.912	665.88
336.14	666.88
336.369	632.88
336.597	620.88
336.825	626.88
337.053	662.88
337.281	672.88
337.51	688.88
337.738	717.88
337.966	668.88
338.194	623.88
338.422	645.88
338.65	605.88
338.878	594.88
339.106	572.88
339.334	575.88
339.562	589.88
339.79	600.88
340.018	613.88
340.246	636.88
340.474	634.88
340.702	636.88
340.93	634.88
341.158	642.88
341.386	618.88
341.614	608.88
341.842	607.88
342.07	587.88
342.298	606.88
342.526	628.88
342.754	579.88
342.981	613.88
343.209	603.88
343.437	607.88
343.665	609.88
343.893	639.88
344.12	660.88
344.348	636.88
344.576	610.88
344.804	612.88
345.031	624.88
345.259	598.88
345.487	584.88
345.714	596.88
345.942	545.88
346.17	569.88
346.397	593.88
346.625	570.88
346.853	535.88
347.08	564.88
347.308	537.88
347.535	590.88
347.763	589.88
347.99	583.88
348.218	551.88
348.445	569.88
348.673	572.88
348.9	591.88
349.128	616.88
349.355	622.88
349.583	609.88
349.81	549.88
350.037	523.88
350.265	541.88
350.492	556.88
350.72	560.88
350.947	577.88
351.174	577.88
351.402	547.88
351.629	540.88
351.856	523.88
352.083	525.88
352.311	552.88
352.538	570.88
352.765	585.88
352.992	570.88
353.22	564.88
353.447	524.88
353.674	568.88
353.901	581.88
354.128	578.88
354.355	561.88
354.583	613.88
354.81	604.88
355.037	595.88
355.264	590.88
355.491	585.88
355.718	595.88
355.945	606.88
356.172	553.88
356.399	544.88
356.626	587.88
356.853	592.88
357.08	666.88
357.307	712.88
357.534	672.88
357.761	577.88
357.988	550.88
358.215	566.88
358.441	550.88
358.668	545.88
358.895	580.88
359.122	624.88
359.349	642.88
359.576	600.88
359.802	588.88
360.029	573.88
360.256	541.88
360.483	609.88
360.709	586.88
360.936	624.88
361.163	626.88
361.39	676.88
361.616	717.88
361.843	699.88
362.07	646.88
362.296	581.88
362.523	558.88
362.749	581.88
362.976	598.88
363.203	626.88
363.429	602.88
363.656	569.88
363.882	614.88
364.109	669.88
364.335	692.88
364.562	625.88
364.788	631.88
365.015	580.88
365.241	588.88
365.468	597.88
365.694	618.88
365.92	628.88
366.147	593.88
366.373	570.88
366.599	569.88
366.826	573.88
367.052	591.88
367.278	573.88
367.505	589.88
367.731	628.88
367.957	636.88
368.184	632.88
368.41	683.88
368.636	688.88
368.862	690.88
369.089	689.88
369.315	663.88
369.541	646.88
369.767	606.88
369.993	595.88
370.219	603.88
370.445	638.88
370.672	673.88
370.898	684.88
371.124	677.88
371.35	647.88
371.576	658.88
371.802	667.88
372.028	637.88
372.254	617.88
372.48	629.88
372.706	604.88
372.932	619.88
373.158	621.88
373.384	659.88
373.61	663.88
373.835	673.88
374.061	625.88
374.287	642.88
374.513	644.88
374.739	652.88
374.965	666.88
375.191	652.88
375.416	640.88
375.642	660.88
375.868	720.88
376.094	727.88
376.319	693.88
376.545	649.88
376.771	670.88
376.997	715.88
377.222	682.88
377.448	695.88
377.674	686.88
377.899	706.88
378.125	707.88
378.35	693.88
378.576	649.88
378.802	646.88
379.027	628.88
379.253	635.88
379.478	638.88
379.704	655.88
379.929	636.88
380.155	658.88
380.38	679.88
380.606	652.88
380.831	673.88
381.057	724.88
381.282	700.88
381.507	690.88
381.733	735.88
381.958	772.88
382.184	716.88
382.409	666.88
382.634	686.88
382.86	671.88
383.085	730.88
383.31	736.88
383.535	781.88
383.761	813.88
383.986	772.88
384.211	741.88
384.436	730.88
384.662	800.88
384.887	762.88
385.112	747.88
385.337	746.88
385.562	740.88
385.787	764.88
386.013	791.88
386.238	778.88
386.463	783.88
386.688	882.88
386.913	867.88
387.138	815.88
387.363	772.88
387.588	776.88
387.813	761.88
388.038	811.88
388.263	813.88
388.488	793.88
388.713	739.88
388.938	763.88
389.163	726.88
389.387	743.88
389.612	766.88
389.837	754.88
390.062	780.88
390.287	770.88
390.512	773.88
390.736	749.88
390.961	744.88
391.186	731.88
391.411	760.88
391.636	749.88
391.86	743.88
392.085	774.88
392.31	772.88
392.534	760.88
392.759	770.88
392.984	770.88
393.208	784.88
393.433	796.88
393.658	829.88
393.882	809.88
394.107	778.88
394.331	757.88
394.556	773.88
394.78	774.88
395.005	797.88
395.229	830.88
395.454	898.88
395.678	914.88
395.903	827.88
396.127	820.88
396.352	840.88
396.576	855.88
396.801	876.88
397.025	846.88
397.249	892.88
397.474	844.88
397.698	835.88
397.922	863.88
398.147	900.88
398.371	917.88
398.595	906.88
398.82	865.88
399.044	909.88
399.268	948.88
399.492	960.88
399.717	1020.88
399.941	1027.88
400.165	976.88
400.389	988.88
400.613	1027.88
400.837	1150.88
401.062	1217.88
401.286	1045.88
401.51	1004.88
401.734	1001.88
401.958	957.88
402.182	890.88
402.406	880.88
402.63	900.88
402.854	892.88
403.078	896.88
403.302	913.88
403.526	921.88
403.75	928.88
403.974	926.88
404.198	939.88
404.422	980.88
404.645	1033.88
404.869	1000.88
405.093	939.88
405.317	926.88
405.541	935.88
405.765	965.88
405.988	954.88
406.212	954.88
406.436	977.88
406.66	1074.88
406.883	1072.88
407.107	1155.88
407.331	1233.88
407.555	1296.88
407.778	1160.88
408.002	1001.88
408.226	972.88
408.449	1013.88
408.673	966.88
408.896	964.88
409.12	982.88
409.344	928.88
409.567	931.88
409.791	977.88
410.014	985.88
410.238	1040.88
410.461	1076.88
410.685	960.88
410.908	967.88
411.132	967.88
411.355	930.88
411.578	949.88
411.802	963.88
412.025	960.88
412.249	958.88
412.472	926.88
412.695	933.88
412.919	931.88
413.142	906.88
413.365	944.88
413.589	996.88
413.812	1044.88
414.035	1013.88
414.258	946.88
414.482	936.88
414.705	947.88
414.928	930.88
415.151	930.88
415.374	936.88
415.597	945.88
415.821	957.88
416.044	968.88
416.267	959.88
416.49	907.88
416.713	946.88
416.936	979.88
417.159	1018.88
417.382	982.88
417.605	940.88
417.828	935.88
418.051	1010.88
418.274	950.88
418.497	946.88
418.72	956.88
418.943	976.88
419.166	994.88
419.389	994.88
419.611	990.88
419.834	942.88
420.057	944.88
420.28	960.88
420.503	921.88
420.726	973.88
420.948	954.88
421.171	932.88
421.394	937.88
421.617	978.88
421.839	1015.88
422.062	988.88
422.285	952.88
422.507	937.88
422.73	882.88
422.953	898.88
423.175	881.88
423.398	914.88
423.621	906.88
423.843	926.88
424.066	994.88
424.288	1034.88
424.511	1084.88
424.733	1042.88
424.956	934.88
425.178	967.88
425.401	949.88
425.623	985.88
425.846	962.88
426.068	1001.88
426.291	995.88
426.513	1000.88
426.735	983.88
426.958	1057.88
427.18	1082.88
427.402	1048.88
427.625	1048.88
427.847	1014.88
428.069	922.88
428.292	945.88
428.514	912.88
428.736	901.88
428.958	914.88
429.181	950.88
429.403	1071.88
429.625	1264.88
429.847	1078.88
430.069	976.88
430.292	1103.88
430.514	1073.88
430.736	972.88
430.958	968.88
431.18	941.88
431.402	869.88
431.624	869.88
431.846	827.88
432.068	738.88
432.29	760.88
432.512	806.88
432.734	883.88
432.956	929.88
433.178	972.88
433.4	985.88
433.622	993.88
433.844	922.88
434.066	883.88
434.287	806.88
434.509	828.88
434.731	850.88
434.953	946.88
435.175	946.88
435.397	952.88
435.618	905.88
435.84	844.88
436.062	864.88
436.284	923.88
436.505	946.88
436.727	971.88
436.949	948.88
437.17	940.88
437.392	885.88
437.614	880.88
437.835	812.88
438.057	832.88
438.278	874.88
438.5	865.88
438.721	908.88
438.943	949.88
439.165	964.88
439.386	931.88
439.608	978.88
439.829	952.88
440.05	942.88
440.272	997.88
440.493	969.88
440.715	1014.88
440.936	1017.88
441.158	1086.88
441.379	1109.88
441.6	1063.88
441.822	1046.88
442.043	1036.88
442.264	1002.88
442.486	971.88
442.707	919.88
442.928	988.88
443.149	998.88
443.371	990.88
443.592	1003.88
443.813	1042.88
444.034	1031.88
444.255	1050.88
444.476	1046.88
444.698	1079.88
444.919	1052.88
445.14	1140.88
445.361	1097.88
445.582	1115.88
445.803	1088.88
446.024	1069.88
446.245	1099.88
446.466	1084.88
446.687	1054.88
446.908	1058.88
447.129	1050.88
447.35	1022.88
447.571	1022.88
447.792	993.88
448.013	963.88
448.234	974.88
448.455	992.88
448.675	1027.88
448.896	947.88
449.117	957.88
449.338	937.88
449.559	973.88
449.779	1015.88
450	1016.88
450.221	1077.88
450.442	1052.88
450.662	958.88
450.883	905.88
451.104	890.88
451.324	896.88
451.545	926.88
451.766	872.88
451.986	824.88
452.207	830.88
452.428	788.88
452.648	802.88
452.869	802.88
453.089	780.88
453.31	774.88
453.53	780.88
453.751	762.88
453.971	706.88
454.192	727.88
454.412	800.88
454.633	793.88
454.853	797.88
455.073	753.88
455.294	798.88
455.514	804.88
455.734	756.88
455.955	765.88
456.175	744.88
456.395	744.88
456.616	753.88
456.836	750.88
457.056	734.88
457.276	738.88
457.497	704.88
457.717	728.88
457.937	712.88
458.157	740.88
458.377	701.88
458.598	721.88
458.818	697.88
459.038	720.88
459.258	729.88
459.478	716.88
459.698	714.88
459.918	749.88
460.138	820.88
460.358	845.88
460.578	841.88
460.798	892.88
461.018	892.88
461.238	903.88
461.458	859.88
461.678	866.88
461.898	841.88
462.118	864.88
462.338	893.88
462.558	861.88
462.777	871.88
462.997	855.88
463.217	918.88
463.437	895.88
463.657	864.88
463.876	836.88
464.096	864.88
464.316	864.88
464.536	873.88
464.755	883.88
464.975	896.88
465.195	882.88
465.414	903.88
465.634	883.88
465.854	887.88
466.073	984.88
466.293	953.88
466.512	887.88
466.732	881.88
466.951	897.88
467.171	892.88
467.391	880.88
467.61	880.88
467.829	913.88
468.049	1024.88
468.268	1080.88
468.488	950.88
468.707	936.88
468.927	944.88
469.146	956.88
469.365	949.88
469.585	986.88
469.804	922.88
470.023	966.88
470.243	960.88
470.462	966.88
470.681	958.88
470.901	953.88
471.12	946.88
471.339	931.88
471.558	952.88
471.777	910.88
471.997	914.88
472.216	875.88
472.435	781.88
472.654	789.88
472.873	797.88
473.092	855.88
473.311	856.88
473.53	846.88
473.749	852.88
473.968	844.88
474.187	867.88
474.406	886.88
474.625	893.88
474.844	893.88
475.063	908.88
475.282	898.88
475.501	861.88
475.72	840.88
475.939	931.88
476.158	898.88
476.377	880.88
476.596	879.88
476.814	832.88
477.033	810.88
477.252	888.88
477.471	934.88
477.69	941.88
477.908	946.88
478.127	1009.88
478.346	1029.88
478.564	1030.88
478.783	1037.88
479.002	1047.88
479.22	1036.88
479.439	1048.88
479.658	1029.88
479.876	978.88
480.095	939.88
480.313	917.88
480.532	896.88
480.751	878.88
480.969	832.88
481.188	810.88
481.406	811.88
481.624	806.88
481.843	797.88
482.061	825.88
482.28	904.88
482.498	914.88
482.717	874.88
482.935	933.88
483.153	997.88
483.372	1046.88
483.59	1034.88
483.808	1037.88
484.027	985.88
484.245	1049.88
484.463	1211.88
484.681	1312.88
484.9	1037.88
485.118	984.88
485.336	946.88
485.554	911.88
485.772	901.88
485.99	897.88
486.209	894.88
486.427	925.88
486.645	970.88
486.863	1020.88
487.081	1065.88
487.299	1019.88
487.517	1022.88
487.735	1100.88
487.953	1196.88
488.171	1182.88
488.389	1165.88
488.607	1120.88
488.825	1158.88
489.043	1092.88
489.261	1023.88
489.479	1056.88
489.696	1062.88
489.914	1045.88
490.132	1045.88
490.35	1097.88
490.568	1180.88
490.786	1174.88
491.003	1187.88
491.221	1263.88
491.439	1321.88
491.657	1350.88
491.874	1449.88
492.092	1466.88
492.31	1523.88
492.527	1509.88
492.745	1399.88
492.963	1340.88
493.18	1357.88
493.398	1361.88
493.615	1338.88
493.833	1332.88
494.05	1260.88
494.268	1260.88
494.485	1260.88
494.703	1242.88
494.92	1260.88
495.138	1253.88
495.355	1271.88
495.573	1284.88
495.79	1309.88
496.008	1318.88
496.225	1260.88
496.442	1246.88
496.66	1256.88
496.877	1250.88
497.094	1230.88
497.312	1222.88
497.529	1207.88
497.746	1210.88
497.963	1281.88
498.181	1332.88
498.398	1290.88
498.615	1243.88
498.832	1197.88
499.049	1189.88
499.267	1186.88
499.484	1267.88
499.701	1372.88
499.918	1370.88
500.135	1522.88
500.352	1576.88
500.569	1563.88
500.786	1761.88
501.003	1580.88
501.22	1448.88
501.437	1418.88
501.654	1466.88
501.871	1370.88
502.088	1247.88
502.305	1218.88
502.522	1170.88
502.739	1109.88
502.956	1096.88
503.172	1091.88
503.389	1040.88
503.606	993.88
503.823	1029.88
504.04	1023.88
504.256	1011.88
504.473	1024.88
504.69	1041.88
504.907	980.88
505.123	962.88
505.34	1084.88
505.557	1407.88
505.773	1166.88
505.99	974.88
506.207	935.88
506.423	914.88
506.64	904.88
506.856	906.88
507.073	1044.88
507.289	1069.88
507.506	1042.88
507.722	900.88
507.939	879.88
508.155	863.88
508.372	872.88
508.588	817.88
508.805	811.88
509.021	800.88
509.238	782.88
509.454	770.88
509.67	758.88
509.887	768.88
510.103	729.88
510.319	784.88
510.536	780.88
510.752	796.88
510.968	794.88
511.184	810.88
511.401	773.88
511.617	726.88
511.833	715.88
512.049	729.88
512.265	724.88
512.481	731.88
512.698	753.88
512.914	778.88
513.13	770.88
513.346	743.88
513.562	706.88
513.778	726.88
513.994	788.88
514.21	772.88
514.426	789.88
514.642	826.88
514.858	790.88
515.074	743.88
515.29	749.88
515.506	741.88
515.721	735.88
515.937	747.88
516.153	816.88
516.369	811.88
516.585	747.88
516.801	719.88
517.016	777.88
517.232	762.88
517.448	783.88
517.664	792.88
517.879	799.88
518.095	826.88
518.311	807.88
518.527	787.88
518.742	793.88
518.958	748.88
519.173	758.88
519.389	785.88
519.605	813.88
519.82	828.88
520.036	801.88
520.251	786.88
520.467	810.88
520.682	840.88
520.898	802.88
521.113	732.88
521.329	708.88
521.544	805.88
521.76	768.88
521.975	731.88
522.19	748.88
522.406	743.88
522.621	948.88
522.836	900.88
523.052	772.88
523.267	772.88
523.482	794.88
523.698	772.88
523.913	723.88
524.128	782.88
524.343	831.88
524.559	836.88
524.774	811.88
524.989	795.88
525.204	772.88
525.419	750.88
525.634	741.88
525.849	741.88
526.064	737.88
526.28	723.88
526.495	684.88
526.71	680.88
526.925	646.88
527.14	665.88
527.355	637.88
527.57	654.88
527.785	673.88
527.999	673.88
528.214	698.88
528.429	688.88
528.644	772.88
528.859	826.88
529.074	848.88
529.289	878.88
529.503	875.88
529.718	828.88
529.933	745.88
530.148	670.88
530.363	670.88
530.577	662.88
530.792	655.88
531.007	649.88
531.221	653.88
531.436	653.88
531.651	662.88
531.865	655.88
532.08	682.88
532.295	625.88
532.509	624.88
532.724	647.88
532.938	676.88
533.153	704.88
533.367	724.88
533.582	738.88
533.796	756.88
534.011	741.88
534.225	667.88
534.44	643.88
534.654	655.88
534.868	650.88
535.083	692.88
535.297	736.88
535.511	686.88
535.726	720.88
535.94	710.88
536.154	640.88
536.369	637.88
536.583	602.88
536.797	606.88
537.011	643.88
537.225	612.88
537.44	606.88
537.654	648.88
537.868	640.88
538.082	621.88
538.296	614.88
538.51	635.88
538.724	677.88
538.938	726.88
539.153	743.88
539.367	741.88
539.581	700.88
539.795	692.88
540.009	653.88
540.222	649.88
540.436	669.88
540.65	778.88
540.864	790.88
541.078	818.88
541.292	884.88
541.506	909.88
541.72	967.88
541.934	1056.88
542.147	1100.88
542.361	1009.88
542.575	925.88
542.789	866.88
543.002	772.88
543.216	765.88
543.43	792.88
543.644	828.88
543.857	890.88
544.071	939.88
544.285	954.88
544.498	948.88
544.712	959.88
544.925	978.88
545.139	951.88
545.352	950.88
545.566	948.88
545.779	954.88
545.993	965.88
546.206	982.88
546.42	981.88
546.633	949.88
546.847	980.88
547.06	969.88
547.274	970.88
547.487	995.88
547.7	1010.88
547.914	962.88
548.127	988.88
548.34	981.88
548.554	980.88
548.767	927.88
548.98	968.88
549.193	948.88
549.407	972.88
549.62	959.88
549.833	916.88
550.046	916.88
550.259	911.88
550.473	901.88
550.686	918.88
550.899	892.88
551.112	874.88
551.325	820.88
551.538	852.88
551.751	918.88
551.964	733.88
552.177	732.88
552.39	811.88
552.603	866.88
552.816	908.88
553.029	939.88
553.242	905.88
553.455	909.88
553.667	912.88
553.88	916.88
554.093	904.88
554.306	896.88
554.519	829.88
554.732	850.88
554.944	868.88
555.157	841.88
555.37	836.88
555.583	827.88
555.795	779.88
556.008	760.88
556.221	736.88
556.433	770.88
556.646	744.88
556.859	749.88
557.071	755.88
557.284	779.88
557.496	786.88
557.709	747.88
557.921	743.88
558.134	747.88
558.346	773.88
558.559	737.88
558.771	734.88
558.984	691.88
559.196	694.88
559.409	707.88
559.621	707.88
559.833	674.88
560.046	677.88
560.258	698.88
560.47	685.88
560.683	685.88
560.895	686.88
561.107	665.88
561.32	677.88
561.532	713.88
561.744	690.88
561.956	690.88
562.168	709.88
562.381	675.88
562.593	629.88
562.805	646.88
563.017	652.88
563.229	651.88
563.441	654.88
563.653	642.88
563.865	611.88
564.077	606.88
564.289	622.88
564.501	626.88
564.713	647.88
564.925	645.88
565.137	686.88
565.349	652.88
565.561	605.88
565.773	615.88
565.985	626.88
566.197	677.88
566.408	658.88
566.62	690.88
566.832	655.88
567.044	685.88
567.255	653.88
567.467	663.88
567.679	691.88
567.891	660.88
568.102	624.88
568.314	586.88
568.526	545.88
568.737	516.88
568.949	510.88
569.161	484.88
569.372	491.88
569.584	470.88
569.795	478.88
570.007	448.88
570.218	448.88
570.43	436.88
570.641	453.88
570.853	465.88
571.064	512.88
571.276	484.88
571.487	473.88
571.698	470.88
571.91	470.88
572.121	471.88
572.333	470.88
572.544	439.88
572.755	410.88
572.966	404.88
573.178	416.88
573.389	428.88
573.6	426.88
573.811	441.88
574.023	389.88
574.234	388.88
574.445	411.88
574.656	398.88
574.867	402.88
575.078	406.88
575.289	433.88
575.501	408.88
575.712	388.88
575.923	403.88
576.134	420.88
576.345	403.88
576.556	410.88
576.767	392.88
576.978	386.88
577.188	387.88
577.399	384.88
577.61	398.88
577.821	382.88
578.032	394.88
578.243	384.88
578.454	363.88
578.665	369.88
578.875	350.88
579.086	332.88
579.297	343.88
579.508	372.88
579.718	359.88
579.929	346.88
580.14	343.88
580.35	340.88
580.561	365.88
580.772	393.88
580.982	386.88
581.193	373.88
581.403	343.88
581.614	336.88
581.825	338.88
582.035	360.88
582.246	352.88
582.456	369.88
582.667	342.88
582.877	338.88
583.087	356.88
583.298	344.88
583.508	335.88
583.719	320.88
583.929	344.88
584.139	340.88
584.35	336.88
584.56	324.88
584.77	342.88
584.981	321.88
585.191	321.88
585.401	347.88
585.611	330.88
585.821	328.88
586.032	309.88
586.242	335.88
586.452	314.88
586.662	328.88
586.872	320.88
587.082	324.88
587.292	319.88
587.502	340.88
587.713	330.88
587.923	327.88
588.133	316.88
588.343	308.88
588.553	313.88
588.762	319.88
588.972	301.88
589.182	339.88
589.392	334.88
589.602	305.88
589.812	331.88
590.022	334.88
590.232	315.88
590.441	316.88
590.651	306.88
590.861	302.88
591.071	306.88
591.281	317.88
591.49	310.88
591.7	318.88
591.91	333.88
592.119	321.88
592.329	326.88
592.539	334.88
592.748	319.88
592.958	316.88
593.167	337.88
593.377	337.88
593.587	330.88
593.796	311.88
594.006	335.88
594.215	337.88
594.424	332.88
594.634	345.88
594.843	329.88
595.053	370.88
595.262	342.88
595.472	337.88
595.681	324.88
595.89	323.88
596.1	314.88
596.309	344.88
596.518	327.88
596.727	332.88
596.937	338.88
597.146	308.88
597.355	346.88
597.564	308.88
597.774	309.88
597.983	301.88
598.192	280.88
598.401	299.88
598.61	288.88
598.819	297.88
599.028	314.88
599.237	285.88
599.446	287.88
599.655	274.88
599.864	294.88
600.073	290.88
600.282	301.88
600.491	294.88
600.7	299.88
600.909	316.88
601.118	297.88
601.327	322.88
601.536	349.88
601.745	352.88
601.953	348.88
602.162	355.88
602.371	354.88
602.58	360.88
602.789	361.88
602.997	343.88
603.206	349.88
603.415	359.88
603.623	357.88
603.832	344.88
604.041	344.88
604.249	349.88
604.458	296.88
604.666	320.88
604.875	320.88
605.084	333.88
605.292	353.88
605.501	357.88
605.709	385.88
605.918	362.88
606.126	364.88
606.334	373.88
606.543	356.88
606.751	372.88
606.96	365.88
607.168	366.88
607.376	347.88
607.585	359.88
607.793	373.88
608.001	368.88
608.21	374.88
608.418	379.88
608.626	376.88
608.834	378.88
609.043	369.88
609.251	363.88
609.459	374.88
609.667	348.88
609.875	363.88
610.083	373.88
610.291	370.88
610.499	376.88
610.707	375.88
610.916	377.88
611.124	380.88
611.332	376.88
611.54	371.88
611.748	380.88
611.955	369.88
612.163	375.88
612.371	388.88
612.579	352.88
612.787	365.88
612.995	363.88
613.203	370.88
613.411	376.88
613.618	360.88
613.826	354.88
614.034	347.88
614.242	350.88
614.449	362.88
614.657	362.88
614.865	382.88
615.072	377.88
615.28	358.88
615.488	364.88
615.695	377.88
615.903	382.88
616.111	372.88
616.318	378.88
616.526	366.88
616.733	344.88
616.941	368.88
617.148	365.88
617.356	355.88
617.563	329.88
617.771	335.88
617.978	337.88
618.185	359.88
618.393	361.88
618.6	342.88
618.807	361.88
619.015	344.88
619.222	342.88
619.429	332.88
619.637	312.88
619.844	276.88
620.051	320.88
620.258	325.88
620.466	330.88
620.673	336.88
620.88	315.88
621.087	309.88
621.294	315.88
621.501	299.88
621.708	296.88
621.915	304.88
622.122	320.88
622.329	317.88
622.536	342.88
622.743	326.88
622.95	316.88
623.157	308.88
623.364	328.88
623.571	353.88
623.778	336.88
623.985	331.88
624.192	310.88
624.399	317.88
624.606	300.88
624.812	292.88
625.019	310.88
625.226	298.88
625.433	278.88
625.639	280.88
625.846	275.88
626.053	252.88
626.259	238.88
626.466	249.88
626.673	256.88
626.879	240.88
627.086	256.88
627.293	291.88
627.499	286.88
627.706	309.88
627.912	313.88
628.119	302.88
628.325	281.88
628.532	302.88
628.738	299.88
628.945	285.88
629.151	285.88
629.357	297.88
629.564	287.88
629.77	277.88
629.976	284.88
630.183	280.88
630.389	271.88
630.595	294.88
630.802	280.88
631.008	276.88
631.214	280.88
631.42	264.88
631.627	260.88
631.833	270.88
632.039	275.88
632.245	274.88
632.451	254.88
632.657	274.88
632.863	248.88
633.069	264.88
633.275	249.88
633.481	261.88
633.688	263.88
633.893	249.88
634.099	289.88
634.305	261.88
634.511	270.88
634.717	241.88
634.923	249.88
635.129	237.88
635.335	246.88
635.541	237.88
635.747	252.88
635.952	256.88
636.158	269.88
636.364	263.88
636.57	263.88
636.775	264.88
636.981	270.88
637.187	269.88
637.392	267.88
637.598	263.88
637.804	266.88
638.009	268.88
638.215	279.88
638.421	263.88
638.626	250.88
638.832	249.88
639.037	245.88
639.243	254.88
639.448	244.88
639.654	243.88
639.859	255.88
640.065	247.88
640.27	256.88
640.475	247.88
640.681	262.88
640.886	262.88
641.091	261.88
641.297	253.88
641.502	231.88
641.707	250.88
641.913	259.88
642.118	263.88
642.323	239.88
642.528	265.88
642.733	270.88
642.939	259.88
643.144	246.88
643.349	258.88
643.554	234.88
643.759	230.88
643.964	237.88
644.169	233.88
644.374	229.88
644.579	231.88
644.784	247.88
644.989	260.88
645.194	237.88
645.399	265.88
645.604	236.88
645.809	247.88
646.014	232.88
646.219	230.88
646.423	260.88
646.628	259.88
646.833	240.88
647.038	252.88
647.243	257.88
647.447	244.88
647.652	256.88
647.857	248.88
648.062	254.88
648.266	237.88
648.471	244.88
648.676	254.88
648.88	229.88
649.085	252.88
649.289	236.88
649.494	246.88
649.698	246.88
649.903	250.88
650.107	240.88
650.312	243.88
650.516	254.88
650.721	225.88
650.925	232.88
651.13	235.88
651.334	217.88
651.539	218.88
651.743	233.88
651.947	208.88
652.152	220.88
652.356	216.88
652.56	225.88
652.764	225.88
652.969	208.88
653.173	216.88
653.377	212.88
653.581	219.88
653.785	212.88
653.99	216.88
654.194	226.88
654.398	215.88
654.602	199.88
654.806	207.88
655.01	203.88
655.214	213.88
655.418	214.88
655.622	212.88
655.826	227.88
656.03	237.88
656.234	216.88
656.438	247.88
656.642	219.88
656.846	216.88
657.049	191.88
657.253	206.88
657.457	193.88
657.661	181.88
657.865	165.88
658.068	176.88
658.272	166.88
658.476	151.88
658.68	163.88
658.883	148.88
659.087	153.88
659.291	125.88
659.494	140.88
659.698	138.88
659.901	122.88
660.105	117.88
660.309	121.88
660.512	129.88
660.716	126.88
660.919	142.88
661.123	118.88
661.326	121.88
661.53	108.88
661.733	115.88
661.936	99.88
662.14	101.88
662.343	81.88
662.546	91.88
662.75	94.88
662.953	109.88
663.156	87.88
663.36	87.88
663.563	96.88
663.766	88.88
663.969	90.88
664.173	100.88
664.376	93.88
664.579	92.88
664.782	86.88
664.985	84.88
665.188	87.88
665.391	88.88
665.594	84.88
665.797	77.88
666	95.88
666.203	72.88
666.406	87.88
666.609	89.88
666.812	92.88
667.015	85.88
667.218	77.88
667.421	96.88
667.624	93.88
667.827	78.88
668.03	66.88
668.232	92.88
668.435	83.88
668.638	82.88
668.841	97.88
669.043	95.88
669.246	92.88
669.449	80.88
669.651	70.88
669.854	81.88
670.057	78.88
670.259	82.88
670.462	88.88
670.665	93.88
670.867	75.88
671.07	96.88
671.272	87.88
671.475	86.88
671.677	92.88
671.88	84.88
672.082	76.88
672.284	95.88
672.487	94.88
672.689	91.88
672.892	90.88
