Data from WStandard_LampEnergy8_LIBS07252019.E.O._I.C._HRD10591_15-59-27-930.txt Node
Date: Thu Jul 25 15:59:27 EDT 2019
User: cochatt
Spectrometer: HR+D1059
Trigger mode: 1
Integration Time (sec): 1.000000E-1
Scans to average: 1
Electric dark correction enabled: true
Nonlinearity correction enabled: false
Boxcar width: 0
XAxis mode: Wavelengths
Number of Pixels in Spectrum: 2048
>>>>>Begin Spectral Data<<<<<
223.165	-11.44
223.4	-11.44
223.635	-11.44
223.869	-16.44
224.104	-21.44
224.338	-14.44
224.573	-10.44
224.808	-13.44
225.042	-1.44
225.277	-6.44
225.511	-9.44
225.746	-4.44
225.98	5.56
226.215	9.56
226.449	17.56
226.683	19.56
226.918	25.56
227.152	31.56
227.387	42.56
227.621	37.56
227.856	37.56
228.09	55.56
228.324	44.56
228.559	32.56
228.793	102.56
229.027	187.56
229.262	211.56
229.496	216.56
229.73	211.56
229.964	237.56
230.199	253.56
230.433	253.56
230.667	248.56
230.901	284.56
231.136	269.56
231.37	272.56
231.604	263.56
231.838	267.56
232.072	262.56
232.306	253.56
232.541	272.56
232.775	302.56
233.009	318.56
233.243	305.56
233.477	286.56
233.711	292.56
233.945	312.56
234.179	288.56
234.413	315.56
234.647	342.56
234.881	320.56
235.115	302.56
235.349	293.56
235.583	298.56
235.817	286.56
236.051	300.56
236.285	287.56
236.519	300.56
236.753	327.56
236.987	356.56
237.221	330.56
237.455	390.56
237.689	368.56
237.922	333.56
238.156	330.56
238.39	330.56
238.624	374.56
238.858	375.56
239.091	392.56
239.325	401.56
239.559	472.56
239.793	460.56
240.027	482.56
240.26	494.56
240.494	385.56
240.728	358.56
240.961	370.56
241.195	396.56
241.429	409.56
241.662	420.56
241.896	384.56
242.13	395.56
242.363	418.56
242.597	454.56
242.83	434.56
243.064	428.56
243.298	468.56
243.531	451.56
243.765	450.56
243.998	450.56
244.232	405.56
244.465	394.56
244.699	423.56
244.932	441.56
245.166	495.56
245.399	490.56
245.633	455.56
245.866	461.56
246.099	477.56
246.333	477.56
246.566	497.56
246.8	534.56
247.033	566.56
247.266	534.56
247.5	531.56
247.733	515.56
247.966	537.56
248.2	610.56
248.433	601.56
248.666	615.56
248.899	665.56
249.133	738.56
249.366	790.56
249.599	674.56
249.832	615.56
250.066	592.56
250.299	618.56
250.532	609.56
250.765	548.56
250.998	535.56
251.231	592.56
251.465	607.56
251.698	568.56
251.931	566.56
252.164	594.56
252.397	614.56
252.63	585.56
252.863	532.56
253.096	551.56
253.329	572.56
253.562	576.56
253.795	584.56
254.028	606.56
254.261	568.56
254.494	546.56
254.727	555.56
254.96	586.56
255.193	640.56
255.426	686.56
255.659	785.56
255.892	800.56
256.124	669.56
256.357	660.56
256.59	700.56
256.823	694.56
257.056	711.56
257.289	818.56
257.521	881.56
257.754	790.56
257.987	782.56
258.22	848.56
258.452	788.56
258.685	682.56
258.918	674.56
259.151	650.56
259.383	622.56
259.616	573.56
259.849	633.56
260.081	684.56
260.314	781.56
260.547	808.56
260.779	798.56
261.012	737.56
261.244	681.56
261.477	656.56
261.71	678.56
261.942	672.56
262.175	660.56
262.407	699.56
262.64	646.56
262.872	626.56
263.105	611.56
263.337	622.56
263.57	644.56
263.802	616.56
264.035	588.56
264.267	569.56
264.499	562.56
264.732	605.56
264.964	639.56
265.197	668.56
265.429	699.56
265.661	772.56
265.894	844.56
266.126	828.56
266.358	758.56
266.591	822.56
266.823	861.56
267.055	799.56
267.287	786.56
267.52	777.56
267.752	760.56
267.984	742.56
268.216	740.56
268.448	797.56
268.681	800.56
268.913	722.56
269.145	675.56
269.377	676.56
269.609	758.56
269.841	873.56
270.073	985.56
270.306	1084.56
270.538	1100.56
270.77	925.56
271.002	848.56
271.234	786.56
271.466	812.56
271.698	898.56
271.93	1038.56
272.162	1054.56
272.394	921.56
272.626	878.56
272.858	789.56
273.09	732.56
273.322	691.56
273.553	666.56
273.785	673.56
274.017	716.56
274.249	734.56
274.481	775.56
274.713	706.56
274.945	701.56
275.176	693.56
275.408	713.56
275.64	687.56
275.872	678.56
276.104	720.56
276.335	831.56
276.567	904.56
276.799	889.56
277.031	817.56
277.262	807.56
277.494	852.56
277.726	900.56
277.957	844.56
278.189	827.56
278.421	735.56
278.652	721.56
278.884	700.56
279.115	716.56
279.347	747.56
279.579	732.56
279.81	735.56
280.042	808.56
280.273	872.56
280.505	871.56
280.736	862.56
280.968	817.56
281.199	720.56
281.431	718.56
281.662	713.56
281.894	721.56
282.125	753.56
282.356	744.56
282.588	764.56
282.819	779.56
283.051	834.56
283.282	886.56
283.513	840.56
283.745	748.56
283.976	702.56
284.207	702.56
284.439	725.56
284.67	699.56
284.901	768.56
285.132	761.56
285.364	764.56
285.595	776.56
285.826	749.56
286.057	752.56
286.288	731.56
286.52	779.56
286.751	847.56
286.982	868.56
287.213	775.56
287.444	711.56
287.675	720.56
287.906	753.56
288.138	830.56
288.369	802.56
288.6	738.56
288.831	737.56
289.062	741.56
289.293	745.56
289.524	732.56
289.755	778.56
289.986	807.56
290.217	739.56
290.448	748.56
290.679	786.56
290.91	772.56
291.141	800.56
291.371	814.56
291.602	792.56
291.833	790.56
292.064	800.56
292.295	807.56
292.526	851.56
292.757	849.56
292.987	805.56
293.218	801.56
293.449	865.56
293.68	948.56
293.91	997.56
294.141	949.56
294.372	902.56
294.603	946.56
294.833	960.56
295.064	884.56
295.295	790.56
295.525	797.56
295.756	787.56
295.987	727.56
296.217	739.56
296.448	746.56
296.679	755.56
296.909	766.56
297.14	751.56
297.37	769.56
297.601	817.56
297.831	880.56
298.062	857.56
298.292	790.56
298.523	802.56
298.753	789.56
298.984	769.56
299.214	797.56
299.445	829.56
299.675	820.56
299.905	816.56
300.136	790.56
300.366	770.56
300.597	741.56
300.827	750.56
301.057	785.56
301.288	838.56
301.518	857.56
301.748	864.56
301.979	892.56
302.209	896.56
302.439	973.56
302.669	993.56
302.9	915.56
303.13	857.56
303.36	848.56
303.59	849.56
303.82	846.56
304.051	835.56
304.281	854.56
304.511	841.56
304.741	914.56
304.971	990.56
305.201	1029.56
305.431	914.56
305.661	814.56
305.891	735.56
306.121	768.56
306.352	820.56
306.582	833.56
306.812	856.56
307.042	933.56
307.272	949.56
307.502	990.56
307.731	1062.56
307.961	1079.56
308.191	993.56
308.421	849.56
308.651	847.56
308.881	821.56
309.111	811.56
309.341	815.56
309.571	808.56
309.8	804.56
310.03	812.56
310.26	800.56
310.49	808.56
310.72	833.56
310.949	863.56
311.179	886.56
311.409	844.56
311.639	824.56
311.868	848.56
312.098	850.56
312.328	833.56
312.557	812.56
312.787	882.56
313.017	881.56
313.246	863.56
313.476	869.56
313.706	896.56
313.935	880.56
314.165	889.56
314.394	904.56
314.624	956.56
314.853	1032.56
315.083	1057.56
315.312	1043.56
315.542	954.56
315.771	890.56
316.001	916.56
316.23	964.56
316.46	941.56
316.689	926.56
316.919	862.56
317.148	838.56
317.377	884.56
317.607	931.56
317.836	1039.56
318.065	1085.56
318.295	1026.56
318.524	970.56
318.753	934.56
318.983	947.56
319.212	892.56
319.441	906.56
319.67	911.56
319.9	936.56
320.129	953.56
320.358	1015.56
320.587	1040.56
320.816	1020.56
321.046	975.56
321.275	970.56
321.504	968.56
321.733	1031.56
321.962	960.56
322.191	899.56
322.42	927.56
322.649	937.56
322.878	920.56
323.108	902.56
323.337	968.56
323.566	910.56
323.795	944.56
324.024	948.56
324.253	952.56
324.482	893.56
324.71	900.56
324.939	837.56
325.168	902.56
325.397	926.56
325.626	912.56
325.855	928.56
326.084	912.56
326.313	921.56
326.542	925.56
326.77	975.56
326.999	952.56
327.228	913.56
327.457	871.56
327.686	864.56
327.914	898.56
328.143	909.56
328.372	919.56
328.6	904.56
328.829	910.56
329.058	887.56
329.287	896.56
329.515	933.56
329.744	973.56
329.972	1000.56
330.201	1028.56
330.43	1008.56
330.658	962.56
330.887	918.56
331.115	988.56
331.344	977.56
331.572	967.56
331.801	963.56
332.03	951.56
332.258	946.56
332.486	998.56
332.715	966.56
332.943	971.56
333.172	988.56
333.4	989.56
333.629	1023.56
333.857	1103.56
334.085	1200.56
334.314	1342.56
334.542	1423.56
334.771	1280.56
334.999	1135.56
335.227	1057.56
335.455	1036.56
335.684	1048.56
335.912	1054.56
336.14	1120.56
336.369	1037.56
336.597	988.56
336.825	972.56
337.053	1030.56
337.281	1090.56
337.51	1151.56
337.738	1148.56
337.966	1115.56
338.194	1026.56
338.422	984.56
338.65	932.56
338.878	953.56
339.106	932.56
339.334	938.56
339.562	933.56
339.79	951.56
340.018	1004.56
340.246	1036.56
340.474	1026.56
340.702	1000.56
340.93	1025.56
341.158	999.56
341.386	977.56
341.614	989.56
341.842	952.56
342.07	968.56
342.298	957.56
342.526	986.56
342.754	945.56
342.981	980.56
343.209	956.56
343.437	948.56
343.665	977.56
343.893	1026.56
344.12	1029.56
344.348	1021.56
344.576	986.56
344.804	948.56
345.031	938.56
345.259	964.56
345.487	948.56
345.714	906.56
345.942	910.56
346.17	914.56
346.397	929.56
346.625	900.56
346.853	880.56
347.08	886.56
347.308	892.56
347.535	920.56
347.763	937.56
347.99	901.56
348.218	898.56
348.445	931.56
348.673	916.56
348.9	932.56
349.128	996.56
349.355	1016.56
349.583	971.56
349.81	900.56
350.037	887.56
350.265	847.56
350.492	872.56
350.72	917.56
350.947	928.56
351.174	925.56
351.402	886.56
351.629	869.56
351.856	874.56
352.083	862.56
352.311	849.56
352.538	874.56
352.765	935.56
352.992	958.56
353.22	889.56
353.447	888.56
353.674	886.56
353.901	872.56
354.128	878.56
354.355	848.56
354.583	925.56
354.81	960.56
355.037	940.56
355.264	933.56
355.491	928.56
355.718	926.56
355.945	913.56
356.172	890.56
356.399	893.56
356.626	880.56
356.853	919.56
357.08	1037.56
357.307	1102.56
357.534	1062.56
357.761	904.56
357.988	873.56
358.215	866.56
358.441	860.56
358.668	871.56
358.895	852.56
359.122	963.56
359.349	1027.56
359.576	960.56
359.802	892.56
360.029	893.56
360.256	869.56
360.483	860.56
360.709	936.56
360.936	981.56
361.163	1003.56
361.39	1104.56
361.616	1135.56
361.843	1127.56
362.07	1069.56
362.296	927.56
362.523	902.56
362.749	928.56
362.976	917.56
363.203	944.56
363.429	919.56
363.656	855.56
363.882	935.56
364.109	1030.56
364.335	1073.56
364.562	982.56
364.788	958.56
365.015	946.56
365.241	922.56
365.468	934.56
365.694	990.56
365.92	1007.56
366.147	930.56
366.373	883.56
366.599	906.56
366.826	888.56
367.052	868.56
367.278	923.56
367.505	916.56
367.731	956.56
367.957	944.56
368.184	1001.56
368.41	1041.56
368.636	1048.56
368.862	1052.56
369.089	1049.56
369.315	980.56
369.541	945.56
369.767	934.56
369.993	928.56
370.219	930.56
370.445	944.56
370.672	1010.56
370.898	1033.56
371.124	1033.56
371.35	997.56
371.576	992.56
371.802	1007.56
372.028	996.56
372.254	954.56
372.48	916.56
372.706	910.56
372.932	951.56
373.158	940.56
373.384	969.56
373.61	1006.56
373.835	1034.56
374.061	970.56
374.287	974.56
374.513	966.56
374.739	988.56
374.965	993.56
375.191	997.56
375.416	1004.56
375.642	1010.56
375.868	1055.56
376.094	1094.56
376.319	1053.56
376.545	997.56
376.771	1001.56
376.997	1081.56
377.222	1042.56
377.448	1005.56
377.674	1064.56
377.899	1030.56
378.125	1097.56
378.35	1042.56
378.576	969.56
378.802	948.56
379.027	925.56
379.253	950.56
379.478	969.56
379.704	961.56
379.929	983.56
380.155	957.56
380.38	982.56
380.606	974.56
380.831	986.56
381.057	1024.56
381.282	1042.56
381.507	1050.56
381.733	1104.56
381.958	1121.56
382.184	1035.56
382.409	976.56
382.634	1028.56
382.86	1019.56
383.085	1035.56
383.31	1040.56
383.535	1159.56
383.761	1151.56
383.986	1128.56
384.211	1097.56
384.436	1098.56
384.662	1156.56
384.887	1160.56
385.112	1142.56
385.337	1127.56
385.562	1094.56
385.787	1126.56
386.013	1152.56
386.238	1132.56
386.463	1120.56
386.688	1233.56
386.913	1312.56
387.138	1242.56
387.363	1160.56
387.588	1153.56
387.813	1145.56
388.038	1148.56
388.263	1218.56
388.488	1115.56
388.713	1042.56
388.938	1078.56
389.163	1038.56
389.387	1090.56
389.612	1101.56
389.837	1111.56
390.062	1114.56
390.287	1123.56
390.512	1124.56
390.736	1096.56
390.961	1099.56
391.186	1056.56
391.411	1040.56
391.636	1096.56
391.86	1090.56
392.085	1108.56
392.31	1089.56
392.534	1082.56
392.759	1132.56
392.984	1109.56
393.208	1151.56
393.433	1162.56
393.658	1216.56
393.882	1213.56
394.107	1129.56
394.331	1110.56
394.556	1110.56
394.78	1152.56
395.005	1180.56
395.229	1218.56
395.454	1261.56
395.678	1253.56
395.903	1204.56
396.127	1183.56
396.352	1196.56
396.576	1241.56
396.801	1221.56
397.025	1230.56
397.249	1237.56
397.474	1170.56
397.698	1200.56
397.922	1212.56
398.147	1298.56
398.371	1346.56
398.595	1337.56
398.82	1264.56
399.044	1308.56
399.268	1340.56
399.492	1413.56
399.717	1466.56
399.941	1482.56
400.165	1446.56
400.389	1434.56
400.613	1435.56
400.837	1633.56
401.062	1736.56
401.286	1486.56
401.51	1413.56
401.734	1452.56
401.958	1400.56
402.182	1324.56
402.406	1240.56
402.63	1257.56
402.854	1264.56
403.078	1300.56
403.302	1287.56
403.526	1298.56
403.75	1294.56
403.974	1356.56
404.198	1325.56
404.422	1426.56
404.645	1452.56
404.869	1406.56
405.093	1280.56
405.317	1264.56
405.541	1323.56
405.765	1324.56
405.988	1328.56
406.212	1318.56
406.436	1371.56
406.66	1426.56
406.883	1444.56
407.107	1631.56
407.331	1804.56
407.555	1861.56
407.778	1640.56
408.002	1429.56
408.226	1374.56
408.449	1379.56
408.673	1346.56
408.896	1353.56
409.12	1371.56
409.344	1388.56
409.567	1288.56
409.791	1351.56
410.014	1377.56
410.238	1449.56
410.461	1493.56
410.685	1386.56
410.908	1326.56
411.132	1332.56
411.355	1332.56
411.578	1297.56
411.802	1288.56
412.025	1329.56
412.249	1286.56
412.472	1292.56
412.695	1280.56
412.919	1269.56
413.142	1302.56
413.365	1294.56
413.589	1317.56
413.812	1388.56
414.035	1440.56
414.258	1303.56
414.482	1305.56
414.705	1302.56
414.928	1287.56
415.151	1260.56
415.374	1277.56
415.597	1302.56
415.821	1292.56
416.044	1316.56
416.267	1317.56
416.49	1237.56
416.713	1234.56
416.936	1294.56
417.159	1350.56
417.382	1349.56
417.605	1264.56
417.828	1292.56
418.051	1315.56
418.274	1280.56
418.497	1282.56
418.72	1271.56
418.943	1253.56
419.166	1311.56
419.389	1358.56
419.611	1282.56
419.834	1244.56
420.057	1314.56
420.28	1260.56
420.503	1287.56
420.726	1322.56
420.948	1271.56
421.171	1247.56
421.394	1282.56
421.617	1315.56
421.839	1316.56
422.062	1279.56
422.285	1253.56
422.507	1213.56
422.73	1214.56
422.953	1209.56
423.175	1207.56
423.398	1242.56
423.621	1280.56
423.843	1269.56
424.066	1319.56
424.288	1368.56
424.511	1385.56
424.733	1367.56
424.956	1232.56
425.178	1227.56
425.401	1223.56
425.623	1262.56
425.846	1254.56
426.068	1288.56
426.291	1315.56
426.513	1278.56
426.735	1286.56
426.958	1413.56
427.18	1456.56
427.402	1351.56
427.625	1358.56
427.847	1338.56
428.069	1248.56
428.292	1235.56
428.514	1221.56
428.736	1196.56
428.958	1247.56
429.181	1280.56
429.403	1455.56
429.625	1732.56
429.847	1451.56
430.069	1310.56
430.292	1416.56
430.514	1423.56
430.736	1341.56
430.958	1350.56
431.18	1289.56
431.402	1189.56
431.624	1185.56
431.846	1156.56
432.068	1102.56
432.29	1141.56
432.512	1169.56
432.734	1218.56
432.956	1286.56
433.178	1289.56
433.4	1284.56
433.622	1287.56
433.844	1226.56
434.066	1191.56
434.287	1185.56
434.509	1201.56
434.731	1197.56
434.953	1340.56
435.175	1344.56
435.397	1276.56
435.618	1234.56
435.84	1219.56
436.062	1193.56
436.284	1260.56
436.505	1296.56
436.727	1309.56
436.949	1246.56
437.17	1231.56
437.392	1192.56
437.614	1203.56
437.835	1161.56
438.057	1200.56
438.278	1233.56
438.5	1181.56
438.721	1200.56
438.943	1204.56
439.165	1232.56
439.386	1220.56
439.608	1256.56
439.829	1221.56
440.05	1232.56
440.272	1245.56
440.493	1252.56
440.715	1226.56
440.936	1328.56
441.158	1424.56
441.379	1362.56
441.6	1343.56
441.822	1324.56
442.043	1306.56
442.264	1268.56
442.486	1245.56
442.707	1226.56
442.928	1230.56
443.149	1261.56
443.371	1309.56
443.592	1334.56
443.813	1351.56
444.034	1359.56
444.255	1350.56
444.476	1339.56
444.698	1393.56
444.919	1358.56
445.14	1470.56
445.361	1454.56
445.582	1434.56
445.803	1375.56
446.024	1356.56
446.245	1410.56
446.466	1380.56
446.687	1319.56
446.908	1330.56
447.129	1278.56
447.35	1312.56
447.571	1309.56
447.792	1231.56
448.013	1219.56
448.234	1250.56
448.455	1308.56
448.675	1280.56
448.896	1192.56
449.117	1165.56
449.338	1192.56
449.559	1241.56
449.779	1305.56
450	1383.56
450.221	1477.56
450.442	1412.56
450.662	1305.56
450.883	1181.56
451.104	1152.56
451.324	1172.56
451.545	1218.56
451.766	1175.56
451.986	1148.56
452.207	1111.56
452.428	1080.56
452.648	1087.56
452.869	1094.56
453.089	1116.56
453.31	1126.56
453.53	1137.56
453.751	1126.56
453.971	1059.56
454.192	1064.56
454.412	1127.56
454.633	1121.56
454.853	1076.56
455.073	1038.56
455.294	1054.56
455.514	1038.56
455.734	1027.56
455.955	1072.56
456.175	1074.56
456.395	1053.56
456.616	1093.56
456.836	1057.56
457.056	1082.56
457.276	1052.56
457.497	1012.56
457.717	1006.56
457.937	1034.56
458.157	1074.56
458.377	1020.56
458.598	999.56
458.818	1037.56
459.038	1111.56
459.258	1142.56
459.478	1135.56
459.698	1106.56
459.918	1119.56
460.138	1190.56
460.358	1243.56
460.578	1213.56
460.798	1277.56
461.018	1310.56
461.238	1281.56
461.458	1231.56
461.678	1220.56
461.898	1177.56
462.118	1204.56
462.338	1196.56
462.558	1222.56
462.777	1252.56
462.997	1324.56
463.217	1324.56
463.437	1336.56
463.657	1252.56
463.876	1245.56
464.096	1216.56
464.316	1235.56
464.536	1288.56
464.755	1280.56
464.975	1312.56
465.195	1234.56
465.414	1305.56
465.634	1305.56
465.854	1317.56
466.073	1374.56
466.293	1289.56
466.512	1190.56
466.732	1176.56
466.951	1208.56
467.171	1202.56
467.391	1173.56
467.61	1142.56
467.829	1204.56
468.049	1340.56
468.268	1410.56
468.488	1315.56
468.707	1244.56
468.927	1200.56
469.146	1175.56
469.365	1217.56
469.585	1214.56
469.804	1209.56
470.023	1225.56
470.243	1216.56
470.462	1215.56
470.681	1196.56
470.901	1239.56
471.12	1211.56
471.339	1185.56
471.558	1186.56
471.777	1179.56
471.997	1185.56
472.216	1174.56
472.435	1139.56
472.654	1125.56
472.873	1146.56
473.092	1206.56
473.311	1183.56
473.53	1115.56
473.749	1117.56
473.968	1142.56
474.187	1166.56
474.406	1225.56
474.625	1200.56
474.844	1191.56
475.063	1174.56
475.282	1200.56
475.501	1173.56
475.72	1199.56
475.939	1315.56
476.158	1257.56
476.377	1215.56
476.596	1200.56
476.814	1219.56
477.033	1187.56
477.252	1252.56
477.471	1289.56
477.69	1246.56
477.908	1244.56
478.127	1314.56
478.346	1386.56
478.564	1395.56
478.783	1378.56
479.002	1398.56
479.22	1394.56
479.439	1449.56
479.658	1554.56
479.876	1486.56
480.095	1362.56
480.313	1326.56
480.532	1288.56
480.751	1288.56
480.969	1289.56
481.188	1250.56
481.406	1241.56
481.624	1235.56
481.843	1234.56
482.061	1248.56
482.28	1325.56
482.498	1310.56
482.717	1288.56
482.935	1267.56
483.153	1327.56
483.372	1356.56
483.59	1314.56
483.808	1391.56
484.027	1372.56
484.245	1422.56
484.463	1711.56
484.681	1863.56
484.9	1458.56
485.118	1363.56
485.336	1336.56
485.554	1361.56
485.772	1375.56
485.99	1339.56
486.209	1367.56
486.427	1340.56
486.645	1372.56
486.863	1409.56
487.081	1424.56
487.299	1432.56
487.517	1448.56
487.735	1439.56
487.953	1493.56
488.171	1453.56
488.389	1418.56
488.607	1436.56
488.825	1561.56
489.043	1517.56
489.261	1395.56
489.479	1428.56
489.696	1448.56
489.914	1445.56
490.132	1389.56
490.35	1458.56
490.568	1480.56
490.786	1486.56
491.003	1472.56
491.221	1523.56
491.439	1548.56
491.657	1538.56
491.874	1591.56
492.092	1630.56
492.31	1644.56
492.527	1646.56
492.745	1598.56
492.963	1570.56
493.18	1586.56
493.398	1683.56
493.615	1696.56
493.833	1582.56
494.05	1512.56
494.268	1513.56
494.485	1549.56
494.703	1530.56
494.92	1516.56
495.138	1511.56
495.355	1550.56
495.573	1593.56
495.79	1645.56
496.008	1688.56
496.225	1591.56
496.442	1588.56
496.66	1593.56
496.877	1573.56
497.094	1633.56
497.312	1596.56
497.529	1559.56
497.746	1609.56
497.963	1848.56
498.181	1891.56
498.398	1876.56
498.615	1818.56
498.832	1708.56
499.049	1739.56
499.267	1733.56
499.484	1865.56
499.701	2009.56
499.918	2020.56
500.135	2178.56
500.352	2289.56
500.569	2298.56
500.786	2434.56
501.003	2311.56
501.22	2052.56
501.437	2021.56
501.654	2057.56
501.871	1989.56
502.088	1737.56
502.305	1764.56
502.522	1669.56
502.739	1616.56
502.956	1557.56
503.172	1502.56
503.389	1477.56
503.606	1469.56
503.823	1473.56
504.04	1482.56
504.256	1461.56
504.473	1457.56
504.69	1479.56
504.907	1410.56
505.123	1401.56
505.34	1545.56
505.557	1954.56
505.773	1610.56
505.99	1360.56
506.207	1274.56
506.423	1260.56
506.64	1267.56
506.856	1296.56
507.073	1504.56
507.289	1569.56
507.506	1452.56
507.722	1260.56
507.939	1218.56
508.155	1245.56
508.372	1239.56
508.588	1209.56
508.805	1178.56
509.021	1152.56
509.238	1135.56
509.454	1127.56
509.67	1122.56
509.887	1135.56
510.103	1095.56
510.319	1137.56
510.536	1156.56
510.752	1191.56
510.968	1192.56
511.184	1273.56
511.401	1207.56
511.617	1090.56
511.833	1079.56
512.049	1082.56
512.265	1094.56
512.481	1082.56
512.698	1116.56
512.914	1186.56
513.13	1125.56
513.346	1114.56
513.562	1048.56
513.778	1105.56
513.994	1165.56
514.21	1164.56
514.426	1193.56
514.642	1291.56
514.858	1216.56
515.074	1117.56
515.29	1108.56
515.506	1136.56
515.721	1156.56
515.937	1181.56
516.153	1257.56
516.369	1217.56
516.585	1129.56
516.801	1125.56
517.016	1168.56
517.232	1168.56
517.448	1181.56
517.664	1190.56
517.879	1197.56
518.095	1240.56
518.311	1186.56
518.527	1134.56
518.742	1102.56
518.958	1112.56
519.173	1111.56
519.389	1163.56
519.605	1149.56
519.82	1150.56
520.036	1176.56
520.251	1108.56
520.467	1168.56
520.682	1236.56
520.898	1205.56
521.113	1101.56
521.329	1129.56
521.544	1173.56
521.76	1113.56
521.975	1074.56
522.19	1072.56
522.406	1111.56
522.621	1364.56
522.836	1302.56
523.052	1081.56
523.267	1097.56
523.482	1087.56
523.698	1058.56
523.913	997.56
524.128	1054.56
524.343	1116.56
524.559	1161.56
524.774	1068.56
524.989	1042.56
525.204	1069.56
525.419	1020.56
525.634	1007.56
525.849	1065.56
526.064	1046.56
526.28	1048.56
526.495	997.56
526.71	950.56
526.925	1008.56
527.14	995.56
527.355	927.56
527.57	972.56
527.785	985.56
527.999	989.56
528.214	956.56
528.429	975.56
528.644	976.56
528.859	1058.56
529.074	1057.56
529.289	1078.56
529.503	1062.56
529.718	1069.56
529.933	1001.56
530.148	961.56
530.363	974.56
530.577	954.56
530.792	963.56
531.007	969.56
531.221	923.56
531.436	967.56
531.651	1001.56
531.865	1029.56
532.08	976.56
532.295	944.56
532.509	912.56
532.724	926.56
532.938	976.56
533.153	1058.56
533.367	1043.56
533.582	1013.56
533.796	1007.56
534.011	990.56
534.225	974.56
534.44	936.56
534.654	939.56
534.868	974.56
535.083	997.56
535.297	1031.56
535.511	950.56
535.726	972.56
535.94	986.56
536.154	980.56
536.369	938.56
536.583	934.56
536.797	944.56
537.011	962.56
537.225	891.56
537.44	889.56
537.654	953.56
537.868	901.56
538.082	897.56
538.296	867.56
538.51	892.56
538.724	926.56
538.938	964.56
539.153	949.56
539.367	1011.56
539.581	968.56
539.795	967.56
540.009	929.56
540.222	954.56
540.436	931.56
540.65	1028.56
540.864	1084.56
541.078	1053.56
541.292	1025.56
541.506	1033.56
541.72	1086.56
541.934	1094.56
542.147	1165.56
542.361	1119.56
542.575	1070.56
542.789	1021.56
543.002	932.56
543.216	930.56
543.43	1008.56
543.644	1060.56
543.857	1098.56
544.071	1109.56
544.285	1050.56
544.498	1051.56
544.712	1056.56
544.925	1091.56
545.139	1091.56
545.352	1074.56
545.566	1027.56
545.779	1043.56
545.993	1080.56
546.206	1057.56
546.42	1056.56
546.633	1033.56
546.847	1028.56
547.06	1037.56
547.274	1040.56
547.487	1088.56
547.7	1074.56
547.914	1077.56
548.127	1078.56
548.34	1074.56
548.554	1046.56
548.767	1042.56
548.98	1023.56
549.193	1038.56
549.407	1101.56
549.62	1094.56
549.833	1046.56
550.046	1091.56
550.259	1005.56
550.473	1036.56
550.686	1017.56
550.899	972.56
551.112	963.56
551.325	980.56
551.538	1023.56
551.751	1111.56
551.964	903.56
552.177	915.56
552.39	954.56
552.603	980.56
552.816	997.56
553.029	1057.56
553.242	1068.56
553.455	1046.56
553.667	1023.56
553.88	1001.56
554.093	984.56
554.306	986.56
554.519	973.56
554.732	934.56
554.944	936.56
555.157	970.56
555.37	946.56
555.583	956.56
555.795	921.56
556.008	869.56
556.221	868.56
556.433	858.56
556.646	866.56
556.859	871.56
557.071	839.56
557.284	872.56
557.496	874.56
557.709	851.56
557.921	855.56
558.134	848.56
558.346	838.56
558.559	826.56
558.771	825.56
558.984	805.56
559.196	781.56
559.409	785.56
559.621	802.56
559.833	801.56
560.046	835.56
560.258	830.56
560.47	792.56
560.683	816.56
560.895	811.56
561.107	796.56
561.32	803.56
561.532	823.56
561.744	812.56
561.956	829.56
562.168	776.56
562.381	815.56
562.593	768.56
562.805	757.56
563.017	752.56
563.229	774.56
563.441	768.56
563.653	778.56
563.865	769.56
564.077	778.56
564.289	769.56
564.501	792.56
564.713	790.56
564.925	820.56
565.137	882.56
565.349	802.56
565.561	806.56
565.773	797.56
565.985	808.56
566.197	850.56
566.408	891.56
566.62	880.56
566.832	877.56
567.044	873.56
567.255	878.56
567.467	848.56
567.679	901.56
567.891	897.56
568.102	902.56
568.314	838.56
568.526	776.56
568.737	754.56
568.949	710.56
569.161	685.56
569.372	693.56
569.584	688.56
569.795	692.56
570.007	669.56
570.218	632.56
570.43	628.56
570.641	634.56
570.853	624.56
571.064	645.56
571.276	664.56
571.487	658.56
571.698	610.56
571.91	626.56
572.121	624.56
572.333	586.56
572.544	593.56
572.755	592.56
572.966	573.56
573.178	554.56
573.389	559.56
573.6	590.56
573.811	633.56
574.023	580.56
574.234	578.56
574.445	544.56
574.656	564.56
574.867	535.56
575.078	536.56
575.289	573.56
575.501	559.56
575.712	505.56
575.923	535.56
576.134	553.56
576.345	552.56
576.556	562.56
576.767	536.56
576.978	549.56
577.188	531.56
577.399	498.56
577.61	507.56
577.821	516.56
578.032	499.56
578.243	526.56
578.454	511.56
578.665	508.56
578.875	472.56
579.086	505.56
579.297	485.56
579.508	486.56
579.718	499.56
579.929	485.56
580.14	468.56
580.35	489.56
580.561	510.56
580.772	553.56
580.982	507.56
581.193	496.56
581.403	487.56
581.614	486.56
581.825	478.56
582.035	461.56
582.246	461.56
582.456	484.56
582.667	475.56
582.877	475.56
583.087	445.56
583.298	477.56
583.508	449.56
583.719	448.56
583.929	456.56
584.139	446.56
584.35	443.56
584.56	445.56
584.77	465.56
584.981	467.56
585.191	454.56
585.401	476.56
585.611	462.56
585.821	457.56
586.032	441.56
586.242	425.56
586.452	449.56
586.662	450.56
586.872	432.56
587.082	438.56
587.292	454.56
587.502	445.56
587.713	454.56
587.923	432.56
588.133	452.56
588.343	444.56
588.553	421.56
588.762	430.56
588.972	415.56
589.182	461.56
589.392	446.56
589.602	441.56
589.812	456.56
590.022	420.56
590.232	413.56
590.441	440.56
590.651	441.56
590.861	431.56
591.071	425.56
591.281	420.56
591.49	414.56
591.7	431.56
591.91	434.56
592.119	434.56
592.329	440.56
592.539	443.56
592.748	455.56
592.958	456.56
593.167	427.56
593.377	442.56
593.587	456.56
593.796	444.56
594.006	452.56
594.215	462.56
594.424	471.56
594.634	455.56
594.843	439.56
595.053	469.56
595.262	456.56
595.472	463.56
595.681	434.56
595.89	431.56
596.1	418.56
596.309	444.56
596.518	425.56
596.727	430.56
596.937	407.56
597.146	416.56
597.355	412.56
597.564	386.56
597.774	405.56
597.983	394.56
598.192	394.56
598.401	385.56
598.61	407.56
598.819	401.56
599.028	388.56
599.237	393.56
599.446	374.56
599.655	385.56
599.864	403.56
600.073	393.56
600.282	390.56
600.491	377.56
600.7	384.56
600.909	361.56
601.118	384.56
601.327	398.56
601.536	409.56
601.745	398.56
601.953	406.56
602.162	407.56
602.371	434.56
602.58	388.56
602.789	396.56
602.997	408.56
603.206	395.56
603.415	402.56
603.623	413.56
603.832	400.56
604.041	382.56
604.249	364.56
604.458	375.56
604.666	386.56
604.875	373.56
605.084	394.56
605.292	397.56
605.501	402.56
605.709	404.56
605.918	399.56
606.126	399.56
606.334	390.56
606.543	389.56
606.751	413.56
606.96	382.56
607.168	403.56
607.376	393.56
607.585	412.56
607.793	393.56
608.001	386.56
608.21	393.56
608.418	407.56
608.626	368.56
608.834	393.56
609.043	402.56
609.251	385.56
609.459	398.56
609.667	394.56
609.875	380.56
610.083	407.56
610.291	412.56
610.499	394.56
610.707	407.56
610.916	391.56
611.124	382.56
611.332	388.56
611.54	392.56
611.748	388.56
611.955	389.56
612.163	370.56
612.371	366.56
612.579	377.56
612.787	384.56
612.995	383.56
613.203	409.56
613.411	392.56
613.618	384.56
613.826	392.56
614.034	386.56
614.242	377.56
614.449	373.56
614.657	395.56
614.865	385.56
615.072	377.56
615.28	397.56
615.488	386.56
615.695	390.56
615.903	377.56
616.111	379.56
616.318	384.56
616.526	391.56
616.733	383.56
616.941	377.56
617.148	391.56
617.356	396.56
617.563	386.56
617.771	375.56
617.978	369.56
618.185	381.56
618.393	367.56
618.6	355.56
618.807	386.56
619.015	380.56
619.222	342.56
619.429	360.56
619.637	345.56
619.844	339.56
620.051	340.56
620.258	352.56
620.466	343.56
620.673	337.56
620.88	334.56
621.087	344.56
621.294	336.56
621.501	314.56
621.708	352.56
621.915	335.56
622.122	348.56
622.329	351.56
622.536	342.56
622.743	355.56
622.95	335.56
623.157	325.56
623.364	350.56
623.571	354.56
623.778	339.56
623.985	345.56
624.192	332.56
624.399	326.56
624.606	352.56
624.812	334.56
625.019	342.56
625.226	327.56
625.433	312.56
625.639	316.56
625.846	312.56
626.053	283.56
626.259	280.56
626.466	289.56
626.673	273.56
626.879	271.56
627.086	285.56
627.293	293.56
627.499	307.56
627.706	316.56
627.912	317.56
628.119	314.56
628.325	307.56
628.532	310.56
628.738	309.56
628.945	304.56
629.151	310.56
629.357	298.56
629.564	308.56
629.77	301.56
629.976	300.56
630.183	302.56
630.389	305.56
630.595	293.56
630.802	293.56
631.008	302.56
631.214	292.56
631.42	312.56
631.627	287.56
631.833	266.56
632.039	279.56
632.245	286.56
632.451	281.56
632.657	282.56
632.863	285.56
633.069	284.56
633.275	271.56
633.481	282.56
633.688	273.56
633.893	264.56
634.099	255.56
634.305	279.56
634.511	251.56
634.717	275.56
634.923	280.56
635.129	270.56
635.335	275.56
635.541	278.56
635.747	277.56
635.952	265.56
636.158	289.56
636.364	277.56
636.57	272.56
636.775	268.56
636.981	260.56
637.187	281.56
637.392	277.56
637.598	285.56
637.804	303.56
638.009	275.56
638.215	264.56
638.421	258.56
638.626	283.56
638.832	266.56
639.037	269.56
639.243	266.56
639.448	248.56
639.654	266.56
639.859	263.56
640.065	259.56
640.27	257.56
640.475	276.56
640.681	275.56
640.886	258.56
641.091	266.56
641.297	277.56
641.502	264.56
641.707	262.56
641.913	264.56
642.118	265.56
642.323	262.56
642.528	262.56
642.733	259.56
642.939	253.56
643.144	258.56
643.349	259.56
643.554	257.56
643.759	247.56
643.964	249.56
644.169	236.56
644.374	238.56
644.579	257.56
644.784	256.56
644.989	260.56
645.194	240.56
645.399	261.56
645.604	231.56
645.809	260.56
646.014	254.56
646.219	243.56
646.423	244.56
646.628	263.56
646.833	257.56
647.038	253.56
647.243	249.56
647.447	252.56
647.652	248.56
647.857	259.56
648.062	241.56
648.266	249.56
648.471	265.56
648.676	279.56
648.88	247.56
649.085	243.56
649.289	236.56
649.494	246.56
649.698	252.56
649.903	243.56
650.107	250.56
650.312	247.56
650.516	241.56
650.721	230.56
650.925	252.56
651.13	253.56
651.334	238.56
651.539	240.56
651.743	218.56
651.947	245.56
652.152	221.56
652.356	208.56
652.56	214.56
652.764	227.56
652.969	227.56
653.173	210.56
653.377	225.56
653.581	208.56
653.785	225.56
653.99	210.56
654.194	232.56
654.398	218.56
654.602	222.56
654.806	222.56
655.01	232.56
655.214	212.56
655.418	215.56
655.622	223.56
655.826	216.56
656.03	236.56
656.234	257.56
656.438	247.56
656.642	258.56
656.846	249.56
657.049	220.56
657.253	213.56
657.457	218.56
657.661	193.56
657.865	175.56
658.068	186.56
658.272	160.56
658.476	161.56
658.68	157.56
658.883	164.56
659.087	158.56
659.291	136.56
659.494	136.56
659.698	126.56
659.901	131.56
660.105	134.56
660.309	131.56
660.512	130.56
660.716	122.56
660.919	117.56
661.123	110.56
661.326	106.56
661.53	96.56
661.733	109.56
661.936	93.56
662.14	94.56
662.343	103.56
662.546	96.56
662.75	103.56
662.953	106.56
663.156	80.56
663.36	99.56
663.563	106.56
663.766	100.56
663.969	98.56
664.173	87.56
664.376	87.56
664.579	79.56
664.782	95.56
664.985	81.56
665.188	72.56
665.391	74.56
665.594	75.56
665.797	80.56
666	74.56
666.203	85.56
666.406	71.56
666.609	77.56
666.812	73.56
667.015	71.56
667.218	85.56
667.421	79.56
667.624	75.56
667.827	85.56
668.03	68.56
668.232	77.56
668.435	88.56
668.638	78.56
668.841	81.56
669.043	92.56
669.246	78.56
669.449	74.56
669.651	77.56
669.854	88.56
670.057	78.56
670.259	82.56
670.462	71.56
670.665	68.56
670.867	73.56
671.07	80.56
671.272	91.56
671.475	96.56
671.677	80.56
671.88	78.56
672.082	77.56
672.284	73.56
672.487	72.56
672.689	72.56
672.892	74.56
