Data from WStandard_LampEnergy8_LIBS07252019.E.O._I.C._HRD10591_16-00-04-929.txt Node
Date: Thu Jul 25 16:00:04 EDT 2019
User: cochatt
Spectrometer: HR+D1059
Trigger mode: 1
Integration Time (sec): 1.000000E-1
Scans to average: 1
Electric dark correction enabled: true
Nonlinearity correction enabled: false
Boxcar width: 0
XAxis mode: Wavelengths
Number of Pixels in Spectrum: 2048
>>>>>Begin Spectral Data<<<<<
223.165	-3.62
223.4	-3.62
223.635	-3.62
223.869	-11.62
224.104	-27.62
224.338	-9.62
224.573	-9.62
224.808	-22.62
225.042	-27.62
225.277	-8.62
225.511	-6.62
225.746	12.38
225.98	14.38
226.215	10.38
226.449	23.38
226.683	25.38
226.918	17.38
227.152	24.38
227.387	37.38
227.621	43.38
227.856	42.38
228.09	36.38
228.324	40.38
228.559	65.38
228.793	111.38
229.027	191.38
229.262	220.38
229.496	203.38
229.73	224.38
229.964	242.38
230.199	238.38
230.433	262.38
230.667	261.38
230.901	292.38
231.136	270.38
231.37	272.38
231.604	251.38
231.838	272.38
232.072	258.38
232.306	254.38
232.541	278.38
232.775	323.38
233.009	328.38
233.243	323.38
233.477	278.38
233.711	291.38
233.945	307.38
234.179	308.38
234.413	305.38
234.647	337.38
234.881	316.38
235.115	295.38
235.349	310.38
235.583	315.38
235.817	293.38
236.051	313.38
236.285	302.38
236.519	312.38
236.753	337.38
236.987	341.38
237.221	367.38
237.455	388.38
237.689	358.38
237.922	366.38
238.156	332.38
238.39	370.38
238.624	375.38
238.858	402.38
239.091	390.38
239.325	423.38
239.559	461.38
239.793	476.38
240.027	508.38
240.26	487.38
240.494	400.38
240.728	376.38
240.961	369.38
241.195	389.38
241.429	421.38
241.662	411.38
241.896	390.38
242.13	399.38
242.363	429.38
242.597	452.38
242.83	449.38
243.064	452.38
243.298	486.38
243.531	451.38
243.765	468.38
243.998	454.38
244.232	411.38
244.465	402.38
244.699	417.38
244.932	448.38
245.166	483.38
245.399	477.38
245.633	471.38
245.866	460.38
246.099	466.38
246.333	492.38
246.566	489.38
246.8	558.38
247.033	580.38
247.266	554.38
247.5	542.38
247.733	567.38
247.966	552.38
248.2	612.38
248.433	593.38
248.666	616.38
248.899	690.38
249.133	750.38
249.366	820.38
249.599	678.38
249.832	628.38
250.066	621.38
250.299	634.38
250.532	588.38
250.765	545.38
250.998	575.38
251.231	586.38
251.465	607.38
251.698	606.38
251.931	575.38
252.164	608.38
252.397	632.38
252.63	608.38
252.863	554.38
253.096	575.38
253.329	578.38
253.562	601.38
253.795	632.38
254.028	610.38
254.261	597.38
254.494	605.38
254.727	553.38
254.96	585.38
255.193	649.38
255.426	724.38
255.659	798.38
255.892	818.38
256.124	676.38
256.357	644.38
256.59	702.38
256.823	688.38
257.056	722.38
257.289	824.38
257.521	892.38
257.754	788.38
257.987	784.38
258.22	850.38
258.452	776.38
258.685	682.38
258.918	671.38
259.151	675.38
259.383	630.38
259.616	578.38
259.849	626.38
260.081	688.38
260.314	776.38
260.547	835.38
260.779	810.38
261.012	754.38
261.244	690.38
261.477	652.38
261.71	708.38
261.942	693.38
262.175	683.38
262.407	710.38
262.64	666.38
262.872	631.38
263.105	609.38
263.337	619.38
263.57	658.38
263.802	650.38
264.035	594.38
264.267	558.38
264.499	590.38
264.732	626.38
264.964	662.38
265.197	683.38
265.429	710.38
265.661	778.38
265.894	844.38
266.126	840.38
266.358	778.38
266.591	829.38
266.823	855.38
267.055	790.38
267.287	814.38
267.52	759.38
267.752	735.38
267.984	784.38
268.216	831.38
268.448	806.38
268.681	783.38
268.913	726.38
269.145	698.38
269.377	713.38
269.609	778.38
269.841	881.38
270.073	1010.38
270.306	1109.38
270.538	1137.38
270.77	956.38
271.002	840.38
271.234	802.38
271.466	841.38
271.698	904.38
271.93	1032.38
272.162	1040.38
272.394	982.38
272.626	870.38
272.858	794.38
273.09	713.38
273.322	715.38
273.553	678.38
273.785	675.38
274.017	734.38
274.249	800.38
274.481	765.38
274.713	724.38
274.945	717.38
275.176	726.38
275.408	704.38
275.64	690.38
275.872	695.38
276.104	749.38
276.335	845.38
276.567	922.38
276.799	908.38
277.031	837.38
277.262	804.38
277.494	827.38
277.726	928.38
277.957	898.38
278.189	794.38
278.421	759.38
278.652	715.38
278.884	724.38
279.115	728.38
279.347	726.38
279.579	725.38
279.81	747.38
280.042	801.38
280.273	875.38
280.505	891.38
280.736	877.38
280.968	822.38
281.199	754.38
281.431	730.38
281.662	738.38
281.894	731.38
282.125	755.38
282.356	782.38
282.588	787.38
282.819	776.38
283.051	843.38
283.282	875.38
283.513	846.38
283.745	743.38
283.976	724.38
284.207	737.38
284.439	751.38
284.67	742.38
284.901	777.38
285.132	799.38
285.364	785.38
285.595	770.38
285.826	786.38
286.057	795.38
286.288	748.38
286.52	823.38
286.751	871.38
286.982	866.38
287.213	790.38
287.444	746.38
287.675	746.38
287.906	793.38
288.138	834.38
288.369	809.38
288.6	749.38
288.831	737.38
289.062	732.38
289.293	752.38
289.524	780.38
289.755	804.38
289.986	755.38
290.217	775.38
290.448	753.38
290.679	780.38
290.91	761.38
291.141	809.38
291.371	833.38
291.602	821.38
291.833	821.38
292.064	864.38
292.295	844.38
292.526	858.38
292.757	873.38
292.987	845.38
293.218	837.38
293.449	912.38
293.68	980.38
293.91	1017.38
294.141	945.38
294.372	905.38
294.603	942.38
294.833	937.38
295.064	942.38
295.295	800.38
295.525	780.38
295.756	791.38
295.987	745.38
296.217	752.38
296.448	790.38
296.679	809.38
296.909	769.38
297.14	754.38
297.37	830.38
297.601	868.38
297.831	893.38
298.062	865.38
298.292	814.38
298.523	789.38
298.753	789.38
298.984	796.38
299.214	811.38
299.445	826.38
299.675	838.38
299.905	828.38
300.136	828.38
300.366	801.38
300.597	770.38
300.827	789.38
301.057	831.38
301.288	850.38
301.518	863.38
301.748	872.38
301.979	932.38
302.209	928.38
302.439	999.38
302.669	1000.38
302.9	918.38
303.13	864.38
303.36	867.38
303.59	846.38
303.82	841.38
304.051	862.38
304.281	862.38
304.511	882.38
304.741	957.38
304.971	1025.38
305.201	1024.38
305.431	951.38
305.661	799.38
305.891	774.38
306.121	779.38
306.352	805.38
306.582	837.38
306.812	908.38
307.042	925.38
307.272	961.38
307.502	1017.38
307.731	1063.38
307.961	1087.38
308.191	983.38
308.421	929.38
308.651	852.38
308.881	836.38
309.111	855.38
309.341	814.38
309.571	804.38
309.8	812.38
310.03	837.38
310.26	833.38
310.49	810.38
310.72	882.38
310.949	871.38
311.179	871.38
311.409	866.38
311.639	851.38
311.868	823.38
312.098	857.38
312.328	873.38
312.557	847.38
312.787	873.38
313.017	869.38
313.246	869.38
313.476	883.38
313.706	898.38
313.935	882.38
314.165	902.38
314.394	944.38
314.624	969.38
314.853	1046.38
315.083	1058.38
315.312	1076.38
315.542	1008.38
315.771	905.38
316.001	929.38
316.23	942.38
316.46	943.38
316.689	954.38
316.919	882.38
317.148	848.38
317.377	893.38
317.607	1002.38
317.836	1063.38
318.065	1082.38
318.295	1024.38
318.524	974.38
318.753	951.38
318.983	950.38
319.212	946.38
319.441	908.38
319.67	926.38
319.9	950.38
320.129	997.38
320.358	1050.38
320.587	1042.38
320.816	1042.38
321.046	1007.38
321.275	943.38
321.504	992.38
321.733	1057.38
321.962	992.38
322.191	936.38
322.42	916.38
322.649	896.38
322.878	924.38
323.108	956.38
323.337	963.38
323.566	975.38
323.795	985.38
324.024	962.38
324.253	939.38
324.482	948.38
324.71	917.38
324.939	886.38
325.168	906.38
325.397	931.38
325.626	949.38
325.855	943.38
326.084	912.38
326.313	947.38
326.542	950.38
326.77	994.38
326.999	942.38
327.228	922.38
327.457	913.38
327.686	899.38
327.914	942.38
328.143	954.38
328.372	942.38
328.6	940.38
328.829	936.38
329.058	892.38
329.287	900.38
329.515	942.38
329.744	964.38
329.972	984.38
330.201	1060.38
330.43	1033.38
330.658	973.38
330.887	994.38
331.115	970.38
331.344	984.38
331.572	984.38
331.801	972.38
332.03	961.38
332.258	995.38
332.486	1014.38
332.715	1065.38
332.943	1023.38
333.172	988.38
333.4	1003.38
333.629	1044.38
333.857	1116.38
334.085	1195.38
334.314	1397.38
334.542	1426.38
334.771	1314.38
334.999	1195.38
335.227	1116.38
335.455	1057.38
335.684	1078.38
335.912	1094.38
336.14	1105.38
336.369	1050.38
336.597	1015.38
336.825	1003.38
337.053	1046.38
337.281	1076.38
337.51	1150.38
337.738	1185.38
337.966	1087.38
338.194	1028.38
338.422	1002.38
338.65	994.38
338.878	952.38
339.106	952.38
339.334	958.38
339.562	960.38
339.79	1003.38
340.018	1050.38
340.246	1056.38
340.474	1015.38
340.702	1042.38
340.93	1033.38
341.158	997.38
341.386	989.38
341.614	992.38
341.842	990.38
342.07	991.38
342.298	994.38
342.526	974.38
342.754	983.38
342.981	1002.38
343.209	981.38
343.437	976.38
343.665	980.38
343.893	1018.38
344.12	1088.38
344.348	1042.38
344.576	1006.38
344.804	998.38
345.031	1024.38
345.259	976.38
345.487	923.38
345.714	915.38
345.942	906.38
346.17	940.38
346.397	936.38
346.625	922.38
346.853	905.38
347.08	891.38
347.308	889.38
347.535	946.38
347.763	941.38
347.99	931.38
348.218	914.38
348.445	941.38
348.673	910.38
348.9	958.38
349.128	985.38
349.355	995.38
349.583	990.38
349.81	924.38
350.037	875.38
350.265	871.38
350.492	861.38
350.72	925.38
350.947	950.38
351.174	950.38
351.402	895.38
351.629	876.38
351.856	848.38
352.083	848.38
352.311	880.38
352.538	906.38
352.765	940.38
352.992	961.38
353.22	917.38
353.447	898.38
353.674	910.38
353.901	932.38
354.128	921.38
354.355	889.38
354.583	963.38
354.81	985.38
355.037	956.38
355.264	948.38
355.491	937.38
355.718	923.38
355.945	924.38
356.172	899.38
356.399	896.38
356.626	896.38
356.853	943.38
357.08	1035.38
357.307	1140.38
357.534	1093.38
357.761	948.38
357.988	917.38
358.215	891.38
358.441	897.38
358.668	868.38
358.895	878.38
359.122	948.38
359.349	1042.38
359.576	1003.38
359.802	911.38
360.029	897.38
360.256	891.38
360.483	891.38
360.709	933.38
360.936	986.38
361.163	1032.38
361.39	1095.38
361.616	1187.38
361.843	1157.38
362.07	1056.38
362.296	932.38
362.523	914.38
362.749	902.38
362.976	964.38
363.203	978.38
363.429	932.38
363.656	879.38
363.882	955.38
364.109	1044.38
364.335	1102.38
364.562	1025.38
364.788	960.38
365.015	939.38
365.241	890.38
365.468	960.38
365.694	974.38
365.92	1008.38
366.147	962.38
366.373	944.38
366.599	930.38
366.826	931.38
367.052	914.38
367.278	934.38
367.505	940.38
367.731	962.38
367.957	946.38
368.184	1032.38
368.41	1055.38
368.636	1074.38
368.862	1033.38
369.089	1040.38
369.315	998.38
369.541	955.38
369.767	936.38
369.993	936.38
370.219	923.38
370.445	972.38
370.672	1013.38
370.898	1064.38
371.124	1022.38
371.35	1014.38
371.576	1040.38
371.802	1065.38
372.028	988.38
372.254	950.38
372.48	952.38
372.706	996.38
372.932	950.38
373.158	945.38
373.384	951.38
373.61	1023.38
373.835	1045.38
374.061	1012.38
374.287	989.38
374.513	962.38
374.739	991.38
374.965	997.38
375.191	1014.38
375.416	1022.38
375.642	1059.38
375.868	1110.38
376.094	1127.38
376.319	1051.38
376.545	1002.38
376.771	1035.38
376.997	1084.38
377.222	1067.38
377.448	1032.38
377.674	1027.38
377.899	1063.38
378.125	1099.38
378.35	1081.38
378.576	1012.38
378.802	976.38
379.027	977.38
379.253	1002.38
379.478	981.38
379.704	992.38
379.929	992.38
380.155	1006.38
380.38	1006.38
380.606	992.38
380.831	1000.38
381.057	1096.38
381.282	1074.38
381.507	1030.38
381.733	1131.38
381.958	1139.38
382.184	1051.38
382.409	1037.38
382.634	1018.38
382.86	1012.38
383.085	1044.38
383.31	1120.38
383.535	1184.38
383.761	1194.38
383.986	1152.38
384.211	1128.38
384.436	1114.38
384.662	1176.38
384.887	1179.38
385.112	1166.38
385.337	1143.38
385.562	1138.38
385.787	1160.38
386.013	1169.38
386.238	1155.38
386.463	1192.38
386.688	1271.38
386.913	1351.38
387.138	1269.38
387.363	1191.38
387.588	1178.38
387.813	1156.38
388.038	1172.38
388.263	1215.38
388.488	1162.38
388.713	1080.38
388.938	1111.38
389.163	1094.38
389.387	1138.38
389.612	1120.38
389.837	1150.38
390.062	1160.38
390.287	1150.38
390.512	1132.38
390.736	1134.38
390.961	1085.38
391.186	1086.38
391.411	1107.38
391.636	1143.38
391.86	1123.38
392.085	1134.38
392.31	1141.38
392.534	1131.38
392.759	1145.38
392.984	1131.38
393.208	1141.38
393.433	1166.38
393.658	1204.38
393.882	1259.38
394.107	1178.38
394.331	1135.38
394.556	1156.38
394.78	1145.38
395.005	1187.38
395.229	1228.38
395.454	1304.38
395.678	1308.38
395.903	1223.38
396.127	1180.38
396.352	1225.38
396.576	1287.38
396.801	1287.38
397.025	1258.38
397.249	1246.38
397.474	1246.38
397.698	1217.38
397.922	1250.38
398.147	1333.38
398.371	1362.38
398.595	1344.38
398.82	1327.38
399.044	1324.38
399.268	1376.38
399.492	1462.38
399.717	1497.38
399.941	1514.38
400.165	1470.38
400.389	1444.38
400.613	1475.38
400.837	1682.38
401.062	1808.38
401.286	1557.38
401.51	1456.38
401.734	1491.38
401.958	1433.38
402.182	1336.38
402.406	1308.38
402.63	1296.38
402.854	1280.38
403.078	1340.38
403.302	1354.38
403.526	1353.38
403.75	1354.38
403.974	1346.38
404.198	1395.38
404.422	1385.38
404.645	1490.38
404.869	1432.38
405.093	1335.38
405.317	1296.38
405.541	1353.38
405.765	1350.38
405.988	1356.38
406.212	1404.38
406.436	1421.38
406.66	1466.38
406.883	1494.38
407.107	1684.38
407.331	1814.38
407.555	1918.38
407.778	1682.38
408.002	1455.38
408.226	1416.38
408.449	1427.38
408.673	1398.38
408.896	1396.38
409.12	1411.38
409.344	1405.38
409.567	1365.38
409.791	1356.38
410.014	1421.38
410.238	1483.38
410.461	1511.38
410.685	1397.38
410.908	1335.38
411.132	1382.38
411.355	1340.38
411.578	1334.38
411.802	1374.38
412.025	1374.38
412.249	1333.38
412.472	1353.38
412.695	1315.38
412.919	1307.38
413.142	1311.38
413.365	1310.38
413.589	1397.38
413.812	1446.38
414.035	1458.38
414.258	1339.38
414.482	1328.38
414.705	1315.38
414.928	1326.38
415.151	1314.38
415.374	1313.38
415.597	1363.38
415.821	1333.38
416.044	1350.38
416.267	1359.38
416.49	1292.38
416.713	1285.38
416.936	1356.38
417.159	1378.38
417.382	1354.38
417.605	1338.38
417.828	1327.38
418.051	1366.38
418.274	1334.38
418.497	1293.38
418.72	1300.38
418.943	1264.38
419.166	1342.38
419.389	1379.38
419.611	1326.38
419.834	1328.38
420.057	1309.38
420.28	1285.38
420.503	1295.38
420.726	1332.38
420.948	1307.38
421.171	1268.38
421.394	1285.38
421.617	1343.38
421.839	1341.38
422.062	1316.38
422.285	1307.38
422.507	1308.38
422.73	1272.38
422.953	1207.38
423.175	1240.38
423.398	1259.38
423.621	1272.38
423.843	1305.38
424.066	1361.38
424.288	1412.38
424.511	1440.38
424.733	1374.38
424.956	1271.38
425.178	1254.38
425.401	1292.38
425.623	1269.38
425.846	1244.38
426.068	1340.38
426.291	1358.38
426.513	1314.38
426.735	1318.38
426.958	1429.38
427.18	1487.38
427.402	1403.38
427.625	1454.38
427.847	1372.38
428.069	1308.38
428.292	1279.38
428.514	1220.38
428.736	1232.38
428.958	1246.38
429.181	1256.38
429.403	1446.38
429.625	1760.38
429.847	1456.38
430.069	1309.38
430.292	1484.38
430.514	1445.38
430.736	1361.38
430.958	1399.38
431.18	1318.38
431.402	1242.38
431.624	1195.38
431.846	1184.38
432.068	1173.38
432.29	1164.38
432.512	1190.38
432.734	1246.38
432.956	1291.38
433.178	1334.38
433.4	1306.38
433.622	1331.38
433.844	1304.38
434.066	1188.38
434.287	1155.38
434.509	1241.38
434.731	1302.38
434.953	1398.38
435.175	1348.38
435.397	1264.38
435.618	1278.38
435.84	1249.38
436.062	1233.38
436.284	1293.38
436.505	1352.38
436.727	1337.38
436.949	1300.38
437.17	1240.38
437.392	1237.38
437.614	1212.38
437.835	1217.38
438.057	1243.38
438.278	1238.38
438.5	1220.38
438.721	1227.38
438.943	1259.38
439.165	1280.38
439.386	1251.38
439.608	1250.38
439.829	1233.38
440.05	1251.38
440.272	1252.38
440.493	1254.38
440.715	1284.38
440.936	1346.38
441.158	1456.38
441.379	1430.38
441.6	1387.38
441.822	1391.38
442.043	1337.38
442.264	1304.38
442.486	1283.38
442.707	1267.38
442.928	1242.38
443.149	1309.38
443.371	1365.38
443.592	1387.38
443.813	1366.38
444.034	1368.38
444.255	1363.38
444.476	1405.38
444.698	1426.38
444.919	1408.38
445.14	1467.38
445.361	1480.38
445.582	1434.38
445.803	1398.38
446.024	1377.38
446.245	1430.38
446.466	1360.38
446.687	1317.38
446.908	1366.38
447.129	1302.38
447.35	1315.38
447.571	1320.38
447.792	1244.38
448.013	1230.38
448.234	1285.38
448.455	1305.38
448.675	1337.38
448.896	1230.38
449.117	1187.38
449.338	1243.38
449.559	1301.38
449.779	1314.38
450	1411.38
450.221	1496.38
450.442	1401.38
450.662	1289.38
450.883	1222.38
451.104	1172.38
451.324	1179.38
451.545	1223.38
451.766	1204.38
451.986	1158.38
452.207	1136.38
452.428	1139.38
452.648	1128.38
452.869	1108.38
453.089	1131.38
453.31	1131.38
453.53	1135.38
453.751	1095.38
453.971	1051.38
454.192	1100.38
454.412	1166.38
454.633	1131.38
454.853	1148.38
455.073	1076.38
455.294	1108.38
455.514	1080.38
455.734	1069.38
455.955	1122.38
456.175	1080.38
456.395	1098.38
456.616	1107.38
456.836	1090.38
457.056	1106.38
457.276	1058.38
457.497	1055.38
457.717	1035.38
457.937	1040.38
458.157	1076.38
458.377	1052.38
458.598	1058.38
458.818	1052.38
459.038	1101.38
459.258	1166.38
459.478	1163.38
459.698	1116.38
459.918	1158.38
460.138	1257.38
460.358	1282.38
460.578	1250.38
460.798	1313.38
461.018	1346.38
461.238	1302.38
461.458	1273.38
461.678	1259.38
461.898	1235.38
462.118	1235.38
462.338	1267.38
462.558	1303.38
462.777	1289.38
462.997	1321.38
463.217	1368.38
463.437	1361.38
463.657	1259.38
463.876	1226.38
464.096	1240.38
464.316	1258.38
464.536	1296.38
464.755	1295.38
464.975	1302.38
465.195	1271.38
465.414	1362.38
465.634	1307.38
465.854	1313.38
466.073	1391.38
466.293	1362.38
466.512	1226.38
466.732	1227.38
466.951	1275.38
467.171	1215.38
467.391	1222.38
467.61	1204.38
467.829	1233.38
468.049	1340.38
468.268	1460.38
468.488	1350.38
468.707	1256.38
468.927	1241.38
469.146	1222.38
469.365	1248.38
469.585	1269.38
469.804	1259.38
470.023	1241.38
470.243	1252.38
470.462	1245.38
470.681	1218.38
470.901	1240.38
471.12	1258.38
471.339	1246.38
471.558	1179.38
471.777	1196.38
471.997	1219.38
472.216	1198.38
472.435	1113.38
472.654	1142.38
472.873	1168.38
473.092	1240.38
473.311	1199.38
473.53	1155.38
473.749	1134.38
473.968	1186.38
474.187	1211.38
474.406	1235.38
474.625	1201.38
474.844	1215.38
475.063	1218.38
475.282	1236.38
475.501	1202.38
475.72	1189.38
475.939	1306.38
476.158	1259.38
476.377	1181.38
476.596	1201.38
476.814	1246.38
477.033	1223.38
477.252	1290.38
477.471	1325.38
477.69	1297.38
477.908	1287.38
478.127	1380.38
478.346	1421.38
478.564	1406.38
478.783	1420.38
479.002	1443.38
479.22	1401.38
479.439	1452.38
479.658	1601.38
479.876	1538.38
480.095	1383.38
480.313	1342.38
480.532	1306.38
480.751	1331.38
480.969	1315.38
481.188	1284.38
481.406	1256.38
481.624	1240.38
481.843	1287.38
482.061	1304.38
482.28	1351.38
482.498	1334.38
482.717	1322.38
482.935	1288.38
483.153	1378.38
483.372	1402.38
483.59	1357.38
483.808	1390.38
484.027	1351.38
484.245	1430.38
484.463	1734.38
484.681	1868.38
484.9	1476.38
485.118	1371.38
485.336	1352.38
485.554	1375.38
485.772	1432.38
485.99	1391.38
486.209	1379.38
486.427	1426.38
486.645	1410.38
486.863	1448.38
487.081	1489.38
487.299	1450.38
487.517	1459.38
487.735	1464.38
487.953	1507.38
488.171	1500.38
488.389	1448.38
488.607	1461.38
488.825	1577.38
489.043	1542.38
489.261	1413.38
489.479	1491.38
489.696	1523.38
489.914	1492.38
490.132	1459.38
490.35	1462.38
490.568	1556.38
490.786	1497.38
491.003	1454.38
491.221	1545.38
491.439	1584.38
491.657	1588.38
491.874	1605.38
492.092	1661.38
492.31	1666.38
492.527	1668.38
492.745	1642.38
492.963	1570.38
493.18	1624.38
493.398	1687.38
493.615	1698.38
493.833	1611.38
494.05	1551.38
494.268	1578.38
494.485	1594.38
494.703	1594.38
494.92	1564.38
495.138	1554.38
495.355	1558.38
495.573	1610.38
495.79	1730.38
496.008	1719.38
496.225	1573.38
496.442	1614.38
496.66	1633.38
496.877	1630.38
497.094	1630.38
497.312	1651.38
497.529	1640.38
497.746	1690.38
497.963	1900.38
498.181	1954.38
498.398	1879.38
498.615	1829.38
498.832	1784.38
499.049	1792.38
499.267	1793.38
499.484	1930.38
499.701	2031.38
499.918	2060.38
500.135	2231.38
500.352	2368.38
500.569	2356.38
500.786	2544.38
501.003	2319.38
501.22	2122.38
501.437	2096.38
501.654	2100.38
501.871	1972.38
502.088	1763.38
502.305	1820.38
502.522	1714.38
502.739	1622.38
502.956	1608.38
503.172	1553.38
503.389	1498.38
503.606	1488.38
503.823	1463.38
504.04	1528.38
504.256	1521.38
504.473	1477.38
504.69	1548.38
504.907	1484.38
505.123	1415.38
505.34	1583.38
505.557	1998.38
505.773	1651.38
505.99	1402.38
506.207	1346.38
506.423	1296.38
506.64	1284.38
506.856	1340.38
507.073	1518.38
507.289	1577.38
507.506	1512.38
507.722	1316.38
507.939	1256.38
508.155	1267.38
508.372	1248.38
508.588	1204.38
508.805	1183.38
509.021	1200.38
509.238	1168.38
509.454	1153.38
509.67	1137.38
509.887	1137.38
510.103	1145.38
510.319	1153.38
510.536	1247.38
510.752	1224.38
510.968	1191.38
511.184	1348.38
511.401	1262.38
511.617	1106.38
511.833	1090.38
512.049	1106.38
512.265	1100.38
512.481	1106.38
512.698	1146.38
512.914	1219.38
513.13	1164.38
513.346	1140.38
513.562	1105.38
513.778	1135.38
513.994	1183.38
514.21	1189.38
514.426	1224.38
514.642	1335.38
514.858	1248.38
515.074	1150.38
515.29	1152.38
515.506	1165.38
515.721	1188.38
515.937	1174.38
516.153	1304.38
516.369	1280.38
516.585	1188.38
516.801	1147.38
517.016	1154.38
517.232	1234.38
517.448	1228.38
517.664	1227.38
517.879	1200.38
518.095	1292.38
518.311	1220.38
518.527	1205.38
518.742	1212.38
518.958	1171.38
519.173	1144.38
519.389	1165.38
519.605	1149.38
519.82	1164.38
520.036	1188.38
520.251	1158.38
520.467	1188.38
520.682	1275.38
520.898	1280.38
521.113	1136.38
521.329	1107.38
521.544	1187.38
521.76	1155.38
521.975	1150.38
522.19	1107.38
522.406	1124.38
522.621	1371.38
522.836	1316.38
523.052	1090.38
523.267	1113.38
523.482	1108.38
523.698	1081.38
523.913	1056.38
524.128	1068.38
524.343	1140.38
524.559	1186.38
524.774	1120.38
524.989	1066.38
525.204	1062.38
525.419	1058.38
525.634	1050.38
525.849	1095.38
526.064	1080.38
526.28	1074.38
526.495	1006.38
526.71	1057.38
526.925	996.38
527.14	978.38
527.355	995.38
527.57	1006.38
527.785	1030.38
527.999	985.38
528.214	978.38
528.429	992.38
528.644	1044.38
528.859	1075.38
529.074	1052.38
529.289	1098.38
529.503	1136.38
529.718	1108.38
529.933	1030.38
530.148	1003.38
530.363	962.38
530.577	960.38
530.792	972.38
531.007	1007.38
531.221	967.38
531.436	983.38
531.651	999.38
531.865	1064.38
532.08	1033.38
532.295	990.38
532.509	967.38
532.724	952.38
532.938	1013.38
533.153	1065.38
533.367	1046.38
533.582	1025.38
533.796	1013.38
534.011	1016.38
534.225	1024.38
534.44	950.38
534.654	975.38
534.868	966.38
535.083	1014.38
535.297	1060.38
535.511	1026.38
535.726	1007.38
535.94	971.38
536.154	952.38
536.369	968.38
536.583	930.38
536.797	964.38
537.011	955.38
537.225	948.38
537.44	956.38
537.654	972.38
537.868	947.38
538.082	916.38
538.296	936.38
538.51	894.38
538.724	946.38
538.938	958.38
539.153	1013.38
539.367	1017.38
539.581	944.38
539.795	993.38
540.009	985.38
540.222	935.38
540.436	993.38
540.65	1049.38
540.864	1097.38
541.078	1076.38
541.292	1049.38
541.506	1054.38
541.72	1114.38
541.934	1142.38
542.147	1188.38
542.361	1132.38
542.575	1065.38
542.789	991.38
543.002	951.38
543.216	996.38
543.43	1042.38
543.644	1066.38
543.857	1124.38
544.071	1119.38
544.285	1114.38
544.498	1115.38
544.712	1103.38
544.925	1132.38
545.139	1118.38
545.352	1067.38
545.566	1056.38
545.779	1066.38
545.993	1100.38
546.206	1074.38
546.42	1095.38
546.633	1067.38
546.847	1052.38
547.06	1101.38
547.274	1082.38
547.487	1084.38
547.7	1099.38
547.914	1096.38
548.127	1123.38
548.34	1107.38
548.554	1045.38
548.767	1052.38
548.98	1088.38
549.193	1076.38
549.407	1103.38
549.62	1086.38
549.833	1035.38
550.046	1038.38
550.259	1050.38
550.473	1057.38
550.686	1025.38
550.899	984.38
551.112	1010.38
551.325	986.38
551.538	1068.38
551.751	1143.38
551.964	940.38
552.177	930.38
552.39	933.38
552.603	996.38
552.816	996.38
553.029	1056.38
553.242	1072.38
553.455	1072.38
553.667	1032.38
553.88	1010.38
554.093	1009.38
554.306	984.38
554.519	954.38
554.732	946.38
554.944	954.38
555.157	976.38
555.37	971.38
555.583	966.38
555.795	915.38
556.008	896.38
556.221	904.38
556.433	869.38
556.646	880.38
556.859	890.38
557.071	875.38
557.284	896.38
557.496	886.38
557.709	880.38
557.921	853.38
558.134	867.38
558.346	858.38
558.559	853.38
558.771	851.38
558.984	822.38
559.196	844.38
559.409	823.38
559.621	809.38
559.833	804.38
560.046	832.38
560.258	832.38
560.47	834.38
560.683	804.38
560.895	828.38
561.107	826.38
561.32	825.38
561.532	823.38
561.744	818.38
561.956	806.38
562.168	799.38
562.381	776.38
562.593	795.38
562.805	777.38
563.017	784.38
563.229	768.38
563.441	803.38
563.653	769.38
563.865	796.38
564.077	801.38
564.289	775.38
564.501	767.38
564.713	826.38
564.925	835.38
565.137	879.38
565.349	823.38
565.561	800.38
565.773	823.38
565.985	807.38
566.197	875.38
566.408	896.38
566.62	915.38
566.832	865.38
567.044	906.38
567.255	898.38
567.467	914.38
567.679	933.38
567.891	951.38
568.102	888.38
568.314	853.38
568.526	809.38
568.737	766.38
568.949	727.38
569.161	725.38
569.372	673.38
569.584	694.38
569.795	702.38
570.007	679.38
570.218	653.38
570.43	648.38
570.641	653.38
570.853	660.38
571.064	656.38
571.276	667.38
571.487	643.38
571.698	640.38
571.91	642.38
572.121	627.38
572.333	624.38
572.544	632.38
572.755	598.38
572.966	574.38
573.178	571.38
573.389	584.38
573.6	635.38
573.811	647.38
574.023	591.38
574.234	592.38
574.445	571.38
574.656	548.38
574.867	544.38
575.078	566.38
575.289	570.38
575.501	557.38
575.712	552.38
575.923	553.38
576.134	587.38
576.345	568.38
576.556	560.38
576.767	542.38
576.978	541.38
577.188	563.38
577.399	534.38
577.61	531.38
577.821	523.38
578.032	514.38
578.243	536.38
578.454	506.38
578.665	507.38
578.875	504.38
579.086	495.38
579.297	511.38
579.508	523.38
579.718	517.38
579.929	508.38
580.14	497.38
580.35	478.38
580.561	520.38
580.772	581.38
580.982	531.38
581.193	500.38
581.403	481.38
581.614	462.38
581.825	501.38
582.035	477.38
582.246	473.38
582.456	478.38
582.667	499.38
582.877	482.38
583.087	485.38
583.298	489.38
583.508	475.38
583.719	468.38
583.929	474.38
584.139	460.38
584.35	463.38
584.56	486.38
584.77	473.38
584.981	478.38
585.191	481.38
585.401	516.38
585.611	459.38
585.821	450.38
586.032	468.38
586.242	474.38
586.452	445.38
586.662	483.38
586.872	432.38
587.082	458.38
587.292	460.38
587.502	469.38
587.713	473.38
587.923	445.38
588.133	461.38
588.343	474.38
588.553	435.38
588.762	438.38
588.972	450.38
589.182	448.38
589.392	450.38
589.602	468.38
589.812	468.38
590.022	439.38
590.232	445.38
590.441	439.38
590.651	440.38
590.861	434.38
591.071	439.38
591.281	421.38
591.49	434.38
591.7	441.38
591.91	448.38
592.119	439.38
592.329	459.38
592.539	451.38
592.748	465.38
592.958	474.38
593.167	456.38
593.377	450.38
593.587	462.38
593.796	478.38
594.006	479.38
594.215	466.38
594.424	450.38
594.634	460.38
594.843	465.38
595.053	481.38
595.262	453.38
595.472	468.38
595.681	453.38
595.89	422.38
596.1	434.38
596.309	443.38
596.518	424.38
596.727	456.38
596.937	417.38
597.146	420.38
597.355	434.38
597.564	407.38
597.774	414.38
597.983	401.38
598.192	412.38
598.401	401.38
598.61	393.38
598.819	410.38
599.028	406.38
599.237	416.38
599.446	389.38
599.655	369.38
599.864	372.38
600.073	387.38
600.282	382.38
600.491	397.38
600.7	384.38
600.909	367.38
601.118	377.38
601.327	427.38
601.536	433.38
601.745	413.38
601.953	398.38
602.162	415.38
602.371	422.38
602.58	398.38
602.789	412.38
602.997	416.38
603.206	394.38
603.415	410.38
603.623	423.38
603.832	397.38
604.041	386.38
604.249	386.38
604.458	373.38
604.666	374.38
604.875	380.38
605.084	404.38
605.292	376.38
605.501	386.38
605.709	425.38
605.918	412.38
606.126	402.38
606.334	391.38
606.543	416.38
606.751	389.38
606.96	418.38
607.168	414.38
607.376	402.38
607.585	413.38
607.793	408.38
608.001	396.38
608.21	402.38
608.418	403.38
608.626	387.38
608.834	387.38
609.043	401.38
609.251	396.38
609.459	414.38
609.667	393.38
609.875	397.38
610.083	422.38
610.291	431.38
610.499	392.38
610.707	416.38
610.916	386.38
611.124	406.38
611.332	396.38
611.54	388.38
611.748	403.38
611.955	392.38
612.163	397.38
612.371	402.38
612.579	384.38
612.787	392.38
612.995	388.38
613.203	402.38
613.411	393.38
613.618	389.38
613.826	378.38
614.034	390.38
614.242	387.38
614.449	390.38
614.657	397.38
614.865	398.38
615.072	382.38
615.28	394.38
615.488	376.38
615.695	394.38
615.903	406.38
616.111	386.38
616.318	381.38
616.526	388.38
616.733	394.38
616.941	408.38
617.148	383.38
617.356	375.38
617.563	381.38
617.771	375.38
617.978	359.38
618.185	340.38
618.393	359.38
618.6	386.38
618.807	372.38
619.015	369.38
619.222	383.38
619.429	373.38
619.637	350.38
619.844	336.38
620.051	348.38
620.258	362.38
620.466	350.38
620.673	346.38
620.88	342.38
621.087	345.38
621.294	359.38
621.501	336.38
621.708	324.38
621.915	352.38
622.122	366.38
622.329	356.38
622.536	354.38
622.743	355.38
622.95	334.38
623.157	344.38
623.364	338.38
623.571	331.38
623.778	347.38
623.985	334.38
624.192	355.38
624.399	342.38
624.606	339.38
624.812	315.38
625.019	315.38
625.226	327.38
625.433	331.38
625.639	304.38
625.846	311.38
626.053	288.38
626.259	290.38
626.466	301.38
626.673	284.38
626.879	282.38
627.086	289.38
627.293	310.38
627.499	322.38
627.706	322.38
627.912	312.38
628.119	337.38
628.325	342.38
628.532	319.38
628.738	319.38
628.945	313.38
629.151	290.38
629.357	310.38
629.564	308.38
629.77	291.38
629.976	326.38
630.183	293.38
630.389	289.38
630.595	316.38
630.802	298.38
631.008	292.38
631.214	299.38
631.42	295.38
631.627	292.38
631.833	284.38
632.039	279.38
632.245	295.38
632.451	298.38
632.657	276.38
632.863	282.38
633.069	325.38
633.275	289.38
633.481	268.38
633.688	282.38
633.893	283.38
634.099	266.38
634.305	294.38
634.511	277.38
634.717	254.38
634.923	265.38
635.129	279.38
635.335	265.38
635.541	266.38
635.747	277.38
635.952	275.38
636.158	282.38
636.364	274.38
636.57	291.38
636.775	268.38
636.981	268.38
637.187	298.38
637.392	282.38
637.598	302.38
637.804	277.38
638.009	258.38
638.215	262.38
638.421	291.38
638.626	258.38
638.832	270.38
639.037	258.38
639.243	266.38
639.448	276.38
639.654	262.38
639.859	264.38
640.065	261.38
640.27	274.38
640.475	274.38
640.681	274.38
640.886	254.38
641.091	257.38
641.297	272.38
641.502	259.38
641.707	283.38
641.913	252.38
642.118	255.38
642.323	238.38
642.528	254.38
642.733	267.38
642.939	247.38
643.144	262.38
643.349	259.38
643.554	246.38
643.759	244.38
643.964	255.38
644.169	254.38
644.374	258.38
644.579	258.38
644.784	264.38
644.989	258.38
645.194	243.38
645.399	259.38
645.604	251.38
645.809	253.38
646.014	250.38
646.219	266.38
646.423	249.38
646.628	254.38
646.833	265.38
647.038	265.38
647.243	238.38
647.447	258.38
647.652	243.38
647.857	257.38
648.062	247.38
648.266	256.38
648.471	251.38
648.676	287.38
648.88	261.38
649.085	246.38
649.289	262.38
649.494	259.38
649.698	265.38
649.903	258.38
650.107	247.38
650.312	247.38
650.516	261.38
650.721	250.38
650.925	245.38
651.13	239.38
651.334	234.38
651.539	243.38
651.743	244.38
651.947	222.38
652.152	224.38
652.356	239.38
652.56	197.38
652.764	222.38
652.969	213.38
653.173	234.38
653.377	242.38
653.581	205.38
653.785	210.38
653.99	215.38
654.194	223.38
654.398	203.38
654.602	216.38
654.806	234.38
655.01	217.38
655.214	220.38
655.418	217.38
655.622	225.38
655.826	227.38
656.03	243.38
656.234	242.38
656.438	273.38
656.642	260.38
656.846	244.38
657.049	228.38
657.253	186.38
657.457	210.38
657.661	195.38
657.865	186.38
658.068	179.38
658.272	164.38
658.476	159.38
658.68	165.38
658.883	157.38
659.087	148.38
659.291	156.38
659.494	139.38
659.698	120.38
659.901	145.38
660.105	142.38
660.309	128.38
660.512	116.38
660.716	131.38
660.919	123.38
661.123	122.38
661.326	111.38
661.53	112.38
661.733	103.38
661.936	102.38
662.14	104.38
662.343	95.38
662.546	99.38
662.75	94.38
662.953	83.38
663.156	84.38
663.36	101.38
663.563	98.38
663.766	103.38
663.969	93.38
664.173	82.38
664.376	80.38
664.579	83.38
664.782	89.38
664.985	84.38
665.188	77.38
665.391	92.38
665.594	86.38
665.797	88.38
666	89.38
666.203	90.38
666.406	92.38
666.609	61.38
666.812	75.38
667.015	82.38
667.218	72.38
667.421	77.38
667.624	75.38
667.827	66.38
668.03	69.38
668.232	84.38
668.435	74.38
668.638	82.38
668.841	90.38
669.043	79.38
669.246	85.38
669.449	81.38
669.651	70.38
669.854	82.38
670.057	79.38
670.259	80.38
670.462	75.38
670.665	99.38
670.867	90.38
671.07	78.38
671.272	79.38
671.475	72.38
671.677	81.38
671.88	90.38
672.082	80.38
672.284	76.38
672.487	80.38
672.689	75.38
672.892	64.38
