Data from WStandard_LampEnergy8_LIBS07252019.E.O._I.C._HRD10591_15-58-40-929.txt Node
Date: Thu Jul 25 15:58:40 EDT 2019
User: cochatt
Spectrometer: HR+D1059
Trigger mode: 1
Integration Time (sec): 1.000000E-1
Scans to average: 1
Electric dark correction enabled: true
Nonlinearity correction enabled: false
Boxcar width: 0
XAxis mode: Wavelengths
Number of Pixels in Spectrum: 2048
>>>>>Begin Spectral Data<<<<<
223.165	-9.19
223.4	-9.19
223.635	-9.19
223.869	-19.19
224.104	-12.19
224.338	-11.19
224.573	-15.19
224.808	-16.19
225.042	-27.19
225.277	-23.19
225.511	11.81
225.746	0.81
225.98	4.81
226.215	12.81
226.449	18.81
226.683	31.81
226.918	26.81
227.152	25.81
227.387	27.81
227.621	42.81
227.856	47.81
228.09	41.81
228.324	55.81
228.559	42.81
228.793	89.81
229.027	209.81
229.262	204.81
229.496	203.81
229.73	223.81
229.964	244.81
230.199	241.81
230.433	244.81
230.667	272.81
230.901	280.81
231.136	258.81
231.37	257.81
231.604	255.81
231.838	246.81
232.072	271.81
232.306	268.81
232.541	272.81
232.775	322.81
233.009	316.81
233.243	318.81
233.477	291.81
233.711	302.81
233.945	312.81
234.179	306.81
234.413	340.81
234.647	352.81
234.881	340.81
235.115	288.81
235.349	330.81
235.583	308.81
235.817	319.81
236.051	298.81
236.285	315.81
236.519	307.81
236.753	353.81
236.987	375.81
237.221	373.81
237.455	388.81
237.689	390.81
237.922	361.81
238.156	343.81
238.39	368.81
238.624	376.81
238.858	395.81
239.091	414.81
239.325	424.81
239.559	476.81
239.793	495.81
240.027	529.81
240.26	482.81
240.494	381.81
240.728	382.81
240.961	383.81
241.195	389.81
241.429	402.81
241.662	400.81
241.896	411.81
242.13	400.81
242.363	431.81
242.597	452.81
242.83	440.81
243.064	469.81
243.298	464.81
243.531	473.81
243.765	477.81
243.998	474.81
244.232	424.81
244.465	419.81
244.699	427.81
244.932	467.81
245.166	524.81
245.399	489.81
245.633	447.81
245.866	455.81
246.099	479.81
246.333	499.81
246.566	520.81
246.8	551.81
247.033	578.81
247.266	552.81
247.5	533.81
247.733	527.81
247.966	594.81
248.2	611.81
248.433	595.81
248.666	648.81
248.899	696.81
249.133	734.81
249.366	826.81
249.599	680.81
249.832	626.81
250.066	635.81
250.299	664.81
250.532	595.81
250.765	558.81
250.998	588.81
251.231	596.81
251.465	616.81
251.698	595.81
251.931	581.81
252.164	609.81
252.397	602.81
252.63	610.81
252.863	541.81
253.096	552.81
253.329	539.81
253.562	610.81
253.795	658.81
254.028	613.81
254.261	599.81
254.494	576.81
254.727	555.81
254.96	597.81
255.193	640.81
255.426	711.81
255.659	772.81
255.892	787.81
256.124	659.81
256.357	662.81
256.59	712.81
256.823	710.81
257.056	703.81
257.289	835.81
257.521	909.81
257.754	804.81
257.987	784.81
258.22	868.81
258.452	831.81
258.685	689.81
258.918	671.81
259.151	692.81
259.383	656.81
259.616	591.81
259.849	614.81
260.081	704.81
260.314	808.81
260.547	831.81
260.779	839.81
261.012	802.81
261.244	705.81
261.477	699.81
261.71	700.81
261.942	690.81
262.175	671.81
262.407	716.81
262.64	672.81
262.872	619.81
263.105	614.81
263.337	646.81
263.57	622.81
263.802	626.81
264.035	601.81
264.267	600.81
264.499	567.81
264.732	608.81
264.964	678.81
265.197	706.81
265.429	720.81
265.661	806.81
265.894	872.81
266.126	857.81
266.358	757.81
266.591	817.81
266.823	871.81
267.055	819.81
267.287	801.81
267.52	798.81
267.752	794.81
267.984	760.81
268.216	791.81
268.448	835.81
268.681	785.81
268.913	734.81
269.145	690.81
269.377	689.81
269.609	780.81
269.841	892.81
270.073	1024.81
270.306	1119.81
270.538	1110.81
270.77	968.81
271.002	851.81
271.234	811.81
271.466	849.81
271.698	942.81
271.93	1092.81
272.162	1041.81
272.394	970.81
272.626	930.81
272.858	809.81
273.09	731.81
273.322	706.81
273.553	693.81
273.785	707.81
274.017	708.81
274.249	761.81
274.481	786.81
274.713	737.81
274.945	688.81
275.176	716.81
275.408	695.81
275.64	692.81
275.872	694.81
276.104	750.81
276.335	844.81
276.567	919.81
276.799	914.81
277.031	827.81
277.262	822.81
277.494	848.81
277.726	913.81
277.957	910.81
278.189	809.81
278.421	771.81
278.652	756.81
278.884	750.81
279.115	742.81
279.347	783.81
279.579	750.81
279.81	751.81
280.042	815.81
280.273	874.81
280.505	883.81
280.736	905.81
280.968	835.81
281.199	752.81
281.431	718.81
281.662	723.81
281.894	751.81
282.125	733.81
282.356	770.81
282.588	773.81
282.819	792.81
283.051	861.81
283.282	898.81
283.513	847.81
283.745	747.81
283.976	704.81
284.207	708.81
284.439	750.81
284.67	759.81
284.901	780.81
285.132	794.81
285.364	768.81
285.595	761.81
285.826	758.81
286.057	771.81
286.288	775.81
286.52	788.81
286.751	861.81
286.982	872.81
287.213	823.81
287.444	742.81
287.675	768.81
287.906	778.81
288.138	856.81
288.369	806.81
288.6	766.81
288.831	747.81
289.062	790.81
289.293	776.81
289.524	785.81
289.755	791.81
289.986	791.81
290.217	733.81
290.448	779.81
290.679	793.81
290.91	754.81
291.141	804.81
291.371	846.81
291.602	827.81
291.833	829.81
292.064	856.81
292.295	850.81
292.526	858.81
292.757	874.81
292.987	830.81
293.218	812.81
293.449	906.81
293.68	989.81
293.91	1014.81
294.141	937.81
294.372	942.81
294.603	956.81
294.833	980.81
295.064	935.81
295.295	837.81
295.525	816.81
295.756	748.81
295.987	743.81
296.217	753.81
296.448	774.81
296.679	784.81
296.909	776.81
297.14	781.81
297.37	810.81
297.601	849.81
297.831	903.81
298.062	906.81
298.292	822.81
298.523	786.81
298.753	803.81
298.984	814.81
299.214	840.81
299.445	824.81
299.675	883.81
299.905	818.81
300.136	800.81
300.366	769.81
300.597	763.81
300.827	790.81
301.057	802.81
301.288	842.81
301.518	851.81
301.748	894.81
301.979	924.81
302.209	922.81
302.439	1000.81
302.669	1032.81
302.9	934.81
303.13	874.81
303.36	861.81
303.59	876.81
303.82	857.81
304.051	856.81
304.281	858.81
304.511	915.81
304.741	968.81
304.971	1032.81
305.201	1080.81
305.431	952.81
305.661	832.81
305.891	758.81
306.121	774.81
306.352	808.81
306.582	865.81
306.812	908.81
307.042	981.81
307.272	984.81
307.502	1029.81
307.731	1067.81
307.961	1094.81
308.191	1035.81
308.421	907.81
308.651	849.81
308.881	836.81
309.111	824.81
309.341	829.81
309.571	834.81
309.8	839.81
310.03	821.81
310.26	824.81
310.49	826.81
310.72	860.81
310.949	889.81
311.179	867.81
311.409	878.81
311.639	880.81
311.868	863.81
312.098	822.81
312.328	864.81
312.557	836.81
312.787	877.81
313.017	851.81
313.246	883.81
313.476	874.81
313.706	892.81
313.935	883.81
314.165	923.81
314.394	947.81
314.624	978.81
314.853	1027.81
315.083	1063.81
315.312	1059.81
315.542	1006.81
315.771	910.81
316.001	933.81
316.23	968.81
316.46	931.81
316.689	924.81
316.919	904.81
317.148	875.81
317.377	890.81
317.607	982.81
317.836	1053.81
318.065	1082.81
318.295	1029.81
318.524	1014.81
318.753	976.81
318.983	948.81
319.212	938.81
319.441	924.81
319.67	901.81
319.9	958.81
320.129	1023.81
320.358	1043.81
320.587	1054.81
320.816	1062.81
321.046	1006.81
321.275	958.81
321.504	987.81
321.733	1070.81
321.962	1001.81
322.191	924.81
322.42	946.81
322.649	906.81
322.878	922.81
323.108	922.81
323.337	968.81
323.566	955.81
323.795	966.81
324.024	975.81
324.253	943.81
324.482	964.81
324.71	904.81
324.939	869.81
325.168	924.81
325.397	963.81
325.626	945.81
325.855	967.81
326.084	924.81
326.313	936.81
326.542	944.81
326.77	976.81
326.999	961.81
327.228	922.81
327.457	883.81
327.686	883.81
327.914	890.81
328.143	928.81
328.372	932.81
328.6	936.81
328.829	915.81
329.058	932.81
329.287	934.81
329.515	931.81
329.744	942.81
329.972	1027.81
330.201	1056.81
330.43	1033.81
330.658	987.81
330.887	984.81
331.115	994.81
331.344	995.81
331.572	979.81
331.801	980.81
332.03	1008.81
332.258	985.81
332.486	978.81
332.715	1017.81
332.943	1032.81
333.172	994.81
333.4	1014.81
333.629	1067.81
333.857	1103.81
334.085	1248.81
334.314	1386.81
334.542	1472.81
334.771	1306.81
334.999	1210.81
335.227	1141.81
335.455	1051.81
335.684	1063.81
335.912	1096.81
336.14	1114.81
336.369	1072.81
336.597	1031.81
336.825	1013.81
337.053	1041.81
337.281	1123.81
337.51	1141.81
337.738	1179.81
337.966	1094.81
338.194	1016.81
338.422	999.81
338.65	970.81
338.878	984.81
339.106	949.81
339.334	933.81
339.562	940.81
339.79	964.81
340.018	1031.81
340.246	1066.81
340.474	1048.81
340.702	1022.81
340.93	1049.81
341.158	1025.81
341.386	993.81
341.614	982.81
341.842	971.81
342.07	988.81
342.298	992.81
342.526	968.81
342.754	964.81
342.981	990.81
343.209	973.81
343.437	958.81
343.665	965.81
343.893	1032.81
344.12	1077.81
344.348	1067.81
344.576	993.81
344.804	982.81
345.031	1002.81
345.259	1001.81
345.487	971.81
345.714	912.81
345.942	918.81
346.17	935.81
346.397	955.81
346.625	950.81
346.853	898.81
347.08	894.81
347.308	879.81
347.535	939.81
347.763	943.81
347.99	953.81
348.218	917.81
348.445	914.81
348.673	962.81
348.9	962.81
349.128	1008.81
349.355	1030.81
349.583	1000.81
349.81	931.81
350.037	903.81
350.265	875.81
350.492	862.81
350.72	916.81
350.947	945.81
351.174	949.81
351.402	906.81
351.629	867.81
351.856	857.81
352.083	852.81
352.311	900.81
352.538	923.81
352.765	934.81
352.992	967.81
353.22	923.81
353.447	898.81
353.674	921.81
353.901	943.81
354.128	895.81
354.355	936.81
354.583	951.81
354.81	982.81
355.037	985.81
355.264	980.81
355.491	962.81
355.718	948.81
355.945	917.81
356.172	919.81
356.399	883.81
356.626	899.81
356.853	946.81
357.08	1051.81
357.307	1109.81
357.534	1077.81
357.761	944.81
357.988	893.81
358.215	886.81
358.441	896.81
358.668	866.81
358.895	910.81
359.122	977.81
359.349	1062.81
359.576	999.81
359.802	951.81
360.029	907.81
360.256	894.81
360.483	903.81
360.709	935.81
360.936	993.81
361.163	1042.81
361.39	1112.81
361.616	1131.81
361.843	1156.81
362.07	1033.81
362.296	930.81
362.523	918.81
362.749	909.81
362.976	957.81
363.203	955.81
363.429	916.81
363.656	884.81
363.882	967.81
364.109	1069.81
364.335	1105.81
364.562	1026.81
364.788	974.81
365.015	955.81
365.241	922.81
365.468	953.81
365.694	963.81
365.92	995.81
366.147	951.81
366.373	934.81
366.599	906.81
366.826	891.81
367.052	899.81
367.278	934.81
367.505	944.81
367.731	963.81
367.957	958.81
368.184	1033.81
368.41	1059.81
368.636	1058.81
368.862	1077.81
369.089	1058.81
369.315	1036.81
369.541	996.81
369.767	935.81
369.993	956.81
370.219	933.81
370.445	994.81
370.672	1042.81
370.898	1063.81
371.124	1044.81
371.35	1004.81
371.576	1050.81
371.802	1066.81
372.028	1011.81
372.254	950.81
372.48	939.81
372.706	933.81
372.932	950.81
373.158	971.81
373.384	974.81
373.61	1026.81
373.835	1037.81
374.061	970.81
374.287	995.81
374.513	1008.81
374.739	996.81
374.965	1000.81
375.191	1012.81
375.416	1003.81
375.642	1054.81
375.868	1090.81
376.094	1107.81
376.319	1051.81
376.545	996.81
376.771	1066.81
376.997	1140.81
377.222	1070.81
377.448	1032.81
377.674	1062.81
377.899	1074.81
378.125	1101.81
378.35	1079.81
378.576	970.81
378.802	965.81
379.027	983.81
379.253	967.81
379.478	970.81
379.704	1011.81
379.929	959.81
380.155	977.81
380.38	1014.81
380.606	1023.81
380.831	1007.81
381.057	1057.81
381.282	1072.81
381.507	1049.81
381.733	1137.81
381.958	1169.81
382.184	1039.81
382.409	1032.81
382.634	1045.81
382.86	1042.81
383.085	1045.81
383.31	1071.81
383.535	1196.81
383.761	1244.81
383.986	1194.81
384.211	1144.81
384.436	1155.81
384.662	1170.81
384.887	1233.81
385.112	1135.81
385.337	1137.81
385.562	1130.81
385.787	1147.81
386.013	1182.81
386.238	1146.81
386.463	1176.81
386.688	1257.81
386.913	1312.81
387.138	1260.81
387.363	1176.81
387.588	1187.81
387.813	1175.81
388.038	1178.81
388.263	1216.81
388.488	1152.81
388.713	1087.81
388.938	1066.81
389.163	1104.81
389.387	1120.81
389.612	1128.81
389.837	1116.81
390.062	1142.81
390.287	1164.81
390.512	1123.81
390.736	1107.81
390.961	1124.81
391.186	1065.81
391.411	1073.81
391.636	1136.81
391.86	1115.81
392.085	1113.81
392.31	1123.81
392.534	1112.81
392.759	1143.81
392.984	1162.81
393.208	1164.81
393.433	1193.81
393.658	1249.81
393.882	1229.81
394.107	1152.81
394.331	1156.81
394.556	1161.81
394.78	1183.81
395.005	1185.81
395.229	1247.81
395.454	1274.81
395.678	1253.81
395.903	1236.81
396.127	1222.81
396.352	1216.81
396.576	1223.81
396.801	1244.81
397.025	1248.81
397.249	1224.81
397.474	1224.81
397.698	1220.81
397.922	1299.81
398.147	1323.81
398.371	1376.81
398.595	1353.81
398.82	1292.81
399.044	1304.81
399.268	1375.81
399.492	1470.81
399.717	1480.81
399.941	1488.81
400.165	1461.81
400.389	1457.81
400.613	1448.81
400.837	1660.81
401.062	1857.81
401.286	1532.81
401.51	1473.81
401.734	1494.81
401.958	1458.81
402.182	1342.81
402.406	1290.81
402.63	1290.81
402.854	1329.81
403.078	1280.81
403.302	1332.81
403.526	1332.81
403.75	1370.81
403.974	1388.81
404.198	1352.81
404.422	1418.81
404.645	1489.81
404.869	1480.81
405.093	1318.81
405.317	1338.81
405.541	1341.81
405.765	1379.81
405.988	1371.81
406.212	1378.81
406.436	1439.81
406.66	1458.81
406.883	1506.81
407.107	1682.81
407.331	1831.81
407.555	1894.81
407.778	1722.81
408.002	1452.81
408.226	1434.81
408.449	1426.81
408.673	1365.81
408.896	1369.81
409.12	1385.81
409.344	1374.81
409.567	1331.81
409.791	1360.81
410.014	1403.81
410.238	1501.81
410.461	1564.81
410.685	1374.81
410.908	1398.81
411.132	1396.81
411.355	1371.81
411.578	1332.81
411.802	1340.81
412.025	1351.81
412.249	1302.81
412.472	1283.81
412.695	1315.81
412.919	1300.81
413.142	1299.81
413.365	1289.81
413.589	1363.81
413.812	1459.81
414.035	1460.81
414.258	1344.81
414.482	1302.81
414.705	1317.81
414.928	1291.81
415.151	1321.81
415.374	1307.81
415.597	1338.81
415.821	1338.81
416.044	1358.81
416.267	1340.81
416.49	1287.81
416.713	1285.81
416.936	1292.81
417.159	1388.81
417.382	1394.81
417.605	1319.81
417.828	1349.81
418.051	1329.81
418.274	1307.81
418.497	1281.81
418.72	1269.81
418.943	1289.81
419.166	1330.81
419.389	1373.81
419.611	1302.81
419.834	1310.81
420.057	1307.81
420.28	1299.81
420.503	1294.81
420.726	1373.81
420.948	1307.81
421.171	1269.81
421.394	1293.81
421.617	1332.81
421.839	1313.81
422.062	1323.81
422.285	1299.81
422.507	1292.81
422.73	1246.81
422.953	1219.81
423.175	1201.81
423.398	1263.81
423.621	1253.81
423.843	1288.81
424.066	1336.81
424.288	1394.81
424.511	1421.81
424.733	1365.81
424.956	1262.81
425.178	1262.81
425.401	1283.81
425.623	1259.81
425.846	1231.81
426.068	1331.81
426.291	1326.81
426.513	1339.81
426.735	1319.81
426.958	1432.81
427.18	1524.81
427.402	1396.81
427.625	1431.81
427.847	1392.81
428.069	1272.81
428.292	1262.81
428.514	1227.81
428.736	1212.81
428.958	1263.81
429.181	1288.81
429.403	1491.81
429.625	1786.81
429.847	1475.81
430.069	1307.81
430.292	1420.81
430.514	1472.81
430.736	1324.81
430.958	1368.81
431.18	1302.81
431.402	1226.81
431.624	1214.81
431.846	1183.81
432.068	1152.81
432.29	1164.81
432.512	1183.81
432.734	1284.81
432.956	1298.81
433.178	1352.81
433.4	1303.81
433.622	1310.81
433.844	1251.81
434.066	1215.81
434.287	1214.81
434.509	1215.81
434.731	1259.81
434.953	1396.81
435.175	1324.81
435.397	1262.81
435.618	1258.81
435.84	1236.81
436.062	1244.81
436.284	1281.81
436.505	1310.81
436.727	1320.81
436.949	1282.81
437.17	1223.81
437.392	1239.81
437.614	1238.81
437.835	1182.81
438.057	1254.81
438.278	1270.81
438.5	1222.81
438.721	1244.81
438.943	1240.81
439.165	1255.81
439.386	1211.81
439.608	1252.81
439.829	1253.81
440.05	1247.81
440.272	1258.81
440.493	1264.81
440.715	1242.81
440.936	1346.81
441.158	1443.81
441.379	1410.81
441.6	1368.81
441.822	1336.81
442.043	1336.81
442.264	1339.81
442.486	1271.81
442.707	1240.81
442.928	1244.81
443.149	1295.81
443.371	1370.81
443.592	1363.81
443.813	1373.81
444.034	1342.81
444.255	1384.81
444.476	1400.81
444.698	1424.81
444.919	1402.81
445.14	1516.81
445.361	1473.81
445.582	1484.81
445.803	1429.81
446.024	1375.81
446.245	1437.81
446.466	1396.81
446.687	1338.81
446.908	1328.81
447.129	1311.81
447.35	1314.81
447.571	1309.81
447.792	1278.81
448.013	1225.81
448.234	1283.81
448.455	1306.81
448.675	1320.81
448.896	1227.81
449.117	1232.81
449.338	1251.81
449.559	1282.81
449.779	1340.81
450	1463.81
450.221	1490.81
450.442	1396.81
450.662	1276.81
450.883	1171.81
451.104	1187.81
451.324	1201.81
451.545	1213.81
451.766	1180.81
451.986	1152.81
452.207	1141.81
452.428	1099.81
452.648	1124.81
452.869	1117.81
453.089	1172.81
453.31	1137.81
453.53	1150.81
453.751	1127.81
453.971	1037.81
454.192	1088.81
454.412	1165.81
454.633	1188.81
454.853	1138.81
455.073	1081.81
455.294	1059.81
455.514	1059.81
455.734	1067.81
455.955	1091.81
456.175	1066.81
456.395	1096.81
456.616	1089.81
456.836	1082.81
457.056	1078.81
457.276	1062.81
457.497	1017.81
457.717	1016.81
457.937	1040.81
458.157	1062.81
458.377	1091.81
458.598	1040.81
458.818	1034.81
459.038	1108.81
459.258	1114.81
459.478	1113.81
459.698	1107.81
459.918	1148.81
460.138	1207.81
460.358	1223.81
460.578	1269.81
460.798	1310.81
461.018	1339.81
461.238	1305.81
461.458	1278.81
461.678	1258.81
461.898	1235.81
462.118	1200.81
462.338	1278.81
462.558	1274.81
462.777	1263.81
462.997	1315.81
463.217	1375.81
463.437	1367.81
463.657	1263.81
463.876	1257.81
464.096	1270.81
464.316	1285.81
464.536	1306.81
464.755	1288.81
464.975	1300.81
465.195	1252.81
465.414	1331.81
465.634	1314.81
465.854	1321.81
466.073	1371.81
466.293	1365.81
466.512	1175.81
466.732	1202.81
466.951	1242.81
467.171	1255.81
467.391	1194.81
467.61	1194.81
467.829	1219.81
468.049	1347.81
468.268	1483.81
468.488	1384.81
468.707	1290.81
468.927	1259.81
469.146	1251.81
469.365	1190.81
469.585	1219.81
469.804	1227.81
470.023	1248.81
470.243	1243.81
470.462	1235.81
470.681	1208.81
470.901	1225.81
471.12	1228.81
471.339	1231.81
471.558	1227.81
471.777	1199.81
471.997	1207.81
472.216	1215.81
472.435	1119.81
472.654	1116.81
472.873	1149.81
473.092	1242.81
473.311	1164.81
473.53	1142.81
473.749	1135.81
473.968	1188.81
474.187	1209.81
474.406	1250.81
474.625	1224.81
474.844	1205.81
475.063	1211.81
475.282	1235.81
475.501	1205.81
475.72	1212.81
475.939	1278.81
476.158	1234.81
476.377	1222.81
476.596	1211.81
476.814	1219.81
477.033	1236.81
477.252	1284.81
477.471	1288.81
477.69	1282.81
477.908	1263.81
478.127	1349.81
478.346	1399.81
478.564	1423.81
478.783	1410.81
479.002	1458.81
479.22	1420.81
479.439	1457.81
479.658	1578.81
479.876	1534.81
480.095	1353.81
480.313	1342.81
480.532	1307.81
480.751	1322.81
480.969	1332.81
481.188	1269.81
481.406	1286.81
481.624	1202.81
481.843	1264.81
482.061	1277.81
482.28	1343.81
482.498	1357.81
482.717	1295.81
482.935	1293.81
483.153	1337.81
483.372	1356.81
483.59	1348.81
483.808	1327.81
484.027	1383.81
484.245	1462.81
484.463	1739.81
484.681	1886.81
484.9	1468.81
485.118	1347.81
485.336	1347.81
485.554	1370.81
485.772	1418.81
485.99	1386.81
486.209	1390.81
486.427	1406.81
486.645	1394.81
486.863	1432.81
487.081	1453.81
487.299	1443.81
487.517	1451.81
487.735	1480.81
487.953	1502.81
488.171	1514.81
488.389	1473.81
488.607	1442.81
488.825	1604.81
489.043	1526.81
489.261	1402.81
489.479	1514.81
489.696	1496.81
489.914	1473.81
490.132	1428.81
490.35	1466.81
490.568	1532.81
490.786	1488.81
491.003	1471.81
491.221	1540.81
491.439	1602.81
491.657	1605.81
491.874	1590.81
492.092	1686.81
492.31	1695.81
492.527	1662.81
492.745	1625.81
492.963	1589.81
493.18	1620.81
493.398	1689.81
493.615	1690.81
493.833	1595.81
494.05	1566.81
494.268	1546.81
494.485	1571.81
494.703	1577.81
494.92	1504.81
495.138	1538.81
495.355	1569.81
495.573	1594.81
495.79	1671.81
496.008	1700.81
496.225	1594.81
496.442	1610.81
496.66	1607.81
496.877	1592.81
497.094	1666.81
497.312	1645.81
497.529	1615.81
497.746	1686.81
497.963	1830.81
498.181	1977.81
498.398	1917.81
498.615	1852.81
498.832	1795.81
499.049	1744.81
499.267	1765.81
499.484	1888.81
499.701	2046.81
499.918	2075.81
500.135	2262.81
500.352	2357.81
500.569	2302.81
500.786	2536.81
501.003	2315.81
501.22	2100.81
501.437	2035.81
501.654	2105.81
501.871	2006.81
502.088	1736.81
502.305	1783.81
502.522	1680.81
502.739	1587.81
502.956	1590.81
503.172	1595.81
503.389	1554.81
503.606	1482.81
503.823	1512.81
504.04	1494.81
504.256	1525.81
504.473	1481.81
504.69	1521.81
504.907	1477.81
505.123	1399.81
505.34	1536.81
505.557	1976.81
505.773	1680.81
505.99	1392.81
506.207	1308.81
506.423	1305.81
506.64	1267.81
506.856	1329.81
507.073	1529.81
507.289	1611.81
507.506	1514.81
507.722	1271.81
507.939	1233.81
508.155	1250.81
508.372	1262.81
508.588	1214.81
508.805	1189.81
509.021	1199.81
509.238	1192.81
509.454	1122.81
509.67	1136.81
509.887	1147.81
510.103	1131.81
510.319	1120.81
510.536	1240.81
510.752	1221.81
510.968	1211.81
511.184	1299.81
511.401	1242.81
511.617	1130.81
511.833	1111.81
512.049	1119.81
512.265	1119.81
512.481	1081.81
512.698	1150.81
512.914	1219.81
513.13	1176.81
513.346	1126.81
513.562	1094.81
513.778	1139.81
513.994	1182.81
514.21	1218.81
514.426	1245.81
514.642	1338.81
514.858	1240.81
515.074	1148.81
515.29	1136.81
515.506	1190.81
515.721	1160.81
515.937	1187.81
516.153	1305.81
516.369	1252.81
516.585	1181.81
516.801	1121.81
517.016	1167.81
517.232	1191.81
517.448	1213.81
517.664	1235.81
517.879	1223.81
518.095	1285.81
518.311	1216.81
518.527	1164.81
518.742	1142.81
518.958	1119.81
519.173	1140.81
519.389	1153.81
519.605	1184.81
519.82	1207.81
520.036	1208.81
520.251	1182.81
520.467	1168.81
520.682	1230.81
520.898	1210.81
521.113	1096.81
521.329	1119.81
521.544	1205.81
521.76	1121.81
521.975	1088.81
522.19	1092.81
522.406	1093.81
522.621	1430.81
522.836	1325.81
523.052	1084.81
523.267	1102.81
523.482	1093.81
523.698	1097.81
523.913	1044.81
524.128	1118.81
524.343	1131.81
524.559	1162.81
524.774	1094.81
524.989	1058.81
525.204	1062.81
525.419	1043.81
525.634	1068.81
525.849	1087.81
526.064	1079.81
526.28	1060.81
526.495	999.81
526.71	1001.81
526.925	1002.81
527.14	1024.81
527.355	958.81
527.57	994.81
527.785	1029.81
527.999	983.81
528.214	1022.81
528.429	984.81
528.644	1042.81
528.859	1070.81
529.074	1063.81
529.289	1111.81
529.503	1097.81
529.718	1072.81
529.933	1034.81
530.148	989.81
530.363	967.81
530.577	967.81
530.792	1010.81
531.007	966.81
531.221	965.81
531.436	1009.81
531.651	1004.81
531.865	1048.81
532.08	1002.81
532.295	966.81
532.509	925.81
532.724	928.81
532.938	1008.81
533.153	1057.81
533.367	1044.81
533.582	1033.81
533.796	1033.81
534.011	1068.81
534.225	991.81
534.44	968.81
534.654	961.81
534.868	992.81
535.083	1014.81
535.297	1036.81
535.511	1005.81
535.726	984.81
535.94	981.81
536.154	965.81
536.369	945.81
536.583	929.81
536.797	922.81
537.011	979.81
537.225	948.81
537.44	915.81
537.654	997.81
537.868	927.81
538.082	889.81
538.296	871.81
538.51	919.81
538.724	916.81
538.938	962.81
539.153	1000.81
539.367	971.81
539.581	955.81
539.795	952.81
540.009	961.81
540.222	932.81
540.436	977.81
540.65	1059.81
540.864	1094.81
541.078	1072.81
541.292	1048.81
541.506	1022.81
541.72	1106.81
541.934	1145.81
542.147	1192.81
542.361	1106.81
542.575	1083.81
542.789	1016.81
543.002	978.81
543.216	994.81
543.43	1016.81
543.644	1056.81
543.857	1129.81
544.071	1104.81
544.285	1111.81
544.498	1039.81
544.712	1091.81
544.925	1098.81
545.139	1128.81
545.352	1083.81
545.566	1087.81
545.779	1051.81
545.993	1091.81
546.206	1104.81
546.42	1054.81
546.633	1052.81
546.847	1048.81
547.06	1059.81
547.274	1065.81
547.487	1069.81
547.7	1086.81
547.914	1078.81
548.127	1106.81
548.34	1102.81
548.554	1051.81
548.767	1064.81
548.98	1097.81
549.193	1065.81
549.407	1141.81
549.62	1124.81
549.833	1037.81
550.046	1051.81
550.259	1058.81
550.473	1025.81
550.686	1037.81
550.899	1009.81
551.112	967.81
551.325	1001.81
551.538	1040.81
551.751	1148.81
551.964	934.81
552.177	919.81
552.39	963.81
552.603	978.81
552.816	1022.81
553.029	1046.81
553.242	1088.81
553.455	1067.81
553.667	1059.81
553.88	1011.81
554.093	1034.81
554.306	996.81
554.519	980.81
554.732	951.81
554.944	957.81
555.157	993.81
555.37	927.81
555.583	966.81
555.795	926.81
556.008	896.81
556.221	870.81
556.433	891.81
556.646	894.81
556.859	877.81
557.071	858.81
557.284	872.81
557.496	860.81
557.709	857.81
557.921	871.81
558.134	867.81
558.346	866.81
558.559	881.81
558.771	820.81
558.984	819.81
559.196	834.81
559.409	824.81
559.621	820.81
559.833	805.81
560.046	858.81
560.258	800.81
560.47	830.81
560.683	812.81
560.895	797.81
561.107	816.81
561.32	838.81
561.532	819.81
561.744	818.81
561.956	836.81
562.168	811.81
562.381	766.81
562.593	786.81
562.805	795.81
563.017	782.81
563.229	778.81
563.441	792.81
563.653	790.81
563.865	768.81
564.077	766.81
564.289	810.81
564.501	802.81
564.713	795.81
564.925	818.81
565.137	889.81
565.349	807.81
565.561	812.81
565.773	817.81
565.985	814.81
566.197	878.81
566.408	892.81
566.62	906.81
566.832	898.81
567.044	920.81
567.255	872.81
567.467	916.81
567.679	916.81
567.891	925.81
568.102	855.81
568.314	856.81
568.526	823.81
568.737	755.81
568.949	712.81
569.161	720.81
569.372	698.81
569.584	709.81
569.795	680.81
570.007	665.81
570.218	624.81
570.43	638.81
570.641	649.81
570.853	663.81
571.064	670.81
571.276	660.81
571.487	670.81
571.698	643.81
571.91	629.81
572.121	632.81
572.333	617.81
572.544	606.81
572.755	594.81
572.966	605.81
573.178	600.81
573.389	578.81
573.6	601.81
573.811	633.81
574.023	591.81
574.234	582.81
574.445	578.81
574.656	559.81
574.867	565.81
575.078	576.81
575.289	563.81
575.501	560.81
575.712	557.81
575.923	560.81
576.134	559.81
576.345	536.81
576.556	506.81
576.767	522.81
576.978	543.81
577.188	538.81
577.399	524.81
577.61	521.81
577.821	508.81
578.032	512.81
578.243	522.81
578.454	490.81
578.665	500.81
578.875	500.81
579.086	487.81
579.297	508.81
579.508	522.81
579.718	491.81
579.929	510.81
580.14	494.81
580.35	479.81
580.561	505.81
580.772	584.81
580.982	516.81
581.193	479.81
581.403	482.81
581.614	497.81
581.825	462.81
582.035	473.81
582.246	471.81
582.456	483.81
582.667	475.81
582.877	470.81
583.087	460.81
583.298	466.81
583.508	466.81
583.719	449.81
583.929	512.81
584.139	469.81
584.35	462.81
584.56	437.81
584.77	458.81
584.981	459.81
585.191	478.81
585.401	481.81
585.611	456.81
585.821	466.81
586.032	470.81
586.242	460.81
586.452	456.81
586.662	475.81
586.872	452.81
587.082	472.81
587.292	463.81
587.502	449.81
587.713	455.81
587.923	463.81
588.133	448.81
588.343	464.81
588.553	422.81
588.762	444.81
588.972	426.81
589.182	451.81
589.392	434.81
589.602	451.81
589.812	458.81
590.022	432.81
590.232	440.81
590.441	460.81
590.651	430.81
590.861	418.81
591.071	454.81
591.281	414.81
591.49	436.81
591.7	434.81
591.91	465.81
592.119	431.81
592.329	457.81
592.539	449.81
592.748	467.81
592.958	456.81
593.167	466.81
593.377	467.81
593.587	490.81
593.796	449.81
594.006	470.81
594.215	480.81
594.424	471.81
594.634	448.81
594.843	464.81
595.053	468.81
595.262	454.81
595.472	441.81
595.681	444.81
595.89	419.81
596.1	430.81
596.309	440.81
596.518	428.81
596.727	446.81
596.937	438.81
597.146	401.81
597.355	418.81
597.564	408.81
597.774	391.81
597.983	392.81
598.192	399.81
598.401	397.81
598.61	381.81
598.819	390.81
599.028	403.81
599.237	395.81
599.446	405.81
599.655	422.81
599.864	394.81
600.073	383.81
600.282	391.81
600.491	385.81
600.7	399.81
600.909	379.81
601.118	396.81
601.327	414.81
601.536	416.81
601.745	398.81
601.953	391.81
602.162	400.81
602.371	420.81
602.58	410.81
602.789	411.81
602.997	412.81
603.206	410.81
603.415	400.81
603.623	393.81
603.832	401.81
604.041	394.81
604.249	391.81
604.458	381.81
604.666	370.81
604.875	391.81
605.084	373.81
605.292	409.81
605.501	402.81
605.709	404.81
605.918	412.81
606.126	391.81
606.334	410.81
606.543	402.81
606.751	407.81
606.96	399.81
607.168	384.81
607.376	408.81
607.585	390.81
607.793	404.81
608.001	395.81
608.21	386.81
608.418	407.81
608.626	415.81
608.834	393.81
609.043	386.81
609.251	393.81
609.459	397.81
609.667	406.81
609.875	396.81
610.083	407.81
610.291	416.81
610.499	393.81
610.707	389.81
610.916	400.81
611.124	403.81
611.332	404.81
611.54	403.81
611.748	406.81
611.955	384.81
612.163	382.81
612.371	388.81
612.579	383.81
612.787	388.81
612.995	399.81
613.203	411.81
613.411	384.81
613.618	392.81
613.826	391.81
614.034	399.81
614.242	404.81
614.449	399.81
614.657	397.81
614.865	376.81
615.072	388.81
615.28	391.81
615.488	395.81
615.695	399.81
615.903	399.81
616.111	394.81
616.318	376.81
616.526	368.81
616.733	394.81
616.941	371.81
617.148	370.81
617.356	381.81
617.563	374.81
617.771	367.81
617.978	363.81
618.185	388.81
618.393	368.81
618.6	371.81
618.807	378.81
619.015	387.81
619.222	367.81
619.429	361.81
619.637	360.81
619.844	345.81
620.051	351.81
620.258	350.81
620.466	358.81
620.673	376.81
620.88	342.81
621.087	329.81
621.294	348.81
621.501	336.81
621.708	343.81
621.915	330.81
622.122	352.81
622.329	355.81
622.536	354.81
622.743	339.81
622.95	342.81
623.157	355.81
623.364	359.81
623.571	332.81
623.778	359.81
623.985	343.81
624.192	353.81
624.399	347.81
624.606	346.81
624.812	340.81
625.019	323.81
625.226	315.81
625.433	323.81
625.639	308.81
625.846	302.81
626.053	304.81
626.259	306.81
626.466	279.81
626.673	284.81
626.879	293.81
627.086	302.81
627.293	318.81
627.499	291.81
627.706	323.81
627.912	323.81
628.119	331.81
628.325	337.81
628.532	310.81
628.738	313.81
628.945	325.81
629.151	314.81
629.357	306.81
629.564	302.81
629.77	304.81
629.976	303.81
630.183	306.81
630.389	309.81
630.595	333.81
630.802	303.81
631.008	305.81
631.214	313.81
631.42	306.81
631.627	308.81
631.833	296.81
632.039	302.81
632.245	303.81
632.451	304.81
632.657	286.81
632.863	275.81
633.069	313.81
633.275	296.81
633.481	286.81
633.688	277.81
633.893	293.81
634.099	266.81
634.305	271.81
634.511	258.81
634.717	261.81
634.923	276.81
635.129	282.81
635.335	276.81
635.541	263.81
635.747	280.81
635.952	289.81
636.158	296.81
636.364	300.81
636.57	280.81
636.775	274.81
636.981	283.81
637.187	286.81
637.392	286.81
637.598	284.81
637.804	280.81
638.009	306.81
638.215	275.81
638.421	278.81
638.626	288.81
638.832	271.81
639.037	276.81
639.243	268.81
639.448	274.81
639.654	254.81
639.859	259.81
640.065	260.81
640.27	258.81
640.475	267.81
640.681	281.81
640.886	275.81
641.091	250.81
641.297	258.81
641.502	276.81
641.707	277.81
641.913	273.81
642.118	268.81
642.323	274.81
642.528	281.81
642.733	258.81
642.939	272.81
643.144	262.81
643.349	258.81
643.554	278.81
643.759	270.81
643.964	261.81
644.169	264.81
644.374	254.81
644.579	257.81
644.784	279.81
644.989	264.81
645.194	272.81
645.399	260.81
645.604	241.81
645.809	271.81
646.014	257.81
646.219	268.81
646.423	253.81
646.628	247.81
646.833	257.81
647.038	267.81
647.243	255.81
647.447	260.81
647.652	277.81
647.857	260.81
648.062	254.81
648.266	270.81
648.471	260.81
648.676	264.81
648.88	257.81
649.085	266.81
649.289	240.81
649.494	241.81
649.698	244.81
649.903	257.81
650.107	250.81
650.312	243.81
650.516	225.81
650.721	235.81
650.925	237.81
651.13	243.81
651.334	208.81
651.539	229.81
651.743	222.81
651.947	230.81
652.152	240.81
652.356	229.81
652.56	225.81
652.764	231.81
652.969	224.81
653.173	232.81
653.377	225.81
653.581	235.81
653.785	235.81
653.99	219.81
654.194	221.81
654.398	222.81
654.602	222.81
654.806	196.81
655.01	212.81
655.214	208.81
655.418	213.81
655.622	227.81
655.826	212.81
656.03	229.81
656.234	242.81
656.438	264.81
656.642	272.81
656.846	232.81
657.049	235.81
657.253	226.81
657.457	214.81
657.661	187.81
657.865	169.81
658.068	180.81
658.272	182.81
658.476	164.81
658.68	162.81
658.883	145.81
659.087	148.81
659.291	143.81
659.494	133.81
659.698	136.81
659.901	136.81
660.105	138.81
660.309	121.81
660.512	139.81
660.716	142.81
660.919	112.81
661.123	114.81
661.326	113.81
661.53	106.81
661.733	99.81
661.936	106.81
662.14	92.81
662.343	102.81
662.546	105.81
662.75	105.81
662.953	95.81
663.156	92.81
663.36	88.81
663.563	80.81
663.766	82.81
663.969	88.81
664.173	89.81
664.376	91.81
664.579	89.81
664.782	83.81
664.985	93.81
665.188	78.81
665.391	89.81
665.594	77.81
665.797	77.81
666	82.81
666.203	92.81
666.406	86.81
666.609	83.81
666.812	86.81
667.015	84.81
667.218	77.81
667.421	86.81
667.624	72.81
667.827	71.81
668.03	96.81
668.232	91.81
668.435	91.81
668.638	90.81
668.841	85.81
669.043	92.81
669.246	89.81
669.449	82.81
669.651	76.81
669.854	84.81
670.057	89.81
670.259	74.81
670.462	67.81
670.665	73.81
670.867	70.81
671.07	70.81
671.272	89.81
671.475	86.81
671.677	84.81
671.88	90.81
672.082	80.81
672.284	74.81
672.487	83.81
672.689	81.81
672.892	73.81
