Data from WStandard_LampEnergy10_LIBS07252019.E.O._I.C._HRD10591_15-55-55-928.txt Node
Date: Thu Jul 25 15:55:55 EDT 2019
User: cochatt
Spectrometer: HR+D1059
Trigger mode: 1
Integration Time (sec): 1.000000E-1
Scans to average: 1
Electric dark correction enabled: true
Nonlinearity correction enabled: false
Boxcar width: 0
XAxis mode: Wavelengths
Number of Pixels in Spectrum: 2048
>>>>>Begin Spectral Data<<<<<
223.165	-14.44
223.4	-14.44
223.635	-14.44
223.869	-1.44
224.104	-27.44
224.338	-6.44
224.573	1.56
224.808	-21.44
225.042	-19.44
225.277	-14.44
225.511	-1.44
225.746	5.56
225.98	6.56
226.215	8.56
226.449	10.56
226.683	28.56
226.918	20.56
227.152	24.56
227.387	36.56
227.621	34.56
227.856	50.56
228.09	45.56
228.324	44.56
228.559	60.56
228.793	77.56
229.027	130.56
229.262	147.56
229.496	150.56
229.73	153.56
229.964	168.56
230.199	170.56
230.433	190.56
230.667	194.56
230.901	186.56
231.136	174.56
231.37	177.56
231.604	194.56
231.838	176.56
232.072	179.56
232.306	169.56
232.541	184.56
232.775	201.56
233.009	229.56
233.243	211.56
233.477	195.56
233.711	186.56
233.945	223.56
234.179	207.56
234.413	212.56
234.647	214.56
234.881	190.56
235.115	187.56
235.349	183.56
235.583	201.56
235.817	210.56
236.051	204.56
236.285	183.56
236.519	204.56
236.753	226.56
236.987	224.56
237.221	233.56
237.455	235.56
237.689	233.56
237.922	233.56
238.156	216.56
238.39	222.56
238.624	243.56
238.858	232.56
239.091	265.56
239.325	267.56
239.559	306.56
239.793	307.56
240.027	319.56
240.26	298.56
240.494	238.56
240.728	221.56
240.961	258.56
241.195	233.56
241.429	246.56
241.662	257.56
241.896	233.56
242.13	248.56
242.363	257.56
242.597	272.56
242.83	282.56
243.064	293.56
243.298	284.56
243.531	295.56
243.765	275.56
243.998	274.56
244.232	258.56
244.465	242.56
244.699	252.56
244.932	290.56
245.166	308.56
245.399	289.56
245.633	271.56
245.866	270.56
246.099	282.56
246.333	293.56
246.566	291.56
246.8	314.56
247.033	335.56
247.266	321.56
247.5	317.56
247.733	307.56
247.966	340.56
248.2	351.56
248.433	359.56
248.666	375.56
248.899	412.56
249.133	446.56
249.366	465.56
249.599	397.56
249.832	359.56
250.066	366.56
250.299	366.56
250.532	357.56
250.765	333.56
250.998	347.56
251.231	358.56
251.465	361.56
251.698	328.56
251.931	350.56
252.164	369.56
252.397	353.56
252.63	364.56
252.863	335.56
253.096	336.56
253.329	344.56
253.562	358.56
253.795	350.56
254.028	380.56
254.261	352.56
254.494	347.56
254.727	332.56
254.96	349.56
255.193	380.56
255.426	417.56
255.659	433.56
255.892	453.56
256.124	388.56
256.357	387.56
256.59	413.56
256.823	421.56
257.056	425.56
257.289	489.56
257.521	505.56
257.754	475.56
257.987	447.56
258.22	469.56
258.452	462.56
258.685	397.56
258.918	363.56
259.151	376.56
259.383	361.56
259.616	327.56
259.849	368.56
260.081	418.56
260.314	424.56
260.547	462.56
260.779	471.56
261.012	429.56
261.244	412.56
261.477	388.56
261.71	414.56
261.942	390.56
262.175	383.56
262.407	423.56
262.64	397.56
262.872	369.56
263.105	370.56
263.337	371.56
263.57	378.56
263.802	360.56
264.035	349.56
264.267	348.56
264.499	359.56
264.732	370.56
264.964	385.56
265.197	411.56
265.429	403.56
265.661	451.56
265.894	496.56
266.126	482.56
266.358	464.56
266.591	462.56
266.823	487.56
267.055	453.56
267.287	453.56
267.52	461.56
267.752	462.56
267.984	438.56
268.216	451.56
268.448	482.56
268.681	453.56
268.913	419.56
269.145	407.56
269.377	409.56
269.609	462.56
269.841	524.56
270.073	587.56
270.306	623.56
270.538	639.56
270.77	560.56
271.002	511.56
271.234	491.56
271.466	472.56
271.698	539.56
271.93	593.56
272.162	591.56
272.394	543.56
272.626	499.56
272.858	469.56
273.09	410.56
273.322	403.56
273.553	388.56
273.785	415.56
274.017	409.56
274.249	447.56
274.481	427.56
274.713	412.56
274.945	413.56
275.176	417.56
275.408	420.56
275.64	377.56
275.872	414.56
276.104	434.56
276.335	491.56
276.567	547.56
276.799	519.56
277.031	476.56
277.262	470.56
277.494	487.56
277.726	534.56
277.957	502.56
278.189	465.56
278.421	445.56
278.652	422.56
278.884	430.56
279.115	420.56
279.347	430.56
279.579	431.56
279.81	449.56
280.042	493.56
280.273	515.56
280.505	503.56
280.736	502.56
280.968	486.56
281.199	452.56
281.431	425.56
281.662	421.56
281.894	415.56
282.125	431.56
282.356	438.56
282.588	466.56
282.819	473.56
283.051	487.56
283.282	509.56
283.513	506.56
283.745	448.56
283.976	433.56
284.207	430.56
284.439	445.56
284.67	440.56
284.901	471.56
285.132	459.56
285.364	451.56
285.595	467.56
285.826	450.56
286.057	448.56
286.288	453.56
286.52	469.56
286.751	487.56
286.982	481.56
287.213	439.56
287.444	428.56
287.675	437.56
287.906	475.56
288.138	489.56
288.369	474.56
288.6	446.56
288.831	455.56
289.062	460.56
289.293	454.56
289.524	455.56
289.755	476.56
289.986	465.56
290.217	434.56
290.448	455.56
290.679	468.56
290.91	458.56
291.141	473.56
291.371	494.56
291.602	502.56
291.833	479.56
292.064	523.56
292.295	492.56
292.526	498.56
292.757	512.56
292.987	495.56
293.218	497.56
293.449	529.56
293.68	574.56
293.91	578.56
294.141	558.56
294.372	547.56
294.603	583.56
294.833	589.56
295.064	535.56
295.295	520.56
295.525	467.56
295.756	438.56
295.987	470.56
296.217	459.56
296.448	445.56
296.679	472.56
296.909	484.56
297.14	460.56
297.37	484.56
297.601	520.56
297.831	516.56
298.062	529.56
298.292	487.56
298.523	467.56
298.753	493.56
298.984	475.56
299.214	503.56
299.445	493.56
299.675	486.56
299.905	497.56
300.136	482.56
300.366	449.56
300.597	434.56
300.827	485.56
301.057	492.56
301.288	505.56
301.518	494.56
301.748	524.56
301.979	538.56
302.209	549.56
302.439	589.56
302.669	583.56
302.9	549.56
303.13	511.56
303.36	508.56
303.59	520.56
303.82	522.56
304.051	509.56
304.281	518.56
304.511	547.56
304.741	572.56
304.971	609.56
305.201	603.56
305.431	546.56
305.661	479.56
305.891	448.56
306.121	433.56
306.352	489.56
306.582	511.56
306.812	544.56
307.042	559.56
307.272	587.56
307.502	585.56
307.731	632.56
307.961	640.56
308.191	581.56
308.421	522.56
308.651	515.56
308.881	509.56
309.111	487.56
309.341	480.56
309.571	502.56
309.8	501.56
310.03	494.56
310.26	483.56
310.49	485.56
310.72	512.56
310.949	544.56
311.179	535.56
311.409	513.56
311.639	522.56
311.868	485.56
312.098	517.56
312.328	526.56
312.557	518.56
312.787	507.56
313.017	539.56
313.246	533.56
313.476	525.56
313.706	523.56
313.935	544.56
314.165	548.56
314.394	575.56
314.624	597.56
314.853	606.56
315.083	639.56
315.312	622.56
315.542	591.56
315.771	558.56
316.001	550.56
316.23	570.56
316.46	582.56
316.689	550.56
316.919	522.56
317.148	530.56
317.377	549.56
317.607	575.56
317.836	634.56
318.065	623.56
318.295	613.56
318.524	602.56
318.753	578.56
318.983	572.56
319.212	563.56
319.441	543.56
319.67	559.56
319.9	570.56
320.129	586.56
320.358	611.56
320.587	615.56
320.816	625.56
321.046	599.56
321.275	597.56
321.504	603.56
321.733	637.56
321.962	584.56
322.191	561.56
322.42	569.56
322.649	558.56
322.878	577.56
323.108	547.56
323.337	575.56
323.566	596.56
323.795	582.56
324.024	592.56
324.253	567.56
324.482	543.56
324.71	555.56
324.939	534.56
325.168	568.56
325.397	550.56
325.626	570.56
325.855	577.56
326.084	577.56
326.313	572.56
326.542	587.56
326.77	567.56
326.999	582.56
327.228	556.56
327.457	517.56
327.686	530.56
327.914	534.56
328.143	550.56
328.372	555.56
328.6	563.56
328.829	566.56
329.058	561.56
329.287	546.56
329.515	564.56
329.744	589.56
329.972	633.56
330.201	645.56
330.43	609.56
330.658	574.56
330.887	591.56
331.115	611.56
331.344	600.56
331.572	583.56
331.801	587.56
332.03	593.56
332.258	585.56
332.486	616.56
332.715	611.56
332.943	612.56
333.172	604.56
333.4	615.56
333.629	638.56
333.857	691.56
334.085	750.56
334.314	821.56
334.542	841.56
334.771	762.56
334.999	664.56
335.227	673.56
335.455	657.56
335.684	647.56
335.912	673.56
336.14	662.56
336.369	649.56
336.597	617.56
336.825	605.56
337.053	637.56
337.281	693.56
337.51	694.56
337.738	683.56
337.966	653.56
338.194	608.56
338.422	589.56
338.65	573.56
338.878	611.56
339.106	586.56
339.334	567.56
339.562	562.56
339.79	589.56
340.018	638.56
340.246	624.56
340.474	621.56
340.702	597.56
340.93	637.56
341.158	601.56
341.386	614.56
341.614	597.56
341.842	593.56
342.07	590.56
342.298	608.56
342.526	610.56
342.754	607.56
342.981	598.56
343.209	588.56
343.437	607.56
343.665	615.56
343.893	612.56
344.12	647.56
344.348	623.56
344.576	620.56
344.804	594.56
345.031	587.56
345.259	599.56
345.487	571.56
345.714	576.56
345.942	546.56
346.17	578.56
346.397	604.56
346.625	563.56
346.853	554.56
347.08	552.56
347.308	550.56
347.535	564.56
347.763	601.56
347.99	559.56
348.218	542.56
348.445	545.56
348.673	561.56
348.9	590.56
349.128	595.56
349.355	633.56
349.583	607.56
349.81	564.56
350.037	534.56
350.265	530.56
350.492	551.56
350.72	563.56
350.947	580.56
351.174	567.56
351.402	533.56
351.629	523.56
351.856	510.56
352.083	545.56
352.311	535.56
352.538	552.56
352.765	569.56
352.992	583.56
353.22	580.56
353.447	574.56
353.674	563.56
353.901	579.56
354.128	565.56
354.355	559.56
354.583	591.56
354.81	617.56
355.037	599.56
355.264	591.56
355.491	585.56
355.718	597.56
355.945	576.56
356.172	569.56
356.399	549.56
356.626	540.56
356.853	584.56
357.08	641.56
357.307	679.56
357.534	669.56
357.761	581.56
357.988	535.56
358.215	537.56
358.441	554.56
358.668	546.56
358.895	571.56
359.122	604.56
359.349	627.56
359.576	608.56
359.802	565.56
360.029	574.56
360.256	529.56
360.483	563.56
360.709	587.56
360.936	607.56
361.163	643.56
361.39	679.56
361.616	693.56
361.843	726.56
362.07	624.56
362.296	583.56
362.523	564.56
362.749	588.56
362.976	573.56
363.203	595.56
363.429	566.56
363.656	556.56
363.882	605.56
364.109	655.56
364.335	672.56
364.562	641.56
364.788	606.56
365.015	567.56
365.241	556.56
365.468	587.56
365.694	610.56
365.92	629.56
366.147	602.56
366.373	559.56
366.599	570.56
366.826	567.56
367.052	583.56
367.278	574.56
367.505	606.56
367.731	607.56
367.957	605.56
368.184	619.56
368.41	679.56
368.636	661.56
368.862	664.56
369.089	671.56
369.315	637.56
369.541	619.56
369.767	617.56
369.993	602.56
370.219	586.56
370.445	619.56
370.672	663.56
370.898	682.56
371.124	641.56
371.35	629.56
371.576	655.56
371.802	652.56
372.028	618.56
372.254	618.56
372.48	594.56
372.706	615.56
372.932	605.56
373.158	588.56
373.384	628.56
373.61	633.56
373.835	670.56
374.061	633.56
374.287	637.56
374.513	643.56
374.739	645.56
374.965	640.56
375.191	664.56
375.416	646.56
375.642	659.56
375.868	698.56
376.094	700.56
376.319	657.56
376.545	643.56
376.771	683.56
376.997	707.56
377.222	677.56
377.448	667.56
377.674	674.56
377.899	663.56
378.125	709.56
378.35	694.56
378.576	614.56
378.802	614.56
379.027	626.56
379.253	622.56
379.478	654.56
379.704	654.56
379.929	638.56
380.155	676.56
380.38	649.56
380.606	669.56
380.831	674.56
381.057	691.56
381.282	721.56
381.507	675.56
381.733	724.56
381.958	722.56
382.184	677.56
382.409	673.56
382.634	685.56
382.86	655.56
383.085	684.56
383.31	704.56
383.535	785.56
383.761	787.56
383.986	740.56
384.211	733.56
384.436	750.56
384.662	756.56
384.887	782.56
385.112	727.56
385.337	721.56
385.562	746.56
385.787	719.56
386.013	772.56
386.238	771.56
386.463	796.56
386.688	844.56
386.913	828.56
387.138	818.56
387.363	782.56
387.588	778.56
387.813	772.56
388.038	800.56
388.263	804.56
388.488	776.56
388.713	716.56
388.938	737.56
389.163	721.56
389.387	733.56
389.612	734.56
389.837	748.56
390.062	765.56
390.287	739.56
390.512	761.56
390.736	740.56
390.961	751.56
391.186	708.56
391.411	722.56
391.636	761.56
391.86	746.56
392.085	765.56
392.31	757.56
392.534	761.56
392.759	756.56
392.984	761.56
393.208	780.56
393.433	782.56
393.658	824.56
393.882	820.56
394.107	787.56
394.331	755.56
394.556	758.56
394.78	792.56
395.005	822.56
395.229	832.56
395.454	851.56
395.678	845.56
395.903	826.56
396.127	821.56
396.352	817.56
396.576	863.56
396.801	852.56
397.025	839.56
397.249	844.56
397.474	836.56
397.698	833.56
397.922	835.56
398.147	875.56
398.371	901.56
398.595	905.56
398.82	847.56
399.044	888.56
399.268	898.56
399.492	983.56
399.717	980.56
399.941	1000.56
400.165	947.56
400.389	989.56
400.613	964.56
400.837	1104.56
401.062	1173.56
401.286	1031.56
401.51	990.56
401.734	989.56
401.958	923.56
402.182	884.56
402.406	869.56
402.63	889.56
402.854	870.56
403.078	893.56
403.302	895.56
403.526	910.56
403.75	942.56
403.974	934.56
404.198	944.56
404.422	981.56
404.645	1019.56
404.869	958.56
405.093	905.56
405.317	880.56
405.541	925.56
405.765	913.56
405.988	928.56
406.212	950.56
406.436	994.56
406.66	987.56
406.883	1025.56
407.107	1128.56
407.331	1203.56
407.555	1257.56
407.778	1115.56
408.002	988.56
408.226	961.56
408.449	959.56
408.673	940.56
408.896	947.56
409.12	962.56
409.344	952.56
409.567	923.56
409.791	964.56
410.014	957.56
410.238	1045.56
410.461	1067.56
410.685	948.56
410.908	961.56
411.132	981.56
411.355	934.56
411.578	936.56
411.802	966.56
412.025	987.56
412.249	926.56
412.472	920.56
412.695	937.56
412.919	914.56
413.142	917.56
413.365	907.56
413.589	965.56
413.812	1001.56
414.035	993.56
414.258	938.56
414.482	907.56
414.705	914.56
414.928	911.56
415.151	929.56
415.374	933.56
415.597	922.56
415.821	931.56
416.044	918.56
416.267	927.56
416.49	902.56
416.713	920.56
416.936	959.56
417.159	973.56
417.382	983.56
417.605	922.56
417.828	970.56
418.051	934.56
418.274	967.56
418.497	898.56
418.72	905.56
418.943	913.56
419.166	943.56
419.389	967.56
419.611	938.56
419.834	907.56
420.057	938.56
420.28	963.56
420.503	944.56
420.726	951.56
420.948	975.56
421.171	931.56
421.394	950.56
421.617	992.56
421.839	958.56
422.062	965.56
422.285	926.56
422.507	917.56
422.73	874.56
422.953	883.56
423.175	874.56
423.398	945.56
423.621	901.56
423.843	926.56
424.066	969.56
424.288	1010.56
424.511	1049.56
424.733	995.56
424.956	909.56
425.178	947.56
425.401	918.56
425.623	941.56
425.846	898.56
426.068	981.56
426.291	983.56
426.513	934.56
426.735	983.56
426.958	1029.56
427.18	1094.56
427.402	988.56
427.625	999.56
427.847	967.56
428.069	917.56
428.292	898.56
428.514	897.56
428.736	907.56
428.958	887.56
429.181	933.56
429.403	1034.56
429.625	1238.56
429.847	1051.56
430.069	966.56
430.292	1030.56
430.514	1025.56
430.736	961.56
430.958	981.56
431.18	924.56
431.402	870.56
431.624	852.56
431.846	781.56
432.068	737.56
432.29	733.56
432.512	804.56
432.734	889.56
432.956	911.56
433.178	945.56
433.4	943.56
433.622	947.56
433.844	922.56
434.066	836.56
434.287	793.56
434.509	803.56
434.731	844.56
434.953	924.56
435.175	918.56
435.397	899.56
435.618	864.56
435.84	845.56
436.062	842.56
436.284	909.56
436.505	957.56
436.727	938.56
436.949	908.56
437.17	896.56
437.392	892.56
437.614	857.56
437.835	799.56
438.057	827.56
438.278	854.56
438.5	861.56
438.721	884.56
438.943	918.56
439.165	940.56
439.386	947.56
439.608	934.56
439.829	970.56
440.05	949.56
440.272	965.56
440.493	952.56
440.715	954.56
440.936	1027.56
441.158	1057.56
441.379	1047.56
441.6	1045.56
441.822	1046.56
442.043	997.56
442.264	966.56
442.486	959.56
442.707	941.56
442.928	929.56
443.149	969.56
443.371	991.56
443.592	1011.56
443.813	1035.56
444.034	1020.56
444.255	996.56
444.476	1037.56
444.698	1034.56
444.919	1031.56
445.14	1117.56
445.361	1094.56
445.582	1080.56
445.803	1044.56
446.024	1030.56
446.245	1051.56
446.466	1073.56
446.687	1040.56
446.908	1046.56
447.129	1011.56
447.35	985.56
447.571	970.56
447.792	962.56
448.013	930.56
448.234	978.56
448.455	987.56
448.675	989.56
448.896	918.56
449.117	894.56
449.338	942.56
449.559	947.56
449.779	977.56
450	1030.56
450.221	1039.56
450.442	1003.56
450.662	941.56
450.883	867.56
451.104	873.56
451.324	889.56
451.545	886.56
451.766	882.56
451.986	833.56
452.207	833.56
452.428	812.56
452.648	796.56
452.869	805.56
453.089	790.56
453.31	777.56
453.53	755.56
453.751	716.56
453.971	702.56
454.192	737.56
454.412	757.56
454.633	776.56
454.853	770.56
455.073	753.56
455.294	761.56
455.514	753.56
455.734	755.56
455.955	777.56
456.175	741.56
456.395	729.56
456.616	730.56
456.836	717.56
457.056	745.56
457.276	718.56
457.497	706.56
457.717	679.56
457.937	710.56
458.157	716.56
458.377	678.56
458.598	681.56
458.818	667.56
459.038	681.56
459.258	718.56
459.478	714.56
459.698	708.56
459.918	766.56
460.138	814.56
460.358	834.56
460.578	826.56
460.798	846.56
461.018	899.56
461.238	875.56
461.458	862.56
461.678	861.56
461.898	814.56
462.118	803.56
462.338	842.56
462.558	836.56
462.777	846.56
462.997	842.56
463.217	889.56
463.437	882.56
463.657	832.56
463.876	829.56
464.096	826.56
464.316	839.56
464.536	860.56
464.755	874.56
464.975	875.56
465.195	843.56
465.414	897.56
465.634	887.56
465.854	899.56
466.073	987.56
466.293	898.56
466.512	853.56
466.732	873.56
466.951	889.56
467.171	897.56
467.391	899.56
467.61	896.56
467.829	887.56
468.049	994.56
468.268	1053.56
468.488	983.56
468.707	931.56
468.927	911.56
469.146	901.56
469.365	923.56
469.585	941.56
469.804	906.56
470.023	943.56
470.243	968.56
470.462	949.56
470.681	926.56
470.901	935.56
471.12	903.56
471.339	929.56
471.558	912.56
471.777	874.56
471.997	886.56
472.216	881.56
472.435	802.56
472.654	769.56
472.873	804.56
473.092	819.56
473.311	834.56
473.53	831.56
473.749	827.56
473.968	826.56
474.187	848.56
474.406	847.56
474.625	851.56
474.844	890.56
475.063	872.56
475.282	868.56
475.501	847.56
475.72	849.56
475.939	898.56
476.158	885.56
476.377	850.56
476.596	828.56
476.814	826.56
477.033	829.56
477.252	823.56
477.471	912.56
477.69	921.56
477.908	945.56
478.127	981.56
478.346	1017.56
478.564	1019.56
478.783	1027.56
479.002	1038.56
479.22	1003.56
479.439	1010.56
479.658	1063.56
479.876	999.56
480.095	898.56
480.313	885.56
480.532	893.56
480.751	859.56
480.969	843.56
481.188	781.56
481.406	791.56
481.624	775.56
481.843	798.56
482.061	817.56
482.28	851.56
482.498	887.56
482.717	878.56
482.935	942.56
483.153	995.56
483.372	1018.56
483.59	1017.56
483.808	965.56
484.027	967.56
484.245	1009.56
484.463	1217.56
484.681	1287.56
484.9	1032.56
485.118	941.56
485.336	942.56
485.554	913.56
485.772	891.56
485.99	878.56
486.209	917.56
486.427	957.56
486.645	925.56
486.863	1027.56
487.081	1027.56
487.299	1017.56
487.517	1009.56
487.735	1099.56
487.953	1185.56
488.171	1144.56
488.389	1114.56
488.607	1091.56
488.825	1150.56
489.043	1041.56
489.261	983.56
489.479	1041.56
489.696	1077.56
489.914	1009.56
490.132	1029.56
490.35	1077.56
490.568	1188.56
490.786	1221.56
491.003	1228.56
491.221	1237.56
491.439	1290.56
491.657	1308.56
491.874	1354.56
492.092	1437.56
492.31	1465.56
492.527	1449.56
492.745	1332.56
492.963	1297.56
493.18	1295.56
493.398	1320.56
493.615	1304.56
493.833	1266.56
494.05	1213.56
494.268	1207.56
494.485	1239.56
494.703	1246.56
494.92	1210.56
495.138	1232.56
495.355	1215.56
495.573	1247.56
495.79	1293.56
496.008	1257.56
496.225	1241.56
496.442	1198.56
496.66	1246.56
496.877	1203.56
497.094	1261.56
497.312	1228.56
497.529	1187.56
497.746	1188.56
497.963	1279.56
498.181	1325.56
498.398	1244.56
498.615	1193.56
498.832	1177.56
499.049	1141.56
499.267	1155.56
499.484	1270.56
499.701	1305.56
499.918	1379.56
500.135	1437.56
500.352	1554.56
500.569	1565.56
500.786	1699.56
501.003	1559.56
501.22	1451.56
501.437	1377.56
501.654	1417.56
501.871	1340.56
502.088	1220.56
502.305	1165.56
502.522	1123.56
502.739	1119.56
502.956	1052.56
503.172	1086.56
503.389	1014.56
503.606	990.56
503.823	979.56
504.04	997.56
504.256	1017.56
504.473	1020.56
504.69	1013.56
504.907	973.56
505.123	939.56
505.34	1065.56
505.557	1321.56
505.773	1095.56
505.99	921.56
506.207	915.56
506.423	898.56
506.64	897.56
506.856	924.56
507.073	1039.56
507.289	1088.56
507.506	1035.56
507.722	884.56
507.939	841.56
508.155	841.56
508.372	845.56
508.588	804.56
508.805	782.56
509.021	784.56
509.238	773.56
509.454	778.56
509.67	757.56
509.887	738.56
510.103	730.56
510.319	742.56
510.536	762.56
510.752	770.56
510.968	773.56
511.184	817.56
511.401	774.56
511.617	706.56
511.833	710.56
512.049	727.56
512.265	693.56
512.481	733.56
512.698	748.56
512.914	795.56
513.13	735.56
513.346	746.56
513.562	713.56
513.778	691.56
513.994	742.56
514.21	748.56
514.426	756.56
514.642	846.56
514.858	795.56
515.074	722.56
515.29	718.56
515.506	728.56
515.721	766.56
515.937	773.56
516.153	817.56
516.369	789.56
516.585	742.56
516.801	721.56
517.016	745.56
517.232	772.56
517.448	779.56
517.664	796.56
517.879	796.56
518.095	826.56
518.311	782.56
518.527	748.56
518.742	738.56
518.958	736.56
519.173	746.56
519.389	762.56
519.605	799.56
519.82	833.56
520.036	773.56
520.251	762.56
520.467	795.56
520.682	820.56
520.898	812.56
521.113	717.56
521.329	735.56
521.544	771.56
521.76	732.56
521.975	745.56
522.19	727.56
522.406	774.56
522.621	947.56
522.836	856.56
523.052	707.56
523.267	745.56
523.482	767.56
523.698	762.56
523.913	728.56
524.128	764.56
524.343	809.56
524.559	852.56
524.774	779.56
524.989	755.56
525.204	755.56
525.419	719.56
525.634	731.56
525.849	770.56
526.064	714.56
526.28	694.56
526.495	647.56
526.71	625.56
526.925	629.56
527.14	645.56
527.355	618.56
527.57	636.56
527.785	657.56
527.999	665.56
528.214	655.56
528.429	726.56
528.644	732.56
528.859	803.56
529.074	838.56
529.289	875.56
529.503	831.56
529.718	793.56
529.933	733.56
530.148	656.56
530.363	659.56
530.577	654.56
530.792	634.56
531.007	628.56
531.221	601.56
531.436	617.56
531.651	660.56
531.865	677.56
532.08	650.56
532.295	651.56
532.509	600.56
532.724	611.56
532.938	657.56
533.153	707.56
533.367	709.56
533.582	731.56
533.796	722.56
534.011	700.56
534.225	687.56
534.44	635.56
534.654	631.56
534.868	648.56
535.083	706.56
535.297	693.56
535.511	678.56
535.726	673.56
535.94	673.56
536.154	653.56
536.369	631.56
536.583	607.56
536.797	619.56
537.011	618.56
537.225	592.56
537.44	614.56
537.654	650.56
537.868	619.56
538.082	598.56
538.296	588.56
538.51	629.56
538.724	669.56
538.938	690.56
539.153	756.56
539.367	721.56
539.581	710.56
539.795	687.56
540.009	650.56
540.222	651.56
540.436	682.56
540.65	763.56
540.864	788.56
541.078	835.56
541.292	840.56
541.506	883.56
541.72	953.56
541.934	1023.56
542.147	1093.56
542.361	991.56
542.575	933.56
542.789	823.56
543.002	755.56
543.216	729.56
543.43	755.56
543.644	837.56
543.857	882.56
544.071	896.56
544.285	901.56
544.498	925.56
544.712	931.56
544.925	923.56
545.139	925.56
545.352	911.56
545.566	911.56
545.779	912.56
545.993	945.56
546.206	961.56
546.42	966.56
546.633	956.56
546.847	922.56
547.06	956.56
547.274	973.56
547.487	953.56
547.7	998.56
547.914	972.56
548.127	947.56
548.34	960.56
548.554	946.56
548.767	937.56
548.98	924.56
549.193	901.56
549.407	959.56
549.62	949.56
549.833	896.56
550.046	898.56
550.259	894.56
550.473	870.56
550.686	885.56
550.899	845.56
551.112	834.56
551.325	798.56
551.538	841.56
551.751	865.56
551.964	722.56
552.177	716.56
552.39	803.56
552.603	843.56
552.816	832.56
553.029	896.56
553.242	883.56
553.455	931.56
553.667	918.56
553.88	894.56
554.093	871.56
554.306	845.56
554.519	832.56
554.732	811.56
554.944	804.56
555.157	841.56
555.37	809.56
555.583	824.56
555.795	757.56
556.008	740.56
556.221	729.56
556.433	741.56
556.646	702.56
556.859	732.56
557.071	755.56
557.284	741.56
557.496	724.56
557.709	753.56
557.921	752.56
558.134	744.56
558.346	701.56
558.559	728.56
558.771	703.56
558.984	718.56
559.196	698.56
559.409	656.56
559.621	642.56
559.833	671.56
560.046	677.56
560.258	660.56
560.47	665.56
560.683	693.56
560.895	690.56
561.107	680.56
561.32	673.56
561.532	682.56
561.744	678.56
561.956	662.56
562.168	665.56
562.381	648.56
562.593	641.56
562.805	633.56
563.017	626.56
563.229	636.56
563.441	641.56
563.653	628.56
563.865	614.56
564.077	603.56
564.289	604.56
564.501	616.56
564.713	607.56
564.925	630.56
565.137	673.56
565.349	607.56
565.561	612.56
565.773	618.56
565.985	653.56
566.197	665.56
566.408	668.56
566.62	677.56
566.832	673.56
567.044	675.56
567.255	646.56
567.467	638.56
567.679	667.56
567.891	642.56
568.102	603.56
568.314	558.56
568.526	559.56
568.737	531.56
568.949	501.56
569.161	470.56
569.372	448.56
569.584	447.56
569.795	458.56
570.007	478.56
570.218	440.56
570.43	426.56
570.641	451.56
570.853	480.56
571.064	454.56
571.276	478.56
571.487	485.56
571.698	495.56
571.91	460.56
572.121	465.56
572.333	476.56
572.544	445.56
572.755	423.56
572.966	419.56
573.178	396.56
573.389	397.56
573.6	428.56
573.811	441.56
574.023	423.56
574.234	393.56
574.445	408.56
574.656	414.56
574.867	395.56
575.078	409.56
575.289	414.56
575.501	406.56
575.712	387.56
575.923	413.56
576.134	393.56
576.345	380.56
576.556	419.56
576.767	403.56
576.978	403.56
577.188	385.56
577.399	357.56
577.61	369.56
577.821	382.56
578.032	379.56
578.243	385.56
578.454	343.56
578.665	340.56
578.875	332.56
579.086	355.56
579.297	362.56
579.508	371.56
579.718	362.56
579.929	364.56
580.14	327.56
580.35	329.56
580.561	354.56
580.772	397.56
580.982	361.56
581.193	362.56
581.403	363.56
581.614	341.56
581.825	325.56
582.035	342.56
582.246	346.56
582.456	341.56
582.667	334.56
582.877	335.56
583.087	325.56
583.298	338.56
583.508	308.56
583.719	319.56
583.929	308.56
584.139	330.56
584.35	305.56
584.56	306.56
584.77	338.56
584.981	330.56
585.191	326.56
585.401	338.56
585.611	331.56
585.821	332.56
586.032	321.56
586.242	325.56
586.452	308.56
586.662	316.56
586.872	326.56
587.082	310.56
587.292	305.56
587.502	344.56
587.713	333.56
587.923	307.56
588.133	317.56
588.343	347.56
588.553	304.56
588.762	325.56
588.972	308.56
589.182	317.56
589.392	310.56
589.602	308.56
589.812	314.56
590.022	314.56
590.232	306.56
590.441	322.56
590.651	315.56
590.861	308.56
591.071	312.56
591.281	309.56
591.49	317.56
591.7	310.56
591.91	310.56
592.119	326.56
592.329	337.56
592.539	339.56
592.748	319.56
592.958	327.56
593.167	335.56
593.377	313.56
593.587	318.56
593.796	349.56
594.006	326.56
594.215	329.56
594.424	332.56
594.634	348.56
594.843	337.56
595.053	359.56
595.262	341.56
595.472	341.56
595.681	330.56
595.89	329.56
596.1	325.56
596.309	321.56
596.518	336.56
596.727	341.56
596.937	326.56
597.146	318.56
597.355	311.56
597.564	309.56
597.774	292.56
597.983	271.56
598.192	278.56
598.401	287.56
598.61	291.56
598.819	257.56
599.028	296.56
599.237	310.56
599.446	284.56
599.655	307.56
599.864	283.56
600.073	290.56
600.282	291.56
600.491	285.56
600.7	289.56
600.909	298.56
601.118	311.56
601.327	329.56
601.536	350.56
601.745	331.56
601.953	337.56
602.162	372.56
602.371	340.56
602.58	347.56
602.789	341.56
602.997	331.56
603.206	353.56
603.415	359.56
603.623	331.56
603.832	348.56
604.041	321.56
604.249	313.56
604.458	300.56
604.666	330.56
604.875	307.56
605.084	321.56
605.292	335.56
605.501	361.56
605.709	353.56
605.918	365.56
606.126	374.56
606.334	371.56
606.543	348.56
606.751	373.56
606.96	369.56
607.168	362.56
607.376	343.56
607.585	348.56
607.793	346.56
608.001	368.56
608.21	353.56
608.418	363.56
608.626	374.56
608.834	355.56
609.043	360.56
609.251	378.56
609.459	357.56
609.667	370.56
609.875	375.56
610.083	362.56
610.291	370.56
610.499	341.56
610.707	364.56
610.916	357.56
611.124	359.56
611.332	379.56
611.54	353.56
611.748	378.56
611.955	357.56
612.163	356.56
612.371	373.56
612.579	362.56
612.787	357.56
612.995	355.56
613.203	386.56
613.411	355.56
613.618	348.56
613.826	349.56
614.034	354.56
614.242	345.56
614.449	349.56
614.657	371.56
614.865	373.56
615.072	327.56
615.28	352.56
615.488	344.56
615.695	376.56
615.903	369.56
616.111	360.56
616.318	385.56
616.526	369.56
616.733	360.56
616.941	363.56
617.148	356.56
617.356	358.56
617.563	340.56
617.771	338.56
617.978	329.56
618.185	331.56
618.393	337.56
618.6	349.56
618.807	367.56
619.015	358.56
619.222	332.56
619.429	323.56
619.637	308.56
619.844	299.56
620.051	303.56
620.258	328.56
620.466	321.56
620.673	328.56
620.88	318.56
621.087	294.56
621.294	289.56
621.501	302.56
621.708	320.56
621.915	323.56
622.122	325.56
622.329	325.56
622.536	326.56
622.743	321.56
622.95	329.56
623.157	315.56
623.364	317.56
623.571	310.56
623.778	318.56
623.985	312.56
624.192	319.56
624.399	314.56
624.606	331.56
624.812	314.56
625.019	311.56
625.226	305.56
625.433	306.56
625.639	274.56
625.846	251.56
626.053	257.56
626.259	258.56
626.466	236.56
626.673	259.56
626.879	246.56
627.086	257.56
627.293	259.56
627.499	283.56
627.706	287.56
627.912	309.56
628.119	314.56
628.325	316.56
628.532	315.56
628.738	312.56
628.945	280.56
629.151	289.56
629.357	260.56
629.564	271.56
629.77	292.56
629.976	263.56
630.183	279.56
630.389	282.56
630.595	285.56
630.802	319.56
631.008	276.56
631.214	284.56
631.42	291.56
631.627	269.56
631.833	253.56
632.039	275.56
632.245	270.56
632.451	257.56
632.657	275.56
632.863	263.56
633.069	275.56
633.275	268.56
633.481	234.56
633.688	260.56
633.893	246.56
634.099	246.56
634.305	262.56
634.511	255.56
634.717	243.56
634.923	219.56
635.129	230.56
635.335	227.56
635.541	242.56
635.747	233.56
635.952	254.56
636.158	265.56
636.364	265.56
636.57	247.56
636.775	260.56
636.981	261.56
637.187	266.56
637.392	261.56
637.598	265.56
637.804	256.56
638.009	269.56
638.215	257.56
638.421	235.56
638.626	241.56
638.832	259.56
639.037	251.56
639.243	247.56
639.448	260.56
639.654	253.56
639.859	257.56
640.065	252.56
640.27	241.56
640.475	245.56
640.681	244.56
640.886	249.56
641.091	249.56
641.297	250.56
641.502	245.56
641.707	260.56
641.913	254.56
642.118	238.56
642.323	259.56
642.528	235.56
642.733	245.56
642.939	245.56
643.144	235.56
643.349	248.56
643.554	236.56
643.759	243.56
643.964	233.56
644.169	231.56
644.374	236.56
644.579	244.56
644.784	242.56
644.989	245.56
645.194	257.56
645.399	247.56
645.604	236.56
645.809	227.56
646.014	237.56
646.219	227.56
646.423	249.56
646.628	249.56
646.833	257.56
647.038	245.56
647.243	238.56
647.447	231.56
647.652	228.56
647.857	252.56
648.062	241.56
648.266	238.56
648.471	239.56
648.676	236.56
648.88	244.56
649.085	258.56
649.289	242.56
649.494	244.56
649.698	267.56
649.903	247.56
650.107	238.56
650.312	253.56
650.516	227.56
650.721	224.56
650.925	225.56
651.13	226.56
651.334	229.56
651.539	211.56
651.743	213.56
651.947	202.56
652.152	209.56
652.356	212.56
652.56	214.56
652.764	211.56
652.969	211.56
653.173	212.56
653.377	216.56
653.581	210.56
653.785	222.56
653.99	211.56
654.194	200.56
654.398	214.56
654.602	205.56
654.806	207.56
655.01	199.56
655.214	207.56
655.418	212.56
655.622	212.56
655.826	218.56
656.03	218.56
656.234	220.56
656.438	227.56
656.642	245.56
656.846	233.56
657.049	212.56
657.253	214.56
657.457	187.56
657.661	192.56
657.865	187.56
658.068	177.56
658.272	161.56
658.476	144.56
658.68	142.56
658.883	145.56
659.087	153.56
659.291	146.56
659.494	142.56
659.698	138.56
659.901	135.56
660.105	132.56
660.309	130.56
660.512	130.56
660.716	123.56
660.919	118.56
661.123	110.56
661.326	108.56
661.53	113.56
661.733	109.56
661.936	105.56
662.14	96.56
662.343	92.56
662.546	86.56
662.75	98.56
662.953	99.56
663.156	83.56
663.36	98.56
663.563	96.56
663.766	102.56
663.969	83.56
664.173	83.56
664.376	95.56
664.579	87.56
664.782	94.56
664.985	79.56
665.188	85.56
665.391	83.56
665.594	96.56
665.797	85.56
666	92.56
666.203	88.56
666.406	78.56
666.609	78.56
666.812	85.56
667.015	91.56
667.218	67.56
667.421	85.56
667.624	79.56
667.827	73.56
668.03	84.56
668.232	70.56
668.435	76.56
668.638	93.56
668.841	82.56
669.043	91.56
669.246	73.56
669.449	81.56
669.651	85.56
669.854	81.56
670.057	75.56
670.259	89.56
670.462	85.56
670.665	81.56
670.867	86.56
671.07	85.56
671.272	89.56
671.475	91.56
671.677	69.56
671.88	85.56
672.082	73.56
672.284	83.56
672.487	84.56
672.689	89.56
672.892	93.56
