Data from WStandard_LampEnergy5.5LIBS07252019.E.O._I.C._HRD10591_16-06-33-920.txt Node
Date: Thu Jul 25 16:06:33 EDT 2019
User: cochatt
Spectrometer: HR+D1059
Trigger mode: 1
Integration Time (sec): 1.000000E-1
Scans to average: 1
Electric dark correction enabled: true
Nonlinearity correction enabled: false
Boxcar width: 0
XAxis mode: Wavelengths
Number of Pixels in Spectrum: 2048
>>>>>Begin Spectral Data<<<<<
223.165	-20.19
223.4	-20.19
223.635	-20.19
223.869	-30.19
224.104	-26.19
224.338	-3.19
224.573	-12.19
224.808	-12.19
225.042	-7.19
225.277	-12.19
225.511	-11.19
225.746	7.81
225.98	7.81
226.215	8.81
226.449	25.81
226.683	23.81
226.918	19.81
227.152	40.81
227.387	32.81
227.621	42.81
227.856	44.81
228.09	34.81
228.324	45.81
228.559	48.81
228.793	135.81
229.027	352.81
229.262	365.81
229.496	391.81
229.73	397.81
229.964	426.81
230.199	443.81
230.433	461.81
230.667	485.81
230.901	523.81
231.136	457.81
231.37	435.81
231.604	447.81
231.838	479.81
232.072	459.81
232.306	447.81
232.541	455.81
232.775	536.81
233.009	605.81
233.243	566.81
233.477	515.81
233.711	532.81
233.945	552.81
234.179	522.81
234.413	569.81
234.647	612.81
234.881	609.81
235.115	541.81
235.349	535.81
235.583	556.81
235.817	520.81
236.051	543.81
236.285	519.81
236.519	589.81
236.753	673.81
236.987	679.81
237.221	682.81
237.455	743.81
237.689	727.81
237.922	644.81
238.156	634.81
238.39	663.81
238.624	690.81
238.858	734.81
239.091	739.81
239.325	751.81
239.559	923.81
239.793	942.81
240.027	1023.81
240.26	1040.81
240.494	738.81
240.728	677.81
240.961	703.81
241.195	706.81
241.429	802.81
241.662	819.81
241.896	751.81
242.13	737.81
242.363	820.81
242.597	899.81
242.83	864.81
243.064	885.81
243.298	922.81
243.531	885.81
243.765	901.81
243.998	914.81
244.232	789.81
244.465	761.81
244.699	743.81
244.932	869.81
245.166	1001.81
245.399	953.81
245.633	863.81
245.866	871.81
246.099	903.81
246.333	895.81
246.566	939.81
246.8	1019.81
247.033	1125.81
247.266	1102.81
247.5	1053.81
247.733	1044.81
247.966	1074.81
248.2	1213.81
248.433	1144.81
248.666	1189.81
248.899	1287.81
249.133	1481.81
249.366	1679.81
249.599	1383.81
249.832	1195.81
250.066	1232.81
250.299	1275.81
250.532	1176.81
250.765	1077.81
250.998	1113.81
251.231	1153.81
251.465	1206.81
251.698	1117.81
251.931	1151.81
252.164	1193.81
252.397	1203.81
252.63	1234.81
252.863	1084.81
253.096	1057.81
253.329	1114.81
253.562	1150.81
253.795	1210.81
254.028	1235.81
254.261	1140.81
254.494	1129.81
254.727	1061.81
254.96	1089.81
255.193	1184.81
255.426	1337.81
255.659	1535.81
255.892	1619.81
256.124	1332.81
256.357	1249.81
256.59	1395.81
256.823	1363.81
257.056	1326.81
257.289	1660.81
257.521	1851.81
257.754	1647.81
257.987	1556.81
258.22	1729.81
258.452	1691.81
258.685	1374.81
258.918	1327.81
259.151	1326.81
259.383	1273.81
259.616	1136.81
259.849	1175.81
260.081	1361.81
260.314	1479.81
260.547	1651.81
260.779	1652.81
261.012	1573.81
261.244	1404.81
261.477	1309.81
261.71	1388.81
261.942	1378.81
262.175	1321.81
262.407	1447.81
262.64	1366.81
262.872	1256.81
263.105	1225.81
263.337	1215.81
263.57	1269.81
263.802	1221.81
264.035	1157.81
264.267	1124.81
264.499	1091.81
264.732	1151.81
264.964	1237.81
265.197	1308.81
265.429	1315.81
265.661	1515.81
265.894	1679.81
266.126	1765.81
266.358	1555.81
266.591	1587.81
266.823	1724.81
267.055	1600.81
267.287	1529.81
267.52	1519.81
267.752	1537.81
267.984	1500.81
268.216	1579.81
268.448	1592.81
268.681	1619.81
268.913	1484.81
269.145	1353.81
269.377	1344.81
269.609	1428.81
269.841	1687.81
270.073	1939.81
270.306	2168.81
270.538	2343.81
270.77	1949.81
271.002	1674.81
271.234	1571.81
271.466	1571.81
271.698	1757.81
271.93	2132.81
272.162	2123.81
272.394	1938.81
272.626	1865.81
272.858	1560.81
273.09	1386.81
273.322	1416.81
273.553	1327.81
273.785	1367.81
274.017	1381.81
274.249	1502.81
274.481	1498.81
274.713	1400.81
274.945	1389.81
275.176	1353.81
275.408	1338.81
275.64	1343.81
275.872	1333.81
276.104	1386.81
276.335	1570.81
276.567	1808.81
276.799	1863.81
277.031	1621.81
277.262	1495.81
277.494	1564.81
277.726	1759.81
277.957	1779.81
278.189	1593.81
278.421	1481.81
278.652	1437.81
278.884	1419.81
279.115	1413.81
279.347	1438.81
279.579	1420.81
279.81	1396.81
280.042	1587.81
280.273	1718.81
280.505	1725.81
280.736	1776.81
280.968	1657.81
281.199	1443.81
281.431	1382.81
281.662	1395.81
281.894	1347.81
282.125	1418.81
282.356	1477.81
282.588	1493.81
282.819	1455.81
283.051	1564.81
283.282	1716.81
283.513	1665.81
283.745	1471.81
283.976	1366.81
284.207	1398.81
284.439	1394.81
284.67	1411.81
284.901	1462.81
285.132	1489.81
285.364	1449.81
285.595	1478.81
285.826	1475.81
286.057	1428.81
286.288	1446.81
286.52	1492.81
286.751	1655.81
286.982	1657.81
287.213	1549.81
287.444	1417.81
287.675	1389.81
287.906	1483.81
288.138	1579.81
288.369	1506.81
288.6	1423.81
288.831	1402.81
289.062	1403.81
289.293	1454.81
289.524	1457.81
289.755	1468.81
289.986	1479.81
290.217	1376.81
290.448	1426.81
290.679	1491.81
290.91	1482.81
291.141	1529.81
291.371	1598.81
291.602	1543.81
291.833	1520.81
292.064	1597.81
292.295	1518.81
292.526	1581.81
292.757	1653.81
292.987	1554.81
293.218	1476.81
293.449	1603.81
293.68	1785.81
293.91	1938.81
294.141	1775.81
294.372	1659.81
294.603	1723.81
294.833	1843.81
295.064	1735.81
295.295	1568.81
295.525	1510.81
295.756	1427.81
295.987	1331.81
296.217	1383.81
296.448	1458.81
296.679	1455.81
296.909	1444.81
297.14	1398.81
297.37	1434.81
297.601	1541.81
297.831	1596.81
298.062	1636.81
298.292	1501.81
298.523	1442.81
298.753	1467.81
298.984	1474.81
299.214	1453.81
299.445	1508.81
299.675	1553.81
299.905	1539.81
300.136	1524.81
300.366	1472.81
300.597	1417.81
300.827	1398.81
301.057	1473.81
301.288	1532.81
301.518	1571.81
301.748	1593.81
301.979	1632.81
302.209	1652.81
302.439	1786.81
302.669	1866.81
302.9	1759.81
303.13	1557.81
303.36	1570.81
303.59	1563.81
303.82	1585.81
304.051	1561.81
304.281	1588.81
304.511	1557.81
304.741	1640.81
304.971	1816.81
305.201	1963.81
305.431	1859.81
305.661	1572.81
305.891	1422.81
306.121	1377.81
306.352	1419.81
306.582	1505.81
306.812	1619.81
307.042	1731.81
307.272	1740.81
307.502	1789.81
307.731	1926.81
307.961	2095.81
308.191	1942.81
308.421	1638.81
308.651	1513.81
308.881	1518.81
309.111	1489.81
309.341	1489.81
309.571	1505.81
309.8	1498.81
310.03	1497.81
310.26	1489.81
310.49	1494.81
310.72	1508.81
310.949	1636.81
311.179	1612.81
311.409	1621.81
311.639	1555.81
311.868	1513.81
312.098	1535.81
312.328	1557.81
312.557	1527.81
312.787	1535.81
313.017	1570.81
313.246	1593.81
313.476	1569.81
313.706	1619.81
313.935	1555.81
314.165	1642.81
314.394	1642.81
314.624	1745.81
314.853	1862.81
315.083	1878.81
315.312	2031.81
315.542	1868.81
315.771	1643.81
316.001	1634.81
316.23	1738.81
316.46	1771.81
316.689	1691.81
316.919	1631.81
317.148	1537.81
317.377	1557.81
317.607	1657.81
317.836	1897.81
318.065	1972.81
318.295	1899.81
318.524	1804.81
318.753	1715.81
318.983	1694.81
319.212	1662.81
319.441	1674.81
319.67	1624.81
319.9	1669.81
320.129	1737.81
320.358	1815.81
320.587	1871.81
320.816	1865.81
321.046	1827.81
321.275	1719.81
321.504	1713.81
321.733	1869.81
321.962	1851.81
322.191	1686.81
322.42	1685.81
322.649	1644.81
322.878	1645.81
323.108	1689.81
323.337	1702.81
323.566	1740.81
323.795	1683.81
324.024	1730.81
324.253	1666.81
324.482	1713.81
324.71	1675.81
324.939	1605.81
325.168	1593.81
325.397	1636.81
325.626	1723.81
325.855	1699.81
326.084	1620.81
326.313	1689.81
326.542	1700.81
326.77	1746.81
326.999	1744.81
327.228	1649.81
327.457	1593.81
327.686	1548.81
327.914	1617.81
328.143	1659.81
328.372	1647.81
328.6	1697.81
328.829	1678.81
329.058	1609.81
329.287	1638.81
329.515	1683.81
329.744	1686.81
329.972	1765.81
330.201	1864.81
330.43	1802.81
330.658	1754.81
330.887	1803.81
331.115	1737.81
331.344	1765.81
331.572	1744.81
331.801	1719.81
332.03	1711.81
332.258	1760.81
332.486	1755.81
332.715	1782.81
332.943	1789.81
333.172	1743.81
333.4	1776.81
333.629	1828.81
333.857	1919.81
334.085	2124.81
334.314	2400.81
334.542	2631.81
334.771	2439.81
334.999	2135.81
335.227	1992.81
335.455	1902.81
335.684	1903.81
335.912	1913.81
336.14	1999.81
336.369	1931.81
336.597	1836.81
336.825	1847.81
337.053	1863.81
337.281	1927.81
337.51	2021.81
337.738	2113.81
337.966	2086.81
338.194	1815.81
338.422	1769.81
338.65	1741.81
338.878	1691.81
339.106	1715.81
339.334	1656.81
339.562	1654.81
339.79	1681.81
340.018	1773.81
340.246	1876.81
340.474	1870.81
340.702	1757.81
340.93	1820.81
341.158	1815.81
341.386	1733.81
341.614	1722.81
341.842	1712.81
342.07	1739.81
342.298	1733.81
342.526	1761.81
342.754	1721.81
342.981	1698.81
343.209	1693.81
343.437	1725.81
343.665	1738.81
343.893	1780.81
344.12	1892.81
344.348	1873.81
344.576	1777.81
344.804	1725.81
345.031	1721.81
345.259	1733.81
345.487	1720.81
345.714	1649.81
345.942	1593.81
346.17	1645.81
346.397	1595.81
346.625	1674.81
346.853	1589.81
347.08	1517.81
347.308	1566.81
347.535	1572.81
347.763	1691.81
347.99	1639.81
348.218	1527.81
348.445	1580.81
348.673	1601.81
348.9	1668.81
349.128	1684.81
349.355	1736.81
349.583	1725.81
349.81	1633.81
350.037	1538.81
350.265	1503.81
350.492	1519.81
350.72	1578.81
350.947	1608.81
351.174	1658.81
351.402	1585.81
351.629	1494.81
351.856	1493.81
352.083	1485.81
352.311	1494.81
352.538	1526.81
352.765	1636.81
352.992	1645.81
353.22	1596.81
353.447	1560.81
353.674	1571.81
353.901	1603.81
354.128	1543.81
354.355	1544.81
354.583	1628.81
354.81	1645.81
355.037	1633.81
355.264	1636.81
355.491	1628.81
355.718	1638.81
355.945	1585.81
356.172	1577.81
356.399	1548.81
356.626	1560.81
356.853	1595.81
357.08	1688.81
357.307	1917.81
357.534	1951.81
357.761	1663.81
357.988	1545.81
358.215	1516.81
358.441	1532.81
358.668	1551.81
358.895	1537.81
359.122	1643.81
359.349	1785.81
359.576	1762.81
359.802	1627.81
360.029	1543.81
360.256	1547.81
360.483	1547.81
360.709	1570.81
360.936	1659.81
361.163	1671.81
361.39	1870.81
361.616	2021.81
361.843	1942.81
362.07	1835.81
362.296	1591.81
362.523	1547.81
362.749	1560.81
362.976	1593.81
363.203	1593.81
363.429	1584.81
363.656	1501.81
363.882	1559.81
364.109	1730.81
364.335	1892.81
364.562	1798.81
364.788	1699.81
365.015	1604.81
365.241	1542.81
365.468	1606.81
365.694	1641.81
365.92	1727.81
366.147	1661.81
366.373	1537.81
366.599	1510.81
366.826	1510.81
367.052	1514.81
367.278	1545.81
367.505	1583.81
367.731	1623.81
367.957	1656.81
368.184	1666.81
368.41	1749.81
368.636	1769.81
368.862	1796.81
369.089	1801.81
369.315	1702.81
369.541	1689.81
369.767	1634.81
369.993	1580.81
370.219	1576.81
370.445	1593.81
370.672	1667.81
370.898	1790.81
371.124	1754.81
371.35	1670.81
371.576	1735.81
371.802	1781.81
372.028	1695.81
372.254	1642.81
372.48	1624.81
372.706	1615.81
372.932	1605.81
373.158	1605.81
373.384	1632.81
373.61	1690.81
373.835	1768.81
374.061	1671.81
374.287	1702.81
374.513	1681.81
374.739	1657.81
374.965	1692.81
375.191	1725.81
375.416	1725.81
375.642	1717.81
375.868	1769.81
376.094	1856.81
376.319	1791.81
376.545	1653.81
376.771	1673.81
376.997	1764.81
377.222	1748.81
377.448	1692.81
377.674	1726.81
377.899	1723.81
378.125	1811.81
378.35	1812.81
378.576	1684.81
378.802	1603.81
379.027	1633.81
379.253	1603.81
379.478	1671.81
379.704	1642.81
379.929	1657.81
380.155	1663.81
380.38	1666.81
380.606	1685.81
380.831	1650.81
381.057	1731.81
381.282	1773.81
381.507	1721.81
381.733	1800.81
381.958	1962.81
382.184	1755.81
382.409	1713.81
382.634	1759.81
382.86	1749.81
383.085	1724.81
383.31	1795.81
383.535	1880.81
383.761	1992.81
383.986	1906.81
384.211	1863.81
384.436	1866.81
384.662	1900.81
384.887	2020.81
385.112	1917.81
385.337	1925.81
385.562	1905.81
385.787	1919.81
386.013	1978.81
386.238	1979.81
386.463	1954.81
386.688	2029.81
386.913	2136.81
387.138	2122.81
387.363	1971.81
387.588	1946.81
387.813	1965.81
388.038	1933.81
388.263	1994.81
388.488	1952.81
388.713	1836.81
388.938	1842.81
389.163	1849.81
389.387	1881.81
389.612	1896.81
389.837	1883.81
390.062	1959.81
390.287	1967.81
390.512	1897.81
390.736	1871.81
390.961	1846.81
391.186	1814.81
391.411	1841.81
391.636	1894.81
391.86	1861.81
392.085	1901.81
392.31	1875.81
392.534	1879.81
392.759	1929.81
392.984	1890.81
393.208	1975.81
393.433	1981.81
393.658	2102.81
393.882	2063.81
394.107	1963.81
394.331	1861.81
394.556	1891.81
394.78	1887.81
395.005	1975.81
395.229	2011.81
395.454	2168.81
395.678	2187.81
395.903	2097.81
396.127	1991.81
396.352	2013.81
396.576	2095.81
396.801	2117.81
397.025	2127.81
397.249	2092.81
397.474	2025.81
397.698	2034.81
397.922	2093.81
398.147	2170.81
398.371	2234.81
398.595	2253.81
398.82	2175.81
399.044	2199.81
399.268	2322.81
399.492	2473.81
399.717	2569.81
399.941	2584.81
400.165	2534.81
400.389	2416.81
400.613	2371.81
400.837	2581.81
401.062	2995.81
401.286	2603.81
401.51	2374.81
401.734	2440.81
401.958	2419.81
402.182	2237.81
402.406	2112.81
402.63	2155.81
402.854	2150.81
403.078	2186.81
403.302	2263.81
403.526	2304.81
403.75	2253.81
403.974	2291.81
404.198	2311.81
404.422	2305.81
404.645	2400.81
404.869	2426.81
405.093	2242.81
405.317	2153.81
405.541	2295.81
405.765	2316.81
405.988	2241.81
406.212	2327.81
406.436	2355.81
406.66	2392.81
406.883	2437.81
407.107	2719.81
407.331	2950.81
407.555	3157.81
407.778	2941.81
408.002	2433.81
408.226	2371.81
408.449	2379.81
408.673	2284.81
408.896	2343.81
409.12	2387.81
409.344	2312.81
409.567	2227.81
409.791	2265.81
410.014	2310.81
410.238	2418.81
410.461	2578.81
410.685	2297.81
410.908	2201.81
411.132	2257.81
411.355	2287.81
411.578	2161.81
411.802	2237.81
412.025	2230.81
412.249	2207.81
412.472	2149.81
412.695	2148.81
412.919	2106.81
413.142	2133.81
413.365	2173.81
413.589	2221.81
413.812	2336.81
414.035	2403.81
414.258	2184.81
414.482	2159.81
414.705	2199.81
414.928	2146.81
415.151	2137.81
415.374	2121.81
415.597	2174.81
415.821	2199.81
416.044	2295.81
416.267	2310.81
416.49	2077.81
416.713	2059.81
416.936	2121.81
417.159	2216.81
417.382	2279.81
417.605	2122.81
417.828	2217.81
418.051	2210.81
418.274	2147.81
418.497	2063.81
418.72	2080.81
418.943	2076.81
419.166	2227.81
419.389	2366.81
419.611	2199.81
419.834	2151.81
420.057	2145.81
420.28	2084.81
420.503	2067.81
420.726	2134.81
420.948	2140.81
421.171	2059.81
421.394	2098.81
421.617	2155.81
421.839	2119.81
422.062	2103.81
422.285	2075.81
422.507	2075.81
422.73	2008.81
422.953	2014.81
423.175	2004.81
423.398	2075.81
423.621	2071.81
423.843	2064.81
424.066	2132.81
424.288	2237.81
424.511	2222.81
424.733	2132.81
424.956	1981.81
425.178	1989.81
425.401	2020.81
425.623	2053.81
425.846	2011.81
426.068	2107.81
426.291	2168.81
426.513	2101.81
426.735	2124.81
426.958	2227.81
427.18	2402.81
427.402	2125.81
427.625	2244.81
427.847	2237.81
428.069	2122.81
428.292	1994.81
428.514	1960.81
428.736	2000.81
428.958	1992.81
429.181	2013.81
429.403	2225.81
429.625	2785.81
429.847	2476.81
430.069	2075.81
430.292	2236.81
430.514	2343.81
430.736	2203.81
430.958	2320.81
431.18	2175.81
431.402	2001.81
431.624	2036.81
431.846	1999.81
432.068	1965.81
432.29	1994.81
432.512	2047.81
432.734	2072.81
432.956	2048.81
433.178	2186.81
433.4	2173.81
433.622	2179.81
433.844	2077.81
434.066	2009.81
434.287	2036.81
434.509	2084.81
434.731	2176.81
434.953	2297.81
435.175	2253.81
435.397	2135.81
435.618	2148.81
435.84	2161.81
436.062	2071.81
436.284	2053.81
436.505	2121.81
436.727	2135.81
436.949	2115.81
437.17	2013.81
437.392	2029.81
437.614	2060.81
437.835	2006.81
438.057	2121.81
438.278	2228.81
438.5	2088.81
438.721	1999.81
438.943	2017.81
439.165	2031.81
439.386	1981.81
439.608	1993.81
439.829	1963.81
440.05	2036.81
440.272	1959.81
440.493	1945.81
440.715	2001.81
440.936	2155.81
441.158	2386.81
441.379	2280.81
441.6	2268.81
441.822	2171.81
442.043	2164.81
442.264	2126.81
442.486	2012.81
442.707	2043.81
442.928	1976.81
443.149	2060.81
443.371	2230.81
443.592	2269.81
443.813	2219.81
444.034	2204.81
444.255	2210.81
444.476	2289.81
444.698	2289.81
444.919	2285.81
445.14	2369.81
445.361	2332.81
445.582	2434.81
445.803	2293.81
446.024	2203.81
446.245	2281.81
446.466	2253.81
446.687	2118.81
446.908	2103.81
447.129	2067.81
447.35	2102.81
447.571	2092.81
447.792	2025.81
448.013	1982.81
448.234	2003.81
448.455	2083.81
448.675	2118.81
448.896	1995.81
449.117	1914.81
449.338	1962.81
449.559	2031.81
449.779	2152.81
450	2387.81
450.221	2565.81
450.442	2490.81
450.662	2176.81
450.883	1919.81
451.104	1904.81
451.324	1926.81
451.545	2027.81
451.766	1968.81
451.986	1869.81
452.207	1914.81
452.428	1787.81
452.648	1776.81
452.869	1877.81
453.089	1958.81
453.31	1973.81
453.53	2002.81
453.751	1978.81
453.971	1811.81
454.192	1875.81
454.412	2019.81
454.633	1923.81
454.853	1861.81
455.073	1741.81
455.294	1739.81
455.514	1740.81
455.734	1762.81
455.955	1844.81
456.175	1800.81
456.395	1779.81
456.616	1888.81
456.836	1941.81
457.056	1864.81
457.276	1871.81
457.497	1799.81
457.717	1755.81
457.937	1755.81
458.157	1819.81
458.377	1800.81
458.598	1780.81
458.818	1783.81
459.038	1937.81
459.258	2025.81
459.478	2045.81
459.698	2008.81
459.918	2026.81
460.138	2121.81
460.358	2165.81
460.578	2159.81
460.798	2231.81
461.018	2384.81
461.238	2229.81
461.458	2152.81
461.678	2163.81
461.898	2127.81
462.118	2062.81
462.338	2187.81
462.558	2164.81
462.777	2125.81
462.997	2252.81
463.217	2400.81
463.437	2405.81
463.657	2200.81
463.876	2193.81
464.096	2166.81
464.316	2149.81
464.536	2217.81
464.755	2250.81
464.975	2265.81
465.195	2173.81
465.414	2320.81
465.634	2331.81
465.854	2143.81
466.073	2269.81
466.293	2260.81
466.512	2024.81
466.732	1955.81
466.951	2083.81
467.171	2059.81
467.391	1964.81
467.61	1910.81
467.829	1896.81
468.049	2082.81
468.268	2319.81
468.488	2194.81
468.707	2083.81
468.927	2024.81
469.146	1975.81
469.365	1919.81
469.585	1959.81
469.804	1956.81
470.023	1991.81
470.243	2003.81
470.462	1963.81
470.681	1939.81
470.901	1951.81
471.12	1951.81
471.339	1943.81
471.558	1896.81
471.777	1869.81
471.997	1945.81
472.216	1905.81
472.435	1867.81
472.654	1915.81
472.873	1983.81
473.092	2152.81
473.311	2073.81
473.53	1898.81
473.749	1889.81
473.968	1956.81
474.187	2040.81
474.406	2164.81
474.625	2037.81
474.844	2020.81
475.063	1957.81
475.282	2050.81
475.501	1984.81
475.72	1987.81
475.939	2142.81
476.158	2042.81
476.377	1995.81
476.596	2029.81
476.814	2066.81
477.033	2067.81
477.252	2148.81
477.471	2230.81
477.69	2109.81
477.908	2082.81
478.127	2196.81
478.346	2391.81
478.564	2393.81
478.783	2343.81
479.002	2433.81
479.22	2371.81
479.439	2433.81
479.658	2789.81
479.876	2794.81
480.095	2324.81
480.313	2279.81
480.532	2188.81
480.751	2212.81
480.969	2281.81
481.188	2256.81
481.406	2225.81
481.624	2101.81
481.843	2171.81
482.061	2229.81
482.28	2303.81
482.498	2358.81
482.717	2327.81
482.935	2182.81
483.153	2193.81
483.372	2188.81
483.59	2190.81
483.808	2185.81
484.027	2263.81
484.245	2397.81
484.463	2719.81
484.681	3110.81
484.9	2435.81
485.118	2253.81
485.336	2225.81
485.554	2264.81
485.772	2449.81
485.99	2377.81
486.209	2416.81
486.427	2385.81
486.645	2379.81
486.863	2351.81
487.081	2428.81
487.299	2479.81
487.517	2401.81
487.735	2277.81
487.953	2282.81
488.171	2285.81
488.389	2262.81
488.607	2327.81
488.825	2483.81
489.043	2555.81
489.261	2307.81
489.479	2411.81
489.696	2472.81
489.914	2450.81
490.132	2404.81
490.35	2317.81
490.568	2433.81
490.786	2317.81
491.003	2234.81
491.221	2335.81
491.439	2444.81
491.657	2381.81
491.874	2365.81
492.092	2429.81
492.31	2364.81
492.527	2389.81
492.745	2369.81
492.963	2368.81
493.18	2493.81
493.398	2601.81
493.615	2648.81
493.833	2441.81
494.05	2422.81
494.268	2443.81
494.485	2520.81
494.703	2432.81
494.92	2380.81
495.138	2408.81
495.355	2421.81
495.573	2527.81
495.79	2669.81
496.008	2698.81
496.225	2554.81
496.442	2518.81
496.66	2567.81
496.877	2517.81
497.094	2650.81
497.312	2654.81
497.529	2627.81
497.746	2732.81
497.963	3097.81
498.181	3539.81
498.398	3247.81
498.615	3200.81
498.832	3095.81
499.049	3087.81
499.267	3085.81
499.484	3277.81
499.701	3481.81
499.918	3608.81
500.135	3851.81
500.352	4223.81
500.569	4067.81
500.786	4295.81
501.003	3993.81
501.22	3675.81
501.437	3558.81
501.654	3567.81
501.871	3404.81
502.088	3081.81
502.305	3105.81
502.522	2968.81
502.739	2751.81
502.956	2640.81
503.172	2639.81
503.389	2545.81
503.606	2543.81
503.823	2525.81
504.04	2603.81
504.256	2531.81
504.473	2570.81
504.69	2651.81
504.907	2484.81
505.123	2401.81
505.34	2483.81
505.557	3247.81
505.773	2752.81
505.99	2336.81
506.207	2223.81
506.423	2151.81
506.64	2147.81
506.856	2163.81
507.073	2464.81
507.289	2627.81
507.506	2567.81
507.722	2164.81
507.939	2096.81
508.155	2105.81
508.372	2127.81
508.588	2060.81
508.805	2010.81
509.021	1977.81
509.238	1984.81
509.454	1947.81
509.67	1967.81
509.887	1968.81
510.103	1969.81
510.319	1951.81
510.536	2098.81
510.752	2125.81
510.968	2142.81
511.184	2255.81
511.401	2230.81
511.617	1996.81
511.833	1896.81
512.049	1919.81
512.265	1905.81
512.481	1894.81
512.698	1952.81
512.914	2136.81
513.13	2039.81
513.346	1899.81
513.562	1886.81
513.778	1937.81
513.994	2028.81
514.21	2100.81
514.426	2100.81
514.642	2306.81
514.858	2181.81
515.074	1988.81
515.29	1924.81
515.506	2015.81
515.721	2001.81
515.937	2057.81
516.153	2370.81
516.369	2260.81
516.585	2111.81
516.801	2041.81
517.016	2019.81
517.232	2073.81
517.448	2132.81
517.664	2163.81
517.879	2136.81
518.095	2231.81
518.311	2125.81
518.527	2069.81
518.742	2063.81
518.958	1942.81
519.173	1951.81
519.389	1991.81
519.605	1988.81
519.82	1989.81
520.036	1992.81
520.251	1922.81
520.467	1932.81
520.682	2121.81
520.898	2201.81
521.113	1991.81
521.329	1892.81
521.544	2071.81
521.76	1975.81
521.975	1883.81
522.19	1869.81
522.406	1805.81
522.621	2216.81
522.836	2260.81
523.052	1863.81
523.267	1833.81
523.482	1884.81
523.698	1790.81
523.913	1750.81
524.128	1799.81
524.343	1881.81
524.559	1899.81
524.774	1792.81
524.989	1752.81
525.204	1737.81
525.419	1754.81
525.634	1745.81
525.849	1751.81
526.064	1780.81
526.28	1767.81
526.495	1705.81
526.71	1694.81
526.925	1686.81
527.14	1714.81
527.355	1669.81
527.57	1707.81
527.785	1710.81
527.999	1707.81
528.214	1657.81
528.429	1629.81
528.644	1627.81
528.859	1695.81
529.074	1696.81
529.289	1699.81
529.503	1739.81
529.718	1687.81
529.933	1677.81
530.148	1621.81
530.363	1633.81
530.577	1643.81
530.792	1687.81
531.007	1684.81
531.221	1676.81
531.436	1723.81
531.651	1737.81
531.865	1829.81
532.08	1736.81
532.295	1653.81
532.509	1586.81
532.724	1611.81
532.938	1711.81
533.153	1810.81
533.367	1719.81
533.582	1687.81
533.796	1664.81
534.011	1703.81
534.225	1662.81
534.44	1626.81
534.654	1652.81
534.868	1623.81
535.083	1683.81
535.297	1724.81
535.511	1645.81
535.726	1628.81
535.94	1634.81
536.154	1604.81
536.369	1638.81
536.583	1587.81
536.797	1595.81
537.011	1635.81
537.225	1578.81
537.44	1547.81
537.654	1629.81
537.868	1591.81
538.082	1545.81
538.296	1509.81
538.51	1499.81
538.724	1511.81
538.938	1500.81
539.153	1551.81
539.367	1604.81
539.581	1549.81
539.795	1615.81
540.009	1636.81
540.222	1619.81
540.436	1612.81
540.65	1737.81
540.864	1787.81
541.078	1658.81
541.292	1584.81
541.506	1565.81
541.72	1578.81
541.934	1616.81
542.147	1605.81
542.361	1545.81
542.575	1514.81
542.789	1466.81
543.002	1447.81
543.216	1491.81
543.43	1587.81
543.644	1650.81
543.857	1725.81
544.071	1613.81
544.285	1572.81
544.498	1531.81
544.712	1584.81
544.925	1598.81
545.139	1621.81
545.352	1574.81
545.566	1479.81
545.779	1487.81
545.993	1538.81
546.206	1552.81
546.42	1478.81
546.633	1441.81
546.847	1506.81
547.06	1508.81
547.274	1490.81
547.487	1536.81
547.7	1462.81
547.914	1451.81
548.127	1531.81
548.34	1519.81
548.554	1521.81
548.767	1478.81
548.98	1512.81
549.193	1477.81
549.407	1527.81
549.62	1533.81
549.833	1488.81
550.046	1465.81
550.259	1477.81
550.473	1448.81
550.686	1467.81
550.899	1473.81
551.112	1419.81
551.325	1415.81
551.538	1505.81
551.751	1762.81
551.964	1447.81
552.177	1403.81
552.39	1429.81
552.603	1458.81
552.816	1449.81
553.029	1486.81
553.242	1548.81
553.455	1467.81
553.667	1461.81
553.88	1458.81
554.093	1425.81
554.306	1417.81
554.519	1368.81
554.732	1374.81
554.944	1409.81
555.157	1376.81
555.37	1391.81
555.583	1393.81
555.795	1339.81
556.008	1299.81
556.221	1315.81
556.433	1309.81
556.646	1268.81
556.859	1280.81
557.071	1265.81
557.284	1246.81
557.496	1255.81
557.709	1226.81
557.921	1232.81
558.134	1248.81
558.346	1257.81
558.559	1208.81
558.771	1233.81
558.984	1213.81
559.196	1181.81
559.409	1147.81
559.621	1174.81
559.833	1179.81
560.046	1247.81
560.258	1226.81
560.47	1210.81
560.683	1238.81
560.895	1212.81
561.107	1207.81
561.32	1202.81
561.532	1258.81
561.744	1213.81
561.956	1218.81
562.168	1187.81
562.381	1146.81
562.593	1165.81
562.805	1203.81
563.017	1181.81
563.229	1192.81
563.441	1203.81
563.653	1178.81
563.865	1190.81
564.077	1204.81
564.289	1195.81
564.501	1205.81
564.713	1244.81
564.925	1277.81
565.137	1343.81
565.349	1266.81
565.561	1287.81
565.773	1246.81
565.985	1240.81
566.197	1349.81
566.408	1413.81
566.62	1447.81
566.832	1436.81
567.044	1458.81
567.255	1443.81
567.467	1416.81
567.679	1509.81
567.891	1563.81
568.102	1509.81
568.314	1432.81
568.526	1369.81
568.737	1297.81
568.949	1242.81
569.161	1209.81
569.372	1175.81
569.584	1156.81
569.795	1167.81
570.007	1165.81
570.218	1107.81
570.43	1079.81
570.641	1064.81
570.853	1097.81
571.064	1083.81
571.276	1073.81
571.487	1064.81
571.698	1040.81
571.91	1011.81
572.121	979.81
572.333	972.81
572.544	985.81
572.755	957.81
572.966	955.81
573.178	940.81
573.389	948.81
573.6	1000.81
573.811	1044.81
574.023	974.81
574.234	950.81
574.445	912.81
574.656	904.81
574.867	918.81
575.078	921.81
575.289	923.81
575.501	888.81
575.712	862.81
575.923	899.81
576.134	909.81
576.345	883.81
576.556	868.81
576.767	871.81
576.978	866.81
577.188	869.81
577.399	838.81
577.61	845.81
577.821	823.81
578.032	834.81
578.243	836.81
578.454	821.81
578.665	836.81
578.875	815.81
579.086	808.81
579.297	822.81
579.508	825.81
579.718	807.81
579.929	834.81
580.14	811.81
580.35	786.81
580.561	796.81
580.772	857.81
580.982	831.81
581.193	787.81
581.403	787.81
581.614	741.81
581.825	763.81
582.035	766.81
582.246	793.81
582.456	803.81
582.667	794.81
582.877	775.81
583.087	754.81
583.298	764.81
583.508	775.81
583.719	752.81
583.929	798.81
584.139	793.81
584.35	733.81
584.56	727.81
584.77	772.81
584.981	768.81
585.191	741.81
585.401	782.81
585.611	759.81
585.821	729.81
586.032	739.81
586.242	705.81
586.452	732.81
586.662	774.81
586.872	749.81
587.082	743.81
587.292	735.81
587.502	740.81
587.713	755.81
587.923	741.81
588.133	711.81
588.343	728.81
588.553	733.81
588.762	719.81
588.972	726.81
589.182	753.81
589.392	726.81
589.602	732.81
589.812	705.81
590.022	736.81
590.232	702.81
590.441	723.81
590.651	718.81
590.861	709.81
591.071	700.81
591.281	690.81
591.49	717.81
591.7	710.81
591.91	716.81
592.119	709.81
592.329	712.81
592.539	744.81
592.748	755.81
592.958	749.81
593.167	751.81
593.377	757.81
593.587	770.81
593.796	754.81
594.006	780.81
594.215	768.81
594.424	775.81
594.634	748.81
594.843	715.81
595.053	739.81
595.262	721.81
595.472	693.81
595.681	707.81
595.89	718.81
596.1	675.81
596.309	677.81
596.518	676.81
596.727	693.81
596.937	675.81
597.146	660.81
597.355	649.81
597.564	659.81
597.774	629.81
597.983	635.81
598.192	614.81
598.401	631.81
598.61	623.81
598.819	620.81
599.028	638.81
599.237	631.81
599.446	599.81
599.655	609.81
599.864	614.81
600.073	582.81
600.282	595.81
600.491	579.81
600.7	604.81
600.909	578.81
601.118	603.81
601.327	574.81
601.536	591.81
601.745	605.81
601.953	594.81
602.162	615.81
602.371	629.81
602.58	597.81
602.789	602.81
602.997	579.81
603.206	598.81
603.415	557.81
603.623	581.81
603.832	573.81
604.041	570.81
604.249	560.81
604.458	576.81
604.666	563.81
604.875	567.81
605.084	605.81
605.292	579.81
605.501	572.81
605.709	535.81
605.918	552.81
606.126	549.81
606.334	549.81
606.543	569.81
606.751	561.81
606.96	570.81
607.168	544.81
607.376	537.81
607.585	549.81
607.793	553.81
608.001	541.81
608.21	540.81
608.418	532.81
608.626	547.81
608.834	548.81
609.043	528.81
609.251	536.81
609.459	532.81
609.667	554.81
609.875	538.81
610.083	541.81
610.291	554.81
610.499	571.81
610.707	519.81
610.916	536.81
611.124	557.81
611.332	539.81
611.54	516.81
611.748	519.81
611.955	530.81
612.163	518.81
612.371	515.81
612.579	500.81
612.787	501.81
612.995	522.81
613.203	535.81
613.411	505.81
613.618	527.81
613.826	537.81
614.034	503.81
614.242	535.81
614.449	495.81
614.657	523.81
614.865	527.81
615.072	483.81
615.28	495.81
615.488	528.81
615.695	534.81
615.903	523.81
616.111	520.81
616.318	516.81
616.526	486.81
616.733	512.81
616.941	495.81
617.148	503.81
617.356	470.81
617.563	474.81
617.771	520.81
617.978	470.81
618.185	481.81
618.393	507.81
618.6	501.81
618.807	490.81
619.015	496.81
619.222	474.81
619.429	481.81
619.637	484.81
619.844	477.81
620.051	467.81
620.258	473.81
620.466	483.81
620.673	467.81
620.88	426.81
621.087	447.81
621.294	439.81
621.501	460.81
621.708	454.81
621.915	461.81
622.122	463.81
622.329	465.81
622.536	461.81
622.743	455.81
622.95	448.81
623.157	475.81
623.364	453.81
623.571	455.81
623.778	486.81
623.985	468.81
624.192	423.81
624.399	445.81
624.606	428.81
624.812	422.81
625.019	409.81
625.226	422.81
625.433	441.81
625.639	427.81
625.846	443.81
626.053	400.81
626.259	411.81
626.466	408.81
626.673	401.81
626.879	392.81
627.086	393.81
627.293	400.81
627.499	383.81
627.706	405.81
627.912	426.81
628.119	405.81
628.325	404.81
628.532	403.81
628.738	422.81
628.945	390.81
629.151	394.81
629.357	410.81
629.564	412.81
629.77	405.81
629.976	405.81
630.183	403.81
630.389	388.81
630.595	385.81
630.802	401.81
631.008	375.81
631.214	391.81
631.42	362.81
631.627	369.81
631.833	371.81
632.039	398.81
632.245	389.81
632.451	369.81
632.657	379.81
632.863	368.81
633.069	369.81
633.275	374.81
633.481	364.81
633.688	374.81
633.893	354.81
634.099	364.81
634.305	354.81
634.511	349.81
634.717	367.81
634.923	337.81
635.129	354.81
635.335	344.81
635.541	359.81
635.747	370.81
635.952	349.81
636.158	371.81
636.364	371.81
636.57	345.81
636.775	347.81
636.981	347.81
637.187	329.81
637.392	347.81
637.598	348.81
637.804	354.81
638.009	361.81
638.215	333.81
638.421	332.81
638.626	348.81
638.832	336.81
639.037	323.81
639.243	337.81
639.448	344.81
639.654	316.81
639.859	329.81
640.065	336.81
640.27	346.81
640.475	335.81
640.681	342.81
640.886	331.81
641.091	321.81
641.297	328.81
641.502	311.81
641.707	313.81
641.913	341.81
642.118	315.81
642.323	316.81
642.528	298.81
642.733	319.81
642.939	322.81
643.144	329.81
643.349	327.81
643.554	323.81
643.759	310.81
643.964	284.81
644.169	317.81
644.374	319.81
644.579	315.81
644.784	314.81
644.989	312.81
645.194	301.81
645.399	304.81
645.604	304.81
645.809	301.81
646.014	300.81
646.219	318.81
646.423	326.81
646.628	323.81
646.833	338.81
647.038	323.81
647.243	315.81
647.447	312.81
647.652	314.81
647.857	309.81
648.062	333.81
648.266	333.81
648.471	313.81
648.676	319.81
648.88	322.81
649.085	316.81
649.289	323.81
649.494	316.81
649.698	301.81
649.903	311.81
650.107	308.81
650.312	303.81
650.516	282.81
650.721	283.81
650.925	301.81
651.13	285.81
651.334	283.81
651.539	288.81
651.743	281.81
651.947	276.81
652.152	277.81
652.356	265.81
652.56	275.81
652.764	253.81
652.969	249.81
653.173	267.81
653.377	251.81
653.581	250.81
653.785	247.81
653.99	247.81
654.194	239.81
654.398	245.81
654.602	256.81
654.806	244.81
655.01	242.81
655.214	241.81
655.418	243.81
655.622	230.81
655.826	231.81
656.03	262.81
656.234	254.81
656.438	259.81
656.642	253.81
656.846	260.81
657.049	231.81
657.253	227.81
657.457	220.81
657.661	193.81
657.865	177.81
658.068	182.81
658.272	170.81
658.476	160.81
658.68	147.81
658.883	143.81
659.087	157.81
659.291	135.81
659.494	144.81
659.698	126.81
659.901	133.81
660.105	131.81
660.309	116.81
660.512	121.81
660.716	107.81
660.919	100.81
661.123	117.81
661.326	107.81
661.53	103.81
661.733	116.81
661.936	104.81
662.14	111.81
662.343	81.81
662.546	89.81
662.75	97.81
662.953	102.81
663.156	86.81
663.36	91.81
663.563	92.81
663.766	78.81
663.969	76.81
664.173	76.81
664.376	70.81
664.579	86.81
664.782	85.81
664.985	81.81
665.188	79.81
665.391	76.81
665.594	73.81
665.797	75.81
666	93.81
666.203	94.81
666.406	77.81
666.609	93.81
666.812	87.81
667.015	75.81
667.218	85.81
667.421	81.81
667.624	92.81
667.827	76.81
668.03	84.81
668.232	85.81
668.435	95.81
668.638	86.81
668.841	96.81
669.043	82.81
669.246	84.81
669.449	85.81
669.651	76.81
669.854	77.81
670.057	79.81
670.259	87.81
670.462	82.81
670.665	82.81
670.867	73.81
671.07	75.81
671.272	78.81
671.475	80.81
671.677	89.81
671.88	102.81
672.082	73.81
672.284	74.81
672.487	92.81
672.689	78.81
672.892	82.81
