Data from WStandard_LampEnergy5.5LIBS07252019.E.O._I.C._HRD10591_16-08-38-920.txt Node
Date: Thu Jul 25 16:08:38 EDT 2019
User: cochatt
Spectrometer: HR+D1059
Trigger mode: 1
Integration Time (sec): 1.000000E-1
Scans to average: 1
Electric dark correction enabled: true
Nonlinearity correction enabled: false
Boxcar width: 0
XAxis mode: Wavelengths
Number of Pixels in Spectrum: 2048
>>>>>Begin Spectral Data<<<<<
223.165	-24.75
223.4	-24.75
223.635	-24.75
223.869	-17.75
224.104	-10.75
224.338	-15.75
224.573	-24.75
224.808	-15.75
225.042	-4.75
225.277	-14.75
225.511	10.25
225.746	24.25
225.98	3.25
226.215	3.25
226.449	25.25
226.683	29.25
226.918	11.25
227.152	22.25
227.387	35.25
227.621	32.25
227.856	50.25
228.09	54.25
228.324	46.25
228.559	58.25
228.793	155.25
229.027	348.25
229.262	344.25
229.496	366.25
229.73	392.25
229.964	436.25
230.199	444.25
230.433	477.25
230.667	488.25
230.901	537.25
231.136	483.25
231.37	484.25
231.604	458.25
231.838	461.25
232.072	476.25
232.306	446.25
232.541	471.25
232.775	548.25
233.009	606.25
233.243	596.25
233.477	531.25
233.711	548.25
233.945	547.25
234.179	540.25
234.413	576.25
234.647	621.25
234.881	564.25
235.115	544.25
235.349	528.25
235.583	562.25
235.817	543.25
236.051	548.25
236.285	525.25
236.519	594.25
236.753	663.25
236.987	667.25
237.221	674.25
237.455	743.25
237.689	706.25
237.922	670.25
238.156	634.25
238.39	668.25
238.624	688.25
238.858	727.25
239.091	763.25
239.325	798.25
239.559	907.25
239.793	980.25
240.027	1046.25
240.26	1060.25
240.494	772.25
240.728	684.25
240.961	715.25
241.195	739.25
241.429	801.25
241.662	791.25
241.896	718.25
242.13	746.25
242.363	866.25
242.597	914.25
242.83	875.25
243.064	868.25
243.298	947.25
243.531	920.25
243.765	899.25
243.998	927.25
244.232	812.25
244.465	790.25
244.699	763.25
244.932	879.25
245.166	1009.25
245.399	962.25
245.633	865.25
245.866	903.25
246.099	937.25
246.333	955.25
246.566	970.25
246.8	1019.25
247.033	1154.25
247.266	1078.25
247.5	1022.25
247.733	1040.25
247.966	1108.25
248.2	1226.25
248.433	1164.25
248.666	1217.25
248.899	1312.25
249.133	1516.25
249.366	1748.25
249.599	1393.25
249.832	1218.25
250.066	1239.25
250.299	1302.25
250.532	1184.25
250.765	1078.25
250.998	1109.25
251.231	1182.25
251.465	1230.25
251.698	1138.25
251.931	1174.25
252.164	1179.25
252.397	1234.25
252.63	1251.25
252.863	1089.25
253.096	1087.25
253.329	1121.25
253.562	1132.25
253.795	1283.25
254.028	1262.25
254.261	1148.25
254.494	1164.25
254.727	1120.25
254.96	1134.25
255.193	1239.25
255.426	1414.25
255.659	1615.25
255.892	1674.25
256.124	1382.25
256.357	1313.25
256.59	1406.25
256.823	1421.25
257.056	1406.25
257.289	1690.25
257.521	1894.25
257.754	1650.25
257.987	1567.25
258.22	1749.25
258.452	1698.25
258.685	1387.25
258.918	1337.25
259.151	1373.25
259.383	1332.25
259.616	1159.25
259.849	1238.25
260.081	1386.25
260.314	1512.25
260.547	1692.25
260.779	1723.25
261.012	1612.25
261.244	1394.25
261.477	1350.25
261.71	1419.25
261.942	1396.25
262.175	1346.25
262.407	1447.25
262.64	1357.25
262.872	1319.25
263.105	1220.25
263.337	1282.25
263.57	1271.25
263.802	1266.25
264.035	1221.25
264.267	1123.25
264.499	1114.25
264.732	1220.25
264.964	1318.25
265.197	1337.25
265.429	1362.25
265.661	1538.25
265.894	1735.25
266.126	1752.25
266.358	1580.25
266.591	1622.25
266.823	1780.25
267.055	1619.25
267.287	1576.25
267.52	1554.25
267.752	1542.25
267.984	1549.25
268.216	1628.25
268.448	1649.25
268.681	1643.25
268.913	1516.25
269.145	1377.25
269.377	1349.25
269.609	1480.25
269.841	1733.25
270.073	2005.25
270.306	2214.25
270.538	2367.25
270.77	1986.25
271.002	1701.25
271.234	1655.25
271.466	1624.25
271.698	1806.25
271.93	2195.25
272.162	2172.25
272.394	1959.25
272.626	1873.25
272.858	1633.25
273.09	1457.25
273.322	1439.25
273.553	1357.25
273.785	1376.25
274.017	1411.25
274.249	1542.25
274.481	1564.25
274.713	1455.25
274.945	1402.25
275.176	1423.25
275.408	1391.25
275.64	1359.25
275.872	1337.25
276.104	1446.25
276.335	1641.25
276.567	1845.25
276.799	1852.25
277.031	1710.25
277.262	1598.25
277.494	1658.25
277.726	1824.25
277.957	1790.25
278.189	1656.25
278.421	1518.25
278.652	1438.25
278.884	1469.25
279.115	1444.25
279.347	1495.25
279.579	1466.25
279.81	1417.25
280.042	1624.25
280.273	1747.25
280.505	1733.25
280.736	1826.25
280.968	1700.25
281.199	1487.25
281.431	1426.25
281.662	1434.25
281.894	1466.25
282.125	1481.25
282.356	1499.25
282.588	1539.25
282.819	1531.25
283.051	1637.25
283.282	1772.25
283.513	1767.25
283.745	1514.25
283.976	1399.25
284.207	1427.25
284.439	1455.25
284.67	1453.25
284.901	1539.25
285.132	1593.25
285.364	1513.25
285.595	1521.25
285.826	1485.25
286.057	1478.25
286.288	1498.25
286.52	1563.25
286.751	1651.25
286.982	1716.25
287.213	1597.25
287.444	1460.25
287.675	1430.25
287.906	1539.25
288.138	1648.25
288.369	1578.25
288.6	1462.25
288.831	1424.25
289.062	1492.25
289.293	1484.25
289.524	1530.25
289.755	1553.25
289.986	1577.25
290.217	1464.25
290.448	1461.25
290.679	1531.25
290.91	1491.25
291.141	1579.25
291.371	1663.25
291.602	1584.25
291.833	1582.25
292.064	1635.25
292.295	1596.25
292.526	1628.25
292.757	1706.25
292.987	1619.25
293.218	1567.25
293.449	1640.25
293.68	1833.25
293.91	1984.25
294.141	1863.25
294.372	1718.25
294.603	1855.25
294.833	1886.25
295.064	1834.25
295.295	1648.25
295.525	1549.25
295.756	1476.25
295.987	1426.25
296.217	1443.25
296.448	1479.25
296.679	1482.25
296.909	1496.25
297.14	1465.25
297.37	1504.25
297.601	1596.25
297.831	1710.25
298.062	1696.25
298.292	1561.25
298.523	1475.25
298.753	1515.25
298.984	1496.25
299.214	1553.25
299.445	1586.25
299.675	1608.25
299.905	1636.25
300.136	1590.25
300.366	1534.25
300.597	1475.25
300.827	1492.25
301.057	1554.25
301.288	1612.25
301.518	1600.25
301.748	1676.25
301.979	1724.25
302.209	1764.25
302.439	1847.25
302.669	1945.25
302.9	1856.25
303.13	1644.25
303.36	1662.25
303.59	1685.25
303.82	1653.25
304.051	1612.25
304.281	1648.25
304.511	1579.25
304.741	1688.25
304.971	1893.25
305.201	2079.25
305.431	1914.25
305.661	1624.25
305.891	1424.25
306.121	1457.25
306.352	1509.25
306.582	1599.25
306.812	1692.25
307.042	1762.25
307.272	1786.25
307.502	1855.25
307.731	1986.25
307.961	2151.25
308.191	2009.25
308.421	1710.25
308.651	1620.25
308.881	1607.25
309.111	1611.25
309.341	1534.25
309.571	1590.25
309.8	1589.25
310.03	1545.25
310.26	1572.25
310.49	1522.25
310.72	1547.25
310.949	1670.25
311.179	1673.25
311.409	1664.25
311.639	1616.25
311.868	1594.25
312.098	1595.25
312.328	1600.25
312.557	1576.25
312.787	1603.25
313.017	1651.25
313.246	1650.25
313.476	1653.25
313.706	1686.25
313.935	1688.25
314.165	1669.25
314.394	1705.25
314.624	1850.25
314.853	1938.25
315.083	1976.25
315.312	2070.25
315.542	1929.25
315.771	1730.25
316.001	1646.25
316.23	1755.25
316.46	1806.25
316.689	1756.25
316.919	1696.25
317.148	1643.25
317.377	1619.25
317.607	1710.25
317.836	1932.25
318.065	2034.25
318.295	1936.25
318.524	1856.25
318.753	1809.25
318.983	1805.25
319.212	1721.25
319.441	1715.25
319.67	1676.25
319.9	1711.25
320.129	1826.25
320.358	1889.25
320.587	1941.25
320.816	1886.25
321.046	1884.25
321.275	1816.25
321.504	1774.25
321.733	1971.25
321.962	1947.25
322.191	1735.25
322.42	1733.25
322.649	1727.25
322.878	1689.25
323.108	1723.25
323.337	1769.25
323.566	1785.25
323.795	1764.25
324.024	1785.25
324.253	1769.25
324.482	1768.25
324.71	1672.25
324.939	1592.25
325.168	1661.25
325.397	1715.25
325.626	1782.25
325.855	1800.25
326.084	1726.25
326.313	1738.25
326.542	1754.25
326.77	1776.25
326.999	1825.25
327.228	1734.25
327.457	1668.25
327.686	1657.25
327.914	1665.25
328.143	1721.25
328.372	1744.25
328.6	1708.25
328.829	1707.25
329.058	1672.25
329.287	1653.25
329.515	1708.25
329.744	1744.25
329.972	1811.25
330.201	1896.25
330.43	1851.25
330.658	1816.25
330.887	1810.25
331.115	1818.25
331.344	1864.25
331.572	1823.25
331.801	1769.25
332.03	1776.25
332.258	1783.25
332.486	1863.25
332.715	1826.25
332.943	1899.25
333.172	1858.25
333.4	1844.25
333.629	1855.25
333.857	1990.25
334.085	2152.25
334.314	2409.25
334.542	2704.25
334.771	2461.25
334.999	2186.25
335.227	2078.25
335.455	1961.25
335.684	1963.25
335.912	1987.25
336.14	1996.25
336.369	1980.25
336.597	1906.25
336.825	1829.25
337.053	1879.25
337.281	1991.25
337.51	2039.25
337.738	2213.25
337.966	2109.25
338.194	1872.25
338.422	1852.25
338.65	1844.25
338.878	1808.25
339.106	1735.25
339.334	1724.25
339.562	1726.25
339.79	1742.25
340.018	1823.25
340.246	1890.25
340.474	1942.25
340.702	1876.25
340.93	1868.25
341.158	1838.25
341.386	1848.25
341.614	1871.25
341.842	1816.25
342.07	1757.25
342.298	1838.25
342.526	1815.25
342.754	1783.25
342.981	1773.25
343.209	1770.25
343.437	1795.25
343.665	1800.25
343.893	1872.25
344.12	1927.25
344.348	1908.25
344.576	1868.25
344.804	1787.25
345.031	1798.25
345.259	1829.25
345.487	1801.25
345.714	1692.25
345.942	1667.25
346.17	1699.25
346.397	1721.25
346.625	1724.25
346.853	1651.25
347.08	1588.25
347.308	1617.25
347.535	1663.25
347.763	1715.25
347.99	1671.25
348.218	1609.25
348.445	1674.25
348.673	1660.25
348.9	1722.25
349.128	1759.25
349.355	1836.25
349.583	1782.25
349.81	1690.25
350.037	1582.25
350.265	1574.25
350.492	1573.25
350.72	1626.25
350.947	1684.25
351.174	1710.25
351.402	1665.25
351.629	1599.25
351.856	1530.25
352.083	1545.25
352.311	1551.25
352.538	1633.25
352.765	1678.25
352.992	1713.25
353.22	1663.25
353.447	1585.25
353.674	1618.25
353.901	1657.25
354.128	1615.25
354.355	1610.25
354.583	1666.25
354.81	1724.25
355.037	1724.25
355.264	1706.25
355.491	1679.25
355.718	1659.25
355.945	1615.25
356.172	1620.25
356.399	1604.25
356.626	1567.25
356.853	1640.25
357.08	1778.25
357.307	1990.25
357.534	1983.25
357.761	1716.25
357.988	1572.25
358.215	1542.25
358.441	1601.25
358.668	1591.25
358.895	1587.25
359.122	1695.25
359.349	1857.25
359.576	1819.25
359.802	1678.25
360.029	1618.25
360.256	1597.25
360.483	1611.25
360.709	1630.25
360.936	1683.25
361.163	1752.25
361.39	1922.25
361.616	2069.25
361.843	2032.25
362.07	1918.25
362.296	1654.25
362.523	1632.25
362.749	1641.25
362.976	1689.25
363.203	1700.25
363.429	1619.25
363.656	1606.25
363.882	1618.25
364.109	1795.25
364.335	1975.25
364.562	1844.25
364.788	1713.25
365.015	1698.25
365.241	1646.25
365.468	1635.25
365.694	1712.25
365.92	1782.25
366.147	1718.25
366.373	1596.25
366.599	1592.25
366.826	1570.25
367.052	1582.25
367.278	1634.25
367.505	1667.25
367.731	1675.25
367.957	1682.25
368.184	1722.25
368.41	1823.25
368.636	1836.25
368.862	1808.25
369.089	1900.25
369.315	1784.25
369.541	1743.25
369.767	1677.25
369.993	1632.25
370.219	1602.25
370.445	1681.25
370.672	1780.25
370.898	1846.25
371.124	1868.25
371.35	1760.25
371.576	1802.25
371.802	1819.25
372.028	1782.25
372.254	1717.25
372.48	1678.25
372.706	1659.25
372.932	1687.25
373.158	1670.25
373.384	1712.25
373.61	1730.25
373.835	1816.25
374.061	1778.25
374.287	1728.25
374.513	1710.25
374.739	1785.25
374.965	1778.25
375.191	1756.25
375.416	1782.25
375.642	1765.25
375.868	1897.25
376.094	1914.25
376.319	1899.25
376.545	1770.25
376.771	1758.25
376.997	1892.25
377.222	1822.25
377.448	1760.25
377.674	1813.25
377.899	1790.25
378.125	1871.25
378.35	1860.25
378.576	1736.25
378.802	1674.25
379.027	1676.25
379.253	1761.25
379.478	1713.25
379.704	1740.25
379.929	1706.25
380.155	1740.25
380.38	1715.25
380.606	1807.25
380.831	1742.25
381.057	1814.25
381.282	1835.25
381.507	1825.25
381.733	1888.25
381.958	2012.25
382.184	1826.25
382.409	1778.25
382.634	1861.25
382.86	1803.25
383.085	1826.25
383.31	1823.25
383.535	1998.25
383.761	2107.25
383.986	2001.25
384.211	1956.25
384.436	1891.25
384.662	1984.25
384.887	2117.25
385.112	2023.25
385.337	2027.25
385.562	1994.25
385.787	1946.25
386.013	2015.25
386.238	2054.25
386.463	2033.25
386.688	2124.25
386.913	2270.25
387.138	2206.25
387.363	2019.25
387.588	2057.25
387.813	2001.25
388.038	2064.25
388.263	2134.25
388.488	2042.25
388.713	1910.25
388.938	1912.25
389.163	1882.25
389.387	1943.25
389.612	1905.25
389.837	2014.25
390.062	1972.25
390.287	1977.25
390.512	1980.25
390.736	1930.25
390.961	1953.25
391.186	1894.25
391.411	1931.25
391.636	1937.25
391.86	1968.25
392.085	1927.25
392.31	1959.25
392.534	1978.25
392.759	1962.25
392.984	1939.25
393.208	1994.25
393.433	2020.25
393.658	2096.25
393.882	2121.25
394.107	2036.25
394.331	1970.25
394.556	1977.25
394.78	2016.25
395.005	2086.25
395.229	2135.25
395.454	2276.25
395.678	2299.25
395.903	2201.25
396.127	2088.25
396.352	2076.25
396.576	2176.25
396.801	2188.25
397.025	2178.25
397.249	2143.25
397.474	2150.25
397.698	2106.25
397.922	2209.25
398.147	2276.25
398.371	2345.25
398.595	2338.25
398.82	2267.25
399.044	2298.25
399.268	2369.25
399.492	2566.25
399.717	2639.25
399.941	2642.25
400.165	2595.25
400.389	2545.25
400.613	2543.25
400.837	2744.25
401.062	3154.25
401.286	2742.25
401.51	2480.25
401.734	2602.25
401.958	2532.25
402.182	2348.25
402.406	2219.25
402.63	2184.25
402.854	2251.25
403.078	2344.25
403.302	2325.25
403.526	2347.25
403.75	2383.25
403.974	2356.25
404.198	2351.25
404.422	2431.25
404.645	2542.25
404.869	2534.25
405.093	2304.25
405.317	2272.25
405.541	2394.25
405.765	2408.25
405.988	2316.25
406.212	2419.25
406.436	2450.25
406.66	2473.25
406.883	2578.25
407.107	2770.25
407.331	3044.25
407.555	3306.25
407.778	3093.25
408.002	2614.25
408.226	2491.25
408.449	2456.25
408.673	2421.25
408.896	2442.25
409.12	2464.25
409.344	2380.25
409.567	2270.25
409.791	2384.25
410.014	2429.25
410.238	2496.25
410.461	2679.25
410.685	2421.25
410.908	2283.25
411.132	2356.25
411.355	2356.25
411.578	2306.25
411.802	2294.25
412.025	2395.25
412.249	2326.25
412.472	2270.25
412.695	2237.25
412.919	2234.25
413.142	2252.25
413.365	2272.25
413.589	2313.25
413.812	2398.25
414.035	2480.25
414.258	2318.25
414.482	2267.25
414.705	2275.25
414.928	2236.25
415.151	2251.25
415.374	2211.25
415.597	2273.25
415.821	2316.25
416.044	2370.25
416.267	2420.25
416.49	2186.25
416.713	2166.25
416.936	2197.25
417.159	2329.25
417.382	2311.25
417.605	2161.25
417.828	2275.25
418.051	2318.25
418.274	2235.25
418.497	2193.25
418.72	2137.25
418.943	2165.25
419.166	2306.25
419.389	2441.25
419.611	2294.25
419.834	2204.25
420.057	2272.25
420.28	2169.25
420.503	2154.25
420.726	2246.25
420.948	2216.25
421.171	2162.25
421.394	2194.25
421.617	2247.25
421.839	2237.25
422.062	2173.25
422.285	2165.25
422.507	2161.25
422.73	2102.25
422.953	2058.25
423.175	2092.25
423.398	2144.25
423.621	2164.25
423.843	2168.25
424.066	2250.25
424.288	2239.25
424.511	2320.25
424.733	2281.25
424.956	2072.25
425.178	2065.25
425.401	2076.25
425.623	2100.25
425.846	2054.25
426.068	2154.25
426.291	2261.25
426.513	2214.25
426.735	2177.25
426.958	2258.25
427.18	2491.25
427.402	2229.25
427.625	2328.25
427.847	2318.25
428.069	2166.25
428.292	2123.25
428.514	2082.25
428.736	2034.25
428.958	2069.25
429.181	2114.25
429.403	2358.25
429.625	2936.25
429.847	2563.25
430.069	2191.25
430.292	2334.25
430.514	2445.25
430.736	2257.25
430.958	2382.25
431.18	2282.25
431.402	2127.25
431.624	2070.25
431.846	2094.25
432.068	2096.25
432.29	2068.25
432.512	2120.25
432.734	2180.25
432.956	2216.25
433.178	2251.25
433.4	2279.25
433.622	2250.25
433.844	2180.25
434.066	2056.25
434.287	2101.25
434.509	2140.25
434.731	2259.25
434.953	2403.25
435.175	2398.25
435.397	2191.25
435.618	2170.25
435.84	2219.25
436.062	2197.25
436.284	2176.25
436.505	2209.25
436.727	2228.25
436.949	2108.25
437.17	2135.25
437.392	2133.25
437.614	2109.25
437.835	2068.25
438.057	2175.25
438.278	2318.25
438.5	2124.25
438.721	2094.25
438.943	2141.25
439.165	2078.25
439.386	2057.25
439.608	2072.25
439.829	2076.25
440.05	2110.25
440.272	2042.25
440.493	2066.25
440.715	2086.25
440.936	2197.25
441.158	2439.25
441.379	2405.25
441.6	2310.25
441.822	2264.25
442.043	2247.25
442.264	2209.25
442.486	2094.25
442.707	2031.25
442.928	2030.25
443.149	2171.25
443.371	2277.25
443.592	2345.25
443.813	2258.25
444.034	2251.25
444.255	2314.25
444.476	2350.25
444.698	2400.25
444.919	2369.25
445.14	2462.25
445.361	2432.25
445.582	2500.25
445.803	2418.25
446.024	2294.25
446.245	2391.25
446.466	2308.25
446.687	2207.25
446.908	2162.25
447.129	2096.25
447.35	2155.25
447.571	2138.25
447.792	2053.25
448.013	1982.25
448.234	2080.25
448.455	2170.25
448.675	2182.25
448.896	2007.25
449.117	1961.25
449.338	2056.25
449.559	2110.25
449.779	2226.25
450	2460.25
450.221	2686.25
450.442	2553.25
450.662	2195.25
450.883	1994.25
451.104	1962.25
451.324	2013.25
451.545	2043.25
451.766	2052.25
451.986	1980.25
452.207	1945.25
452.428	1896.25
452.648	1846.25
452.869	1947.25
453.089	2047.25
453.31	2060.25
453.53	2101.25
453.751	2055.25
453.971	1876.25
454.192	1922.25
454.412	2084.25
454.633	1973.25
454.853	1937.25
455.073	1808.25
455.294	1806.25
455.514	1818.25
455.734	1824.25
455.955	1850.25
456.175	1889.25
456.395	1890.25
456.616	1918.25
456.836	1989.25
457.056	1910.25
457.276	1896.25
457.497	1867.25
457.717	1811.25
457.937	1833.25
458.157	1910.25
458.377	1870.25
458.598	1869.25
458.818	1913.25
459.038	2020.25
459.258	2147.25
459.478	2109.25
459.698	2050.25
459.918	2113.25
460.138	2167.25
460.358	2226.25
460.578	2217.25
460.798	2308.25
461.018	2459.25
461.238	2331.25
461.458	2249.25
461.678	2256.25
461.898	2207.25
462.118	2164.25
462.338	2244.25
462.558	2271.25
462.777	2234.25
462.997	2329.25
463.217	2480.25
463.437	2472.25
463.657	2298.25
463.876	2230.25
464.096	2219.25
464.316	2234.25
464.536	2338.25
464.755	2344.25
464.975	2430.25
465.195	2271.25
465.414	2374.25
465.634	2384.25
465.854	2239.25
466.073	2354.25
466.293	2328.25
466.512	2112.25
466.732	2037.25
466.951	2096.25
467.171	2097.25
467.391	2042.25
467.61	1973.25
467.829	1940.25
468.049	2147.25
468.268	2417.25
468.488	2273.25
468.707	2175.25
468.927	2119.25
469.146	2080.25
469.365	1987.25
469.585	2041.25
469.804	2027.25
470.023	2016.25
470.243	2067.25
470.462	2032.25
470.681	1966.25
470.901	2071.25
471.12	2064.25
471.339	2042.25
471.558	1994.25
471.777	1974.25
471.997	2006.25
472.216	2013.25
472.435	1923.25
472.654	1943.25
472.873	2109.25
473.092	2173.25
473.311	2077.25
473.53	1974.25
473.749	1942.25
473.968	2019.25
474.187	2119.25
474.406	2207.25
474.625	2118.25
474.844	2026.25
475.063	2078.25
475.282	2123.25
475.501	2076.25
475.72	2088.25
475.939	2184.25
476.158	2094.25
476.377	2060.25
476.596	2102.25
476.814	2175.25
477.033	2115.25
477.252	2243.25
477.471	2278.25
477.69	2162.25
477.908	2174.25
478.127	2270.25
478.346	2416.25
478.564	2505.25
478.783	2425.25
479.002	2499.25
479.22	2462.25
479.439	2507.25
479.658	2888.25
479.876	2878.25
480.095	2520.25
480.313	2370.25
480.532	2270.25
480.751	2316.25
480.969	2397.25
481.188	2286.25
481.406	2293.25
481.624	2250.25
481.843	2258.25
482.061	2316.25
482.28	2363.25
482.498	2429.25
482.717	2370.25
482.935	2282.25
483.153	2263.25
483.372	2283.25
483.59	2255.25
483.808	2267.25
484.027	2342.25
484.245	2437.25
484.463	2809.25
484.681	3280.25
484.9	2546.25
485.118	2346.25
485.336	2318.25
485.554	2424.25
485.772	2576.25
485.99	2444.25
486.209	2483.25
486.427	2445.25
486.645	2458.25
486.863	2439.25
487.081	2430.25
487.299	2567.25
487.517	2513.25
487.735	2398.25
487.953	2380.25
488.171	2307.25
488.389	2380.25
488.607	2358.25
488.825	2620.25
489.043	2637.25
489.261	2360.25
489.479	2523.25
489.696	2576.25
489.914	2558.25
490.132	2491.25
490.35	2414.25
490.568	2543.25
490.786	2397.25
491.003	2268.25
491.221	2411.25
491.439	2508.25
491.657	2480.25
491.874	2457.25
492.092	2470.25
492.31	2507.25
492.527	2452.25
492.745	2459.25
492.963	2444.25
493.18	2490.25
493.398	2721.25
493.615	2770.25
493.833	2538.25
494.05	2481.25
494.268	2481.25
494.485	2581.25
494.703	2496.25
494.92	2457.25
495.138	2454.25
495.355	2514.25
495.573	2618.25
495.79	2764.25
496.008	2763.25
496.225	2592.25
496.442	2632.25
496.66	2684.25
496.877	2606.25
497.094	2744.25
497.312	2727.25
497.529	2684.25
497.746	2768.25
497.963	3243.25
498.181	3638.25
498.398	3352.25
498.615	3282.25
498.832	3184.25
499.049	3169.25
499.267	3170.25
499.484	3385.25
499.701	3622.25
499.918	3636.25
500.135	3952.25
500.352	4275.25
500.569	4231.25
500.786	4434.25
501.003	4219.25
501.22	3799.25
501.437	3758.25
501.654	3654.25
501.871	3611.25
502.088	3176.25
502.305	3148.25
502.522	3082.25
502.739	2838.25
502.956	2760.25
503.172	2773.25
503.389	2691.25
503.606	2639.25
503.823	2666.25
504.04	2667.25
504.256	2652.25
504.473	2631.25
504.69	2734.25
504.907	2594.25
505.123	2521.25
505.34	2617.25
505.557	3270.25
505.773	2852.25
505.99	2409.25
506.207	2277.25
506.423	2283.25
506.64	2205.25
506.856	2269.25
507.073	2518.25
507.289	2736.25
507.506	2705.25
507.722	2257.25
507.939	2209.25
508.155	2199.25
508.372	2225.25
508.588	2148.25
508.805	2093.25
509.021	2050.25
509.238	2043.25
509.454	2052.25
509.67	2055.25
509.887	2031.25
510.103	1998.25
510.319	2048.25
510.536	2159.25
510.752	2206.25
510.968	2180.25
511.184	2333.25
511.401	2324.25
511.617	2001.25
511.833	1984.25
512.049	1979.25
512.265	1940.25
512.481	1973.25
512.698	2063.25
512.914	2185.25
513.13	2116.25
513.346	1998.25
513.562	2004.25
513.778	2006.25
513.994	2076.25
514.21	2171.25
514.426	2150.25
514.642	2393.25
514.858	2261.25
515.074	2015.25
515.29	2032.25
515.506	2053.25
515.721	2066.25
515.937	2105.25
516.153	2439.25
516.369	2308.25
516.585	2165.25
516.801	2072.25
517.016	2082.25
517.232	2174.25
517.448	2185.25
517.664	2200.25
517.879	2219.25
518.095	2328.25
518.311	2241.25
518.527	2111.25
518.742	2036.25
518.958	2019.25
519.173	1977.25
519.389	2078.25
519.605	2064.25
519.82	2084.25
520.036	2078.25
520.251	2026.25
520.467	2036.25
520.682	2151.25
520.898	2286.25
521.113	1991.25
521.329	1966.25
521.544	2168.25
521.76	2040.25
521.975	1971.25
522.19	1900.25
522.406	1930.25
522.621	2252.25
522.836	2330.25
523.052	1891.25
523.267	1885.25
523.482	1956.25
523.698	1802.25
523.913	1824.25
524.128	1857.25
524.343	1916.25
524.559	1972.25
524.774	1846.25
524.989	1815.25
525.204	1811.25
525.419	1826.25
525.634	1782.25
525.849	1825.25
526.064	1844.25
526.28	1841.25
526.495	1753.25
526.71	1802.25
526.925	1778.25
527.14	1751.25
527.355	1750.25
527.57	1720.25
527.785	1802.25
527.999	1749.25
528.214	1706.25
528.429	1697.25
528.644	1645.25
528.859	1735.25
529.074	1678.25
529.289	1739.25
529.503	1749.25
529.718	1769.25
529.933	1738.25
530.148	1691.25
530.363	1694.25
530.577	1753.25
530.792	1739.25
531.007	1753.25
531.221	1732.25
531.436	1749.25
531.651	1814.25
531.865	1912.25
532.08	1812.25
532.295	1673.25
532.509	1640.25
532.724	1705.25
532.938	1744.25
533.153	1834.25
533.367	1766.25
533.582	1743.25
533.796	1691.25
534.011	1739.25
534.225	1705.25
534.44	1706.25
534.654	1658.25
534.868	1675.25
535.083	1748.25
535.297	1760.25
535.511	1699.25
535.726	1690.25
535.94	1689.25
536.154	1680.25
536.369	1663.25
536.583	1692.25
536.797	1625.25
537.011	1687.25
537.225	1608.25
537.44	1592.25
537.654	1688.25
537.868	1630.25
538.082	1522.25
538.296	1555.25
538.51	1595.25
538.724	1590.25
538.938	1524.25
539.153	1642.25
539.367	1595.25
539.581	1616.25
539.795	1702.25
540.009	1682.25
540.222	1634.25
540.436	1656.25
540.65	1780.25
540.864	1808.25
541.078	1710.25
541.292	1620.25
541.506	1584.25
541.72	1615.25
541.934	1626.25
542.147	1641.25
542.361	1623.25
542.575	1552.25
542.789	1514.25
543.002	1515.25
543.216	1558.25
543.43	1640.25
543.644	1685.25
543.857	1747.25
544.071	1684.25
544.285	1614.25
544.498	1603.25
544.712	1633.25
544.925	1640.25
545.139	1663.25
545.352	1566.25
545.566	1500.25
545.779	1519.25
545.993	1576.25
546.206	1582.25
546.42	1519.25
546.633	1483.25
546.847	1497.25
547.06	1530.25
547.274	1513.25
547.487	1522.25
547.7	1538.25
547.914	1540.25
548.127	1566.25
548.34	1569.25
548.554	1552.25
548.767	1536.25
548.98	1535.25
549.193	1523.25
549.407	1573.25
549.62	1603.25
549.833	1530.25
550.046	1505.25
550.259	1502.25
550.473	1501.25
550.686	1522.25
550.899	1462.25
551.112	1463.25
551.325	1428.25
551.538	1511.25
551.751	1788.25
551.964	1470.25
552.177	1421.25
552.39	1426.25
552.603	1490.25
552.816	1492.25
553.029	1545.25
553.242	1618.25
553.455	1523.25
553.667	1549.25
553.88	1486.25
554.093	1482.25
554.306	1428.25
554.519	1432.25
554.732	1423.25
554.944	1417.25
555.157	1437.25
555.37	1428.25
555.583	1416.25
555.795	1396.25
556.008	1340.25
556.221	1351.25
556.433	1311.25
556.646	1306.25
556.859	1333.25
557.071	1291.25
557.284	1267.25
557.496	1306.25
557.709	1266.25
557.921	1282.25
558.134	1269.25
558.346	1234.25
558.559	1260.25
558.771	1278.25
558.984	1239.25
559.196	1217.25
559.409	1222.25
559.621	1224.25
559.833	1220.25
560.046	1250.25
560.258	1268.25
560.47	1251.25
560.683	1228.25
560.895	1201.25
561.107	1266.25
561.32	1248.25
561.532	1247.25
561.744	1229.25
561.956	1272.25
562.168	1224.25
562.381	1160.25
562.593	1217.25
562.805	1202.25
563.017	1202.25
563.229	1224.25
563.441	1247.25
563.653	1232.25
563.865	1217.25
564.077	1225.25
564.289	1215.25
564.501	1239.25
564.713	1259.25
564.925	1324.25
565.137	1404.25
565.349	1303.25
565.561	1285.25
565.773	1324.25
565.985	1290.25
566.197	1385.25
566.408	1474.25
566.62	1474.25
566.832	1474.25
567.044	1472.25
567.255	1491.25
567.467	1486.25
567.679	1538.25
567.891	1578.25
568.102	1556.25
568.314	1486.25
568.526	1406.25
568.737	1362.25
568.949	1278.25
569.161	1234.25
569.372	1206.25
569.584	1168.25
569.795	1209.25
570.007	1176.25
570.218	1119.25
570.43	1123.25
570.641	1114.25
570.853	1115.25
571.064	1140.25
571.276	1088.25
571.487	1092.25
571.698	1066.25
571.91	1031.25
572.121	1034.25
572.333	1002.25
572.544	1036.25
572.755	1006.25
572.966	995.25
573.178	976.25
573.389	967.25
573.6	1018.25
573.811	1127.25
574.023	995.25
574.234	964.25
574.445	943.25
574.656	920.25
574.867	914.25
575.078	948.25
575.289	914.25
575.501	914.25
575.712	923.25
575.923	937.25
576.134	945.25
576.345	916.25
576.556	891.25
576.767	888.25
576.978	884.25
577.188	883.25
577.399	882.25
577.61	891.25
577.821	867.25
578.032	826.25
578.243	887.25
578.454	858.25
578.665	830.25
578.875	805.25
579.086	836.25
579.297	838.25
579.508	901.25
579.718	845.25
579.929	842.25
580.14	824.25
580.35	823.25
580.561	854.25
580.772	934.25
580.982	873.25
581.193	825.25
581.403	793.25
581.614	795.25
581.825	793.25
582.035	785.25
582.246	798.25
582.456	819.25
582.667	827.25
582.877	807.25
583.087	788.25
583.298	780.25
583.508	786.25
583.719	776.25
583.929	794.25
584.139	792.25
584.35	774.25
584.56	736.25
584.77	755.25
584.981	778.25
585.191	806.25
585.401	796.25
585.611	772.25
585.821	776.25
586.032	768.25
586.242	739.25
586.452	734.25
586.662	753.25
586.872	768.25
587.082	750.25
587.292	779.25
587.502	775.25
587.713	790.25
587.923	761.25
588.133	718.25
588.343	748.25
588.553	729.25
588.762	743.25
588.972	756.25
589.182	776.25
589.392	738.25
589.602	760.25
589.812	772.25
590.022	722.25
590.232	727.25
590.441	740.25
590.651	745.25
590.861	747.25
591.071	719.25
591.281	719.25
591.49	739.25
591.7	730.25
591.91	730.25
592.119	738.25
592.329	743.25
592.539	775.25
592.748	757.25
592.958	776.25
593.167	780.25
593.377	789.25
593.587	795.25
593.796	784.25
594.006	779.25
594.215	778.25
594.424	763.25
594.634	751.25
594.843	764.25
595.053	750.25
595.262	744.25
595.472	736.25
595.681	724.25
595.89	729.25
596.1	713.25
596.309	740.25
596.518	702.25
596.727	710.25
596.937	688.25
597.146	649.25
597.355	662.25
597.564	670.25
597.774	652.25
597.983	626.25
598.192	611.25
598.401	639.25
598.61	629.25
598.819	652.25
599.028	623.25
599.237	618.25
599.446	635.25
599.655	618.25
599.864	622.25
600.073	601.25
600.282	608.25
600.491	596.25
600.7	587.25
600.909	596.25
601.118	609.25
601.327	608.25
601.536	619.25
601.745	601.25
601.953	589.25
602.162	601.25
602.371	618.25
602.58	613.25
602.789	586.25
602.997	595.25
603.206	600.25
603.415	579.25
603.623	602.25
603.832	567.25
604.041	585.25
604.249	578.25
604.458	587.25
604.666	573.25
604.875	577.25
605.084	581.25
605.292	596.25
605.501	547.25
605.709	573.25
605.918	547.25
606.126	549.25
606.334	547.25
606.543	532.25
606.751	532.25
606.96	561.25
607.168	575.25
607.376	555.25
607.585	560.25
607.793	558.25
608.001	561.25
608.21	568.25
608.418	562.25
608.626	531.25
608.834	534.25
609.043	558.25
609.251	555.25
609.459	532.25
609.667	550.25
609.875	528.25
610.083	559.25
610.291	547.25
610.499	569.25
610.707	551.25
610.916	524.25
611.124	538.25
611.332	528.25
611.54	517.25
611.748	533.25
611.955	521.25
612.163	501.25
612.371	530.25
612.579	522.25
612.787	534.25
612.995	536.25
613.203	529.25
613.411	516.25
613.618	538.25
613.826	517.25
614.034	498.25
614.242	520.25
614.449	502.25
614.657	519.25
614.865	498.25
615.072	512.25
615.28	502.25
615.488	523.25
615.695	555.25
615.903	548.25
616.111	513.25
616.318	526.25
616.526	496.25
616.733	513.25
616.941	496.25
617.148	523.25
617.356	495.25
617.563	499.25
617.771	500.25
617.978	495.25
618.185	484.25
618.393	490.25
618.6	515.25
618.807	488.25
619.015	496.25
619.222	475.25
619.429	487.25
619.637	486.25
619.844	474.25
620.051	487.25
620.258	478.25
620.466	476.25
620.673	446.25
620.88	471.25
621.087	450.25
621.294	442.25
621.501	475.25
621.708	478.25
621.915	463.25
622.122	472.25
622.329	476.25
622.536	472.25
622.743	444.25
622.95	451.25
623.157	448.25
623.364	442.25
623.571	466.25
623.778	463.25
623.985	444.25
624.192	478.25
624.399	459.25
624.606	449.25
624.812	441.25
625.019	431.25
625.226	457.25
625.433	440.25
625.639	446.25
625.846	434.25
626.053	416.25
626.259	430.25
626.466	414.25
626.673	392.25
626.879	397.25
627.086	406.25
627.293	419.25
627.499	406.25
627.706	402.25
627.912	412.25
628.119	395.25
628.325	419.25
628.532	407.25
628.738	428.25
628.945	412.25
629.151	403.25
629.357	437.25
629.564	412.25
629.77	373.25
629.976	388.25
630.183	425.25
630.389	406.25
630.595	394.25
630.802	370.25
631.008	377.25
631.214	376.25
631.42	381.25
631.627	376.25
631.833	380.25
632.039	373.25
632.245	376.25
632.451	376.25
632.657	367.25
632.863	377.25
633.069	363.25
633.275	387.25
633.481	369.25
633.688	341.25
633.893	361.25
634.099	344.25
634.305	344.25
634.511	346.25
634.717	370.25
634.923	349.25
635.129	344.25
635.335	356.25
635.541	372.25
635.747	370.25
635.952	355.25
636.158	352.25
636.364	363.25
636.57	364.25
636.775	358.25
636.981	341.25
637.187	353.25
637.392	330.25
637.598	342.25
637.804	340.25
638.009	356.25
638.215	344.25
638.421	332.25
638.626	327.25
638.832	347.25
639.037	341.25
639.243	329.25
639.448	343.25
639.654	336.25
639.859	337.25
640.065	340.25
640.27	340.25
640.475	323.25
640.681	320.25
640.886	335.25
641.091	331.25
641.297	325.25
641.502	335.25
641.707	349.25
641.913	340.25
642.118	324.25
642.323	315.25
642.528	315.25
642.733	316.25
642.939	311.25
643.144	308.25
643.349	336.25
643.554	327.25
643.759	335.25
643.964	317.25
644.169	299.25
644.374	304.25
644.579	310.25
644.784	315.25
644.989	310.25
645.194	318.25
645.399	319.25
645.604	302.25
645.809	315.25
646.014	302.25
646.219	310.25
646.423	322.25
646.628	314.25
646.833	322.25
647.038	309.25
647.243	324.25
647.447	326.25
647.652	327.25
647.857	322.25
648.062	308.25
648.266	314.25
648.471	324.25
648.676	316.25
648.88	307.25
649.085	293.25
649.289	303.25
649.494	307.25
649.698	291.25
649.903	297.25
650.107	309.25
650.312	307.25
650.516	288.25
650.721	297.25
650.925	294.25
651.13	278.25
651.334	267.25
651.539	262.25
651.743	280.25
651.947	266.25
652.152	270.25
652.356	250.25
652.56	265.25
652.764	254.25
652.969	255.25
653.173	252.25
653.377	263.25
653.581	256.25
653.785	231.25
653.99	244.25
654.194	243.25
654.398	228.25
654.602	250.25
654.806	241.25
655.01	240.25
655.214	243.25
655.418	234.25
655.622	243.25
655.826	256.25
656.03	245.25
656.234	258.25
656.438	265.25
656.642	264.25
656.846	262.25
657.049	237.25
657.253	227.25
657.457	204.25
657.661	192.25
657.865	195.25
658.068	186.25
658.272	153.25
658.476	176.25
658.68	169.25
658.883	150.25
659.087	138.25
659.291	150.25
659.494	132.25
659.698	139.25
659.901	128.25
660.105	137.25
660.309	121.25
660.512	111.25
660.716	113.25
660.919	114.25
661.123	114.25
661.326	104.25
661.53	102.25
661.733	100.25
661.936	95.25
662.14	101.25
662.343	98.25
662.546	100.25
662.75	82.25
662.953	89.25
663.156	95.25
663.36	90.25
663.563	67.25
663.766	80.25
663.969	92.25
664.173	91.25
664.376	81.25
664.579	87.25
664.782	93.25
664.985	75.25
665.188	76.25
665.391	83.25
665.594	76.25
665.797	75.25
666	91.25
666.203	87.25
666.406	87.25
666.609	84.25
666.812	84.25
667.015	78.25
667.218	84.25
667.421	78.25
667.624	93.25
667.827	74.25
668.03	64.25
668.232	79.25
668.435	82.25
668.638	75.25
668.841	78.25
669.043	84.25
669.246	80.25
669.449	93.25
669.651	82.25
669.854	82.25
670.057	88.25
670.259	92.25
670.462	79.25
670.665	88.25
670.867	96.25
671.07	76.25
671.272	91.25
671.475	89.25
671.677	80.25
671.88	71.25
672.082	78.25
672.284	81.25
672.487	71.25
672.689	84.25
672.892	91.25
