Data from WStandard_LampEnergy10_LIBS07252019.E.O._I.C._HRD10591_15-53-13-928.txt Node
Date: Thu Jul 25 15:53:13 EDT 2019
User: cochatt
Spectrometer: HR+D1059
Trigger mode: 1
Integration Time (sec): 1.000000E-1
Scans to average: 1
Electric dark correction enabled: true
Nonlinearity correction enabled: false
Boxcar width: 0
XAxis mode: Wavelengths
Number of Pixels in Spectrum: 2048
>>>>>Begin Spectral Data<<<<<
223.165	-19.31
223.4	-19.31
223.635	-19.31
223.869	-11.31
224.104	-16.31
224.338	-5.31
224.573	0.69
224.808	-23.31
225.042	-14.31
225.277	-3.31
225.511	-9.31
225.746	-6.31
225.98	9.69
226.215	30.69
226.449	0.69
226.683	13.69
226.918	24.69
227.152	28.69
227.387	41.69
227.621	37.69
227.856	40.69
228.09	39.69
228.324	43.69
228.559	68.69
228.793	91.69
229.027	129.69
229.262	133.69
229.496	150.69
229.73	157.69
229.964	176.69
230.199	175.69
230.433	180.69
230.667	182.69
230.901	192.69
231.136	193.69
231.37	176.69
231.604	184.69
231.838	188.69
232.072	184.69
232.306	178.69
232.541	189.69
232.775	193.69
233.009	200.69
233.243	208.69
233.477	194.69
233.711	197.69
233.945	202.69
234.179	193.69
234.413	195.69
234.647	201.69
234.881	196.69
235.115	198.69
235.349	183.69
235.583	193.69
235.817	206.69
236.051	182.69
236.285	196.69
236.519	209.69
236.753	219.69
236.987	223.69
237.221	223.69
237.455	235.69
237.689	227.69
237.922	214.69
238.156	202.69
238.39	245.69
238.624	230.69
238.858	246.69
239.091	254.69
239.325	267.69
239.559	286.69
239.793	287.69
240.027	303.69
240.26	312.69
240.494	246.69
240.728	219.69
240.961	258.69
241.195	259.69
241.429	280.69
241.662	269.69
241.896	260.69
242.13	233.69
242.363	262.69
242.597	284.69
242.83	274.69
243.064	263.69
243.298	284.69
243.531	286.69
243.765	277.69
243.998	297.69
244.232	264.69
244.465	238.69
244.699	290.69
244.932	290.69
245.166	303.69
245.399	287.69
245.633	290.69
245.866	283.69
246.099	300.69
246.333	311.69
246.566	322.69
246.8	316.69
247.033	348.69
247.266	324.69
247.5	330.69
247.733	328.69
247.966	367.69
248.2	365.69
248.433	352.69
248.666	359.69
248.899	393.69
249.133	455.69
249.366	473.69
249.599	407.69
249.832	363.69
250.066	383.69
250.299	394.69
250.532	349.69
250.765	327.69
250.998	338.69
251.231	342.69
251.465	363.69
251.698	354.69
251.931	364.69
252.164	352.69
252.397	378.69
252.63	352.69
252.863	302.69
253.096	328.69
253.329	346.69
253.562	364.69
253.795	371.69
254.028	370.69
254.261	347.69
254.494	361.69
254.727	329.69
254.96	361.69
255.193	367.69
255.426	416.69
255.659	447.69
255.892	451.69
256.124	410.69
256.357	399.69
256.59	423.69
256.823	406.69
257.056	448.69
257.289	494.69
257.521	507.69
257.754	488.69
257.987	479.69
258.22	474.69
258.452	466.69
258.685	401.69
258.918	377.69
259.151	404.69
259.383	380.69
259.616	361.69
259.849	370.69
260.081	410.69
260.314	450.69
260.547	445.69
260.779	474.69
261.012	424.69
261.244	407.69
261.477	408.69
261.71	427.69
261.942	404.69
262.175	384.69
262.407	409.69
262.64	404.69
262.872	367.69
263.105	370.69
263.337	364.69
263.57	379.69
263.802	365.69
264.035	364.69
264.267	356.69
264.499	350.69
264.732	375.69
264.964	404.69
265.197	416.69
265.429	431.69
265.661	472.69
265.894	500.69
266.126	502.69
266.358	479.69
266.591	474.69
266.823	483.69
267.055	463.69
267.287	459.69
267.52	434.69
267.752	466.69
267.984	455.69
268.216	476.69
268.448	482.69
268.681	448.69
268.913	415.69
269.145	419.69
269.377	411.69
269.609	454.69
269.841	511.69
270.073	592.69
270.306	639.69
270.538	618.69
270.77	518.69
271.002	498.69
271.234	478.69
271.466	476.69
271.698	549.69
271.93	627.69
272.162	604.69
272.394	557.69
272.626	500.69
272.858	464.69
273.09	426.69
273.322	430.69
273.553	408.69
273.785	420.69
274.017	429.69
274.249	465.69
274.481	444.69
274.713	420.69
274.945	430.69
275.176	408.69
275.408	402.69
275.64	408.69
275.872	415.69
276.104	448.69
276.335	493.69
276.567	526.69
276.799	547.69
277.031	505.69
277.262	491.69
277.494	517.69
277.726	545.69
277.957	503.69
278.189	470.69
278.421	436.69
278.652	438.69
278.884	427.69
279.115	430.69
279.347	460.69
279.579	439.69
279.81	462.69
280.042	474.69
280.273	522.69
280.505	513.69
280.736	505.69
280.968	480.69
281.199	436.69
281.431	422.69
281.662	415.69
281.894	437.69
282.125	428.69
282.356	444.69
282.588	453.69
282.819	476.69
283.051	505.69
283.282	526.69
283.513	506.69
283.745	462.69
283.976	438.69
284.207	439.69
284.439	434.69
284.67	457.69
284.901	479.69
285.132	457.69
285.364	459.69
285.595	475.69
285.826	464.69
286.057	471.69
286.288	448.69
286.52	494.69
286.751	483.69
286.982	502.69
287.213	464.69
287.444	431.69
287.675	449.69
287.906	470.69
288.138	510.69
288.369	471.69
288.6	450.69
288.831	453.69
289.062	455.69
289.293	465.69
289.524	463.69
289.755	490.69
289.986	486.69
290.217	450.69
290.448	456.69
290.679	470.69
290.91	502.69
291.141	480.69
291.371	485.69
291.602	484.69
291.833	471.69
292.064	492.69
292.295	496.69
292.526	516.69
292.757	514.69
292.987	493.69
293.218	492.69
293.449	537.69
293.68	564.69
293.91	592.69
294.141	563.69
294.372	545.69
294.603	546.69
294.833	579.69
295.064	549.69
295.295	513.69
295.525	498.69
295.756	464.69
295.987	449.69
296.217	458.69
296.448	470.69
296.679	466.69
296.909	475.69
297.14	462.69
297.37	486.69
297.601	522.69
297.831	550.69
298.062	532.69
298.292	500.69
298.523	477.69
298.753	491.69
298.984	475.69
299.214	459.69
299.445	497.69
299.675	491.69
299.905	506.69
300.136	471.69
300.366	476.69
300.597	463.69
300.827	470.69
301.057	508.69
301.288	526.69
301.518	513.69
301.748	540.69
301.979	571.69
302.209	552.69
302.439	586.69
302.669	602.69
302.9	577.69
303.13	534.69
303.36	526.69
303.59	525.69
303.82	512.69
304.051	533.69
304.281	517.69
304.511	525.69
304.741	590.69
304.971	617.69
305.201	623.69
305.431	567.69
305.661	468.69
305.891	479.69
306.121	469.69
306.352	494.69
306.582	510.69
306.812	548.69
307.042	569.69
307.272	587.69
307.502	606.69
307.731	656.69
307.961	644.69
308.191	594.69
308.421	542.69
308.651	520.69
308.881	500.69
309.111	506.69
309.341	503.69
309.571	508.69
309.8	506.69
310.03	524.69
310.26	502.69
310.49	505.69
310.72	536.69
310.949	529.69
311.179	540.69
311.409	523.69
311.639	505.69
311.868	502.69
312.098	531.69
312.328	509.69
312.557	518.69
312.787	528.69
313.017	531.69
313.246	524.69
313.476	535.69
313.706	531.69
313.935	536.69
314.165	568.69
314.394	549.69
314.624	603.69
314.853	622.69
315.083	630.69
315.312	620.69
315.542	578.69
315.771	558.69
316.001	572.69
316.23	579.69
316.46	589.69
316.689	569.69
316.919	550.69
317.148	514.69
317.377	551.69
317.607	596.69
317.836	626.69
318.065	636.69
318.295	622.69
318.524	593.69
318.753	560.69
318.983	576.69
319.212	574.69
319.441	537.69
319.67	562.69
319.9	592.69
320.129	618.69
320.358	605.69
320.587	628.69
320.816	606.69
321.046	580.69
321.275	586.69
321.504	607.69
321.733	640.69
321.962	602.69
322.191	568.69
322.42	546.69
322.649	579.69
322.878	572.69
323.108	569.69
323.337	570.69
323.566	572.69
323.795	569.69
324.024	570.69
324.253	581.69
324.482	568.69
324.71	540.69
324.939	543.69
325.168	564.69
325.397	572.69
325.626	577.69
325.855	574.69
326.084	578.69
326.313	588.69
326.542	585.69
326.77	594.69
326.999	608.69
327.228	533.69
327.457	528.69
327.686	546.69
327.914	556.69
328.143	549.69
328.372	565.69
328.6	564.69
328.829	574.69
329.058	543.69
329.287	547.69
329.515	595.69
329.744	577.69
329.972	629.69
330.201	611.69
330.43	602.69
330.658	602.69
330.887	602.69
331.115	622.69
331.344	606.69
331.572	612.69
331.801	578.69
332.03	616.69
332.258	605.69
332.486	607.69
332.715	607.69
332.943	612.69
333.172	615.69
333.4	634.69
333.629	608.69
333.857	678.69
334.085	772.69
334.314	810.69
334.542	858.69
334.771	774.69
334.999	690.69
335.227	680.69
335.455	629.69
335.684	642.69
335.912	656.69
336.14	660.69
336.369	628.69
336.597	624.69
336.825	628.69
337.053	635.69
337.281	678.69
337.51	711.69
337.738	699.69
337.966	668.69
338.194	614.69
338.422	615.69
338.65	591.69
338.878	593.69
339.106	572.69
339.334	576.69
339.562	575.69
339.79	608.69
340.018	651.69
340.246	634.69
340.474	638.69
340.702	627.69
340.93	652.69
341.158	628.69
341.386	611.69
341.614	608.69
341.842	605.69
342.07	611.69
342.298	610.69
342.526	592.69
342.754	591.69
342.981	624.69
343.209	580.69
343.437	565.69
343.665	594.69
343.893	622.69
344.12	637.69
344.348	638.69
344.576	626.69
344.804	596.69
345.031	585.69
345.259	588.69
345.487	566.69
345.714	558.69
345.942	572.69
346.17	582.69
346.397	576.69
346.625	578.69
346.853	528.69
347.08	566.69
347.308	552.69
347.535	570.69
347.763	593.69
347.99	587.69
348.218	568.69
348.445	581.69
348.673	574.69
348.9	601.69
349.128	590.69
349.355	610.69
349.583	606.69
349.81	568.69
350.037	529.69
350.265	538.69
350.492	552.69
350.72	550.69
350.947	563.69
351.174	573.69
351.402	557.69
351.629	549.69
351.856	534.69
352.083	548.69
352.311	545.69
352.538	559.69
352.765	570.69
352.992	596.69
353.22	574.69
353.447	558.69
353.674	567.69
353.901	584.69
354.128	572.69
354.355	572.69
354.583	594.69
354.81	605.69
355.037	580.69
355.264	566.69
355.491	576.69
355.718	582.69
355.945	581.69
356.172	556.69
356.399	536.69
356.626	550.69
356.853	619.69
357.08	662.69
357.307	670.69
357.534	648.69
357.761	572.69
357.988	568.69
358.215	555.69
358.441	554.69
358.668	547.69
358.895	567.69
359.122	616.69
359.349	642.69
359.576	604.69
359.802	541.69
360.029	566.69
360.256	551.69
360.483	568.69
360.709	606.69
360.936	628.69
361.163	638.69
361.39	703.69
361.616	743.69
361.843	724.69
362.07	654.69
362.296	586.69
362.523	578.69
362.749	571.69
362.976	582.69
363.203	580.69
363.429	572.69
363.656	586.69
363.882	604.69
364.109	675.69
364.335	653.69
364.562	627.69
364.788	606.69
365.015	598.69
365.241	598.69
365.468	578.69
365.694	624.69
365.92	625.69
366.147	601.69
366.373	582.69
366.599	575.69
366.826	569.69
367.052	583.69
367.278	580.69
367.505	596.69
367.731	622.69
367.957	626.69
368.184	642.69
368.41	685.69
368.636	673.69
368.862	688.69
369.089	682.69
369.315	636.69
369.541	608.69
369.767	606.69
369.993	592.69
370.219	578.69
370.445	612.69
370.672	679.69
370.898	675.69
371.124	696.69
371.35	652.69
371.576	664.69
371.802	663.69
372.028	633.69
372.254	606.69
372.48	602.69
372.706	582.69
372.932	605.69
373.158	618.69
373.384	622.69
373.61	661.69
373.835	682.69
374.061	627.69
374.287	626.69
374.513	630.69
374.739	647.69
374.965	630.69
375.191	642.69
375.416	657.69
375.642	680.69
375.868	716.69
376.094	700.69
376.319	667.69
376.545	662.69
376.771	683.69
376.997	695.69
377.222	678.69
377.448	662.69
377.674	654.69
377.899	694.69
378.125	703.69
378.35	728.69
378.576	651.69
378.802	613.69
379.027	642.69
379.253	633.69
379.478	664.69
379.704	638.69
379.929	633.69
380.155	646.69
380.38	686.69
380.606	674.69
380.831	669.69
381.057	721.69
381.282	708.69
381.507	700.69
381.733	738.69
381.958	748.69
382.184	712.69
382.409	681.69
382.634	699.69
382.86	676.69
383.085	670.69
383.31	742.69
383.535	766.69
383.761	826.69
383.986	752.69
384.211	750.69
384.436	748.69
384.662	793.69
384.887	750.69
385.112	720.69
385.337	732.69
385.562	736.69
385.787	765.69
386.013	779.69
386.238	759.69
386.463	758.69
386.688	829.69
386.913	876.69
387.138	839.69
387.363	805.69
387.588	772.69
387.813	776.69
388.038	771.69
388.263	808.69
388.488	771.69
388.713	736.69
388.938	728.69
389.163	755.69
389.387	776.69
389.612	766.69
389.837	774.69
390.062	781.69
390.287	776.69
390.512	772.69
390.736	760.69
390.961	733.69
391.186	724.69
391.411	752.69
391.636	770.69
391.86	752.69
392.085	768.69
392.31	729.69
392.534	751.69
392.759	782.69
392.984	786.69
393.208	801.69
393.433	811.69
393.658	825.69
393.882	829.69
394.107	786.69
394.331	782.69
394.556	782.69
394.78	795.69
395.005	802.69
395.229	845.69
395.454	890.69
395.678	873.69
395.903	840.69
396.127	827.69
396.352	829.69
396.576	854.69
396.801	839.69
397.025	863.69
397.249	845.69
397.474	843.69
397.698	820.69
397.922	854.69
398.147	887.69
398.371	940.69
398.595	939.69
398.82	894.69
399.044	905.69
399.268	935.69
399.492	1007.69
399.717	1006.69
399.941	1003.69
400.165	980.69
400.389	976.69
400.613	990.69
400.837	1112.69
401.062	1151.69
401.286	1014.69
401.51	997.69
401.734	952.69
401.958	928.69
402.182	899.69
402.406	900.69
402.63	885.69
402.854	878.69
403.078	902.69
403.302	934.69
403.526	907.69
403.75	952.69
403.974	962.69
404.198	952.69
404.422	988.69
404.645	1040.69
404.869	992.69
405.093	953.69
405.317	927.69
405.541	921.69
405.765	946.69
405.988	934.69
406.212	959.69
406.436	984.69
406.66	1002.69
406.883	1045.69
407.107	1172.69
407.331	1223.69
407.555	1306.69
407.778	1152.69
408.002	1003.69
408.226	1002.69
408.449	994.69
408.673	989.69
408.896	965.69
409.12	976.69
409.344	977.69
409.567	942.69
409.791	961.69
410.014	991.69
410.238	1040.69
410.461	1084.69
410.685	958.69
410.908	921.69
411.132	979.69
411.355	940.69
411.578	938.69
411.802	978.69
412.025	984.69
412.249	925.69
412.472	907.69
412.695	949.69
412.919	906.69
413.142	934.69
413.365	925.69
413.589	962.69
413.812	1013.69
414.035	1046.69
414.258	927.69
414.482	915.69
414.705	918.69
414.928	912.69
415.151	912.69
415.374	931.69
415.597	924.69
415.821	955.69
416.044	936.69
416.267	950.69
416.49	917.69
416.713	922.69
416.936	956.69
417.159	1006.69
417.382	988.69
417.605	926.69
417.828	953.69
418.051	959.69
418.274	945.69
418.497	946.69
418.72	953.69
418.943	934.69
419.166	975.69
419.389	983.69
419.611	960.69
419.834	926.69
420.057	951.69
420.28	940.69
420.503	959.69
420.726	936.69
420.948	967.69
421.171	928.69
421.394	965.69
421.617	980.69
421.839	988.69
422.062	1015.69
422.285	919.69
422.507	964.69
422.73	896.69
422.953	914.69
423.175	928.69
423.398	932.69
423.621	924.69
423.843	950.69
424.066	987.69
424.288	1034.69
424.511	1038.69
424.733	1033.69
424.956	932.69
425.178	929.69
425.401	930.69
425.623	975.69
425.846	952.69
426.068	992.69
426.291	970.69
426.513	964.69
426.735	986.69
426.958	1050.69
427.18	1098.69
427.402	1023.69
427.625	1036.69
427.847	1040.69
428.069	941.69
428.292	924.69
428.514	912.69
428.736	926.69
428.958	913.69
429.181	959.69
429.403	1076.69
429.625	1240.69
429.847	1050.69
430.069	980.69
430.292	1047.69
430.514	1041.69
430.736	992.69
430.958	975.69
431.18	931.69
431.402	902.69
431.624	875.69
431.846	813.69
432.068	748.69
432.29	759.69
432.512	786.69
432.734	874.69
432.956	938.69
433.178	982.69
433.4	972.69
433.622	976.69
433.844	949.69
434.066	867.69
434.287	823.69
434.509	758.69
434.731	840.69
434.953	917.69
435.175	936.69
435.397	914.69
435.618	896.69
435.84	841.69
436.062	863.69
436.284	909.69
436.505	926.69
436.727	958.69
436.949	921.69
437.17	907.69
437.392	920.69
437.614	882.69
437.835	826.69
438.057	843.69
438.278	849.69
438.5	850.69
438.721	901.69
438.943	942.69
439.165	928.69
439.386	941.69
439.608	956.69
439.829	977.69
440.05	961.69
440.272	951.69
440.493	976.69
440.715	1015.69
440.936	1008.69
441.158	1069.69
441.379	1042.69
441.6	1059.69
441.822	1068.69
442.043	1036.69
442.264	981.69
442.486	954.69
442.707	969.69
442.928	961.69
443.149	994.69
443.371	1005.69
443.592	1031.69
443.813	1021.69
444.034	1035.69
444.255	1030.69
444.476	1030.69
444.698	1056.69
444.919	1042.69
445.14	1183.69
445.361	1113.69
445.582	1113.69
445.803	1078.69
446.024	1046.69
446.245	1108.69
446.466	1070.69
446.687	1058.69
446.908	1084.69
447.129	1044.69
447.35	1035.69
447.571	1023.69
447.792	995.69
448.013	971.69
448.234	974.69
448.455	999.69
448.675	989.69
448.896	936.69
449.117	936.69
449.338	936.69
449.559	969.69
449.779	990.69
450	1018.69
450.221	1045.69
450.442	1024.69
450.662	963.69
450.883	901.69
451.104	893.69
451.324	886.69
451.545	914.69
451.766	876.69
451.986	834.69
452.207	831.69
452.428	813.69
452.648	814.69
452.869	781.69
453.089	784.69
453.31	811.69
453.53	792.69
453.751	744.69
453.971	717.69
454.192	752.69
454.412	782.69
454.633	792.69
454.853	809.69
455.073	764.69
455.294	782.69
455.514	798.69
455.734	757.69
455.955	779.69
456.175	750.69
456.395	758.69
456.616	761.69
456.836	759.69
457.056	751.69
457.276	728.69
457.497	687.69
457.717	701.69
457.937	717.69
458.157	743.69
458.377	708.69
458.598	681.69
458.818	678.69
459.038	696.69
459.258	721.69
459.478	708.69
459.698	739.69
459.918	791.69
460.138	826.69
460.358	844.69
460.578	837.69
460.798	875.69
461.018	924.69
461.238	896.69
461.458	862.69
461.678	856.69
461.898	829.69
462.118	796.69
462.338	863.69
462.558	876.69
462.777	861.69
462.997	907.69
463.217	918.69
463.437	884.69
463.657	859.69
463.876	838.69
464.096	851.69
464.316	840.69
464.536	895.69
464.755	893.69
464.975	903.69
465.195	892.69
465.414	910.69
465.634	893.69
465.854	894.69
466.073	997.69
466.293	968.69
466.512	860.69
466.732	890.69
466.951	937.69
467.171	911.69
467.391	904.69
467.61	895.69
467.829	922.69
468.049	1009.69
468.268	1083.69
468.488	968.69
468.707	934.69
468.927	931.69
469.146	919.69
469.365	935.69
469.585	942.69
469.804	914.69
470.023	931.69
470.243	952.69
470.462	971.69
470.681	961.69
470.901	952.69
471.12	936.69
471.339	953.69
471.558	941.69
471.777	943.69
471.997	909.69
472.216	854.69
472.435	780.69
472.654	814.69
472.873	797.69
473.092	871.69
473.311	842.69
473.53	817.69
473.749	816.69
473.968	870.69
474.187	872.69
474.406	863.69
474.625	872.69
474.844	879.69
475.063	866.69
475.282	872.69
475.501	833.69
475.72	841.69
475.939	933.69
476.158	910.69
476.377	885.69
476.596	823.69
476.814	806.69
477.033	850.69
477.252	852.69
477.471	906.69
477.69	934.69
477.908	960.69
478.127	1019.69
478.346	998.69
478.564	1024.69
478.783	1021.69
479.002	1058.69
479.22	1038.69
479.439	1024.69
479.658	1044.69
479.876	1007.69
480.095	914.69
480.313	918.69
480.532	916.69
480.751	883.69
480.969	834.69
481.188	810.69
481.406	796.69
481.624	750.69
481.843	794.69
482.061	814.69
482.28	876.69
482.498	924.69
482.717	874.69
482.935	900.69
483.153	1011.69
483.372	1052.69
483.59	1063.69
483.808	1007.69
484.027	961.69
484.245	982.69
484.463	1214.69
484.681	1301.69
484.9	1053.69
485.118	968.69
485.336	943.69
485.554	912.69
485.772	925.69
485.99	885.69
486.209	898.69
486.427	900.69
486.645	955.69
486.863	1004.69
487.081	1064.69
487.299	1040.69
487.517	1023.69
487.735	1092.69
487.953	1220.69
488.171	1188.69
488.389	1163.69
488.607	1096.69
488.825	1140.69
489.043	1079.69
489.261	994.69
489.479	1060.69
489.696	1069.69
489.914	1046.69
490.132	1088.69
490.35	1099.69
490.568	1188.69
490.786	1187.69
491.003	1203.69
491.221	1300.69
491.439	1345.69
491.657	1366.69
491.874	1374.69
492.092	1472.69
492.31	1517.69
492.527	1467.69
492.745	1342.69
492.963	1351.69
493.18	1382.69
493.398	1380.69
493.615	1343.69
493.833	1288.69
494.05	1280.69
494.268	1245.69
494.485	1267.69
494.703	1303.69
494.92	1262.69
495.138	1242.69
495.355	1273.69
495.573	1262.69
495.79	1312.69
496.008	1296.69
496.225	1264.69
496.442	1261.69
496.66	1235.69
496.877	1231.69
497.094	1251.69
497.312	1260.69
497.529	1219.69
497.746	1202.69
497.963	1302.69
498.181	1317.69
498.398	1292.69
498.615	1231.69
498.832	1198.69
499.049	1172.69
499.267	1192.69
499.484	1267.69
499.701	1358.69
499.918	1411.69
500.135	1474.69
500.352	1591.69
500.569	1584.69
500.786	1700.69
501.003	1592.69
501.22	1454.69
501.437	1447.69
501.654	1415.69
501.871	1370.69
502.088	1216.69
502.305	1199.69
502.522	1148.69
502.739	1110.69
502.956	1078.69
503.172	1048.69
503.389	1040.69
503.606	1008.69
503.823	1035.69
504.04	1052.69
504.256	1028.69
504.473	1013.69
504.69	1044.69
504.907	1020.69
505.123	970.69
505.34	1054.69
505.557	1405.69
505.773	1129.69
505.99	972.69
506.207	913.69
506.423	891.69
506.64	907.69
506.856	937.69
507.073	1065.69
507.289	1078.69
507.506	1062.69
507.722	925.69
507.939	902.69
508.155	887.69
508.372	856.69
508.588	830.69
508.805	807.69
509.021	825.69
509.238	810.69
509.454	776.69
509.67	783.69
509.887	745.69
510.103	745.69
510.319	754.69
510.536	781.69
510.752	785.69
510.968	758.69
511.184	798.69
511.401	808.69
511.617	712.69
511.833	728.69
512.049	709.69
512.265	752.69
512.481	748.69
512.698	756.69
512.914	783.69
513.13	766.69
513.346	727.69
513.562	730.69
513.778	745.69
513.994	754.69
514.21	756.69
514.426	799.69
514.642	796.69
514.858	788.69
515.074	724.69
515.29	716.69
515.506	736.69
515.721	735.69
515.937	758.69
516.153	816.69
516.369	782.69
516.585	757.69
516.801	751.69
517.016	708.69
517.232	744.69
517.448	808.69
517.664	800.69
517.879	811.69
518.095	838.69
518.311	797.69
518.527	769.69
518.742	742.69
518.958	754.69
519.173	800.69
519.389	793.69
519.605	815.69
519.82	802.69
520.036	797.69
520.251	771.69
520.467	780.69
520.682	832.69
520.898	794.69
521.113	727.69
521.329	733.69
521.544	762.69
521.76	758.69
521.975	735.69
522.19	757.69
522.406	756.69
522.621	934.69
522.836	867.69
523.052	737.69
523.267	749.69
523.482	751.69
523.698	764.69
523.913	761.69
524.128	757.69
524.343	835.69
524.559	852.69
524.774	778.69
524.989	779.69
525.204	785.69
525.419	740.69
525.634	751.69
525.849	743.69
526.064	723.69
526.28	728.69
526.495	698.69
526.71	647.69
526.925	649.69
527.14	666.69
527.355	627.69
527.57	651.69
527.785	665.69
527.999	651.69
528.214	686.69
528.429	693.69
528.644	733.69
528.859	801.69
529.074	861.69
529.289	886.69
529.503	879.69
529.718	804.69
529.933	743.69
530.148	686.69
530.363	648.69
530.577	642.69
530.792	626.69
531.007	627.69
531.221	627.69
531.436	644.69
531.651	640.69
531.865	698.69
532.08	654.69
532.295	646.69
532.509	628.69
532.724	628.69
532.938	671.69
533.153	732.69
533.367	723.69
533.582	741.69
533.796	764.69
534.011	726.69
534.225	656.69
534.44	652.69
534.654	654.69
534.868	651.69
535.083	685.69
535.297	721.69
535.511	668.69
535.726	692.69
535.94	672.69
536.154	674.69
536.369	646.69
536.583	614.69
536.797	633.69
537.011	640.69
537.225	617.69
537.44	620.69
537.654	694.69
537.868	637.69
538.082	607.69
538.296	606.69
538.51	667.69
538.724	672.69
538.938	731.69
539.153	744.69
539.367	744.69
539.581	720.69
539.795	697.69
540.009	658.69
540.222	658.69
540.436	683.69
540.65	759.69
540.864	826.69
541.078	843.69
541.292	871.69
541.506	906.69
541.72	968.69
541.934	1041.69
542.147	1088.69
542.361	1016.69
542.575	939.69
542.789	866.69
543.002	790.69
543.216	750.69
543.43	781.69
543.644	803.69
543.857	877.69
544.071	931.69
544.285	968.69
544.498	951.69
544.712	944.69
544.925	968.69
545.139	950.69
545.352	971.69
545.566	955.69
545.779	933.69
545.993	954.69
546.206	998.69
546.42	942.69
546.633	955.69
546.847	909.69
547.06	966.69
547.274	1010.69
547.487	996.69
547.7	1008.69
547.914	999.69
548.127	965.69
548.34	959.69
548.554	936.69
548.767	932.69
548.98	974.69
549.193	935.69
549.407	986.69
549.62	993.69
549.833	951.69
550.046	902.69
550.259	926.69
550.473	906.69
550.686	937.69
550.899	867.69
551.112	854.69
551.325	843.69
551.538	861.69
551.751	848.69
551.964	718.69
552.177	759.69
552.39	798.69
552.603	875.69
552.816	882.69
553.029	918.69
553.242	939.69
553.455	938.69
553.667	934.69
553.88	940.69
554.093	901.69
554.306	847.69
554.519	864.69
554.732	866.69
554.944	828.69
555.157	814.69
555.37	821.69
555.583	822.69
555.795	801.69
556.008	754.69
556.221	722.69
556.433	762.69
556.646	754.69
556.859	742.69
557.071	770.69
557.284	773.69
557.496	755.69
557.709	770.69
557.921	767.69
558.134	752.69
558.346	745.69
558.559	743.69
558.771	724.69
558.984	727.69
559.196	704.69
559.409	690.69
559.621	697.69
559.833	671.69
560.046	694.69
560.258	711.69
560.47	678.69
560.683	674.69
560.895	702.69
561.107	700.69
561.32	699.69
561.532	719.69
561.744	692.69
561.956	705.69
562.168	686.69
562.381	674.69
562.593	646.69
562.805	636.69
563.017	649.69
563.229	654.69
563.441	666.69
563.653	640.69
563.865	639.69
564.077	639.69
564.289	636.69
564.501	629.69
564.713	651.69
564.925	652.69
565.137	661.69
565.349	658.69
565.561	630.69
565.773	626.69
565.985	623.69
566.197	666.69
566.408	701.69
566.62	700.69
566.832	712.69
567.044	724.69
567.255	683.69
567.467	690.69
567.679	678.69
567.891	682.69
568.102	631.69
568.314	584.69
568.526	547.69
568.737	534.69
568.949	516.69
569.161	486.69
569.372	454.69
569.584	455.69
569.795	447.69
570.007	467.69
570.218	442.69
570.43	447.69
570.641	454.69
570.853	471.69
571.064	484.69
571.276	495.69
571.487	494.69
571.698	470.69
571.91	504.69
572.121	460.69
572.333	474.69
572.544	448.69
572.755	419.69
572.966	419.69
573.178	412.69
573.389	408.69
573.6	407.69
573.811	445.69
574.023	419.69
574.234	416.69
574.445	402.69
574.656	414.69
574.867	373.69
575.078	392.69
575.289	426.69
575.501	403.69
575.712	389.69
575.923	399.69
576.134	419.69
576.345	392.69
576.556	423.69
576.767	400.69
576.978	410.69
577.188	395.69
577.399	357.69
577.61	367.69
577.821	362.69
578.032	373.69
578.243	361.69
578.454	384.69
578.665	372.69
578.875	335.69
579.086	331.69
579.297	346.69
579.508	365.69
579.718	371.69
579.929	359.69
580.14	350.69
580.35	349.69
580.561	374.69
580.772	381.69
580.982	378.69
581.193	358.69
581.403	360.69
581.614	343.69
581.825	349.69
582.035	367.69
582.246	347.69
582.456	365.69
582.667	362.69
582.877	337.69
583.087	333.69
583.298	332.69
583.508	351.69
583.719	345.69
583.929	320.69
584.139	328.69
584.35	322.69
584.56	313.69
584.77	327.69
584.981	327.69
585.191	333.69
585.401	363.69
585.611	361.69
585.821	333.69
586.032	326.69
586.242	318.69
586.452	317.69
586.662	335.69
586.872	319.69
587.082	303.69
587.292	316.69
587.502	349.69
587.713	346.69
587.923	340.69
588.133	315.69
588.343	324.69
588.553	316.69
588.762	328.69
588.972	323.69
589.182	341.69
589.392	321.69
589.602	311.69
589.812	344.69
590.022	331.69
590.232	313.69
590.441	327.69
590.651	323.69
590.861	319.69
591.071	324.69
591.281	313.69
591.49	309.69
591.7	302.69
591.91	322.69
592.119	322.69
592.329	339.69
592.539	312.69
592.748	320.69
592.958	330.69
593.167	332.69
593.377	327.69
593.587	323.69
593.796	343.69
594.006	335.69
594.215	335.69
594.424	326.69
594.634	348.69
594.843	346.69
595.053	358.69
595.262	340.69
595.472	325.69
595.681	325.69
595.89	318.69
596.1	308.69
596.309	308.69
596.518	334.69
596.727	354.69
596.937	324.69
597.146	333.69
597.355	346.69
597.564	317.69
597.774	310.69
597.983	295.69
598.192	287.69
598.401	307.69
598.61	314.69
598.819	304.69
599.028	303.69
599.237	303.69
599.446	300.69
599.655	317.69
599.864	310.69
600.073	295.69
600.282	316.69
600.491	299.69
600.7	294.69
600.909	308.69
601.118	332.69
601.327	338.69
601.536	343.69
601.745	353.69
601.953	355.69
602.162	356.69
602.371	371.69
602.58	363.69
602.789	348.69
602.997	364.69
603.206	350.69
603.415	356.69
603.623	338.69
603.832	358.69
604.041	347.69
604.249	323.69
604.458	316.69
604.666	327.69
604.875	326.69
605.084	331.69
605.292	335.69
605.501	361.69
605.709	369.69
605.918	356.69
606.126	372.69
606.334	366.69
606.543	356.69
606.751	371.69
606.96	348.69
607.168	347.69
607.376	346.69
607.585	377.69
607.793	352.69
608.001	354.69
608.21	366.69
608.418	391.69
608.626	383.69
608.834	380.69
609.043	365.69
609.251	364.69
609.459	352.69
609.667	391.69
609.875	355.69
610.083	388.69
610.291	365.69
610.499	378.69
610.707	366.69
610.916	354.69
611.124	370.69
611.332	372.69
611.54	397.69
611.748	364.69
611.955	373.69
612.163	357.69
612.371	359.69
612.579	366.69
612.787	374.69
612.995	383.69
613.203	379.69
613.411	359.69
613.618	360.69
613.826	365.69
614.034	378.69
614.242	365.69
614.449	354.69
614.657	382.69
614.865	363.69
615.072	356.69
615.28	371.69
615.488	376.69
615.695	372.69
615.903	363.69
616.111	360.69
616.318	381.69
616.526	376.69
616.733	352.69
616.941	360.69
617.148	366.69
617.356	340.69
617.563	367.69
617.771	346.69
617.978	320.69
618.185	359.69
618.393	354.69
618.6	335.69
618.807	348.69
619.015	361.69
619.222	324.69
619.429	343.69
619.637	334.69
619.844	302.69
620.051	289.69
620.258	333.69
620.466	333.69
620.673	328.69
620.88	324.69
621.087	319.69
621.294	336.69
621.501	295.69
621.708	310.69
621.915	333.69
622.122	343.69
622.329	321.69
622.536	345.69
622.743	338.69
622.95	326.69
623.157	318.69
623.364	336.69
623.571	349.69
623.778	326.69
623.985	318.69
624.192	324.69
624.399	324.69
624.606	325.69
624.812	313.69
625.019	304.69
625.226	298.69
625.433	290.69
625.639	306.69
625.846	264.69
626.053	235.69
626.259	258.69
626.466	251.69
626.673	246.69
626.879	232.69
627.086	238.69
627.293	252.69
627.499	290.69
627.706	303.69
627.912	320.69
628.119	282.69
628.325	296.69
628.532	298.69
628.738	287.69
628.945	280.69
629.151	274.69
629.357	287.69
629.564	285.69
629.77	282.69
629.976	268.69
630.183	248.69
630.389	273.69
630.595	288.69
630.802	290.69
631.008	280.69
631.214	280.69
631.42	279.69
631.627	275.69
631.833	260.69
632.039	265.69
632.245	272.69
632.451	260.69
632.657	263.69
632.863	274.69
633.069	278.69
633.275	271.69
633.481	274.69
633.688	265.69
633.893	251.69
634.099	238.69
634.305	244.69
634.511	256.69
634.717	249.69
634.923	246.69
635.129	245.69
635.335	251.69
635.541	249.69
635.747	255.69
635.952	258.69
636.158	274.69
636.364	283.69
636.57	271.69
636.775	266.69
636.981	257.69
637.187	266.69
637.392	255.69
637.598	259.69
637.804	270.69
638.009	244.69
638.215	255.69
638.421	269.69
638.626	270.69
638.832	265.69
639.037	260.69
639.243	254.69
639.448	260.69
639.654	245.69
639.859	244.69
640.065	257.69
640.27	258.69
640.475	230.69
640.681	245.69
640.886	262.69
641.091	245.69
641.297	257.69
641.502	259.69
641.707	259.69
641.913	263.69
642.118	251.69
642.323	249.69
642.528	257.69
642.733	233.69
642.939	237.69
643.144	235.69
643.349	254.69
643.554	252.69
643.759	251.69
643.964	255.69
644.169	246.69
644.374	244.69
644.579	237.69
644.784	244.69
644.989	240.69
645.194	245.69
645.399	227.69
645.604	228.69
645.809	255.69
646.014	249.69
646.219	234.69
646.423	246.69
646.628	233.69
646.833	250.69
647.038	255.69
647.243	256.69
647.447	243.69
647.652	244.69
647.857	232.69
648.062	240.69
648.266	238.69
648.471	259.69
648.676	239.69
648.88	236.69
649.085	249.69
649.289	243.69
649.494	251.69
649.698	247.69
649.903	207.69
650.107	212.69
650.312	240.69
650.516	234.69
650.721	229.69
650.925	229.69
651.13	230.69
651.334	224.69
651.539	214.69
651.743	232.69
651.947	223.69
652.152	223.69
652.356	226.69
652.56	215.69
652.764	219.69
652.969	218.69
653.173	200.69
653.377	204.69
653.581	200.69
653.785	224.69
653.99	214.69
654.194	227.69
654.398	222.69
654.602	217.69
654.806	212.69
655.01	214.69
655.214	208.69
655.418	204.69
655.622	215.69
655.826	224.69
656.03	218.69
656.234	220.69
656.438	229.69
656.642	224.69
656.846	211.69
657.049	216.69
657.253	196.69
657.457	188.69
657.661	182.69
657.865	188.69
658.068	170.69
658.272	184.69
658.476	162.69
658.68	146.69
658.883	153.69
659.087	144.69
659.291	148.69
659.494	139.69
659.698	147.69
659.901	128.69
660.105	126.69
660.309	129.69
660.512	123.69
660.716	134.69
660.919	126.69
661.123	107.69
661.326	112.69
661.53	116.69
661.733	122.69
661.936	111.69
662.14	97.69
662.343	96.69
662.546	88.69
662.75	114.69
662.953	103.69
663.156	99.69
663.36	90.69
663.563	105.69
663.766	91.69
663.969	88.69
664.173	97.69
664.376	96.69
664.579	82.69
664.782	94.69
664.985	90.69
665.188	82.69
665.391	90.69
665.594	95.69
665.797	84.69
666	78.69
666.203	90.69
666.406	84.69
666.609	87.69
666.812	82.69
667.015	90.69
667.218	94.69
667.421	78.69
667.624	87.69
667.827	91.69
668.03	76.69
668.232	95.69
668.435	84.69
668.638	91.69
668.841	100.69
669.043	82.69
669.246	86.69
669.449	80.69
669.651	83.69
669.854	78.69
670.057	98.69
670.259	81.69
670.462	78.69
670.665	74.69
670.867	75.69
671.07	87.69
671.272	107.69
671.475	83.69
671.677	91.69
671.88	71.69
672.082	89.69
672.284	82.69
672.487	86.69
672.689	94.69
672.892	98.69
