Data from WStandard_LampEnergy8_LIBS07252019.E.O._I.C._HRD10591_15-58-05-929.txt Node
Date: Thu Jul 25 15:58:05 EDT 2019
User: cochatt
Spectrometer: HR+D1059
Trigger mode: 1
Integration Time (sec): 1.000000E-1
Scans to average: 1
Electric dark correction enabled: true
Nonlinearity correction enabled: false
Boxcar width: 0
XAxis mode: Wavelengths
Number of Pixels in Spectrum: 2048
>>>>>Begin Spectral Data<<<<<
223.165	-21.88
223.4	-21.88
223.635	-21.88
223.869	-29.88
224.104	-10.88
224.338	-3.88
224.573	-15.88
224.808	-2.88
225.042	-16.88
225.277	-2.88
225.511	-5.88
225.746	5.12
225.98	4.12
226.215	28.12
226.449	21.12
226.683	22.12
226.918	9.12
227.152	21.12
227.387	43.12
227.621	50.12
227.856	31.12
228.09	43.12
228.324	60.12
228.559	56.12
228.793	102.12
229.027	205.12
229.262	225.12
229.496	226.12
229.73	235.12
229.964	247.12
230.199	267.12
230.433	267.12
230.667	283.12
230.901	306.12
231.136	271.12
231.37	272.12
231.604	277.12
231.838	273.12
232.072	286.12
232.306	260.12
232.541	283.12
232.775	317.12
233.009	320.12
233.243	311.12
233.477	302.12
233.711	292.12
233.945	309.12
234.179	311.12
234.413	320.12
234.647	343.12
234.881	322.12
235.115	317.12
235.349	295.12
235.583	322.12
235.817	326.12
236.051	310.12
236.285	338.12
236.519	323.12
236.753	362.12
236.987	358.12
237.221	367.12
237.455	371.12
237.689	370.12
237.922	358.12
238.156	355.12
238.39	382.12
238.624	388.12
238.858	381.12
239.091	415.12
239.325	427.12
239.559	490.12
239.793	509.12
240.027	550.12
240.26	504.12
240.494	409.12
240.728	396.12
240.961	405.12
241.195	416.12
241.429	426.12
241.662	438.12
241.896	424.12
242.13	427.12
242.363	460.12
242.597	470.12
242.83	457.12
243.064	476.12
243.298	480.12
243.531	472.12
243.765	467.12
243.998	489.12
244.232	439.12
244.465	409.12
244.699	413.12
244.932	477.12
245.166	536.12
245.399	472.12
245.633	475.12
245.866	450.12
246.099	491.12
246.333	499.12
246.566	528.12
246.8	570.12
247.033	613.12
247.266	535.12
247.5	559.12
247.733	542.12
247.966	559.12
248.2	599.12
248.433	617.12
248.666	620.12
248.899	679.12
249.133	751.12
249.366	844.12
249.599	714.12
249.832	642.12
250.066	656.12
250.299	643.12
250.532	630.12
250.765	595.12
250.998	602.12
251.231	596.12
251.465	606.12
251.698	592.12
251.931	589.12
252.164	620.12
252.397	619.12
252.63	635.12
252.863	562.12
253.096	550.12
253.329	588.12
253.562	585.12
253.795	640.12
254.028	633.12
254.261	591.12
254.494	592.12
254.727	581.12
254.96	619.12
255.193	657.12
255.426	739.12
255.659	823.12
255.892	828.12
256.124	699.12
256.357	674.12
256.59	714.12
256.823	716.12
257.056	745.12
257.289	867.12
257.521	910.12
257.754	819.12
257.987	831.12
258.22	863.12
258.452	827.12
258.685	696.12
258.918	682.12
259.151	685.12
259.383	663.12
259.616	605.12
259.849	637.12
260.081	738.12
260.314	791.12
260.547	850.12
260.779	854.12
261.012	789.12
261.244	721.12
261.477	679.12
261.71	694.12
261.942	712.12
262.175	682.12
262.407	722.12
262.64	686.12
262.872	650.12
263.105	638.12
263.337	649.12
263.57	654.12
263.802	650.12
264.035	619.12
264.267	592.12
264.499	607.12
264.732	636.12
264.964	679.12
265.197	670.12
265.429	717.12
265.661	788.12
265.894	860.12
266.126	915.12
266.358	790.12
266.591	841.12
266.823	890.12
267.055	800.12
267.287	781.12
267.52	783.12
267.752	792.12
267.984	783.12
268.216	836.12
268.448	862.12
268.681	840.12
268.913	740.12
269.145	722.12
269.377	708.12
269.609	787.12
269.841	932.12
270.073	1024.12
270.306	1172.12
270.538	1158.12
270.77	995.12
271.002	881.12
271.234	842.12
271.466	831.12
271.698	958.12
271.93	1078.12
272.162	1081.12
272.394	973.12
272.626	904.12
272.858	836.12
273.09	725.12
273.322	737.12
273.553	697.12
273.785	728.12
274.017	728.12
274.249	778.12
274.481	786.12
274.713	744.12
274.945	710.12
275.176	719.12
275.408	690.12
275.64	711.12
275.872	704.12
276.104	788.12
276.335	870.12
276.567	964.12
276.799	961.12
277.031	838.12
277.262	841.12
277.494	832.12
277.726	915.12
277.957	926.12
278.189	818.12
278.421	778.12
278.652	755.12
278.884	737.12
279.115	755.12
279.347	740.12
279.579	766.12
279.81	764.12
280.042	856.12
280.273	896.12
280.505	878.12
280.736	908.12
280.968	862.12
281.199	760.12
281.431	734.12
281.662	725.12
281.894	765.12
282.125	776.12
282.356	786.12
282.588	782.12
282.819	790.12
283.051	866.12
283.282	903.12
283.513	856.12
283.745	774.12
283.976	725.12
284.207	744.12
284.439	785.12
284.67	778.12
284.901	802.12
285.132	785.12
285.364	760.12
285.595	768.12
285.826	798.12
286.057	787.12
286.288	764.12
286.52	821.12
286.751	857.12
286.982	911.12
287.213	812.12
287.444	738.12
287.675	745.12
287.906	804.12
288.138	865.12
288.369	824.12
288.6	786.12
288.831	756.12
289.062	774.12
289.293	783.12
289.524	782.12
289.755	817.12
289.986	784.12
290.217	772.12
290.448	765.12
290.679	789.12
290.91	810.12
291.141	809.12
291.371	835.12
291.602	857.12
291.833	825.12
292.064	860.12
292.295	834.12
292.526	861.12
292.757	890.12
292.987	850.12
293.218	804.12
293.449	892.12
293.68	985.12
293.91	1042.12
294.141	960.12
294.372	912.12
294.603	968.12
294.833	980.12
295.064	952.12
295.295	865.12
295.525	819.12
295.756	773.12
295.987	745.12
296.217	774.12
296.448	783.12
296.679	778.12
296.909	808.12
297.14	800.12
297.37	815.12
297.601	871.12
297.831	892.12
298.062	906.12
298.292	798.12
298.523	780.12
298.753	846.12
298.984	819.12
299.214	829.12
299.445	862.12
299.675	863.12
299.905	862.12
300.136	818.12
300.366	797.12
300.597	763.12
300.827	792.12
301.057	830.12
301.288	860.12
301.518	886.12
301.748	888.12
301.979	938.12
302.209	948.12
302.439	1038.12
302.669	1043.12
302.9	943.12
303.13	890.12
303.36	878.12
303.59	892.12
303.82	890.12
304.051	883.12
304.281	910.12
304.511	912.12
304.741	975.12
304.971	1057.12
305.201	1079.12
305.431	978.12
305.661	813.12
305.891	790.12
306.121	792.12
306.352	822.12
306.582	869.12
306.812	938.12
307.042	946.12
307.272	980.12
307.502	1009.12
307.731	1091.12
307.961	1118.12
308.191	1018.12
308.421	880.12
308.651	864.12
308.881	846.12
309.111	856.12
309.341	829.12
309.571	861.12
309.8	855.12
310.03	856.12
310.26	816.12
310.49	788.12
310.72	834.12
310.949	900.12
311.179	871.12
311.409	858.12
311.639	852.12
311.868	860.12
312.098	843.12
312.328	877.12
312.557	857.12
312.787	895.12
313.017	883.12
313.246	908.12
313.476	915.12
313.706	925.12
313.935	915.12
314.165	911.12
314.394	965.12
314.624	1018.12
314.853	1077.12
315.083	1076.12
315.312	1072.12
315.542	1003.12
315.771	928.12
316.001	941.12
316.23	964.12
316.46	952.12
316.689	930.12
316.919	887.12
317.148	888.12
317.377	895.12
317.607	991.12
317.836	1110.12
318.065	1106.12
318.295	1061.12
318.524	997.12
318.753	981.12
318.983	979.12
319.212	983.12
319.441	931.12
319.67	960.12
319.9	943.12
320.129	1022.12
320.358	1060.12
320.587	1046.12
320.816	1079.12
321.046	1020.12
321.275	964.12
321.504	1018.12
321.733	1068.12
321.962	1021.12
322.191	959.12
322.42	941.12
322.649	941.12
322.878	966.12
323.108	934.12
323.337	959.12
323.566	962.12
323.795	990.12
324.024	974.12
324.253	929.12
324.482	938.12
324.71	920.12
324.939	884.12
325.168	922.12
325.397	928.12
325.626	958.12
325.855	947.12
326.084	942.12
326.313	975.12
326.542	962.12
326.77	974.12
326.999	988.12
327.228	951.12
327.457	894.12
327.686	885.12
327.914	925.12
328.143	960.12
328.372	928.12
328.6	919.12
328.829	924.12
329.058	935.12
329.287	934.12
329.515	971.12
329.744	955.12
329.972	1001.12
330.201	1054.12
330.43	1056.12
330.658	1003.12
330.887	979.12
331.115	984.12
331.344	1010.12
331.572	1010.12
331.801	967.12
332.03	1016.12
332.258	1018.12
332.486	1036.12
332.715	1046.12
332.943	1015.12
333.172	986.12
333.4	994.12
333.629	1045.12
333.857	1130.12
334.085	1247.12
334.314	1402.12
334.542	1482.12
334.771	1332.12
334.999	1184.12
335.227	1120.12
335.455	1056.12
335.684	1101.12
335.912	1117.12
336.14	1104.12
336.369	1100.12
336.597	1020.12
336.825	1023.12
337.053	1079.12
337.281	1111.12
337.51	1180.12
337.738	1197.12
337.966	1099.12
338.194	1030.12
338.422	1006.12
338.65	1005.12
338.878	989.12
339.106	952.12
339.334	964.12
339.562	954.12
339.79	984.12
340.018	1028.12
340.246	1075.12
340.474	1059.12
340.702	1034.12
340.93	1044.12
341.158	1034.12
341.386	1006.12
341.614	1007.12
341.842	1016.12
342.07	999.12
342.298	1016.12
342.526	987.12
342.754	1010.12
342.981	1001.12
343.209	976.12
343.437	994.12
343.665	1007.12
343.893	1028.12
344.12	1065.12
344.348	1069.12
344.576	980.12
344.804	998.12
345.031	999.12
345.259	1012.12
345.487	950.12
345.714	920.12
345.942	934.12
346.17	932.12
346.397	970.12
346.625	957.12
346.853	906.12
347.08	897.12
347.308	900.12
347.535	935.12
347.763	980.12
347.99	938.12
348.218	910.12
348.445	910.12
348.673	960.12
348.9	981.12
349.128	1026.12
349.355	1024.12
349.583	991.12
349.81	943.12
350.037	874.12
350.265	885.12
350.492	900.12
350.72	917.12
350.947	947.12
351.174	970.12
351.402	900.12
351.629	855.12
351.856	828.12
352.083	877.12
352.311	878.12
352.538	914.12
352.765	934.12
352.992	957.12
353.22	916.12
353.447	893.12
353.674	933.12
353.901	930.12
354.128	942.12
354.355	951.12
354.583	986.12
354.81	996.12
355.037	999.12
355.264	946.12
355.491	925.12
355.718	962.12
355.945	948.12
356.172	949.12
356.399	894.12
356.626	920.12
356.853	959.12
357.08	1048.12
357.307	1158.12
357.534	1083.12
357.761	975.12
357.988	893.12
358.215	900.12
358.441	903.12
358.668	880.12
358.895	896.12
359.122	983.12
359.349	1070.12
359.576	1027.12
359.802	912.12
360.029	916.12
360.256	906.12
360.483	906.12
360.709	981.12
360.936	985.12
361.163	1048.12
361.39	1139.12
361.616	1202.12
361.843	1165.12
362.07	1078.12
362.296	950.12
362.523	923.12
362.749	911.12
362.976	978.12
363.203	956.12
363.429	936.12
363.656	919.12
363.882	986.12
364.109	1078.12
364.335	1127.12
364.562	1032.12
364.788	990.12
365.015	929.12
365.241	912.12
365.468	960.12
365.694	982.12
365.92	1041.12
366.147	984.12
366.373	908.12
366.599	928.12
366.826	909.12
367.052	938.12
367.278	943.12
367.505	928.12
367.731	966.12
367.957	1007.12
368.184	1031.12
368.41	1082.12
368.636	1060.12
368.862	1036.12
369.089	1065.12
369.315	1044.12
369.541	968.12
369.767	956.12
369.993	958.12
370.219	932.12
370.445	978.12
370.672	1055.12
370.898	1064.12
371.124	1085.12
371.35	1033.12
371.576	1074.12
371.802	1045.12
372.028	1015.12
372.254	1007.12
372.48	957.12
372.706	974.12
372.932	967.12
373.158	971.12
373.384	992.12
373.61	1031.12
373.835	1058.12
374.061	1018.12
374.287	969.12
374.513	985.12
374.739	999.12
374.965	1021.12
375.191	1042.12
375.416	1035.12
375.642	1064.12
375.868	1112.12
376.094	1134.12
376.319	1092.12
376.545	984.12
376.771	1059.12
376.997	1114.12
377.222	1041.12
377.448	1040.12
377.674	1038.12
377.899	1084.12
378.125	1109.12
378.35	1076.12
378.576	1019.12
378.802	943.12
379.027	945.12
379.253	987.12
379.478	979.12
379.704	1004.12
379.929	990.12
380.155	1007.12
380.38	1034.12
380.606	1030.12
380.831	1014.12
381.057	1080.12
381.282	1084.12
381.507	1075.12
381.733	1128.12
381.958	1163.12
382.184	1088.12
382.409	1049.12
382.634	1079.12
382.86	1049.12
383.085	1036.12
383.31	1122.12
383.535	1197.12
383.761	1229.12
383.986	1183.12
384.211	1149.12
384.436	1119.12
384.662	1202.12
384.887	1212.12
385.112	1166.12
385.337	1158.12
385.562	1141.12
385.787	1142.12
386.013	1167.12
386.238	1164.12
386.463	1202.12
386.688	1290.12
386.913	1332.12
387.138	1250.12
387.363	1223.12
387.588	1203.12
387.813	1173.12
388.038	1197.12
388.263	1254.12
388.488	1164.12
388.713	1074.12
388.938	1088.12
389.163	1110.12
389.387	1119.12
389.612	1135.12
389.837	1146.12
390.062	1154.12
390.287	1158.12
390.512	1107.12
390.736	1106.12
390.961	1094.12
391.186	1087.12
391.411	1110.12
391.636	1135.12
391.86	1123.12
392.085	1121.12
392.31	1112.12
392.534	1119.12
392.759	1132.12
392.984	1141.12
393.208	1206.12
393.433	1223.12
393.658	1258.12
393.882	1261.12
394.107	1167.12
394.331	1130.12
394.556	1162.12
394.78	1197.12
395.005	1205.12
395.229	1256.12
395.454	1355.12
395.678	1308.12
395.903	1241.12
396.127	1211.12
396.352	1219.12
396.576	1247.12
396.801	1296.12
397.025	1247.12
397.249	1271.12
397.474	1262.12
397.698	1232.12
397.922	1267.12
398.147	1355.12
398.371	1392.12
398.595	1355.12
398.82	1311.12
399.044	1337.12
399.268	1347.12
399.492	1511.12
399.717	1466.12
399.941	1517.12
400.165	1500.12
400.389	1437.12
400.613	1473.12
400.837	1661.12
401.062	1822.12
401.286	1550.12
401.51	1471.12
401.734	1525.12
401.958	1406.12
402.182	1337.12
402.406	1338.12
402.63	1294.12
402.854	1287.12
403.078	1344.12
403.302	1371.12
403.526	1359.12
403.75	1394.12
403.974	1366.12
404.198	1355.12
404.422	1411.12
404.645	1500.12
404.869	1434.12
405.093	1360.12
405.317	1309.12
405.541	1366.12
405.765	1377.12
405.988	1345.12
406.212	1380.12
406.436	1418.12
406.66	1492.12
406.883	1538.12
407.107	1726.12
407.331	1853.12
407.555	1943.12
407.778	1700.12
408.002	1474.12
408.226	1418.12
408.449	1444.12
408.673	1383.12
408.896	1379.12
409.12	1423.12
409.344	1371.12
409.567	1375.12
409.791	1364.12
410.014	1395.12
410.238	1488.12
410.461	1545.12
410.685	1382.12
410.908	1336.12
411.132	1369.12
411.355	1320.12
411.578	1325.12
411.802	1348.12
412.025	1378.12
412.249	1340.12
412.472	1313.12
412.695	1320.12
412.919	1317.12
413.142	1268.12
413.365	1332.12
413.589	1386.12
413.812	1456.12
414.035	1462.12
414.258	1354.12
414.482	1330.12
414.705	1353.12
414.928	1324.12
415.151	1311.12
415.374	1288.12
415.597	1342.12
415.821	1369.12
416.044	1365.12
416.267	1378.12
416.49	1275.12
416.713	1282.12
416.936	1351.12
417.159	1430.12
417.382	1391.12
417.605	1307.12
417.828	1336.12
418.051	1350.12
418.274	1367.12
418.497	1294.12
418.72	1308.12
418.943	1316.12
419.166	1328.12
419.389	1378.12
419.611	1330.12
419.834	1284.12
420.057	1315.12
420.28	1289.12
420.503	1318.12
420.726	1359.12
420.948	1322.12
421.171	1262.12
421.394	1310.12
421.617	1334.12
421.839	1333.12
422.062	1339.12
422.285	1274.12
422.507	1274.12
422.73	1269.12
422.953	1230.12
423.175	1229.12
423.398	1282.12
423.621	1274.12
423.843	1281.12
424.066	1327.12
424.288	1396.12
424.511	1431.12
424.733	1362.12
424.956	1250.12
425.178	1263.12
425.401	1261.12
425.623	1302.12
425.846	1281.12
426.068	1374.12
426.291	1380.12
426.513	1325.12
426.735	1330.12
426.958	1458.12
427.18	1503.12
427.402	1359.12
427.625	1432.12
427.847	1382.12
428.069	1305.12
428.292	1288.12
428.514	1244.12
428.736	1245.12
428.958	1301.12
429.181	1271.12
429.403	1510.12
429.625	1766.12
429.847	1488.12
430.069	1334.12
430.292	1516.12
430.514	1506.12
430.736	1363.12
430.958	1414.12
431.18	1318.12
431.402	1237.12
431.624	1193.12
431.846	1192.12
432.068	1150.12
432.29	1159.12
432.512	1207.12
432.734	1210.12
432.956	1296.12
433.178	1346.12
433.4	1330.12
433.622	1323.12
433.844	1268.12
434.066	1220.12
434.287	1177.12
434.509	1208.12
434.731	1276.12
434.953	1358.12
435.175	1344.12
435.397	1294.12
435.618	1267.12
435.84	1252.12
436.062	1254.12
436.284	1278.12
436.505	1320.12
436.727	1334.12
436.949	1302.12
437.17	1261.12
437.392	1224.12
437.614	1198.12
437.835	1189.12
438.057	1250.12
438.278	1244.12
438.5	1247.12
438.721	1269.12
438.943	1269.12
439.165	1252.12
439.386	1217.12
439.608	1275.12
439.829	1285.12
440.05	1282.12
440.272	1286.12
440.493	1244.12
440.715	1282.12
440.936	1352.12
441.158	1466.12
441.379	1406.12
441.6	1400.12
441.822	1365.12
442.043	1398.12
442.264	1344.12
442.486	1302.12
442.707	1254.12
442.928	1286.12
443.149	1314.12
443.371	1387.12
443.592	1412.12
443.813	1408.12
444.034	1377.12
444.255	1369.12
444.476	1402.12
444.698	1407.12
444.919	1402.12
445.14	1499.12
445.361	1475.12
445.582	1479.12
445.803	1420.12
446.024	1427.12
446.245	1437.12
446.466	1381.12
446.687	1341.12
446.908	1365.12
447.129	1310.12
447.35	1319.12
447.571	1302.12
447.792	1274.12
448.013	1241.12
448.234	1303.12
448.455	1334.12
448.675	1334.12
448.896	1235.12
449.117	1209.12
449.338	1239.12
449.559	1317.12
449.779	1320.12
450	1455.12
450.221	1486.12
450.442	1434.12
450.662	1256.12
450.883	1174.12
451.104	1202.12
451.324	1231.12
451.545	1252.12
451.766	1204.12
451.986	1165.12
452.207	1125.12
452.428	1098.12
452.648	1087.12
452.869	1123.12
453.089	1156.12
453.31	1160.12
453.53	1153.12
453.751	1158.12
453.971	1076.12
454.192	1106.12
454.412	1205.12
454.633	1171.12
454.853	1134.12
455.073	1081.12
455.294	1096.12
455.514	1062.12
455.734	1081.12
455.955	1097.12
456.175	1044.12
456.395	1079.12
456.616	1107.12
456.836	1122.12
457.056	1078.12
457.276	1133.12
457.497	1072.12
457.717	1032.12
457.937	1033.12
458.157	1052.12
458.377	1043.12
458.598	1066.12
458.818	1030.12
459.038	1108.12
459.258	1186.12
459.478	1151.12
459.698	1151.12
459.918	1193.12
460.138	1246.12
460.358	1266.12
460.578	1253.12
460.798	1302.12
461.018	1340.12
461.238	1332.12
461.458	1268.12
461.678	1251.12
461.898	1190.12
462.118	1230.12
462.338	1279.12
462.558	1294.12
462.777	1267.12
462.997	1322.12
463.217	1381.12
463.437	1373.12
463.657	1289.12
463.876	1222.12
464.096	1247.12
464.316	1251.12
464.536	1342.12
464.755	1332.12
464.975	1314.12
465.195	1262.12
465.414	1344.12
465.634	1322.12
465.854	1336.12
466.073	1436.12
466.293	1352.12
466.512	1250.12
466.732	1242.12
466.951	1247.12
467.171	1229.12
467.391	1200.12
467.61	1214.12
467.829	1222.12
468.049	1318.12
468.268	1475.12
468.488	1356.12
468.707	1268.12
468.927	1245.12
469.146	1215.12
469.365	1247.12
469.585	1233.12
469.804	1214.12
470.023	1275.12
470.243	1274.12
470.462	1268.12
470.681	1252.12
470.901	1269.12
471.12	1276.12
471.339	1282.12
471.558	1214.12
471.777	1188.12
471.997	1228.12
472.216	1209.12
472.435	1117.12
472.654	1119.12
472.873	1174.12
473.092	1234.12
473.311	1180.12
473.53	1149.12
473.749	1167.12
473.968	1199.12
474.187	1213.12
474.406	1255.12
474.625	1201.12
474.844	1178.12
475.063	1205.12
475.282	1252.12
475.501	1192.12
475.72	1220.12
475.939	1316.12
476.158	1242.12
476.377	1212.12
476.596	1242.12
476.814	1215.12
477.033	1229.12
477.252	1272.12
477.471	1303.12
477.69	1313.12
477.908	1286.12
478.127	1386.12
478.346	1431.12
478.564	1454.12
478.783	1396.12
479.002	1458.12
479.22	1398.12
479.439	1469.12
479.658	1612.12
479.876	1544.12
480.095	1400.12
480.313	1365.12
480.532	1307.12
480.751	1314.12
480.969	1295.12
481.188	1322.12
481.406	1273.12
481.624	1247.12
481.843	1296.12
482.061	1339.12
482.28	1335.12
482.498	1328.12
482.717	1338.12
482.935	1322.12
483.153	1385.12
483.372	1354.12
483.59	1374.12
483.808	1368.12
484.027	1376.12
484.245	1480.12
484.463	1782.12
484.681	1940.12
484.9	1474.12
485.118	1375.12
485.336	1394.12
485.554	1352.12
485.772	1414.12
485.99	1412.12
486.209	1389.12
486.427	1400.12
486.645	1386.12
486.863	1436.12
487.081	1483.12
487.299	1503.12
487.517	1487.12
487.735	1482.12
487.953	1509.12
488.171	1488.12
488.389	1510.12
488.607	1468.12
488.825	1600.12
489.043	1586.12
489.261	1414.12
489.479	1485.12
489.696	1510.12
489.914	1464.12
490.132	1478.12
490.35	1461.12
490.568	1551.12
490.786	1491.12
491.003	1508.12
491.221	1558.12
491.439	1586.12
491.657	1606.12
491.874	1613.12
492.092	1673.12
492.31	1711.12
492.527	1709.12
492.745	1645.12
492.963	1603.12
493.18	1649.12
493.398	1739.12
493.615	1690.12
493.833	1616.12
494.05	1525.12
494.268	1584.12
494.485	1609.12
494.703	1578.12
494.92	1554.12
495.138	1565.12
495.355	1561.12
495.573	1623.12
495.79	1733.12
496.008	1722.12
496.225	1607.12
496.442	1625.12
496.66	1644.12
496.877	1612.12
497.094	1641.12
497.312	1645.12
497.529	1620.12
497.746	1679.12
497.963	1890.12
498.181	2000.12
498.398	1879.12
498.615	1863.12
498.832	1830.12
499.049	1776.12
499.267	1816.12
499.484	1947.12
499.701	2036.12
499.918	2074.12
500.135	2218.12
500.352	2365.12
500.569	2338.12
500.786	2535.12
501.003	2332.12
501.22	2110.12
501.437	2107.12
501.654	2116.12
501.871	2041.12
502.088	1814.12
502.305	1792.12
502.522	1693.12
502.739	1565.12
502.956	1573.12
503.172	1567.12
503.389	1500.12
503.606	1488.12
503.823	1508.12
504.04	1494.12
504.256	1481.12
504.473	1525.12
504.69	1529.12
504.907	1472.12
505.123	1445.12
505.34	1540.12
505.557	2023.12
505.773	1682.12
505.99	1401.12
506.207	1391.12
506.423	1329.12
506.64	1282.12
506.856	1307.12
507.073	1556.12
507.289	1652.12
507.506	1515.12
507.722	1322.12
507.939	1242.12
508.155	1288.12
508.372	1239.12
508.588	1210.12
508.805	1163.12
509.021	1163.12
509.238	1191.12
509.454	1139.12
509.67	1148.12
509.887	1152.12
510.103	1124.12
510.319	1140.12
510.536	1212.12
510.752	1235.12
510.968	1227.12
511.184	1303.12
511.401	1245.12
511.617	1132.12
511.833	1131.12
512.049	1124.12
512.265	1103.12
512.481	1115.12
512.698	1162.12
512.914	1224.12
513.13	1225.12
513.346	1165.12
513.562	1090.12
513.778	1138.12
513.994	1182.12
514.21	1221.12
514.426	1210.12
514.642	1300.12
514.858	1244.12
515.074	1145.12
515.29	1116.12
515.506	1162.12
515.721	1190.12
515.937	1176.12
516.153	1290.12
516.369	1260.12
516.585	1197.12
516.801	1147.12
517.016	1177.12
517.232	1186.12
517.448	1235.12
517.664	1232.12
517.879	1230.12
518.095	1280.12
518.311	1224.12
518.527	1202.12
518.742	1154.12
518.958	1129.12
519.173	1152.12
519.389	1220.12
519.605	1185.12
519.82	1188.12
520.036	1183.12
520.251	1143.12
520.467	1156.12
520.682	1228.12
520.898	1268.12
521.113	1125.12
521.329	1129.12
521.544	1205.12
521.76	1153.12
521.975	1118.12
522.19	1116.12
522.406	1104.12
522.621	1420.12
522.836	1352.12
523.052	1121.12
523.267	1108.12
523.482	1115.12
523.698	1083.12
523.913	1070.12
524.128	1086.12
524.343	1134.12
524.559	1187.12
524.774	1126.12
524.989	1073.12
525.204	1098.12
525.419	1036.12
525.634	1056.12
525.849	1068.12
526.064	1075.12
526.28	1071.12
526.495	1018.12
526.71	1015.12
526.925	989.12
527.14	973.12
527.355	951.12
527.57	992.12
527.785	1022.12
527.999	976.12
528.214	989.12
528.429	996.12
528.644	1024.12
528.859	1087.12
529.074	1088.12
529.289	1144.12
529.503	1141.12
529.718	1068.12
529.933	1000.12
530.148	968.12
530.363	967.12
530.577	979.12
530.792	1001.12
531.007	998.12
531.221	978.12
531.436	988.12
531.651	1023.12
531.865	1068.12
532.08	1030.12
532.295	958.12
532.509	936.12
532.724	962.12
532.938	1008.12
533.153	1057.12
533.367	1042.12
533.582	1040.12
533.796	1029.12
534.011	1034.12
534.225	1035.12
534.44	973.12
534.654	985.12
534.868	979.12
535.083	1012.12
535.297	1071.12
535.511	1026.12
535.726	1016.12
535.94	993.12
536.154	989.12
536.369	949.12
536.583	950.12
536.797	922.12
537.011	984.12
537.225	894.12
537.44	956.12
537.654	975.12
537.868	966.12
538.082	889.12
538.296	919.12
538.51	952.12
538.724	909.12
538.938	959.12
539.153	986.12
539.367	983.12
539.581	964.12
539.795	1022.12
540.009	965.12
540.222	947.12
540.436	985.12
540.65	1083.12
540.864	1117.12
541.078	1040.12
541.292	1057.12
541.506	1054.12
541.72	1130.12
541.934	1184.12
542.147	1188.12
542.361	1155.12
542.575	1091.12
542.789	1037.12
543.002	977.12
543.216	987.12
543.43	1034.12
543.644	1068.12
543.857	1095.12
544.071	1114.12
544.285	1116.12
544.498	1114.12
544.712	1108.12
544.925	1122.12
545.139	1134.12
545.352	1092.12
545.566	1082.12
545.779	1066.12
545.993	1090.12
546.206	1102.12
546.42	1072.12
546.633	1054.12
546.847	1062.12
547.06	1081.12
547.274	1058.12
547.487	1100.12
547.7	1104.12
547.914	1089.12
548.127	1125.12
548.34	1079.12
548.554	1090.12
548.767	1073.12
548.98	1068.12
549.193	1063.12
549.407	1127.12
549.62	1102.12
549.833	1092.12
550.046	1071.12
550.259	1054.12
550.473	1048.12
550.686	1028.12
550.899	1031.12
551.112	970.12
551.325	1014.12
551.538	1062.12
551.751	1181.12
551.964	944.12
552.177	930.12
552.39	967.12
552.603	1005.12
552.816	1034.12
553.029	1093.12
553.242	1094.12
553.455	1053.12
553.667	1078.12
553.88	1090.12
554.093	1020.12
554.306	999.12
554.519	953.12
554.732	948.12
554.944	975.12
555.157	1015.12
555.37	972.12
555.583	943.12
555.795	929.12
556.008	907.12
556.221	892.12
556.433	903.12
556.646	910.12
556.859	894.12
557.071	925.12
557.284	903.12
557.496	887.12
557.709	878.12
557.921	850.12
558.134	872.12
558.346	856.12
558.559	878.12
558.771	877.12
558.984	842.12
559.196	798.12
559.409	812.12
559.621	843.12
559.833	837.12
560.046	828.12
560.258	841.12
560.47	842.12
560.683	820.12
560.895	834.12
561.107	847.12
561.32	832.12
561.532	839.12
561.744	809.12
561.956	845.12
562.168	805.12
562.381	802.12
562.593	811.12
562.805	768.12
563.017	797.12
563.229	792.12
563.441	800.12
563.653	776.12
563.865	810.12
564.077	759.12
564.289	776.12
564.501	808.12
564.713	804.12
564.925	847.12
565.137	878.12
565.349	827.12
565.561	804.12
565.773	791.12
565.985	824.12
566.197	861.12
566.408	910.12
566.62	916.12
566.832	901.12
567.044	891.12
567.255	878.12
567.467	907.12
567.679	911.12
567.891	928.12
568.102	921.12
568.314	880.12
568.526	792.12
568.737	788.12
568.949	743.12
569.161	716.12
569.372	694.12
569.584	703.12
569.795	665.12
570.007	667.12
570.218	670.12
570.43	667.12
570.641	644.12
570.853	656.12
571.064	665.12
571.276	660.12
571.487	659.12
571.698	664.12
571.91	660.12
572.121	643.12
572.333	621.12
572.544	626.12
572.755	602.12
572.966	604.12
573.178	590.12
573.389	565.12
573.6	606.12
573.811	656.12
574.023	603.12
574.234	592.12
574.445	567.12
574.656	559.12
574.867	566.12
575.078	589.12
575.289	579.12
575.501	556.12
575.712	550.12
575.923	555.12
576.134	567.12
576.345	564.12
576.556	554.12
576.767	554.12
576.978	547.12
577.188	526.12
577.399	509.12
577.61	512.12
577.821	538.12
578.032	524.12
578.243	523.12
578.454	529.12
578.665	520.12
578.875	515.12
579.086	479.12
579.297	502.12
579.508	511.12
579.718	529.12
579.929	496.12
580.14	500.12
580.35	480.12
580.561	532.12
580.772	565.12
580.982	523.12
581.193	502.12
581.403	502.12
581.614	511.12
581.825	483.12
582.035	486.12
582.246	478.12
582.456	501.12
582.667	499.12
582.877	490.12
583.087	480.12
583.298	464.12
583.508	470.12
583.719	486.12
583.929	477.12
584.139	489.12
584.35	478.12
584.56	474.12
584.77	485.12
584.981	451.12
585.191	455.12
585.401	493.12
585.611	473.12
585.821	469.12
586.032	468.12
586.242	451.12
586.452	462.12
586.662	461.12
586.872	471.12
587.082	446.12
587.292	475.12
587.502	477.12
587.713	465.12
587.923	471.12
588.133	460.12
588.343	478.12
588.553	454.12
588.762	446.12
588.972	429.12
589.182	471.12
589.392	452.12
589.602	463.12
589.812	448.12
590.022	438.12
590.232	439.12
590.441	455.12
590.651	453.12
590.861	431.12
591.071	437.12
591.281	436.12
591.49	437.12
591.7	450.12
591.91	453.12
592.119	443.12
592.329	448.12
592.539	471.12
592.748	470.12
592.958	477.12
593.167	475.12
593.377	481.12
593.587	462.12
593.796	463.12
594.006	467.12
594.215	480.12
594.424	453.12
594.634	486.12
594.843	478.12
595.053	498.12
595.262	466.12
595.472	463.12
595.681	451.12
595.89	440.12
596.1	442.12
596.309	460.12
596.518	432.12
596.727	459.12
596.937	436.12
597.146	434.12
597.355	422.12
597.564	408.12
597.774	399.12
597.983	409.12
598.192	398.12
598.401	406.12
598.61	418.12
598.819	405.12
599.028	411.12
599.237	418.12
599.446	407.12
599.655	409.12
599.864	391.12
600.073	379.12
600.282	400.12
600.491	386.12
600.7	395.12
600.909	395.12
601.118	403.12
601.327	406.12
601.536	423.12
601.745	411.12
601.953	387.12
602.162	418.12
602.371	430.12
602.58	425.12
602.789	412.12
602.997	421.12
603.206	431.12
603.415	441.12
603.623	406.12
603.832	414.12
604.041	380.12
604.249	393.12
604.458	387.12
604.666	375.12
604.875	400.12
605.084	393.12
605.292	426.12
605.501	395.12
605.709	432.12
605.918	392.12
606.126	412.12
606.334	414.12
606.543	401.12
606.751	416.12
606.96	402.12
607.168	408.12
607.376	401.12
607.585	423.12
607.793	416.12
608.001	412.12
608.21	392.12
608.418	390.12
608.626	408.12
608.834	385.12
609.043	391.12
609.251	406.12
609.459	394.12
609.667	417.12
609.875	413.12
610.083	422.12
610.291	408.12
610.499	420.12
610.707	402.12
610.916	399.12
611.124	392.12
611.332	411.12
611.54	386.12
611.748	383.12
611.955	404.12
612.163	391.12
612.371	397.12
612.579	421.12
612.787	381.12
612.995	398.12
613.203	379.12
613.411	406.12
613.618	407.12
613.826	385.12
614.034	386.12
614.242	384.12
614.449	389.12
614.657	398.12
614.865	387.12
615.072	406.12
615.28	374.12
615.488	404.12
615.695	426.12
615.903	386.12
616.111	401.12
616.318	386.12
616.526	386.12
616.733	380.12
616.941	395.12
617.148	384.12
617.356	391.12
617.563	379.12
617.771	380.12
617.978	368.12
618.185	372.12
618.393	368.12
618.6	390.12
618.807	382.12
619.015	395.12
619.222	390.12
619.429	372.12
619.637	360.12
619.844	364.12
620.051	341.12
620.258	358.12
620.466	372.12
620.673	350.12
620.88	336.12
621.087	342.12
621.294	347.12
621.501	350.12
621.708	359.12
621.915	350.12
622.122	353.12
622.329	380.12
622.536	346.12
622.743	359.12
622.95	370.12
623.157	355.12
623.364	341.12
623.571	355.12
623.778	360.12
623.985	347.12
624.192	351.12
624.399	340.12
624.606	333.12
624.812	338.12
625.019	345.12
625.226	347.12
625.433	342.12
625.639	331.12
625.846	308.12
626.053	293.12
626.259	300.12
626.466	287.12
626.673	282.12
626.879	288.12
627.086	292.12
627.293	301.12
627.499	316.12
627.706	314.12
627.912	329.12
628.119	338.12
628.325	341.12
628.532	343.12
628.738	299.12
628.945	320.12
629.151	317.12
629.357	323.12
629.564	314.12
629.77	304.12
629.976	302.12
630.183	295.12
630.389	308.12
630.595	309.12
630.802	332.12
631.008	299.12
631.214	300.12
631.42	294.12
631.627	293.12
631.833	309.12
632.039	298.12
632.245	295.12
632.451	280.12
632.657	301.12
632.863	291.12
633.069	296.12
633.275	291.12
633.481	283.12
633.688	286.12
633.893	304.12
634.099	292.12
634.305	272.12
634.511	286.12
634.717	276.12
634.923	283.12
635.129	262.12
635.335	265.12
635.541	278.12
635.747	278.12
635.952	263.12
636.158	279.12
636.364	298.12
636.57	273.12
636.775	285.12
636.981	294.12
637.187	283.12
637.392	287.12
637.598	292.12
637.804	288.12
638.009	283.12
638.215	272.12
638.421	273.12
638.626	281.12
638.832	286.12
639.037	276.12
639.243	239.12
639.448	266.12
639.654	264.12
639.859	255.12
640.065	284.12
640.27	278.12
640.475	270.12
640.681	266.12
640.886	269.12
641.091	277.12
641.297	286.12
641.502	285.12
641.707	275.12
641.913	278.12
642.118	252.12
642.323	280.12
642.528	267.12
642.733	258.12
642.939	280.12
643.144	267.12
643.349	264.12
643.554	260.12
643.759	264.12
643.964	269.12
644.169	255.12
644.374	259.12
644.579	259.12
644.784	262.12
644.989	266.12
645.194	246.12
645.399	257.12
645.604	258.12
645.809	265.12
646.014	272.12
646.219	268.12
646.423	275.12
646.628	264.12
646.833	266.12
647.038	268.12
647.243	271.12
647.447	257.12
647.652	275.12
647.857	270.12
648.062	276.12
648.266	277.12
648.471	264.12
648.676	266.12
648.88	279.12
649.085	262.12
649.289	255.12
649.494	254.12
649.698	254.12
649.903	261.12
650.107	250.12
650.312	238.12
650.516	236.12
650.721	232.12
650.925	234.12
651.13	245.12
651.334	244.12
651.539	244.12
651.743	228.12
651.947	226.12
652.152	242.12
652.356	229.12
652.56	228.12
652.764	238.12
652.969	223.12
653.173	228.12
653.377	227.12
653.581	214.12
653.785	215.12
653.99	235.12
654.194	202.12
654.398	210.12
654.602	221.12
654.806	214.12
655.01	238.12
655.214	227.12
655.418	226.12
655.622	232.12
655.826	226.12
656.03	233.12
656.234	251.12
656.438	266.12
656.642	267.12
656.846	250.12
657.049	229.12
657.253	197.12
657.457	207.12
657.661	197.12
657.865	206.12
658.068	181.12
658.272	159.12
658.476	178.12
658.68	170.12
658.883	147.12
659.087	147.12
659.291	140.12
659.494	147.12
659.698	126.12
659.901	139.12
660.105	138.12
660.309	144.12
660.512	134.12
660.716	120.12
660.919	119.12
661.123	126.12
661.326	126.12
661.53	124.12
661.733	121.12
661.936	118.12
662.14	105.12
662.343	100.12
662.546	104.12
662.75	105.12
662.953	106.12
663.156	98.12
663.36	101.12
663.563	107.12
663.766	86.12
663.969	98.12
664.173	83.12
664.376	70.12
664.579	90.12
664.782	92.12
664.985	95.12
665.188	102.12
665.391	86.12
665.594	88.12
665.797	77.12
666	88.12
666.203	84.12
666.406	94.12
666.609	90.12
666.812	87.12
667.015	87.12
667.218	83.12
667.421	111.12
667.624	89.12
667.827	87.12
668.03	71.12
668.232	90.12
668.435	94.12
668.638	82.12
668.841	85.12
669.043	92.12
669.246	94.12
669.449	83.12
669.651	78.12
669.854	91.12
670.057	77.12
670.259	93.12
670.462	84.12
670.665	89.12
670.867	88.12
671.07	88.12
671.272	82.12
671.475	90.12
671.677	87.12
671.88	92.12
672.082	88.12
672.284	80.12
672.487	79.12
672.689	87.12
672.892	74.12
