Data from WStandard_LampEnergy8_LIBS07252019.E.O._I.C._HRD10591_15-57-48-928.txt Node
Date: Thu Jul 25 15:57:48 EDT 2019
User: cochatt
Spectrometer: HR+D1059
Trigger mode: 1
Integration Time (sec): 1.000000E-1
Scans to average: 1
Electric dark correction enabled: true
Nonlinearity correction enabled: false
Boxcar width: 0
XAxis mode: Wavelengths
Number of Pixels in Spectrum: 2048
>>>>>Begin Spectral Data<<<<<
223.165	-28.75
223.4	-28.75
223.635	-28.75
223.869	-21.75
224.104	-13.75
224.338	-13.75
224.573	-16.75
224.808	-11.75
225.042	-3.75
225.277	-2.75
225.511	1.25
225.746	10.25
225.98	3.25
226.215	14.25
226.449	11.25
226.683	25.25
226.918	22.25
227.152	25.25
227.387	26.25
227.621	22.25
227.856	35.25
228.09	41.25
228.324	53.25
228.559	43.25
228.793	100.25
229.027	190.25
229.262	223.25
229.496	234.25
229.73	225.25
229.964	262.25
230.199	271.25
230.433	258.25
230.667	294.25
230.901	307.25
231.136	273.25
231.37	276.25
231.604	275.25
231.838	288.25
232.072	295.25
232.306	256.25
232.541	285.25
232.775	327.25
233.009	337.25
233.243	339.25
233.477	293.25
233.711	309.25
233.945	329.25
234.179	322.25
234.413	334.25
234.647	357.25
234.881	336.25
235.115	316.25
235.349	304.25
235.583	320.25
235.817	315.25
236.051	301.25
236.285	305.25
236.519	349.25
236.753	373.25
236.987	389.25
237.221	385.25
237.455	408.25
237.689	383.25
237.922	355.25
238.156	353.25
238.39	364.25
238.624	395.25
238.858	401.25
239.091	424.25
239.325	434.25
239.559	499.25
239.793	504.25
240.027	514.25
240.26	517.25
240.494	420.25
240.728	419.25
240.961	419.25
241.195	408.25
241.429	427.25
241.662	460.25
241.896	419.25
242.13	427.25
242.363	476.25
242.597	497.25
242.83	469.25
243.064	486.25
243.298	504.25
243.531	496.25
243.765	499.25
243.998	481.25
244.232	460.25
244.465	437.25
244.699	443.25
244.932	491.25
245.166	534.25
245.399	531.25
245.633	505.25
245.866	496.25
246.099	487.25
246.333	521.25
246.566	505.25
246.8	557.25
247.033	612.25
247.266	582.25
247.5	569.25
247.733	545.25
247.966	603.25
248.2	635.25
248.433	642.25
248.666	681.25
248.899	717.25
249.133	803.25
249.366	859.25
249.599	741.25
249.832	646.25
250.066	670.25
250.299	674.25
250.532	605.25
250.765	564.25
250.998	611.25
251.231	596.25
251.465	632.25
251.698	613.25
251.931	591.25
252.164	629.25
252.397	658.25
252.63	659.25
252.863	587.25
253.096	583.25
253.329	603.25
253.562	634.25
253.795	651.25
254.028	641.25
254.261	608.25
254.494	613.25
254.727	588.25
254.96	620.25
255.193	704.25
255.426	745.25
255.659	828.25
255.892	863.25
256.124	747.25
256.357	701.25
256.59	729.25
256.823	775.25
257.056	767.25
257.289	894.25
257.521	969.25
257.754	866.25
257.987	863.25
258.22	907.25
258.452	873.25
258.685	743.25
258.918	708.25
259.151	704.25
259.383	662.25
259.616	613.25
259.849	657.25
260.081	734.25
260.314	837.25
260.547	882.25
260.779	862.25
261.012	815.25
261.244	753.25
261.477	707.25
261.71	734.25
261.942	733.25
262.175	724.25
262.407	753.25
262.64	686.25
262.872	670.25
263.105	653.25
263.337	671.25
263.57	672.25
263.802	667.25
264.035	639.25
264.267	609.25
264.499	599.25
264.732	641.25
264.964	724.25
265.197	732.25
265.429	743.25
265.661	855.25
265.894	908.25
266.126	965.25
266.358	850.25
266.591	892.25
266.823	923.25
267.055	846.25
267.287	839.25
267.52	815.25
267.752	821.25
267.984	836.25
268.216	836.25
268.448	863.25
268.681	838.25
268.913	772.25
269.145	746.25
269.377	728.25
269.609	802.25
269.841	940.25
270.073	1071.25
270.306	1183.25
270.538	1157.25
270.77	1046.25
271.002	892.25
271.234	855.25
271.466	888.25
271.698	985.25
271.93	1142.25
272.162	1099.25
272.394	1035.25
272.626	953.25
272.858	846.25
273.09	746.25
273.322	724.25
273.553	707.25
273.785	703.25
274.017	779.25
274.249	826.25
274.481	800.25
274.713	752.25
274.945	721.25
275.176	719.25
275.408	738.25
275.64	724.25
275.872	726.25
276.104	782.25
276.335	872.25
276.567	979.25
276.799	951.25
277.031	898.25
277.262	876.25
277.494	901.25
277.726	955.25
277.957	940.25
278.189	876.25
278.421	796.25
278.652	802.25
278.884	775.25
279.115	788.25
279.347	791.25
279.579	781.25
279.81	789.25
280.042	883.25
280.273	940.25
280.505	959.25
280.736	969.25
280.968	875.25
281.199	784.25
281.431	755.25
281.662	756.25
281.894	748.25
282.125	793.25
282.356	828.25
282.588	807.25
282.819	806.25
283.051	896.25
283.282	958.25
283.513	906.25
283.745	791.25
283.976	753.25
284.207	755.25
284.439	791.25
284.67	786.25
284.901	807.25
285.132	825.25
285.364	801.25
285.595	826.25
285.826	797.25
286.057	797.25
286.288	777.25
286.52	846.25
286.751	897.25
286.982	895.25
287.213	838.25
287.444	795.25
287.675	773.25
287.906	829.25
288.138	875.25
288.369	855.25
288.6	836.25
288.831	778.25
289.062	788.25
289.293	817.25
289.524	803.25
289.755	845.25
289.986	808.25
290.217	764.25
290.448	796.25
290.679	834.25
290.91	823.25
291.141	843.25
291.371	864.25
291.602	862.25
291.833	880.25
292.064	854.25
292.295	868.25
292.526	915.25
292.757	939.25
292.987	905.25
293.218	864.25
293.449	952.25
293.68	1068.25
293.91	1067.25
294.141	1011.25
294.372	992.25
294.603	989.25
294.833	1064.25
295.064	973.25
295.295	873.25
295.525	837.25
295.756	792.25
295.987	787.25
296.217	794.25
296.448	815.25
296.679	790.25
296.909	827.25
297.14	792.25
297.37	848.25
297.601	877.25
297.831	936.25
298.062	918.25
298.292	849.25
298.523	817.25
298.753	818.25
298.984	793.25
299.214	855.25
299.445	876.25
299.675	870.25
299.905	865.25
300.136	859.25
300.366	828.25
300.597	818.25
300.827	813.25
301.057	867.25
301.288	871.25
301.518	892.25
301.748	932.25
301.979	972.25
302.209	993.25
302.439	1059.25
302.669	1015.25
302.9	1007.25
303.13	886.25
303.36	881.25
303.59	895.25
303.82	887.25
304.051	877.25
304.281	919.25
304.511	940.25
304.741	999.25
304.971	1089.25
305.201	1126.25
305.431	1028.25
305.661	844.25
305.891	797.25
306.121	784.25
306.352	833.25
306.582	902.25
306.812	929.25
307.042	1002.25
307.272	1027.25
307.502	1052.25
307.731	1109.25
307.961	1179.25
308.191	1037.25
308.421	927.25
308.651	888.25
308.881	855.25
309.111	870.25
309.341	875.25
309.571	867.25
309.8	887.25
310.03	874.25
310.26	852.25
310.49	879.25
310.72	911.25
310.949	940.25
311.179	940.25
311.409	897.25
311.639	865.25
311.868	895.25
312.098	870.25
312.328	869.25
312.557	871.25
312.787	908.25
313.017	899.25
313.246	898.25
313.476	875.25
313.706	921.25
313.935	903.25
314.165	947.25
314.394	969.25
314.624	1079.25
314.853	1060.25
315.083	1114.25
315.312	1109.25
315.542	1055.25
315.771	932.25
316.001	970.25
316.23	993.25
316.46	985.25
316.689	975.25
316.919	925.25
317.148	923.25
317.377	943.25
317.607	1004.25
317.836	1118.25
318.065	1125.25
318.295	1114.25
318.524	1025.25
318.753	997.25
318.983	1004.25
319.212	986.25
319.441	985.25
319.67	975.25
319.9	963.25
320.129	1044.25
320.358	1108.25
320.587	1096.25
320.816	1076.25
321.046	1055.25
321.275	1010.25
321.504	1035.25
321.733	1109.25
321.962	1023.25
322.191	973.25
322.42	970.25
322.649	933.25
322.878	969.25
323.108	988.25
323.337	1014.25
323.566	1008.25
323.795	1012.25
324.024	985.25
324.253	969.25
324.482	987.25
324.71	952.25
324.939	914.25
325.168	935.25
325.397	995.25
325.626	998.25
325.855	1002.25
326.084	973.25
326.313	997.25
326.542	1007.25
326.77	1021.25
326.999	1011.25
327.228	937.25
327.457	924.25
327.686	910.25
327.914	956.25
328.143	970.25
328.372	982.25
328.6	988.25
328.829	961.25
329.058	948.25
329.287	962.25
329.515	1015.25
329.744	993.25
329.972	1058.25
330.201	1065.25
330.43	1077.25
330.658	1021.25
330.887	1035.25
331.115	1044.25
331.344	1027.25
331.572	1027.25
331.801	997.25
332.03	1037.25
332.258	1040.25
332.486	1036.25
332.715	1036.25
332.943	1053.25
333.172	1046.25
333.4	1052.25
333.629	1057.25
333.857	1148.25
334.085	1309.25
334.314	1464.25
334.542	1515.25
334.771	1365.25
334.999	1199.25
335.227	1143.25
335.455	1089.25
335.684	1125.25
335.912	1146.25
336.14	1177.25
336.369	1097.25
336.597	1077.25
336.825	1064.25
337.053	1100.25
337.281	1159.25
337.51	1206.25
337.738	1218.25
337.966	1167.25
338.194	1076.25
338.422	1042.25
338.65	1036.25
338.878	1025.25
339.106	1011.25
339.334	985.25
339.562	949.25
339.79	998.25
340.018	1051.25
340.246	1093.25
340.474	1107.25
340.702	1073.25
340.93	1091.25
341.158	1057.25
341.386	1057.25
341.614	1015.25
341.842	1023.25
342.07	1029.25
342.298	1037.25
342.526	1038.25
342.754	1012.25
342.981	1038.25
343.209	992.25
343.437	1014.25
343.665	1016.25
343.893	1031.25
344.12	1099.25
344.348	1099.25
344.576	1065.25
344.804	1025.25
345.031	1015.25
345.259	1029.25
345.487	969.25
345.714	936.25
345.942	930.25
346.17	962.25
346.397	958.25
346.625	984.25
346.853	924.25
347.08	906.25
347.308	922.25
347.535	980.25
347.763	1014.25
347.99	945.25
348.218	920.25
348.445	956.25
348.673	963.25
348.9	1004.25
349.128	1022.25
349.355	1036.25
349.583	1010.25
349.81	988.25
350.037	905.25
350.265	896.25
350.492	921.25
350.72	954.25
350.947	979.25
351.174	989.25
351.402	912.25
351.629	907.25
351.856	855.25
352.083	870.25
352.311	890.25
352.538	909.25
352.765	991.25
352.992	989.25
353.22	954.25
353.447	916.25
353.674	915.25
353.901	954.25
354.128	916.25
354.355	935.25
354.583	1017.25
354.81	1002.25
355.037	1001.25
355.264	985.25
355.491	986.25
355.718	979.25
355.945	952.25
356.172	932.25
356.399	918.25
356.626	946.25
356.853	992.25
357.08	1103.25
357.307	1168.25
357.534	1153.25
357.761	993.25
357.988	917.25
358.215	903.25
358.441	907.25
358.668	905.25
358.895	927.25
359.122	1020.25
359.349	1123.25
359.576	1058.25
359.802	996.25
360.029	937.25
360.256	931.25
360.483	951.25
360.709	945.25
360.936	1016.25
361.163	1056.25
361.39	1173.25
361.616	1254.25
361.843	1188.25
362.07	1087.25
362.296	986.25
362.523	939.25
362.749	941.25
362.976	981.25
363.203	961.25
363.429	957.25
363.656	939.25
363.882	1002.25
364.109	1080.25
364.335	1137.25
364.562	1049.25
364.788	997.25
365.015	979.25
365.241	929.25
365.468	987.25
365.694	1029.25
365.92	1059.25
366.147	969.25
366.373	930.25
366.599	917.25
366.826	923.25
367.052	928.25
367.278	953.25
367.505	979.25
367.731	993.25
367.957	997.25
368.184	1028.25
368.41	1120.25
368.636	1099.25
368.862	1111.25
369.089	1096.25
369.315	1042.25
369.541	1008.25
369.767	996.25
369.993	947.25
370.219	949.25
370.445	996.25
370.672	1045.25
370.898	1087.25
371.124	1090.25
371.35	1027.25
371.576	1079.25
371.802	1084.25
372.028	1021.25
372.254	1009.25
372.48	963.25
372.706	951.25
372.932	970.25
373.158	988.25
373.384	976.25
373.61	1034.25
373.835	1066.25
374.061	1028.25
374.287	1037.25
374.513	1020.25
374.739	1030.25
374.965	991.25
375.191	1027.25
375.416	1058.25
375.642	1079.25
375.868	1128.25
376.094	1127.25
376.319	1081.25
376.545	1045.25
376.771	1045.25
376.997	1101.25
377.222	1098.25
377.448	1056.25
377.674	1097.25
377.899	1085.25
378.125	1148.25
378.35	1093.25
378.576	1040.25
378.802	966.25
379.027	973.25
379.253	991.25
379.478	1023.25
379.704	1009.25
379.929	987.25
380.155	1057.25
380.38	1031.25
380.606	1036.25
380.831	1072.25
381.057	1104.25
381.282	1119.25
381.507	1101.25
381.733	1188.25
381.958	1185.25
382.184	1093.25
382.409	1047.25
382.634	1103.25
382.86	1077.25
383.085	1092.25
383.31	1107.25
383.535	1219.25
383.761	1289.25
383.986	1204.25
384.211	1149.25
384.436	1151.25
384.662	1207.25
384.887	1244.25
385.112	1163.25
385.337	1168.25
385.562	1156.25
385.787	1162.25
386.013	1212.25
386.238	1217.25
386.463	1173.25
386.688	1282.25
386.913	1384.25
387.138	1313.25
387.363	1209.25
387.588	1193.25
387.813	1197.25
388.038	1208.25
388.263	1247.25
388.488	1192.25
388.713	1135.25
388.938	1103.25
389.163	1122.25
389.387	1141.25
389.612	1185.25
389.837	1182.25
390.062	1148.25
390.287	1155.25
390.512	1149.25
390.736	1136.25
390.961	1097.25
391.186	1087.25
391.411	1095.25
391.636	1126.25
391.86	1157.25
392.085	1149.25
392.31	1145.25
392.534	1171.25
392.759	1180.25
392.984	1177.25
393.208	1177.25
393.433	1204.25
393.658	1273.25
393.882	1262.25
394.107	1183.25
394.331	1156.25
394.556	1148.25
394.78	1180.25
395.005	1222.25
395.229	1265.25
395.454	1363.25
395.678	1335.25
395.903	1248.25
396.127	1219.25
396.352	1259.25
396.576	1336.25
396.801	1297.25
397.025	1299.25
397.249	1293.25
397.474	1275.25
397.698	1245.25
397.922	1299.25
398.147	1351.25
398.371	1401.25
398.595	1413.25
398.82	1328.25
399.044	1359.25
399.268	1384.25
399.492	1504.25
399.717	1510.25
399.941	1533.25
400.165	1482.25
400.389	1487.25
400.613	1484.25
400.837	1758.25
401.062	1875.25
401.286	1604.25
401.51	1492.25
401.734	1516.25
401.958	1428.25
402.182	1378.25
402.406	1338.25
402.63	1312.25
402.854	1299.25
403.078	1321.25
403.302	1327.25
403.526	1343.25
403.75	1388.25
403.974	1435.25
404.198	1418.25
404.422	1501.25
404.645	1553.25
404.869	1443.25
405.093	1386.25
405.317	1341.25
405.541	1384.25
405.765	1397.25
405.988	1415.25
406.212	1426.25
406.436	1407.25
406.66	1523.25
406.883	1535.25
407.107	1750.25
407.331	1851.25
407.555	2016.25
407.778	1712.25
408.002	1448.25
408.226	1430.25
408.449	1464.25
408.673	1411.25
408.896	1404.25
409.12	1446.25
409.344	1411.25
409.567	1389.25
409.791	1425.25
410.014	1403.25
410.238	1522.25
410.461	1618.25
410.685	1391.25
410.908	1346.25
411.132	1391.25
411.355	1372.25
411.578	1348.25
411.802	1390.25
412.025	1375.25
412.249	1350.25
412.472	1334.25
412.695	1358.25
412.919	1322.25
413.142	1329.25
413.365	1333.25
413.589	1375.25
413.812	1498.25
414.035	1504.25
414.258	1415.25
414.482	1333.25
414.705	1382.25
414.928	1331.25
415.151	1322.25
415.374	1337.25
415.597	1380.25
415.821	1361.25
416.044	1356.25
416.267	1372.25
416.49	1272.25
416.713	1321.25
416.936	1354.25
417.159	1452.25
417.382	1413.25
417.605	1336.25
417.828	1384.25
418.051	1356.25
418.274	1366.25
418.497	1301.25
418.72	1318.25
418.943	1289.25
419.166	1366.25
419.389	1376.25
419.611	1335.25
419.834	1328.25
420.057	1351.25
420.28	1350.25
420.503	1324.25
420.726	1380.25
420.948	1323.25
421.171	1253.25
421.394	1312.25
421.617	1411.25
421.839	1358.25
422.062	1338.25
422.285	1297.25
422.507	1327.25
422.73	1265.25
422.953	1245.25
423.175	1224.25
423.398	1294.25
423.621	1300.25
423.843	1328.25
424.066	1387.25
424.288	1453.25
424.511	1463.25
424.733	1370.25
424.956	1252.25
425.178	1247.25
425.401	1245.25
425.623	1289.25
425.846	1284.25
426.068	1371.25
426.291	1399.25
426.513	1372.25
426.735	1374.25
426.958	1514.25
427.18	1563.25
427.402	1411.25
427.625	1492.25
427.847	1417.25
428.069	1295.25
428.292	1285.25
428.514	1269.25
428.736	1263.25
428.958	1301.25
429.181	1340.25
429.403	1547.25
429.625	1831.25
429.847	1548.25
430.069	1359.25
430.292	1491.25
430.514	1527.25
430.736	1391.25
430.958	1455.25
431.18	1327.25
431.402	1285.25
431.624	1255.25
431.846	1227.25
432.068	1156.25
432.29	1176.25
432.512	1216.25
432.734	1296.25
432.956	1330.25
433.178	1394.25
433.4	1401.25
433.622	1353.25
433.844	1288.25
434.066	1245.25
434.287	1235.25
434.509	1240.25
434.731	1331.25
434.953	1429.25
435.175	1359.25
435.397	1313.25
435.618	1324.25
435.84	1269.25
436.062	1293.25
436.284	1341.25
436.505	1340.25
436.727	1362.25
436.949	1290.25
437.17	1295.25
437.392	1265.25
437.614	1225.25
437.835	1219.25
438.057	1290.25
438.278	1313.25
438.5	1223.25
438.721	1265.25
438.943	1244.25
439.165	1273.25
439.386	1219.25
439.608	1284.25
439.829	1286.25
440.05	1257.25
440.272	1273.25
440.493	1249.25
440.715	1332.25
440.936	1383.25
441.158	1489.25
441.379	1441.25
441.6	1403.25
441.822	1403.25
442.043	1377.25
442.264	1347.25
442.486	1279.25
442.707	1276.25
442.928	1308.25
443.149	1330.25
443.371	1402.25
443.592	1405.25
443.813	1389.25
444.034	1401.25
444.255	1427.25
444.476	1445.25
444.698	1426.25
444.919	1424.25
445.14	1509.25
445.361	1462.25
445.582	1524.25
445.803	1448.25
446.024	1409.25
446.245	1432.25
446.466	1381.25
446.687	1356.25
446.908	1388.25
447.129	1351.25
447.35	1390.25
447.571	1343.25
447.792	1300.25
448.013	1299.25
448.234	1356.25
448.455	1356.25
448.675	1374.25
448.896	1281.25
449.117	1212.25
449.338	1275.25
449.559	1330.25
449.779	1362.25
450	1484.25
450.221	1505.25
450.442	1511.25
450.662	1374.25
450.883	1186.25
451.104	1188.25
451.324	1210.25
451.545	1247.25
451.766	1247.25
451.986	1159.25
452.207	1176.25
452.428	1152.25
452.648	1113.25
452.869	1145.25
453.089	1222.25
453.31	1174.25
453.53	1183.25
453.751	1156.25
453.971	1072.25
454.192	1130.25
454.412	1201.25
454.633	1189.25
454.853	1128.25
455.073	1080.25
455.294	1113.25
455.514	1115.25
455.734	1106.25
455.955	1119.25
456.175	1103.25
456.395	1095.25
456.616	1126.25
456.836	1112.25
457.056	1116.25
457.276	1106.25
457.497	1054.25
457.717	1021.25
457.937	1051.25
458.157	1089.25
458.377	1077.25
458.598	1065.25
458.818	1082.25
459.038	1157.25
459.258	1195.25
459.478	1189.25
459.698	1160.25
459.918	1192.25
460.138	1287.25
460.358	1277.25
460.578	1302.25
460.798	1349.25
461.018	1375.25
461.238	1343.25
461.458	1298.25
461.678	1267.25
461.898	1252.25
462.118	1242.25
462.338	1306.25
462.558	1271.25
462.777	1290.25
462.997	1308.25
463.217	1419.25
463.437	1343.25
463.657	1283.25
463.876	1269.25
464.096	1263.25
464.316	1300.25
464.536	1343.25
464.755	1319.25
464.975	1360.25
465.195	1331.25
465.414	1354.25
465.634	1341.25
465.854	1341.25
466.073	1441.25
466.293	1386.25
466.512	1216.25
466.732	1263.25
466.951	1275.25
467.171	1258.25
467.391	1192.25
467.61	1215.25
467.829	1286.25
468.049	1385.25
468.268	1496.25
468.488	1381.25
468.707	1319.25
468.927	1224.25
469.146	1277.25
469.365	1233.25
469.585	1241.25
469.804	1279.25
470.023	1253.25
470.243	1268.25
470.462	1279.25
470.681	1244.25
470.901	1294.25
471.12	1279.25
471.339	1279.25
471.558	1243.25
471.777	1247.25
471.997	1272.25
472.216	1209.25
472.435	1144.25
472.654	1156.25
472.873	1216.25
473.092	1288.25
473.311	1216.25
473.53	1157.25
473.749	1178.25
473.968	1200.25
474.187	1236.25
474.406	1276.25
474.625	1215.25
474.844	1251.25
475.063	1276.25
475.282	1255.25
475.501	1240.25
475.72	1224.25
475.939	1343.25
476.158	1273.25
476.377	1229.25
476.596	1237.25
476.814	1242.25
477.033	1260.25
477.252	1306.25
477.471	1345.25
477.69	1293.25
477.908	1298.25
478.127	1404.25
478.346	1475.25
478.564	1485.25
478.783	1430.25
479.002	1521.25
479.22	1428.25
479.439	1488.25
479.658	1598.25
479.876	1592.25
480.095	1421.25
480.313	1400.25
480.532	1309.25
480.751	1350.25
480.969	1336.25
481.188	1294.25
481.406	1253.25
481.624	1261.25
481.843	1313.25
482.061	1361.25
482.28	1345.25
482.498	1391.25
482.717	1308.25
482.935	1313.25
483.153	1382.25
483.372	1362.25
483.59	1385.25
483.808	1390.25
484.027	1382.25
484.245	1513.25
484.463	1811.25
484.681	2017.25
484.9	1499.25
485.118	1407.25
485.336	1370.25
485.554	1409.25
485.772	1434.25
485.99	1377.25
486.209	1433.25
486.427	1415.25
486.645	1433.25
486.863	1452.25
487.081	1504.25
487.299	1506.25
487.517	1507.25
487.735	1474.25
487.953	1544.25
488.171	1519.25
488.389	1487.25
488.607	1478.25
488.825	1685.25
489.043	1649.25
489.261	1456.25
489.479	1557.25
489.696	1516.25
489.914	1503.25
490.132	1498.25
490.35	1463.25
490.568	1567.25
490.786	1540.25
491.003	1503.25
491.221	1580.25
491.439	1647.25
491.657	1618.25
491.874	1637.25
492.092	1712.25
492.31	1727.25
492.527	1706.25
492.745	1642.25
492.963	1661.25
493.18	1659.25
493.398	1749.25
493.615	1746.25
493.833	1659.25
494.05	1604.25
494.268	1575.25
494.485	1630.25
494.703	1593.25
494.92	1593.25
495.138	1587.25
495.355	1627.25
495.573	1670.25
495.79	1697.25
496.008	1711.25
496.225	1644.25
496.442	1647.25
496.66	1667.25
496.877	1622.25
497.094	1677.25
497.312	1682.25
497.529	1647.25
497.746	1666.25
497.963	1909.25
498.181	2032.25
498.398	1988.25
498.615	1922.25
498.832	1822.25
499.049	1797.25
499.267	1776.25
499.484	1931.25
499.701	2061.25
499.918	2105.25
500.135	2272.25
500.352	2384.25
500.569	2356.25
500.786	2609.25
501.003	2359.25
501.22	2121.25
501.437	2088.25
501.654	2156.25
501.871	2071.25
502.088	1826.25
502.305	1823.25
502.522	1749.25
502.739	1634.25
502.956	1599.25
503.172	1595.25
503.389	1572.25
503.606	1536.25
503.823	1508.25
504.04	1528.25
504.256	1523.25
504.473	1544.25
504.69	1546.25
504.907	1493.25
505.123	1449.25
505.34	1612.25
505.557	2128.25
505.773	1705.25
505.99	1416.25
506.207	1356.25
506.423	1325.25
506.64	1331.25
506.856	1357.25
507.073	1611.25
507.289	1714.25
507.506	1544.25
507.722	1309.25
507.939	1312.25
508.155	1292.25
508.372	1293.25
508.588	1240.25
508.805	1219.25
509.021	1175.25
509.238	1179.25
509.454	1177.25
509.67	1206.25
509.887	1146.25
510.103	1175.25
510.319	1202.25
510.536	1248.25
510.752	1281.25
510.968	1260.25
511.184	1358.25
511.401	1297.25
511.617	1169.25
511.833	1115.25
512.049	1129.25
512.265	1119.25
512.481	1125.25
512.698	1184.25
512.914	1260.25
513.13	1223.25
513.346	1170.25
513.562	1140.25
513.778	1153.25
513.994	1196.25
514.21	1223.25
514.426	1277.25
514.642	1373.25
514.858	1299.25
515.074	1157.25
515.29	1146.25
515.506	1190.25
515.721	1213.25
515.937	1208.25
516.153	1343.25
516.369	1294.25
516.585	1181.25
516.801	1195.25
517.016	1193.25
517.232	1220.25
517.448	1202.25
517.664	1224.25
517.879	1241.25
518.095	1292.25
518.311	1237.25
518.527	1229.25
518.742	1172.25
518.958	1144.25
519.173	1179.25
519.389	1163.25
519.605	1212.25
519.82	1223.25
520.036	1203.25
520.251	1196.25
520.467	1227.25
520.682	1275.25
520.898	1303.25
521.113	1177.25
521.329	1118.25
521.544	1231.25
521.76	1168.25
521.975	1098.25
522.19	1117.25
522.406	1196.25
522.621	1461.25
522.836	1377.25
523.052	1124.25
523.267	1102.25
523.482	1154.25
523.698	1095.25
523.913	1095.25
524.128	1125.25
524.343	1158.25
524.559	1191.25
524.774	1113.25
524.989	1093.25
525.204	1082.25
525.419	1071.25
525.634	1083.25
525.849	1119.25
526.064	1089.25
526.28	1096.25
526.495	1041.25
526.71	999.25
526.925	1019.25
527.14	1044.25
527.355	998.25
527.57	1003.25
527.785	1072.25
527.999	1034.25
528.214	1007.25
528.429	1022.25
528.644	1029.25
528.859	1093.25
529.074	1094.25
529.289	1114.25
529.503	1145.25
529.718	1123.25
529.933	1021.25
530.148	983.25
530.363	1009.25
530.577	1005.25
530.792	1037.25
531.007	1016.25
531.221	1009.25
531.436	1028.25
531.651	1081.25
531.865	1063.25
532.08	1077.25
532.295	965.25
532.509	965.25
532.724	967.25
532.938	1025.25
533.153	1079.25
533.367	1055.25
533.582	1057.25
533.796	1082.25
534.011	1056.25
534.225	1032.25
534.44	997.25
534.654	1009.25
534.868	994.25
535.083	1045.25
535.297	1101.25
535.511	1029.25
535.726	1021.25
535.94	1010.25
536.154	1023.25
536.369	993.25
536.583	960.25
536.797	950.25
537.011	979.25
537.225	972.25
537.44	949.25
537.654	992.25
537.868	973.25
538.082	935.25
538.296	943.25
538.51	957.25
538.724	952.25
538.938	977.25
539.153	1006.25
539.367	1043.25
539.581	1029.25
539.795	1031.25
540.009	994.25
540.222	958.25
540.436	992.25
540.65	1085.25
540.864	1140.25
541.078	1077.25
541.292	1040.25
541.506	1099.25
541.72	1121.25
541.934	1180.25
542.147	1179.25
542.361	1144.25
542.575	1093.25
542.789	1064.25
543.002	991.25
543.216	993.25
543.43	1035.25
543.644	1099.25
543.857	1135.25
544.071	1146.25
544.285	1116.25
544.498	1099.25
544.712	1092.25
544.925	1119.25
545.139	1101.25
545.352	1098.25
545.566	1058.25
545.779	1080.25
545.993	1136.25
546.206	1098.25
546.42	1079.25
546.633	1079.25
546.847	1052.25
547.06	1081.25
547.274	1065.25
547.487	1115.25
547.7	1121.25
547.914	1153.25
548.127	1135.25
548.34	1089.25
548.554	1069.25
548.767	1089.25
548.98	1099.25
549.193	1096.25
549.407	1158.25
549.62	1115.25
549.833	1068.25
550.046	1095.25
550.259	1075.25
550.473	1057.25
550.686	1050.25
550.899	996.25
551.112	1010.25
551.325	967.25
551.538	1112.25
551.751	1195.25
551.964	921.25
552.177	930.25
552.39	981.25
552.603	1005.25
552.816	1041.25
553.029	1088.25
553.242	1050.25
553.455	1076.25
553.667	1050.25
553.88	1052.25
554.093	1041.25
554.306	1024.25
554.519	1001.25
554.732	969.25
554.944	983.25
555.157	990.25
555.37	982.25
555.583	984.25
555.795	935.25
556.008	916.25
556.221	909.25
556.433	876.25
556.646	864.25
556.859	899.25
557.071	891.25
557.284	891.25
557.496	882.25
557.709	896.25
557.921	901.25
558.134	883.25
558.346	855.25
558.559	864.25
558.771	853.25
558.984	855.25
559.196	842.25
559.409	827.25
559.621	832.25
559.833	833.25
560.046	856.25
560.258	831.25
560.47	835.25
560.683	858.25
560.895	848.25
561.107	850.25
561.32	840.25
561.532	839.25
561.744	844.25
561.956	844.25
562.168	796.25
562.381	785.25
562.593	783.25
562.805	801.25
563.017	795.25
563.229	802.25
563.441	831.25
563.653	827.25
563.865	785.25
564.077	785.25
564.289	792.25
564.501	792.25
564.713	800.25
564.925	865.25
565.137	898.25
565.349	849.25
565.561	817.25
565.773	789.25
565.985	839.25
566.197	853.25
566.408	928.25
566.62	917.25
566.832	919.25
567.044	905.25
567.255	894.25
567.467	899.25
567.679	940.25
567.891	938.25
568.102	897.25
568.314	870.25
568.526	791.25
568.737	797.25
568.949	769.25
569.161	728.25
569.372	695.25
569.584	681.25
569.795	705.25
570.007	674.25
570.218	652.25
570.43	664.25
570.641	674.25
570.853	669.25
571.064	683.25
571.276	658.25
571.487	674.25
571.698	663.25
571.91	641.25
572.121	633.25
572.333	619.25
572.544	606.25
572.755	614.25
572.966	589.25
573.178	582.25
573.389	600.25
573.6	616.25
573.811	669.25
574.023	593.25
574.234	587.25
574.445	576.25
574.656	575.25
574.867	564.25
575.078	580.25
575.289	573.25
575.501	557.25
575.712	539.25
575.923	567.25
576.134	557.25
576.345	561.25
576.556	556.25
576.767	534.25
576.978	540.25
577.188	544.25
577.399	526.25
577.61	537.25
577.821	539.25
578.032	516.25
578.243	526.25
578.454	523.25
578.665	530.25
578.875	514.25
579.086	503.25
579.297	517.25
579.508	537.25
579.718	507.25
579.929	523.25
580.14	524.25
580.35	485.25
580.561	525.25
580.772	574.25
580.982	561.25
581.193	506.25
581.403	499.25
581.614	514.25
581.825	486.25
582.035	507.25
582.246	495.25
582.456	516.25
582.667	516.25
582.877	481.25
583.087	512.25
583.298	457.25
583.508	490.25
583.719	469.25
583.929	456.25
584.139	473.25
584.35	486.25
584.56	467.25
584.77	472.25
584.981	485.25
585.191	479.25
585.401	493.25
585.611	467.25
585.821	463.25
586.032	466.25
586.242	457.25
586.452	477.25
586.662	492.25
586.872	457.25
587.082	437.25
587.292	469.25
587.502	467.25
587.713	474.25
587.923	455.25
588.133	470.25
588.343	476.25
588.553	460.25
588.762	453.25
588.972	463.25
589.182	466.25
589.392	449.25
589.602	435.25
589.812	468.25
590.022	449.25
590.232	439.25
590.441	476.25
590.651	447.25
590.861	448.25
591.071	452.25
591.281	423.25
591.49	447.25
591.7	451.25
591.91	452.25
592.119	453.25
592.329	445.25
592.539	464.25
592.748	464.25
592.958	440.25
593.167	474.25
593.377	480.25
593.587	476.25
593.796	463.25
594.006	464.25
594.215	466.25
594.424	486.25
594.634	490.25
594.843	469.25
595.053	494.25
595.262	484.25
595.472	443.25
595.681	469.25
595.89	447.25
596.1	433.25
596.309	476.25
596.518	437.25
596.727	443.25
596.937	458.25
597.146	414.25
597.355	422.25
597.564	424.25
597.774	426.25
597.983	400.25
598.192	416.25
598.401	391.25
598.61	392.25
598.819	397.25
599.028	392.25
599.237	421.25
599.446	405.25
599.655	375.25
599.864	383.25
600.073	413.25
600.282	397.25
600.491	396.25
600.7	382.25
600.909	382.25
601.118	409.25
601.327	398.25
601.536	413.25
601.745	410.25
601.953	408.25
602.162	423.25
602.371	415.25
602.58	404.25
602.789	418.25
602.997	424.25
603.206	435.25
603.415	403.25
603.623	437.25
603.832	393.25
604.041	413.25
604.249	394.25
604.458	395.25
604.666	398.25
604.875	412.25
605.084	411.25
605.292	401.25
605.501	402.25
605.709	403.25
605.918	405.25
606.126	405.25
606.334	397.25
606.543	403.25
606.751	412.25
606.96	414.25
607.168	427.25
607.376	396.25
607.585	401.25
607.793	401.25
608.001	413.25
608.21	411.25
608.418	407.25
608.626	401.25
608.834	405.25
609.043	408.25
609.251	409.25
609.459	386.25
609.667	397.25
609.875	400.25
610.083	431.25
610.291	422.25
610.499	426.25
610.707	389.25
610.916	393.25
611.124	395.25
611.332	385.25
611.54	404.25
611.748	413.25
611.955	399.25
612.163	380.25
612.371	385.25
612.579	407.25
612.787	389.25
612.995	397.25
613.203	409.25
613.411	401.25
613.618	406.25
613.826	393.25
614.034	388.25
614.242	394.25
614.449	385.25
614.657	394.25
614.865	391.25
615.072	397.25
615.28	389.25
615.488	405.25
615.695	403.25
615.903	402.25
616.111	397.25
616.318	389.25
616.526	392.25
616.733	373.25
616.941	380.25
617.148	385.25
617.356	400.25
617.563	385.25
617.771	376.25
617.978	386.25
618.185	366.25
618.393	380.25
618.6	392.25
618.807	391.25
619.015	401.25
619.222	402.25
619.429	362.25
619.637	358.25
619.844	357.25
620.051	352.25
620.258	356.25
620.466	344.25
620.673	360.25
620.88	344.25
621.087	358.25
621.294	349.25
621.501	338.25
621.708	348.25
621.915	359.25
622.122	361.25
622.329	369.25
622.536	356.25
622.743	360.25
622.95	352.25
623.157	349.25
623.364	359.25
623.571	340.25
623.778	365.25
623.985	354.25
624.192	358.25
624.399	355.25
624.606	330.25
624.812	336.25
625.019	334.25
625.226	310.25
625.433	303.25
625.639	317.25
625.846	317.25
626.053	309.25
626.259	300.25
626.466	300.25
626.673	313.25
626.879	298.25
627.086	305.25
627.293	294.25
627.499	308.25
627.706	341.25
627.912	319.25
628.119	328.25
628.325	334.25
628.532	306.25
628.738	339.25
628.945	324.25
629.151	305.25
629.357	323.25
629.564	316.25
629.77	308.25
629.976	312.25
630.183	305.25
630.389	291.25
630.595	320.25
630.802	299.25
631.008	315.25
631.214	301.25
631.42	303.25
631.627	293.25
631.833	286.25
632.039	304.25
632.245	295.25
632.451	297.25
632.657	304.25
632.863	283.25
633.069	294.25
633.275	308.25
633.481	294.25
633.688	288.25
633.893	299.25
634.099	287.25
634.305	286.25
634.511	284.25
634.717	273.25
634.923	275.25
635.129	270.25
635.335	259.25
635.541	269.25
635.747	293.25
635.952	285.25
636.158	292.25
636.364	292.25
636.57	304.25
636.775	282.25
636.981	277.25
637.187	284.25
637.392	291.25
637.598	288.25
637.804	287.25
638.009	291.25
638.215	287.25
638.421	265.25
638.626	284.25
638.832	262.25
639.037	279.25
639.243	266.25
639.448	272.25
639.654	263.25
639.859	258.25
640.065	279.25
640.27	275.25
640.475	272.25
640.681	257.25
640.886	263.25
641.091	278.25
641.297	276.25
641.502	269.25
641.707	268.25
641.913	281.25
642.118	263.25
642.323	275.25
642.528	263.25
642.733	268.25
642.939	251.25
643.144	282.25
643.349	266.25
643.554	245.25
643.759	263.25
643.964	263.25
644.169	244.25
644.374	255.25
644.579	270.25
644.784	265.25
644.989	235.25
645.194	275.25
645.399	252.25
645.604	248.25
645.809	252.25
646.014	281.25
646.219	255.25
646.423	264.25
646.628	235.25
646.833	255.25
647.038	251.25
647.243	248.25
647.447	260.25
647.652	257.25
647.857	258.25
648.062	248.25
648.266	270.25
648.471	253.25
648.676	279.25
648.88	255.25
649.085	254.25
649.289	243.25
649.494	268.25
649.698	258.25
649.903	264.25
650.107	264.25
650.312	260.25
650.516	256.25
650.721	257.25
650.925	238.25
651.13	248.25
651.334	231.25
651.539	223.25
651.743	248.25
651.947	233.25
652.152	226.25
652.356	248.25
652.56	233.25
652.764	232.25
652.969	239.25
653.173	218.25
653.377	230.25
653.581	239.25
653.785	223.25
653.99	234.25
654.194	240.25
654.398	222.25
654.602	228.25
654.806	224.25
655.01	232.25
655.214	229.25
655.418	218.25
655.622	253.25
655.826	257.25
656.03	239.25
656.234	244.25
656.438	242.25
656.642	247.25
656.846	224.25
657.049	211.25
657.253	210.25
657.457	204.25
657.661	202.25
657.865	176.25
658.068	177.25
658.272	178.25
658.476	176.25
658.68	163.25
658.883	157.25
659.087	169.25
659.291	145.25
659.494	146.25
659.698	159.25
659.901	135.25
660.105	148.25
660.309	131.25
660.512	117.25
660.716	116.25
660.919	118.25
661.123	120.25
661.326	113.25
661.53	113.25
661.733	96.25
661.936	107.25
662.14	108.25
662.343	106.25
662.546	101.25
662.75	104.25
662.953	107.25
663.156	89.25
663.36	87.25
663.563	86.25
663.766	88.25
663.969	90.25
664.173	96.25
664.376	97.25
664.579	80.25
664.782	90.25
664.985	92.25
665.188	91.25
665.391	86.25
665.594	83.25
665.797	93.25
666	84.25
666.203	87.25
666.406	84.25
666.609	74.25
666.812	75.25
667.015	83.25
667.218	95.25
667.421	79.25
667.624	94.25
667.827	79.25
668.03	68.25
668.232	75.25
668.435	84.25
668.638	89.25
668.841	75.25
669.043	85.25
669.246	84.25
669.449	87.25
669.651	58.25
669.854	69.25
670.057	71.25
670.259	93.25
670.462	83.25
670.665	79.25
670.867	90.25
671.07	79.25
671.272	98.25
671.475	83.25
671.677	83.25
671.88	91.25
672.082	64.25
672.284	81.25
672.487	83.25
672.689	86.25
672.892	71.25
