Data from WStandard_LampEnergy10_LIBS07252019.E.O._I.C._HRD10591_15-53-05-928.txt Node
Date: Thu Jul 25 15:53:05 EDT 2019
User: cochatt
Spectrometer: HR+D1059
Trigger mode: 1
Integration Time (sec): 1.000000E-1
Scans to average: 1
Electric dark correction enabled: true
Nonlinearity correction enabled: false
Boxcar width: 0
XAxis mode: Wavelengths
Number of Pixels in Spectrum: 2048
>>>>>Begin Spectral Data<<<<<
223.165	-20.38
223.4	-20.38
223.635	-20.38
223.869	-4.38
224.104	-14.38
224.338	-16.38
224.573	-8.38
224.808	-17.38
225.042	-12.38
225.277	-13.38
225.511	1.62
225.746	7.62
225.98	10.62
226.215	14.62
226.449	19.62
226.683	11.62
226.918	8.62
227.152	32.62
227.387	39.62
227.621	27.62
227.856	47.62
228.09	41.62
228.324	56.62
228.559	60.62
228.793	89.62
229.027	139.62
229.262	144.62
229.496	138.62
229.73	140.62
229.964	169.62
230.199	172.62
230.433	172.62
230.667	185.62
230.901	197.62
231.136	189.62
231.37	173.62
231.604	169.62
231.838	188.62
232.072	184.62
232.306	196.62
232.541	187.62
232.775	208.62
233.009	217.62
233.243	197.62
233.477	196.62
233.711	201.62
233.945	203.62
234.179	204.62
234.413	203.62
234.647	217.62
234.881	215.62
235.115	196.62
235.349	204.62
235.583	211.62
235.817	197.62
236.051	206.62
236.285	186.62
236.519	200.62
236.753	224.62
236.987	218.62
237.221	233.62
237.455	235.62
237.689	241.62
237.922	234.62
238.156	221.62
238.39	243.62
238.624	256.62
238.858	232.62
239.091	247.62
239.325	269.62
239.559	302.62
239.793	288.62
240.027	317.62
240.26	300.62
240.494	257.62
240.728	233.62
240.961	239.62
241.195	242.62
241.429	253.62
241.662	259.62
241.896	245.62
242.13	253.62
242.363	270.62
242.597	300.62
242.83	282.62
243.064	291.62
243.298	300.62
243.531	298.62
243.765	301.62
243.998	276.62
244.232	251.62
244.465	254.62
244.699	281.62
244.932	287.62
245.166	300.62
245.399	313.62
245.633	314.62
245.866	282.62
246.099	274.62
246.333	306.62
246.566	305.62
246.8	329.62
247.033	377.62
247.266	318.62
247.5	328.62
247.733	341.62
247.966	352.62
248.2	377.62
248.433	362.62
248.666	376.62
248.899	378.62
249.133	440.62
249.366	457.62
249.599	406.62
249.832	365.62
250.066	366.62
250.299	377.62
250.532	344.62
250.765	320.62
250.998	349.62
251.231	346.62
251.465	369.62
251.698	360.62
251.931	357.62
252.164	368.62
252.397	377.62
252.63	365.62
252.863	331.62
253.096	324.62
253.329	347.62
253.562	340.62
253.795	385.62
254.028	364.62
254.261	345.62
254.494	355.62
254.727	328.62
254.96	348.62
255.193	404.62
255.426	427.62
255.659	462.62
255.892	451.62
256.124	413.62
256.357	390.62
256.59	413.62
256.823	418.62
257.056	442.62
257.289	502.62
257.521	478.62
257.754	479.62
257.987	457.62
258.22	511.62
258.452	456.62
258.685	396.62
258.918	400.62
259.151	376.62
259.383	392.62
259.616	352.62
259.849	392.62
260.081	425.62
260.314	447.62
260.547	469.62
260.779	477.62
261.012	457.62
261.244	419.62
261.477	417.62
261.71	426.62
261.942	405.62
262.175	396.62
262.407	412.62
262.64	419.62
262.872	373.62
263.105	362.62
263.337	352.62
263.57	380.62
263.802	387.62
264.035	374.62
264.267	360.62
264.499	351.62
264.732	377.62
264.964	408.62
265.197	400.62
265.429	404.62
265.661	462.62
265.894	498.62
266.126	480.62
266.358	474.62
266.591	483.62
266.823	518.62
267.055	473.62
267.287	486.62
267.52	450.62
267.752	461.62
267.984	452.62
268.216	473.62
268.448	497.62
268.681	445.62
268.913	443.62
269.145	432.62
269.377	420.62
269.609	453.62
269.841	534.62
270.073	582.62
270.306	649.62
270.538	640.62
270.77	556.62
271.002	476.62
271.234	487.62
271.466	498.62
271.698	537.62
271.93	609.62
272.162	603.62
272.394	570.62
272.626	522.62
272.858	477.62
273.09	429.62
273.322	423.62
273.553	422.62
273.785	424.62
274.017	423.62
274.249	436.62
274.481	456.62
274.713	422.62
274.945	423.62
275.176	419.62
275.408	444.62
275.64	423.62
275.872	421.62
276.104	441.62
276.335	524.62
276.567	550.62
276.799	561.62
277.031	512.62
277.262	490.62
277.494	506.62
277.726	533.62
277.957	502.62
278.189	469.62
278.421	447.62
278.652	448.62
278.884	453.62
279.115	457.62
279.347	472.62
279.579	454.62
279.81	424.62
280.042	486.62
280.273	531.62
280.505	540.62
280.736	528.62
280.968	483.62
281.199	445.62
281.431	422.62
281.662	420.62
281.894	436.62
282.125	461.62
282.356	466.62
282.588	473.62
282.819	462.62
283.051	489.62
283.282	499.62
283.513	512.62
283.745	440.62
283.976	446.62
284.207	422.62
284.439	459.62
284.67	454.62
284.901	467.62
285.132	449.62
285.364	461.62
285.595	467.62
285.826	467.62
286.057	499.62
286.288	454.62
286.52	478.62
286.751	524.62
286.982	492.62
287.213	466.62
287.444	451.62
287.675	439.62
287.906	477.62
288.138	490.62
288.369	487.62
288.6	471.62
288.831	450.62
289.062	446.62
289.293	452.62
289.524	463.62
289.755	478.62
289.986	475.62
290.217	460.62
290.448	450.62
290.679	461.62
290.91	498.62
291.141	488.62
291.371	517.62
291.602	508.62
291.833	507.62
292.064	491.62
292.295	501.62
292.526	528.62
292.757	535.62
292.987	502.62
293.218	486.62
293.449	530.62
293.68	585.62
293.91	586.62
294.141	561.62
294.372	551.62
294.603	574.62
294.833	580.62
295.064	545.62
295.295	505.62
295.525	476.62
295.756	458.62
295.987	445.62
296.217	460.62
296.448	470.62
296.679	473.62
296.909	455.62
297.14	481.62
297.37	479.62
297.601	529.62
297.831	545.62
298.062	541.62
298.292	486.62
298.523	487.62
298.753	482.62
298.984	488.62
299.214	492.62
299.445	500.62
299.675	516.62
299.905	501.62
300.136	481.62
300.366	475.62
300.597	470.62
300.827	488.62
301.057	490.62
301.288	512.62
301.518	526.62
301.748	531.62
301.979	562.62
302.209	582.62
302.439	596.62
302.669	606.62
302.9	563.62
303.13	516.62
303.36	541.62
303.59	542.62
303.82	522.62
304.051	533.62
304.281	523.62
304.511	573.62
304.741	579.62
304.971	608.62
305.201	646.62
305.431	581.62
305.661	478.62
305.891	453.62
306.121	461.62
306.352	491.62
306.582	526.62
306.812	546.62
307.042	572.62
307.272	603.62
307.502	601.62
307.731	647.62
307.961	638.62
308.191	609.62
308.421	542.62
308.651	500.62
308.881	508.62
309.111	516.62
309.341	515.62
309.571	512.62
309.8	492.62
310.03	497.62
310.26	499.62
310.49	512.62
310.72	524.62
310.949	538.62
311.179	549.62
311.409	528.62
311.639	497.62
311.868	527.62
312.098	528.62
312.328	507.62
312.557	532.62
312.787	531.62
313.017	533.62
313.246	539.62
313.476	531.62
313.706	539.62
313.935	508.62
314.165	551.62
314.394	590.62
314.624	620.62
314.853	643.62
315.083	640.62
315.312	630.62
315.542	604.62
315.771	550.62
316.001	566.62
316.23	580.62
316.46	580.62
316.689	586.62
316.919	527.62
317.148	527.62
317.377	563.62
317.607	620.62
317.836	660.62
318.065	652.62
318.295	625.62
318.524	616.62
318.753	576.62
318.983	568.62
319.212	578.62
319.441	554.62
319.67	561.62
319.9	585.62
320.129	609.62
320.358	619.62
320.587	638.62
320.816	646.62
321.046	619.62
321.275	611.62
321.504	618.62
321.733	640.62
321.962	602.62
322.191	586.62
322.42	590.62
322.649	569.62
322.878	541.62
323.108	593.62
323.337	606.62
323.566	599.62
323.795	581.62
324.024	582.62
324.253	584.62
324.482	567.62
324.71	566.62
324.939	547.62
325.168	564.62
325.397	569.62
325.626	589.62
325.855	590.62
326.084	575.62
326.313	588.62
326.542	590.62
326.77	599.62
326.999	591.62
327.228	547.62
327.457	524.62
327.686	535.62
327.914	551.62
328.143	571.62
328.372	579.62
328.6	554.62
328.829	578.62
329.058	558.62
329.287	579.62
329.515	594.62
329.744	593.62
329.972	606.62
330.201	637.62
330.43	648.62
330.658	590.62
330.887	618.62
331.115	604.62
331.344	618.62
331.572	583.62
331.801	601.62
332.03	607.62
332.258	633.62
332.486	662.62
332.715	628.62
332.943	618.62
333.172	610.62
333.4	618.62
333.629	622.62
333.857	700.62
334.085	756.62
334.314	818.62
334.542	869.62
334.771	802.62
334.999	702.62
335.227	667.62
335.455	622.62
335.684	651.62
335.912	677.62
336.14	653.62
336.369	614.62
336.597	623.62
336.825	631.62
337.053	646.62
337.281	680.62
337.51	704.62
337.738	723.62
337.966	678.62
338.194	629.62
338.422	609.62
338.65	604.62
338.878	585.62
339.106	589.62
339.334	588.62
339.562	584.62
339.79	602.62
340.018	614.62
340.246	626.62
340.474	638.62
340.702	655.62
340.93	624.62
341.158	625.62
341.386	629.62
341.614	623.62
341.842	593.62
342.07	620.62
342.298	613.62
342.526	604.62
342.754	629.62
342.981	605.62
343.209	621.62
343.437	614.62
343.665	606.62
343.893	632.62
344.12	655.62
344.348	646.62
344.576	654.62
344.804	625.62
345.031	614.62
345.259	602.62
345.487	609.62
345.714	594.62
345.942	567.62
346.17	568.62
346.397	602.62
346.625	592.62
346.853	549.62
347.08	556.62
347.308	551.62
347.535	589.62
347.763	598.62
347.99	569.62
348.218	578.62
348.445	564.62
348.673	603.62
348.9	631.62
349.128	621.62
349.355	634.62
349.583	612.62
349.81	572.62
350.037	525.62
350.265	553.62
350.492	557.62
350.72	581.62
350.947	582.62
351.174	572.62
351.402	576.62
351.629	548.62
351.856	552.62
352.083	583.62
352.311	554.62
352.538	561.62
352.765	592.62
352.992	581.62
353.22	562.62
353.447	573.62
353.674	565.62
353.901	586.62
354.128	585.62
354.355	552.62
354.583	588.62
354.81	590.62
355.037	610.62
355.264	589.62
355.491	572.62
355.718	579.62
355.945	555.62
356.172	563.62
356.399	560.62
356.626	562.62
356.853	589.62
357.08	660.62
357.307	711.62
357.534	675.62
357.761	576.62
357.988	551.62
358.215	541.62
358.441	571.62
358.668	542.62
358.895	581.62
359.122	607.62
359.349	655.62
359.576	598.62
359.802	572.62
360.029	550.62
360.256	543.62
360.483	586.62
360.709	619.62
360.936	599.62
361.163	658.62
361.39	700.62
361.616	731.62
361.843	705.62
362.07	659.62
362.296	579.62
362.523	575.62
362.749	594.62
362.976	573.62
363.203	591.62
363.429	563.62
363.656	568.62
363.882	621.62
364.109	680.62
364.335	669.62
364.562	650.62
364.788	616.62
365.015	597.62
365.241	564.62
365.468	596.62
365.694	622.62
365.92	618.62
366.147	592.62
366.373	580.62
366.599	571.62
366.826	585.62
367.052	579.62
367.278	582.62
367.505	594.62
367.731	628.62
367.957	627.62
368.184	654.62
368.41	677.62
368.636	671.62
368.862	668.62
369.089	665.62
369.315	646.62
369.541	625.62
369.767	589.62
369.993	614.62
370.219	607.62
370.445	632.62
370.672	672.62
370.898	695.62
371.124	674.62
371.35	652.62
371.576	652.62
371.802	683.62
372.028	649.62
372.254	627.62
372.48	591.62
372.706	624.62
372.932	630.62
373.158	618.62
373.384	642.62
373.61	668.62
373.835	701.62
374.061	635.62
374.287	630.62
374.513	641.62
374.739	658.62
374.965	657.62
375.191	654.62
375.416	637.62
375.642	675.62
375.868	726.62
376.094	733.62
376.319	688.62
376.545	664.62
376.771	696.62
376.997	730.62
377.222	719.62
377.448	690.62
377.674	704.62
377.899	705.62
378.125	732.62
378.35	696.62
378.576	646.62
378.802	616.62
379.027	626.62
379.253	648.62
379.478	650.62
379.704	657.62
379.929	646.62
380.155	652.62
380.38	665.62
380.606	670.62
380.831	680.62
381.057	739.62
381.282	717.62
381.507	735.62
381.733	752.62
381.958	740.62
382.184	702.62
382.409	696.62
382.634	699.62
382.86	697.62
383.085	693.62
383.31	753.62
383.535	811.62
383.761	834.62
383.986	788.62
384.211	737.62
384.436	743.62
384.662	768.62
384.887	805.62
385.112	771.62
385.337	762.62
385.562	758.62
385.787	776.62
386.013	785.62
386.238	745.62
386.463	789.62
386.688	821.62
386.913	857.62
387.138	869.62
387.363	819.62
387.588	773.62
387.813	783.62
388.038	808.62
388.263	814.62
388.488	784.62
388.713	721.62
388.938	729.62
389.163	732.62
389.387	755.62
389.612	765.62
389.837	777.62
390.062	768.62
390.287	783.62
390.512	739.62
390.736	736.62
390.961	737.62
391.186	742.62
391.411	736.62
391.636	767.62
391.86	784.62
392.085	787.62
392.31	753.62
392.534	771.62
392.759	782.62
392.984	753.62
393.208	803.62
393.433	808.62
393.658	850.62
393.882	848.62
394.107	793.62
394.331	760.62
394.556	787.62
394.78	805.62
395.005	837.62
395.229	843.62
395.454	908.62
395.678	908.62
395.903	866.62
396.127	820.62
396.352	838.62
396.576	869.62
396.801	860.62
397.025	862.62
397.249	844.62
397.474	834.62
397.698	828.62
397.922	860.62
398.147	894.62
398.371	956.62
398.595	923.62
398.82	878.62
399.044	886.62
399.268	959.62
399.492	954.62
399.717	1002.62
399.941	1036.62
400.165	985.62
400.389	978.62
400.613	1002.62
400.837	1124.62
401.062	1204.62
401.286	1032.62
401.51	989.62
401.734	1008.62
401.958	952.62
402.182	875.62
402.406	900.62
402.63	882.62
402.854	920.62
403.078	915.62
403.302	921.62
403.526	931.62
403.75	940.62
403.974	935.62
404.198	934.62
404.422	1021.62
404.645	1063.62
404.869	995.62
405.093	928.62
405.317	886.62
405.541	918.62
405.765	936.62
405.988	916.62
406.212	960.62
406.436	994.62
406.66	1037.62
406.883	1046.62
407.107	1172.62
407.331	1251.62
407.555	1328.62
407.778	1166.62
408.002	1006.62
408.226	982.62
408.449	1004.62
408.673	965.62
408.896	960.62
409.12	964.62
409.344	929.62
409.567	960.62
409.791	978.62
410.014	986.62
410.238	1013.62
410.461	1083.62
410.685	960.62
410.908	939.62
411.132	968.62
411.355	936.62
411.578	941.62
411.802	950.62
412.025	956.62
412.249	976.62
412.472	945.62
412.695	909.62
412.919	898.62
413.142	935.62
413.365	941.62
413.589	965.62
413.812	1020.62
414.035	999.62
414.258	970.62
414.482	922.62
414.705	936.62
414.928	932.62
415.151	933.62
415.374	928.62
415.597	928.62
415.821	931.62
416.044	986.62
416.267	975.62
416.49	949.62
416.713	924.62
416.936	966.62
417.159	974.62
417.382	996.62
417.605	939.62
417.828	945.62
418.051	962.62
418.274	965.62
418.497	945.62
418.72	932.62
418.943	930.62
419.166	964.62
419.389	1005.62
419.611	976.62
419.834	928.62
420.057	964.62
420.28	977.62
420.503	956.62
420.726	978.62
420.948	966.62
421.171	947.62
421.394	981.62
421.617	989.62
421.839	1017.62
422.062	1009.62
422.285	942.62
422.507	938.62
422.73	904.62
422.953	880.62
423.175	874.62
423.398	948.62
423.621	936.62
423.843	961.62
424.066	997.62
424.288	1048.62
424.511	1076.62
424.733	981.62
424.956	969.62
425.178	966.62
425.401	948.62
425.623	986.62
425.846	959.62
426.068	994.62
426.291	992.62
426.513	987.62
426.735	976.62
426.958	1063.62
427.18	1093.62
427.402	1009.62
427.625	1088.62
427.847	1028.62
428.069	931.62
428.292	929.62
428.514	923.62
428.736	908.62
428.958	946.62
429.181	955.62
429.403	1096.62
429.625	1278.62
429.847	1052.62
430.069	960.62
430.292	1073.62
430.514	1055.62
430.736	986.62
430.958	978.62
431.18	955.62
431.402	888.62
431.624	860.62
431.846	793.62
432.068	740.62
432.29	760.62
432.512	814.62
432.734	896.62
432.956	953.62
433.178	986.62
433.4	985.62
433.622	946.62
433.844	950.62
434.066	871.62
434.287	818.62
434.509	807.62
434.731	852.62
434.953	914.62
435.175	938.62
435.397	923.62
435.618	912.62
435.84	853.62
436.062	858.62
436.284	914.62
436.505	949.62
436.727	970.62
436.949	924.62
437.17	894.62
437.392	894.62
437.614	850.62
437.835	838.62
438.057	849.62
438.278	889.62
438.5	881.62
438.721	905.62
438.943	940.62
439.165	974.62
439.386	947.62
439.608	993.62
439.829	965.62
440.05	979.62
440.272	986.62
440.493	973.62
440.715	1001.62
440.936	1031.62
441.158	1073.62
441.379	1063.62
441.6	1072.62
441.822	1073.62
442.043	1025.62
442.264	1007.62
442.486	959.62
442.707	990.62
442.928	970.62
443.149	1006.62
443.371	1015.62
443.592	1058.62
443.813	1034.62
444.034	1033.62
444.255	1043.62
444.476	1061.62
444.698	1079.62
444.919	1080.62
445.14	1150.62
445.361	1119.62
445.582	1086.62
445.803	1054.62
446.024	1050.62
446.245	1084.62
446.466	1053.62
446.687	1059.62
446.908	1063.62
447.129	1055.62
447.35	1058.62
447.571	1032.62
447.792	982.62
448.013	1016.62
448.234	994.62
448.455	1024.62
448.675	1010.62
448.896	944.62
449.117	913.62
449.338	954.62
449.559	985.62
449.779	1011.62
450	1051.62
450.221	1080.62
450.442	1044.62
450.662	957.62
450.883	902.62
451.104	908.62
451.324	898.62
451.545	935.62
451.766	886.62
451.986	859.62
452.207	834.62
452.428	806.62
452.648	775.62
452.869	798.62
453.089	810.62
453.31	789.62
453.53	781.62
453.751	752.62
453.971	720.62
454.192	739.62
454.412	772.62
454.633	819.62
454.853	822.62
455.073	779.62
455.294	780.62
455.514	794.62
455.734	780.62
455.955	746.62
456.175	765.62
456.395	752.62
456.616	763.62
456.836	764.62
457.056	741.62
457.276	722.62
457.497	727.62
457.717	705.62
457.937	718.62
458.157	726.62
458.377	704.62
458.598	688.62
458.818	673.62
459.038	728.62
459.258	724.62
459.478	717.62
459.698	713.62
459.918	742.62
460.138	817.62
460.358	844.62
460.578	855.62
460.798	888.62
461.018	889.62
461.238	876.62
461.458	906.62
461.678	857.62
461.898	838.62
462.118	837.62
462.338	855.62
462.558	874.62
462.777	861.62
462.997	902.62
463.217	900.62
463.437	913.62
463.657	865.62
463.876	834.62
464.096	860.62
464.316	867.62
464.536	924.62
464.755	880.62
464.975	890.62
465.195	864.62
465.414	903.62
465.634	887.62
465.854	920.62
466.073	1022.62
466.293	947.62
466.512	883.62
466.732	884.62
466.951	940.62
467.171	931.62
467.391	911.62
467.61	892.62
467.829	950.62
468.049	984.62
468.268	1075.62
468.488	974.62
468.707	965.62
468.927	926.62
469.146	926.62
469.365	945.62
469.585	943.62
469.804	968.62
470.023	961.62
470.243	949.62
470.462	968.62
470.681	934.62
470.901	929.62
471.12	959.62
471.339	967.62
471.558	939.62
471.777	923.62
471.997	911.62
472.216	866.62
472.435	808.62
472.654	779.62
472.873	790.62
473.092	864.62
473.311	856.62
473.53	829.62
473.749	820.62
473.968	860.62
474.187	863.62
474.406	870.62
474.625	896.62
474.844	918.62
475.063	900.62
475.282	896.62
475.501	822.62
475.72	875.62
475.939	932.62
476.158	916.62
476.377	901.62
476.596	892.62
476.814	858.62
477.033	837.62
477.252	898.62
477.471	905.62
477.69	910.62
477.908	972.62
478.127	975.62
478.346	1030.62
478.564	1036.62
478.783	1001.62
479.002	1037.62
479.22	1034.62
479.439	1042.62
479.658	1085.62
479.876	984.62
480.095	914.62
480.313	910.62
480.532	903.62
480.751	910.62
480.969	857.62
481.188	846.62
481.406	797.62
481.624	786.62
481.843	808.62
482.061	862.62
482.28	917.62
482.498	954.62
482.717	880.62
482.935	918.62
483.153	1029.62
483.372	1058.62
483.59	1047.62
483.808	1000.62
484.027	956.62
484.245	1016.62
484.463	1241.62
484.681	1345.62
484.9	1088.62
485.118	980.62
485.336	918.62
485.554	918.62
485.772	931.62
485.99	900.62
486.209	913.62
486.427	916.62
486.645	959.62
486.863	1029.62
487.081	1085.62
487.299	1046.62
487.517	1061.62
487.735	1154.62
487.953	1204.62
488.171	1220.62
488.389	1134.62
488.607	1118.62
488.825	1172.62
489.043	1101.62
489.261	1009.62
489.479	1088.62
489.696	1064.62
489.914	1060.62
490.132	1049.62
490.35	1122.62
490.568	1180.62
490.786	1204.62
491.003	1218.62
491.221	1304.62
491.439	1341.62
491.657	1366.62
491.874	1386.62
492.092	1451.62
492.31	1531.62
492.527	1484.62
492.745	1403.62
492.963	1378.62
493.18	1355.62
493.398	1387.62
493.615	1357.62
493.833	1302.62
494.05	1295.62
494.268	1254.62
494.485	1268.62
494.703	1259.62
494.92	1242.62
495.138	1262.62
495.355	1269.62
495.573	1291.62
495.79	1317.62
496.008	1332.62
496.225	1280.62
496.442	1247.62
496.66	1263.62
496.877	1238.62
497.094	1268.62
497.312	1237.62
497.529	1212.62
497.746	1210.62
497.963	1323.62
498.181	1342.62
498.398	1310.62
498.615	1216.62
498.832	1142.62
499.049	1160.62
499.267	1201.62
499.484	1272.62
499.701	1372.62
499.918	1396.62
500.135	1509.62
500.352	1580.62
500.569	1585.62
500.786	1718.62
501.003	1577.62
501.22	1483.62
501.437	1429.62
501.654	1445.62
501.871	1370.62
502.088	1202.62
502.305	1212.62
502.522	1159.62
502.739	1110.62
502.956	1108.62
503.172	1076.62
503.389	1031.62
503.606	1042.62
503.823	1022.62
504.04	1069.62
504.256	1046.62
504.473	1008.62
504.69	1034.62
504.907	1014.62
505.123	994.62
505.34	1103.62
505.557	1390.62
505.773	1148.62
505.99	982.62
506.207	950.62
506.423	910.62
506.64	925.62
506.856	949.62
507.073	1048.62
507.289	1099.62
507.506	1048.62
507.722	936.62
507.939	881.62
508.155	868.62
508.372	854.62
508.588	814.62
508.805	800.62
509.021	789.62
509.238	802.62
509.454	770.62
509.67	758.62
509.887	760.62
510.103	749.62
510.319	754.62
510.536	803.62
510.752	773.62
510.968	762.62
511.184	820.62
511.401	783.62
511.617	732.62
511.833	738.62
512.049	729.62
512.265	742.62
512.481	752.62
512.698	792.62
512.914	795.62
513.13	773.62
513.346	727.62
513.562	715.62
513.778	726.62
513.994	780.62
514.21	762.62
514.426	781.62
514.642	832.62
514.858	792.62
515.074	756.62
515.29	728.62
515.506	728.62
515.721	740.62
515.937	768.62
516.153	843.62
516.369	822.62
516.585	766.62
516.801	753.62
517.016	721.62
517.232	765.62
517.448	820.62
517.664	820.62
517.879	817.62
518.095	844.62
518.311	800.62
518.527	772.62
518.742	784.62
518.958	773.62
519.173	776.62
519.389	800.62
519.605	790.62
519.82	810.62
520.036	812.62
520.251	783.62
520.467	782.62
520.682	843.62
520.898	809.62
521.113	722.62
521.329	722.62
521.544	808.62
521.76	745.62
521.975	724.62
522.19	720.62
522.406	749.62
522.621	946.62
522.836	893.62
523.052	748.62
523.267	759.62
523.482	770.62
523.698	746.62
523.913	740.62
524.128	781.62
524.343	810.62
524.559	858.62
524.774	808.62
524.989	799.62
525.204	777.62
525.419	753.62
525.634	755.62
525.849	747.62
526.064	727.62
526.28	714.62
526.495	681.62
526.71	672.62
526.925	660.62
527.14	650.62
527.355	626.62
527.57	652.62
527.785	675.62
527.999	687.62
528.214	677.62
528.429	689.62
528.644	733.62
528.859	792.62
529.074	864.62
529.289	889.62
529.503	884.62
529.718	845.62
529.933	745.62
530.148	668.62
530.363	669.62
530.577	665.62
530.792	662.62
531.007	668.62
531.221	644.62
531.436	663.62
531.651	683.62
531.865	704.62
532.08	666.62
532.295	644.62
532.509	629.62
532.724	624.62
532.938	676.62
533.153	716.62
533.367	732.62
533.582	757.62
533.796	739.62
534.011	730.62
534.225	668.62
534.44	642.62
534.654	664.62
534.868	672.62
535.083	723.62
535.297	707.62
535.511	702.62
535.726	716.62
535.94	683.62
536.154	675.62
536.369	642.62
536.583	608.62
536.797	631.62
537.011	640.62
537.225	626.62
537.44	625.62
537.654	660.62
537.868	640.62
538.082	609.62
538.296	644.62
538.51	639.62
538.724	708.62
538.938	714.62
539.153	755.62
539.367	714.62
539.581	723.62
539.795	695.62
540.009	659.62
540.222	648.62
540.436	682.62
540.65	759.62
540.864	844.62
541.078	841.62
541.292	846.62
541.506	898.62
541.72	996.62
541.934	1057.62
542.147	1092.62
542.361	1028.62
542.575	945.62
542.789	857.62
543.002	794.62
543.216	764.62
543.43	778.62
543.644	816.62
543.857	883.62
544.071	948.62
544.285	973.62
544.498	943.62
544.712	940.62
544.925	973.62
545.139	967.62
545.352	944.62
545.566	934.62
545.779	954.62
545.993	976.62
546.206	1005.62
546.42	986.62
546.633	967.62
546.847	974.62
547.06	980.62
547.274	969.62
547.487	1045.62
547.7	1014.62
547.914	1002.62
548.127	1008.62
548.34	957.62
548.554	945.62
548.767	957.62
548.98	934.62
549.193	960.62
549.407	988.62
549.62	974.62
549.833	937.62
550.046	914.62
550.259	934.62
550.473	912.62
550.686	919.62
550.899	877.62
551.112	873.62
551.325	858.62
551.538	899.62
551.751	882.62
551.964	732.62
552.177	772.62
552.39	830.62
552.603	838.62
552.816	877.62
553.029	916.62
553.242	938.62
553.455	936.62
553.667	921.62
553.88	931.62
554.093	910.62
554.306	892.62
554.519	857.62
554.732	840.62
554.944	850.62
555.157	849.62
555.37	814.62
555.583	829.62
555.795	801.62
556.008	753.62
556.221	740.62
556.433	756.62
556.646	769.62
556.859	761.62
557.071	769.62
557.284	773.62
557.496	776.62
557.709	790.62
557.921	754.62
558.134	760.62
558.346	763.62
558.559	759.62
558.771	726.62
558.984	724.62
559.196	697.62
559.409	685.62
559.621	683.62
559.833	664.62
560.046	695.62
560.258	706.62
560.47	708.62
560.683	708.62
560.895	700.62
561.107	719.62
561.32	678.62
561.532	676.62
561.744	690.62
561.956	695.62
562.168	681.62
562.381	675.62
562.593	678.62
562.805	654.62
563.017	637.62
563.229	670.62
563.441	671.62
563.653	651.62
563.865	650.62
564.077	658.62
564.289	613.62
564.501	619.62
564.713	661.62
564.925	677.62
565.137	694.62
565.349	633.62
565.561	597.62
565.773	622.62
565.985	631.62
566.197	672.62
566.408	682.62
566.62	704.62
566.832	673.62
567.044	704.62
567.255	646.62
567.467	662.62
567.679	668.62
567.891	661.62
568.102	619.62
568.314	601.62
568.526	557.62
568.737	512.62
568.949	482.62
569.161	490.62
569.372	451.62
569.584	477.62
569.795	462.62
570.007	463.62
570.218	444.62
570.43	461.62
570.641	447.62
570.853	473.62
571.064	509.62
571.276	491.62
571.487	473.62
571.698	495.62
571.91	482.62
572.121	479.62
572.333	478.62
572.544	458.62
572.755	421.62
572.966	404.62
573.178	397.62
573.389	404.62
573.6	427.62
573.811	446.62
574.023	403.62
574.234	409.62
574.445	411.62
574.656	372.62
574.867	421.62
575.078	398.62
575.289	416.62
575.501	418.62
575.712	398.62
575.923	414.62
576.134	401.62
576.345	398.62
576.556	405.62
576.767	437.62
576.978	393.62
577.188	407.62
577.399	386.62
577.61	392.62
577.821	372.62
578.032	386.62
578.243	366.62
578.454	384.62
578.665	393.62
578.875	353.62
579.086	356.62
579.297	341.62
579.508	361.62
579.718	342.62
579.929	352.62
580.14	356.62
580.35	327.62
580.561	373.62
580.772	395.62
580.982	381.62
581.193	373.62
581.403	357.62
581.614	356.62
581.825	363.62
582.035	346.62
582.246	354.62
582.456	383.62
582.667	358.62
582.877	351.62
583.087	357.62
583.298	350.62
583.508	341.62
583.719	340.62
583.929	333.62
584.139	350.62
584.35	333.62
584.56	338.62
584.77	339.62
584.981	334.62
585.191	341.62
585.401	339.62
585.611	342.62
585.821	351.62
586.032	328.62
586.242	322.62
586.452	307.62
586.662	321.62
586.872	323.62
587.082	325.62
587.292	332.62
587.502	312.62
587.713	331.62
587.923	304.62
588.133	327.62
588.343	328.62
588.553	328.62
588.762	316.62
588.972	309.62
589.182	328.62
589.392	325.62
589.602	308.62
589.812	315.62
590.022	323.62
590.232	310.62
590.441	327.62
590.651	311.62
590.861	324.62
591.071	301.62
591.281	306.62
591.49	302.62
591.7	325.62
591.91	304.62
592.119	327.62
592.329	333.62
592.539	346.62
592.748	333.62
592.958	335.62
593.167	327.62
593.377	339.62
593.587	355.62
593.796	326.62
594.006	330.62
594.215	324.62
594.424	355.62
594.634	352.62
594.843	359.62
595.053	349.62
595.262	334.62
595.472	341.62
595.681	322.62
595.89	329.62
596.1	335.62
596.309	316.62
596.518	343.62
596.727	328.62
596.937	331.62
597.146	325.62
597.355	332.62
597.564	318.62
597.774	300.62
597.983	301.62
598.192	298.62
598.401	280.62
598.61	287.62
598.819	292.62
599.028	307.62
599.237	327.62
599.446	304.62
599.655	287.62
599.864	296.62
600.073	279.62
600.282	298.62
600.491	297.62
600.7	309.62
600.909	304.62
601.118	322.62
601.327	342.62
601.536	348.62
601.745	343.62
601.953	324.62
602.162	344.62
602.371	370.62
602.58	335.62
602.789	372.62
602.997	338.62
603.206	355.62
603.415	362.62
603.623	343.62
603.832	346.62
604.041	360.62
604.249	309.62
604.458	305.62
604.666	307.62
604.875	321.62
605.084	324.62
605.292	344.62
605.501	357.62
605.709	365.62
605.918	378.62
606.126	355.62
606.334	374.62
606.543	368.62
606.751	381.62
606.96	378.62
607.168	342.62
607.376	348.62
607.585	362.62
607.793	358.62
608.001	380.62
608.21	366.62
608.418	371.62
608.626	365.62
608.834	370.62
609.043	366.62
609.251	354.62
609.459	363.62
609.667	381.62
609.875	378.62
610.083	409.62
610.291	376.62
610.499	393.62
610.707	368.62
610.916	354.62
611.124	377.62
611.332	388.62
611.54	365.62
611.748	374.62
611.955	364.62
612.163	347.62
612.371	380.62
612.579	358.62
612.787	376.62
612.995	374.62
613.203	365.62
613.411	357.62
613.618	381.62
613.826	357.62
614.034	368.62
614.242	355.62
614.449	370.62
614.657	380.62
614.865	379.62
615.072	369.62
615.28	362.62
615.488	382.62
615.695	379.62
615.903	360.62
616.111	368.62
616.318	363.62
616.526	376.62
616.733	372.62
616.941	361.62
617.148	368.62
617.356	366.62
617.563	338.62
617.771	361.62
617.978	325.62
618.185	354.62
618.393	343.62
618.6	351.62
618.807	356.62
619.015	349.62
619.222	335.62
619.429	346.62
619.637	326.62
619.844	282.62
620.051	321.62
620.258	325.62
620.466	334.62
620.673	341.62
620.88	346.62
621.087	301.62
621.294	308.62
621.501	295.62
621.708	306.62
621.915	337.62
622.122	326.62
622.329	331.62
622.536	322.62
622.743	332.62
622.95	328.62
623.157	324.62
623.364	326.62
623.571	333.62
623.778	332.62
623.985	311.62
624.192	338.62
624.399	331.62
624.606	310.62
624.812	306.62
625.019	315.62
625.226	302.62
625.433	304.62
625.639	301.62
625.846	270.62
626.053	269.62
626.259	257.62
626.466	254.62
626.673	260.62
626.879	263.62
627.086	260.62
627.293	270.62
627.499	299.62
627.706	300.62
627.912	295.62
628.119	325.62
628.325	298.62
628.532	294.62
628.738	294.62
628.945	318.62
629.151	310.62
629.357	289.62
629.564	301.62
629.77	275.62
629.976	282.62
630.183	283.62
630.389	286.62
630.595	284.62
630.802	293.62
631.008	300.62
631.214	281.62
631.42	278.62
631.627	275.62
631.833	264.62
632.039	256.62
632.245	266.62
632.451	299.62
632.657	261.62
632.863	270.62
633.069	271.62
633.275	261.62
633.481	266.62
633.688	251.62
633.893	263.62
634.099	269.62
634.305	256.62
634.511	253.62
634.717	247.62
634.923	240.62
635.129	232.62
635.335	242.62
635.541	228.62
635.747	252.62
635.952	264.62
636.158	267.62
636.364	260.62
636.57	261.62
636.775	255.62
636.981	271.62
637.187	271.62
637.392	274.62
637.598	273.62
637.804	268.62
638.009	281.62
638.215	255.62
638.421	265.62
638.626	257.62
638.832	242.62
639.037	258.62
639.243	246.62
639.448	253.62
639.654	246.62
639.859	264.62
640.065	249.62
640.27	269.62
640.475	253.62
640.681	247.62
640.886	242.62
641.091	251.62
641.297	264.62
641.502	262.62
641.707	251.62
641.913	264.62
642.118	244.62
642.323	246.62
642.528	242.62
642.733	259.62
642.939	251.62
643.144	237.62
643.349	254.62
643.554	262.62
643.759	241.62
643.964	253.62
644.169	241.62
644.374	252.62
644.579	256.62
644.784	247.62
644.989	245.62
645.194	239.62
645.399	232.62
645.604	231.62
645.809	246.62
646.014	240.62
646.219	275.62
646.423	241.62
646.628	251.62
646.833	235.62
647.038	249.62
647.243	243.62
647.447	266.62
647.652	236.62
647.857	245.62
648.062	254.62
648.266	255.62
648.471	245.62
648.676	249.62
648.88	248.62
649.085	253.62
649.289	241.62
649.494	255.62
649.698	250.62
649.903	254.62
650.107	242.62
650.312	237.62
650.516	233.62
650.721	241.62
650.925	222.62
651.13	246.62
651.334	225.62
651.539	227.62
651.743	216.62
651.947	220.62
652.152	234.62
652.356	225.62
652.56	223.62
652.764	209.62
652.969	212.62
653.173	202.62
653.377	213.62
653.581	221.62
653.785	202.62
653.99	212.62
654.194	223.62
654.398	209.62
654.602	223.62
654.806	213.62
655.01	204.62
655.214	215.62
655.418	199.62
655.622	211.62
655.826	209.62
656.03	215.62
656.234	236.62
656.438	239.62
656.642	230.62
656.846	209.62
657.049	200.62
657.253	208.62
657.457	185.62
657.661	179.62
657.865	168.62
658.068	159.62
658.272	172.62
658.476	158.62
658.68	162.62
658.883	160.62
659.087	154.62
659.291	136.62
659.494	147.62
659.698	144.62
659.901	143.62
660.105	124.62
660.309	143.62
660.512	119.62
660.716	122.62
660.919	117.62
661.123	124.62
661.326	122.62
661.53	108.62
661.733	105.62
661.936	101.62
662.14	113.62
662.343	107.62
662.546	94.62
662.75	89.62
662.953	96.62
663.156	103.62
663.36	103.62
663.563	93.62
663.766	85.62
663.969	93.62
664.173	77.62
664.376	84.62
664.579	95.62
664.782	86.62
664.985	95.62
665.188	95.62
665.391	96.62
665.594	89.62
665.797	96.62
666	94.62
666.203	82.62
666.406	91.62
666.609	83.62
666.812	96.62
667.015	81.62
667.218	89.62
667.421	84.62
667.624	91.62
667.827	79.62
668.03	77.62
668.232	90.62
668.435	89.62
668.638	88.62
668.841	76.62
669.043	74.62
669.246	79.62
669.449	81.62
669.651	84.62
669.854	88.62
670.057	83.62
670.259	76.62
670.462	93.62
670.665	75.62
670.867	82.62
671.07	91.62
671.272	79.62
671.475	93.62
671.677	77.62
671.88	75.62
672.082	83.62
672.284	83.62
672.487	81.62
672.689	82.62
672.892	86.62
