Data from WStandard_LampEnergy10_LIBS07252019.E.O._I.C._HRD10591_15-53-22-927.txt Node
Date: Thu Jul 25 15:53:22 EDT 2019
User: cochatt
Spectrometer: HR+D1059
Trigger mode: 1
Integration Time (sec): 1.000000E-1
Scans to average: 1
Electric dark correction enabled: true
Nonlinearity correction enabled: false
Boxcar width: 0
XAxis mode: Wavelengths
Number of Pixels in Spectrum: 2048
>>>>>Begin Spectral Data<<<<<
223.165	-28.44
223.4	-28.44
223.635	-28.44
223.869	-13.44
224.104	-23.44
224.338	0.56
224.573	-13.44
224.808	-15.44
225.042	-14.44
225.277	-5.44
225.511	-2.44
225.746	0.56
225.98	8.56
226.215	4.56
226.449	20.56
226.683	30.56
226.918	18.56
227.152	32.56
227.387	33.56
227.621	57.56
227.856	33.56
228.09	41.56
228.324	34.56
228.559	50.56
228.793	70.56
229.027	121.56
229.262	136.56
229.496	140.56
229.73	160.56
229.964	151.56
230.199	161.56
230.433	178.56
230.667	186.56
230.901	203.56
231.136	173.56
231.37	161.56
231.604	158.56
231.838	179.56
232.072	168.56
232.306	174.56
232.541	183.56
232.775	204.56
233.009	207.56
233.243	209.56
233.477	193.56
233.711	184.56
233.945	196.56
234.179	188.56
234.413	202.56
234.647	207.56
234.881	202.56
235.115	195.56
235.349	190.56
235.583	205.56
235.817	191.56
236.051	175.56
236.285	189.56
236.519	212.56
236.753	226.56
236.987	222.56
237.221	235.56
237.455	233.56
237.689	231.56
237.922	222.56
238.156	220.56
238.39	254.56
238.624	252.56
238.858	233.56
239.091	238.56
239.325	266.56
239.559	286.56
239.793	305.56
240.027	305.56
240.26	299.56
240.494	241.56
240.728	220.56
240.961	236.56
241.195	244.56
241.429	257.56
241.662	257.56
241.896	256.56
242.13	265.56
242.363	266.56
242.597	289.56
242.83	261.56
243.064	290.56
243.298	290.56
243.531	297.56
243.765	290.56
243.998	263.56
244.232	236.56
244.465	240.56
244.699	244.56
244.932	294.56
245.166	310.56
245.399	296.56
245.633	274.56
245.866	281.56
246.099	289.56
246.333	284.56
246.566	290.56
246.8	327.56
247.033	339.56
247.266	339.56
247.5	322.56
247.733	300.56
247.966	344.56
248.2	358.56
248.433	376.56
248.666	363.56
248.899	395.56
249.133	446.56
249.366	466.56
249.599	396.56
249.832	378.56
250.066	377.56
250.299	363.56
250.532	377.56
250.765	342.56
250.998	339.56
251.231	363.56
251.465	379.56
251.698	360.56
251.931	354.56
252.164	355.56
252.397	359.56
252.63	366.56
252.863	339.56
253.096	357.56
253.329	337.56
253.562	355.56
253.795	350.56
254.028	363.56
254.261	345.56
254.494	343.56
254.727	345.56
254.96	345.56
255.193	383.56
255.426	418.56
255.659	444.56
255.892	464.56
256.124	402.56
256.357	384.56
256.59	410.56
256.823	400.56
257.056	415.56
257.289	515.56
257.521	522.56
257.754	480.56
257.987	458.56
258.22	468.56
258.452	459.56
258.685	388.56
258.918	398.56
259.151	411.56
259.383	375.56
259.616	351.56
259.849	384.56
260.081	408.56
260.314	456.56
260.547	467.56
260.779	460.56
261.012	446.56
261.244	425.56
261.477	400.56
261.71	416.56
261.942	407.56
262.175	384.56
262.407	400.56
262.64	405.56
262.872	372.56
263.105	368.56
263.337	388.56
263.57	371.56
263.802	387.56
264.035	356.56
264.267	354.56
264.499	353.56
264.732	373.56
264.964	399.56
265.197	408.56
265.429	416.56
265.661	474.56
265.894	510.56
266.126	501.56
266.358	475.56
266.591	476.56
266.823	468.56
267.055	461.56
267.287	457.56
267.52	471.56
267.752	468.56
267.984	452.56
268.216	465.56
268.448	484.56
268.681	442.56
268.913	442.56
269.145	413.56
269.377	407.56
269.609	458.56
269.841	528.56
270.073	595.56
270.306	642.56
270.538	634.56
270.77	537.56
271.002	499.56
271.234	486.56
271.466	487.56
271.698	538.56
271.93	601.56
272.162	579.56
272.394	562.56
272.626	537.56
272.858	469.56
273.09	436.56
273.322	438.56
273.553	396.56
273.785	402.56
274.017	450.56
274.249	439.56
274.481	450.56
274.713	408.56
274.945	410.56
275.176	425.56
275.408	410.56
275.64	402.56
275.872	401.56
276.104	464.56
276.335	480.56
276.567	539.56
276.799	530.56
277.031	496.56
277.262	496.56
277.494	494.56
277.726	521.56
277.957	518.56
278.189	471.56
278.421	426.56
278.652	439.56
278.884	428.56
279.115	445.56
279.347	456.56
279.579	458.56
279.81	443.56
280.042	496.56
280.273	493.56
280.505	513.56
280.736	522.56
280.968	495.56
281.199	439.56
281.431	406.56
281.662	435.56
281.894	433.56
282.125	422.56
282.356	455.56
282.588	459.56
282.819	458.56
283.051	498.56
283.282	510.56
283.513	479.56
283.745	444.56
283.976	414.56
284.207	444.56
284.439	423.56
284.67	466.56
284.901	460.56
285.132	463.56
285.364	457.56
285.595	448.56
285.826	459.56
286.057	452.56
286.288	448.56
286.52	483.56
286.751	505.56
286.982	480.56
287.213	484.56
287.444	440.56
287.675	447.56
287.906	467.56
288.138	491.56
288.369	473.56
288.6	458.56
288.831	451.56
289.062	447.56
289.293	448.56
289.524	439.56
289.755	471.56
289.986	468.56
290.217	445.56
290.448	434.56
290.679	460.56
290.91	458.56
291.141	477.56
291.371	458.56
291.602	487.56
291.833	470.56
292.064	487.56
292.295	508.56
292.526	522.56
292.757	519.56
292.987	503.56
293.218	494.56
293.449	547.56
293.68	579.56
293.91	606.56
294.141	567.56
294.372	547.56
294.603	550.56
294.833	574.56
295.064	538.56
295.295	491.56
295.525	463.56
295.756	447.56
295.987	434.56
296.217	451.56
296.448	473.56
296.679	481.56
296.909	471.56
297.14	473.56
297.37	475.56
297.601	509.56
297.831	522.56
298.062	503.56
298.292	507.56
298.523	462.56
298.753	494.56
298.984	488.56
299.214	471.56
299.445	504.56
299.675	494.56
299.905	497.56
300.136	481.56
300.366	458.56
300.597	479.56
300.827	473.56
301.057	489.56
301.288	518.56
301.518	503.56
301.748	518.56
301.979	540.56
302.209	552.56
302.439	606.56
302.669	597.56
302.9	539.56
303.13	499.56
303.36	513.56
303.59	505.56
303.82	512.56
304.051	522.56
304.281	541.56
304.511	534.56
304.741	577.56
304.971	599.56
305.201	628.56
305.431	578.56
305.661	488.56
305.891	464.56
306.121	452.56
306.352	477.56
306.582	526.56
306.812	556.56
307.042	568.56
307.272	586.56
307.502	600.56
307.731	636.56
307.961	647.56
308.191	583.56
308.421	551.56
308.651	503.56
308.881	516.56
309.111	509.56
309.341	490.56
309.571	488.56
309.8	515.56
310.03	498.56
310.26	481.56
310.49	506.56
310.72	539.56
310.949	536.56
311.179	534.56
311.409	533.56
311.639	494.56
311.868	527.56
312.098	518.56
312.328	517.56
312.557	489.56
312.787	522.56
313.017	516.56
313.246	535.56
313.476	524.56
313.706	536.56
313.935	530.56
314.165	525.56
314.394	547.56
314.624	580.56
314.853	629.56
315.083	633.56
315.312	619.56
315.542	590.56
315.771	528.56
316.001	559.56
316.23	570.56
316.46	551.56
316.689	560.56
316.919	530.56
317.148	514.56
317.377	544.56
317.607	614.56
317.836	642.56
318.065	634.56
318.295	631.56
318.524	619.56
318.753	569.56
318.983	587.56
319.212	559.56
319.441	556.56
319.67	553.56
319.9	578.56
320.129	602.56
320.358	620.56
320.587	648.56
320.816	618.56
321.046	623.56
321.275	593.56
321.504	603.56
321.733	634.56
321.962	594.56
322.191	593.56
322.42	583.56
322.649	563.56
322.878	551.56
323.108	570.56
323.337	574.56
323.566	575.56
323.795	587.56
324.024	585.56
324.253	591.56
324.482	563.56
324.71	563.56
324.939	546.56
325.168	545.56
325.397	574.56
325.626	583.56
325.855	585.56
326.084	549.56
326.313	560.56
326.542	564.56
326.77	592.56
326.999	555.56
327.228	553.56
327.457	531.56
327.686	539.56
327.914	556.56
328.143	561.56
328.372	604.56
328.6	579.56
328.829	574.56
329.058	564.56
329.287	563.56
329.515	548.56
329.744	569.56
329.972	597.56
330.201	628.56
330.43	620.56
330.658	613.56
330.887	608.56
331.115	606.56
331.344	609.56
331.572	579.56
331.801	599.56
332.03	594.56
332.258	598.56
332.486	613.56
332.715	594.56
332.943	607.56
333.172	607.56
333.4	634.56
333.629	613.56
333.857	682.56
334.085	757.56
334.314	844.56
334.542	854.56
334.771	775.56
334.999	682.56
335.227	664.56
335.455	635.56
335.684	642.56
335.912	669.56
336.14	671.56
336.369	620.56
336.597	609.56
336.825	614.56
337.053	633.56
337.281	684.56
337.51	687.56
337.738	709.56
337.966	670.56
338.194	619.56
338.422	596.56
338.65	587.56
338.878	597.56
339.106	569.56
339.334	563.56
339.562	575.56
339.79	612.56
340.018	639.56
340.246	635.56
340.474	619.56
340.702	628.56
340.93	622.56
341.158	618.56
341.386	605.56
341.614	607.56
341.842	599.56
342.07	613.56
342.298	600.56
342.526	605.56
342.754	590.56
342.981	599.56
343.209	588.56
343.437	584.56
343.665	593.56
343.893	613.56
344.12	648.56
344.348	642.56
344.576	609.56
344.804	604.56
345.031	618.56
345.259	596.56
345.487	594.56
345.714	574.56
345.942	555.56
346.17	579.56
346.397	580.56
346.625	589.56
346.853	552.56
347.08	546.56
347.308	570.56
347.535	591.56
347.763	574.56
347.99	575.56
348.218	570.56
348.445	558.56
348.673	559.56
348.9	593.56
349.128	600.56
349.355	626.56
349.583	599.56
349.81	566.56
350.037	540.56
350.265	546.56
350.492	557.56
350.72	554.56
350.947	586.56
351.174	569.56
351.402	550.56
351.629	542.56
351.856	569.56
352.083	528.56
352.311	547.56
352.538	570.56
352.765	570.56
352.992	592.56
353.22	560.56
353.447	539.56
353.674	580.56
353.901	578.56
354.128	587.56
354.355	570.56
354.583	558.56
354.81	606.56
355.037	587.56
355.264	586.56
355.491	577.56
355.718	566.56
355.945	577.56
356.172	583.56
356.399	573.56
356.626	561.56
356.853	595.56
357.08	664.56
357.307	701.56
357.534	648.56
357.761	576.56
357.988	559.56
358.215	556.56
358.441	574.56
358.668	546.56
358.895	584.56
359.122	626.56
359.349	652.56
359.576	624.56
359.802	575.56
360.029	560.56
360.256	560.56
360.483	563.56
360.709	578.56
360.936	611.56
361.163	644.56
361.39	698.56
361.616	734.56
361.843	719.56
362.07	670.56
362.296	570.56
362.523	547.56
362.749	578.56
362.976	593.56
363.203	609.56
363.429	571.56
363.656	578.56
363.882	627.56
364.109	652.56
364.335	671.56
364.562	628.56
364.788	616.56
365.015	581.56
365.241	572.56
365.468	598.56
365.694	595.56
365.92	636.56
366.147	589.56
366.373	570.56
366.599	578.56
366.826	567.56
367.052	572.56
367.278	588.56
367.505	607.56
367.731	586.56
367.957	617.56
368.184	629.56
368.41	658.56
368.636	674.56
368.862	656.56
369.089	672.56
369.315	634.56
369.541	629.56
369.767	603.56
369.993	578.56
370.219	575.56
370.445	611.56
370.672	661.56
370.898	662.56
371.124	669.56
371.35	614.56
371.576	646.56
371.802	668.56
372.028	671.56
372.254	614.56
372.48	604.56
372.706	607.56
372.932	576.56
373.158	626.56
373.384	627.56
373.61	658.56
373.835	680.56
374.061	624.56
374.287	641.56
374.513	650.56
374.739	638.56
374.965	643.56
375.191	654.56
375.416	650.56
375.642	664.56
375.868	710.56
376.094	717.56
376.319	683.56
376.545	651.56
376.771	679.56
376.997	697.56
377.222	692.56
377.448	666.56
377.674	654.56
377.899	668.56
378.125	715.56
378.35	700.56
378.576	641.56
378.802	632.56
379.027	632.56
379.253	648.56
379.478	631.56
379.704	628.56
379.929	655.56
380.155	637.56
380.38	679.56
380.606	698.56
380.831	654.56
381.057	706.56
381.282	707.56
381.507	724.56
381.733	736.56
381.958	739.56
382.184	682.56
382.409	674.56
382.634	683.56
382.86	706.56
383.085	694.56
383.31	754.56
383.535	788.56
383.761	791.56
383.986	757.56
384.211	740.56
384.436	757.56
384.662	786.56
384.887	800.56
385.112	755.56
385.337	755.56
385.562	710.56
385.787	773.56
386.013	780.56
386.238	755.56
386.463	762.56
386.688	827.56
386.913	848.56
387.138	831.56
387.363	756.56
387.588	761.56
387.813	768.56
388.038	797.56
388.263	822.56
388.488	739.56
388.713	723.56
388.938	728.56
389.163	734.56
389.387	757.56
389.612	768.56
389.837	779.56
390.062	779.56
390.287	784.56
390.512	760.56
390.736	769.56
390.961	729.56
391.186	731.56
391.411	742.56
391.636	750.56
391.86	755.56
392.085	772.56
392.31	763.56
392.534	778.56
392.759	788.56
392.984	742.56
393.208	779.56
393.433	790.56
393.658	842.56
393.882	824.56
394.107	780.56
394.331	766.56
394.556	772.56
394.78	798.56
395.005	816.56
395.229	873.56
395.454	887.56
395.678	868.56
395.903	825.56
396.127	828.56
396.352	804.56
396.576	862.56
396.801	852.56
397.025	870.56
397.249	862.56
397.474	843.56
397.698	841.56
397.922	884.56
398.147	922.56
398.371	912.56
398.595	942.56
398.82	875.56
399.044	906.56
399.268	956.56
399.492	999.56
399.717	998.56
399.941	1017.56
400.165	995.56
400.389	975.56
400.613	986.56
400.837	1106.56
401.062	1193.56
401.286	1027.56
401.51	977.56
401.734	971.56
401.958	952.56
402.182	932.56
402.406	883.56
402.63	876.56
402.854	884.56
403.078	918.56
403.302	937.56
403.526	911.56
403.75	920.56
403.974	924.56
404.198	959.56
404.422	992.56
404.645	1039.56
404.869	990.56
405.093	921.56
405.317	930.56
405.541	955.56
405.765	914.56
405.988	934.56
406.212	960.56
406.436	955.56
406.66	1011.56
406.883	1026.56
407.107	1127.56
407.331	1223.56
407.555	1282.56
407.778	1125.56
408.002	995.56
408.226	963.56
408.449	972.56
408.673	927.56
408.896	984.56
409.12	969.56
409.344	919.56
409.567	952.56
409.791	951.56
410.014	1001.56
410.238	1034.56
410.461	1072.56
410.685	1006.56
410.908	932.56
411.132	965.56
411.355	946.56
411.578	951.56
411.802	950.56
412.025	923.56
412.249	940.56
412.472	937.56
412.695	951.56
412.919	914.56
413.142	946.56
413.365	916.56
413.589	986.56
413.812	1009.56
414.035	1003.56
414.258	970.56
414.482	939.56
414.705	915.56
414.928	962.56
415.151	953.56
415.374	908.56
415.597	952.56
415.821	942.56
416.044	985.56
416.267	938.56
416.49	921.56
416.713	910.56
416.936	956.56
417.159	993.56
417.382	986.56
417.605	939.56
417.828	938.56
418.051	969.56
418.274	934.56
418.497	965.56
418.72	933.56
418.943	924.56
419.166	988.56
419.389	978.56
419.611	971.56
419.834	966.56
420.057	948.56
420.28	936.56
420.503	959.56
420.726	964.56
420.948	974.56
421.171	931.56
421.394	929.56
421.617	1006.56
421.839	1031.56
422.062	945.56
422.285	950.56
422.507	953.56
422.73	906.56
422.953	897.56
423.175	900.56
423.398	922.56
423.621	932.56
423.843	971.56
424.066	998.56
424.288	1033.56
424.511	1056.56
424.733	1029.56
424.956	905.56
425.178	918.56
425.401	928.56
425.623	975.56
425.846	957.56
426.068	985.56
426.291	962.56
426.513	968.56
426.735	968.56
426.958	1047.56
427.18	1083.56
427.402	1033.56
427.625	1034.56
427.847	1000.56
428.069	945.56
428.292	917.56
428.514	930.56
428.736	914.56
428.958	920.56
429.181	962.56
429.403	1064.56
429.625	1234.56
429.847	1064.56
430.069	947.56
430.292	1074.56
430.514	1052.56
430.736	992.56
430.958	981.56
431.18	910.56
431.402	885.56
431.624	866.56
431.846	816.56
432.068	760.56
432.29	751.56
432.512	807.56
432.734	888.56
432.956	920.56
433.178	965.56
433.4	988.56
433.622	946.56
433.844	940.56
434.066	891.56
434.287	786.56
434.509	752.56
434.731	840.56
434.953	926.56
435.175	948.56
435.397	906.56
435.618	896.56
435.84	881.56
436.062	860.56
436.284	916.56
436.505	952.56
436.727	950.56
436.949	913.56
437.17	897.56
437.392	896.56
437.614	852.56
437.835	801.56
438.057	816.56
438.278	868.56
438.5	885.56
438.721	906.56
438.943	945.56
439.165	961.56
439.386	951.56
439.608	961.56
439.829	966.56
440.05	982.56
440.272	979.56
440.493	954.56
440.715	988.56
440.936	1047.56
441.158	1072.56
441.379	1070.56
441.6	1073.56
441.822	1038.56
442.043	1037.56
442.264	1024.56
442.486	970.56
442.707	976.56
442.928	976.56
443.149	1008.56
443.371	1006.56
443.592	1009.56
443.813	1044.56
444.034	1011.56
444.255	1039.56
444.476	1048.56
444.698	1047.56
444.919	1066.56
445.14	1200.56
445.361	1128.56
445.582	1113.56
445.803	1071.56
446.024	1052.56
446.245	1058.56
446.466	1072.56
446.687	1039.56
446.908	1059.56
447.129	1024.56
447.35	1016.56
447.571	988.56
447.792	975.56
448.013	972.56
448.234	991.56
448.455	1003.56
448.675	988.56
448.896	954.56
449.117	917.56
449.338	934.56
449.559	986.56
449.779	988.56
450	1031.56
450.221	1029.56
450.442	1037.56
450.662	963.56
450.883	892.56
451.104	870.56
451.324	902.56
451.545	885.56
451.766	884.56
451.986	864.56
452.207	822.56
452.428	801.56
452.648	798.56
452.869	800.56
453.089	807.56
453.31	787.56
453.53	787.56
453.751	746.56
453.971	693.56
454.192	743.56
454.412	801.56
454.633	799.56
454.853	788.56
455.073	758.56
455.294	774.56
455.514	790.56
455.734	804.56
455.955	781.56
456.175	758.56
456.395	751.56
456.616	717.56
456.836	744.56
457.056	758.56
457.276	724.56
457.497	729.56
457.717	702.56
457.937	726.56
458.157	720.56
458.377	703.56
458.598	691.56
458.818	689.56
459.038	708.56
459.258	731.56
459.478	721.56
459.698	715.56
459.918	746.56
460.138	794.56
460.358	871.56
460.578	857.56
460.798	849.56
461.018	891.56
461.238	881.56
461.458	846.56
461.678	859.56
461.898	837.56
462.118	818.56
462.338	855.56
462.558	879.56
462.777	862.56
462.997	884.56
463.217	878.56
463.437	874.56
463.657	852.56
463.876	846.56
464.096	855.56
464.316	856.56
464.536	892.56
464.755	886.56
464.975	878.56
465.195	841.56
465.414	894.56
465.634	867.56
465.854	896.56
466.073	978.56
466.293	952.56
466.512	882.56
466.732	885.56
466.951	892.56
467.171	915.56
467.391	901.56
467.61	901.56
467.829	908.56
468.049	993.56
468.268	1011.56
468.488	981.56
468.707	928.56
468.927	928.56
469.146	918.56
469.365	924.56
469.585	933.56
469.804	919.56
470.023	942.56
470.243	920.56
470.462	949.56
470.681	944.56
470.901	945.56
471.12	919.56
471.339	968.56
471.558	906.56
471.777	904.56
471.997	900.56
472.216	855.56
472.435	798.56
472.654	769.56
472.873	798.56
473.092	849.56
473.311	852.56
473.53	822.56
473.749	823.56
473.968	836.56
474.187	894.56
474.406	855.56
474.625	885.56
474.844	876.56
475.063	887.56
475.282	898.56
475.501	831.56
475.72	850.56
475.939	920.56
476.158	904.56
476.377	864.56
476.596	870.56
476.814	830.56
477.033	816.56
477.252	862.56
477.471	910.56
477.69	927.56
477.908	966.56
478.127	1018.56
478.346	1009.56
478.564	1003.56
478.783	1029.56
479.002	1012.56
479.22	1024.56
479.439	1038.56
479.658	1064.56
479.876	999.56
480.095	907.56
480.313	916.56
480.532	882.56
480.751	874.56
480.969	826.56
481.188	806.56
481.406	788.56
481.624	756.56
481.843	768.56
482.061	855.56
482.28	896.56
482.498	924.56
482.717	860.56
482.935	916.56
483.153	970.56
483.372	1020.56
483.59	987.56
483.808	961.56
484.027	956.56
484.245	1015.56
484.463	1210.56
484.681	1312.56
484.9	1074.56
485.118	994.56
485.336	921.56
485.554	907.56
485.772	902.56
485.99	888.56
486.209	908.56
486.427	903.56
486.645	979.56
486.863	1015.56
487.081	1034.56
487.299	1023.56
487.517	1008.56
487.735	1095.56
487.953	1206.56
488.171	1170.56
488.389	1121.56
488.607	1106.56
488.825	1121.56
489.043	1075.56
489.261	1006.56
489.479	1034.56
489.696	1076.56
489.914	1071.56
490.132	1041.56
490.35	1097.56
490.568	1175.56
490.786	1210.56
491.003	1208.56
491.221	1254.56
491.439	1338.56
491.657	1310.56
491.874	1387.56
492.092	1482.56
492.31	1475.56
492.527	1426.56
492.745	1392.56
492.963	1342.56
493.18	1306.56
493.398	1376.56
493.615	1356.56
493.833	1272.56
494.05	1262.56
494.268	1237.56
494.485	1251.56
494.703	1253.56
494.92	1243.56
495.138	1249.56
495.355	1277.56
495.573	1281.56
495.79	1285.56
496.008	1288.56
496.225	1252.56
496.442	1265.56
496.66	1265.56
496.877	1230.56
497.094	1235.56
497.312	1295.56
497.529	1183.56
497.746	1210.56
497.963	1309.56
498.181	1307.56
498.398	1269.56
498.615	1212.56
498.832	1169.56
499.049	1164.56
499.267	1183.56
499.484	1255.56
499.701	1377.56
499.918	1396.56
500.135	1490.56
500.352	1562.56
500.569	1594.56
500.786	1692.56
501.003	1568.56
501.22	1440.56
501.437	1420.56
501.654	1430.56
501.871	1352.56
502.088	1185.56
502.305	1203.56
502.522	1147.56
502.739	1095.56
502.956	1109.56
503.172	1061.56
503.389	1001.56
503.606	987.56
503.823	1009.56
504.04	1031.56
504.256	1009.56
504.473	1022.56
504.69	1014.56
504.907	1000.56
505.123	995.56
505.34	1051.56
505.557	1336.56
505.773	1114.56
505.99	969.56
506.207	920.56
506.423	901.56
506.64	911.56
506.856	926.56
507.073	1033.56
507.289	1094.56
507.506	1000.56
507.722	936.56
507.939	858.56
508.155	870.56
508.372	847.56
508.588	845.56
508.805	793.56
509.021	792.56
509.238	811.56
509.454	738.56
509.67	771.56
509.887	773.56
510.103	714.56
510.319	746.56
510.536	794.56
510.752	789.56
510.968	780.56
511.184	820.56
511.401	802.56
511.617	728.56
511.833	699.56
512.049	705.56
512.265	712.56
512.481	723.56
512.698	764.56
512.914	771.56
513.13	761.56
513.346	729.56
513.562	710.56
513.778	720.56
513.994	753.56
514.21	751.56
514.426	798.56
514.642	832.56
514.858	779.56
515.074	739.56
515.29	698.56
515.506	736.56
515.721	738.56
515.937	782.56
516.153	809.56
516.369	815.56
516.585	729.56
516.801	701.56
517.016	714.56
517.232	758.56
517.448	790.56
517.664	758.56
517.879	789.56
518.095	826.56
518.311	808.56
518.527	773.56
518.742	770.56
518.958	766.56
519.173	781.56
519.389	778.56
519.605	792.56
519.82	794.56
520.036	798.56
520.251	770.56
520.467	779.56
520.682	822.56
520.898	812.56
521.113	741.56
521.329	733.56
521.544	770.56
521.76	766.56
521.975	714.56
522.19	722.56
522.406	711.56
522.621	922.56
522.836	864.56
523.052	741.56
523.267	759.56
523.482	761.56
523.698	755.56
523.913	745.56
524.128	786.56
524.343	823.56
524.559	838.56
524.774	795.56
524.989	796.56
525.204	803.56
525.419	742.56
525.634	743.56
525.849	753.56
526.064	754.56
526.28	722.56
526.495	678.56
526.71	658.56
526.925	638.56
527.14	641.56
527.355	616.56
527.57	610.56
527.785	648.56
527.999	674.56
528.214	681.56
528.429	691.56
528.644	752.56
528.859	816.56
529.074	830.56
529.289	882.56
529.503	884.56
529.718	794.56
529.933	736.56
530.148	674.56
530.363	640.56
530.577	652.56
530.792	632.56
531.007	638.56
531.221	626.56
531.436	632.56
531.651	641.56
531.865	692.56
532.08	666.56
532.295	615.56
532.509	613.56
532.724	615.56
532.938	659.56
533.153	715.56
533.367	690.56
533.582	745.56
533.796	745.56
534.011	725.56
534.225	650.56
534.44	639.56
534.654	662.56
534.868	666.56
535.083	674.56
535.297	723.56
535.511	679.56
535.726	704.56
535.94	690.56
536.154	649.56
536.369	618.56
536.583	611.56
536.797	594.56
537.011	622.56
537.225	616.56
537.44	633.56
537.654	662.56
537.868	649.56
538.082	601.56
538.296	628.56
538.51	662.56
538.724	689.56
538.938	704.56
539.153	759.56
539.367	706.56
539.581	707.56
539.795	688.56
540.009	641.56
540.222	642.56
540.436	688.56
540.65	750.56
540.864	796.56
541.078	825.56
541.292	847.56
541.506	923.56
541.72	967.56
541.934	1062.56
542.147	1080.56
542.361	1003.56
542.575	943.56
542.789	862.56
543.002	780.56
543.216	737.56
543.43	772.56
543.644	823.56
543.857	881.56
544.071	942.56
544.285	932.56
544.498	935.56
544.712	915.56
544.925	946.56
545.139	993.56
545.352	934.56
545.566	955.56
545.779	933.56
545.993	978.56
546.206	986.56
546.42	970.56
546.633	970.56
546.847	928.56
547.06	980.56
547.274	974.56
547.487	1019.56
547.7	998.56
547.914	1026.56
548.127	995.56
548.34	955.56
548.554	981.56
548.767	942.56
548.98	923.56
549.193	903.56
549.407	939.56
549.62	947.56
549.833	927.56
550.046	915.56
550.259	942.56
550.473	889.56
550.686	889.56
550.899	889.56
551.112	860.56
551.325	849.56
551.538	850.56
551.751	865.56
551.964	686.56
552.177	732.56
552.39	811.56
552.603	821.56
552.816	883.56
553.029	904.56
553.242	936.56
553.455	938.56
553.667	890.56
553.88	911.56
554.093	890.56
554.306	857.56
554.519	848.56
554.732	828.56
554.944	810.56
555.157	832.56
555.37	827.56
555.583	814.56
555.795	810.56
556.008	744.56
556.221	753.56
556.433	722.56
556.646	743.56
556.859	711.56
557.071	738.56
557.284	767.56
557.496	755.56
557.709	750.56
557.921	767.56
558.134	740.56
558.346	754.56
558.559	728.56
558.771	743.56
558.984	698.56
559.196	680.56
559.409	677.56
559.621	678.56
559.833	671.56
560.046	683.56
560.258	670.56
560.47	688.56
560.683	690.56
560.895	675.56
561.107	687.56
561.32	671.56
561.532	686.56
561.744	662.56
561.956	703.56
562.168	658.56
562.381	632.56
562.593	643.56
562.805	658.56
563.017	652.56
563.229	628.56
563.441	648.56
563.653	648.56
563.865	634.56
564.077	622.56
564.289	634.56
564.501	607.56
564.713	622.56
564.925	649.56
565.137	676.56
565.349	615.56
565.561	619.56
565.773	610.56
565.985	608.56
566.197	672.56
566.408	675.56
566.62	694.56
566.832	708.56
567.044	689.56
567.255	675.56
567.467	651.56
567.679	646.56
567.891	649.56
568.102	634.56
568.314	580.56
568.526	561.56
568.737	504.56
568.949	481.56
569.161	485.56
569.372	454.56
569.584	449.56
569.795	446.56
570.007	447.56
570.218	447.56
570.43	446.56
570.641	448.56
570.853	483.56
571.064	495.56
571.276	484.56
571.487	498.56
571.698	478.56
571.91	469.56
572.121	468.56
572.333	439.56
572.544	425.56
572.755	423.56
572.966	419.56
573.178	408.56
573.389	383.56
573.6	423.56
573.811	434.56
574.023	401.56
574.234	378.56
574.445	388.56
574.656	402.56
574.867	416.56
575.078	399.56
575.289	418.56
575.501	382.56
575.712	391.56
575.923	397.56
576.134	392.56
576.345	376.56
576.556	411.56
576.767	399.56
576.978	384.56
577.188	363.56
577.399	386.56
577.61	370.56
577.821	391.56
578.032	370.56
578.243	374.56
578.454	352.56
578.665	369.56
578.875	334.56
579.086	323.56
579.297	346.56
579.508	335.56
579.718	360.56
579.929	337.56
580.14	329.56
580.35	326.56
580.561	351.56
580.772	394.56
580.982	368.56
581.193	368.56
581.403	350.56
581.614	342.56
581.825	351.56
582.035	351.56
582.246	358.56
582.456	354.56
582.667	350.56
582.877	337.56
583.087	330.56
583.298	338.56
583.508	332.56
583.719	346.56
583.929	343.56
584.139	334.56
584.35	304.56
584.56	327.56
584.77	334.56
584.981	329.56
585.191	340.56
585.401	355.56
585.611	338.56
585.821	321.56
586.032	331.56
586.242	314.56
586.452	310.56
586.662	313.56
586.872	317.56
587.082	306.56
587.292	315.56
587.502	313.56
587.713	314.56
587.923	335.56
588.133	302.56
588.343	322.56
588.553	298.56
588.762	308.56
588.972	307.56
589.182	322.56
589.392	296.56
589.602	318.56
589.812	320.56
590.022	321.56
590.232	297.56
590.441	331.56
590.651	305.56
590.861	315.56
591.071	295.56
591.281	287.56
591.49	316.56
591.7	308.56
591.91	324.56
592.119	333.56
592.329	320.56
592.539	328.56
592.748	323.56
592.958	335.56
593.167	307.56
593.377	327.56
593.587	334.56
593.796	312.56
594.006	326.56
594.215	331.56
594.424	350.56
594.634	325.56
594.843	343.56
595.053	333.56
595.262	345.56
595.472	325.56
595.681	312.56
595.89	322.56
596.1	315.56
596.309	320.56
596.518	329.56
596.727	331.56
596.937	333.56
597.146	335.56
597.355	309.56
597.564	303.56
597.774	306.56
597.983	296.56
598.192	278.56
598.401	268.56
598.61	278.56
598.819	303.56
599.028	292.56
599.237	295.56
599.446	283.56
599.655	293.56
599.864	295.56
600.073	292.56
600.282	286.56
600.491	290.56
600.7	294.56
600.909	286.56
601.118	319.56
601.327	319.56
601.536	342.56
601.745	339.56
601.953	354.56
602.162	330.56
602.371	347.56
602.58	356.56
602.789	355.56
602.997	352.56
603.206	373.56
603.415	346.56
603.623	360.56
603.832	367.56
604.041	353.56
604.249	321.56
604.458	331.56
604.666	298.56
604.875	315.56
605.084	314.56
605.292	346.56
605.501	367.56
605.709	370.56
605.918	358.56
606.126	373.56
606.334	354.56
606.543	362.56
606.751	371.56
606.96	362.56
607.168	339.56
607.376	355.56
607.585	336.56
607.793	332.56
608.001	347.56
608.21	356.56
608.418	362.56
608.626	367.56
608.834	366.56
609.043	347.56
609.251	366.56
609.459	366.56
609.667	369.56
609.875	366.56
610.083	394.56
610.291	378.56
610.499	375.56
610.707	353.56
610.916	360.56
611.124	376.56
611.332	355.56
611.54	363.56
611.748	362.56
611.955	371.56
612.163	345.56
612.371	358.56
612.579	361.56
612.787	368.56
612.995	370.56
613.203	376.56
613.411	362.56
613.618	359.56
613.826	354.56
614.034	379.56
614.242	353.56
614.449	354.56
614.657	355.56
614.865	360.56
615.072	360.56
615.28	355.56
615.488	368.56
615.695	359.56
615.903	368.56
616.111	363.56
616.318	370.56
616.526	353.56
616.733	368.56
616.941	345.56
617.148	360.56
617.356	347.56
617.563	339.56
617.771	349.56
617.978	314.56
618.185	353.56
618.393	352.56
618.6	351.56
618.807	335.56
619.015	346.56
619.222	342.56
619.429	336.56
619.637	316.56
619.844	290.56
620.051	306.56
620.258	316.56
620.466	325.56
620.673	317.56
620.88	314.56
621.087	330.56
621.294	316.56
621.501	297.56
621.708	318.56
621.915	293.56
622.122	343.56
622.329	343.56
622.536	323.56
622.743	307.56
622.95	314.56
623.157	324.56
623.364	314.56
623.571	341.56
623.778	347.56
623.985	321.56
624.192	320.56
624.399	340.56
624.606	321.56
624.812	309.56
625.019	296.56
625.226	288.56
625.433	296.56
625.639	291.56
625.846	277.56
626.053	273.56
626.259	254.56
626.466	249.56
626.673	243.56
626.879	232.56
627.086	240.56
627.293	264.56
627.499	278.56
627.706	292.56
627.912	304.56
628.119	318.56
628.325	290.56
628.532	321.56
628.738	297.56
628.945	265.56
629.151	288.56
629.357	282.56
629.564	289.56
629.77	274.56
629.976	284.56
630.183	263.56
630.389	283.56
630.595	295.56
630.802	288.56
631.008	275.56
631.214	285.56
631.42	281.56
631.627	265.56
631.833	250.56
632.039	254.56
632.245	251.56
632.451	266.56
632.657	264.56
632.863	259.56
633.069	269.56
633.275	256.56
633.481	272.56
633.688	275.56
633.893	251.56
634.099	265.56
634.305	254.56
634.511	258.56
634.717	243.56
634.923	250.56
635.129	240.56
635.335	225.56
635.541	219.56
635.747	242.56
635.952	252.56
636.158	262.56
636.364	266.56
636.57	246.56
636.775	259.56
636.981	263.56
637.187	257.56
637.392	278.56
637.598	256.56
637.804	286.56
638.009	271.56
638.215	257.56
638.421	238.56
638.626	263.56
638.832	244.56
639.037	248.56
639.243	250.56
639.448	249.56
639.654	243.56
639.859	222.56
640.065	246.56
640.27	260.56
640.475	256.56
640.681	240.56
640.886	251.56
641.091	246.56
641.297	242.56
641.502	250.56
641.707	255.56
641.913	254.56
642.118	245.56
642.323	240.56
642.528	276.56
642.733	241.56
642.939	246.56
643.144	248.56
643.349	245.56
643.554	267.56
643.759	258.56
643.964	241.56
644.169	249.56
644.374	248.56
644.579	242.56
644.784	259.56
644.989	254.56
645.194	255.56
645.399	238.56
645.604	249.56
645.809	239.56
646.014	251.56
646.219	267.56
646.423	252.56
646.628	241.56
646.833	238.56
647.038	243.56
647.243	244.56
647.447	245.56
647.652	247.56
647.857	241.56
648.062	260.56
648.266	234.56
648.471	232.56
648.676	241.56
648.88	251.56
649.085	245.56
649.289	254.56
649.494	247.56
649.698	229.56
649.903	226.56
650.107	234.56
650.312	233.56
650.516	223.56
650.721	236.56
650.925	211.56
651.13	249.56
651.334	254.56
651.539	208.56
651.743	223.56
651.947	224.56
652.152	214.56
652.356	219.56
652.56	191.56
652.764	204.56
652.969	213.56
653.173	209.56
653.377	200.56
653.581	207.56
653.785	208.56
653.99	193.56
654.194	205.56
654.398	191.56
654.602	223.56
654.806	191.56
655.01	196.56
655.214	213.56
655.418	206.56
655.622	207.56
655.826	212.56
656.03	207.56
656.234	214.56
656.438	217.56
656.642	236.56
656.846	226.56
657.049	216.56
657.253	201.56
657.457	196.56
657.661	201.56
657.865	177.56
658.068	168.56
658.272	144.56
658.476	161.56
658.68	156.56
658.883	151.56
659.087	147.56
659.291	125.56
659.494	130.56
659.698	140.56
659.901	150.56
660.105	128.56
660.309	122.56
660.512	121.56
660.716	140.56
660.919	130.56
661.123	120.56
661.326	106.56
661.53	114.56
661.733	119.56
661.936	104.56
662.14	106.56
662.343	97.56
662.546	88.56
662.75	77.56
662.953	96.56
663.156	96.56
663.36	95.56
663.563	90.56
663.766	83.56
663.969	85.56
664.173	99.56
664.376	84.56
664.579	87.56
664.782	95.56
664.985	85.56
665.188	77.56
665.391	83.56
665.594	91.56
665.797	94.56
666	79.56
666.203	90.56
666.406	87.56
666.609	83.56
666.812	78.56
667.015	83.56
667.218	94.56
667.421	95.56
667.624	89.56
667.827	78.56
668.03	69.56
668.232	96.56
668.435	73.56
668.638	80.56
668.841	66.56
669.043	84.56
669.246	82.56
669.449	92.56
669.651	91.56
669.854	101.56
670.057	82.56
670.259	91.56
670.462	84.56
670.665	81.56
670.867	79.56
671.07	85.56
671.272	77.56
671.475	70.56
671.677	90.56
671.88	96.56
672.082	92.56
672.284	85.56
672.487	87.56
672.689	74.56
672.892	85.56
