Data from WStandard_LampEnergy10_LIBS07252019.E.O._I.C._HRD10591_15-53-48-928.txt Node
Date: Thu Jul 25 15:53:48 EDT 2019
User: cochatt
Spectrometer: HR+D1059
Trigger mode: 1
Integration Time (sec): 1.000000E-1
Scans to average: 1
Electric dark correction enabled: true
Nonlinearity correction enabled: false
Boxcar width: 0
XAxis mode: Wavelengths
Number of Pixels in Spectrum: 2048
>>>>>Begin Spectral Data<<<<<
223.165	-20.31
223.4	-20.31
223.635	-20.31
223.869	-30.31
224.104	-13.31
224.338	-23.31
224.573	-12.31
224.808	-11.31
225.042	5.69
225.277	-1.31
225.511	3.69
225.746	-3.31
225.98	-0.31
226.215	25.69
226.449	13.69
226.683	12.69
226.918	23.69
227.152	30.69
227.387	26.69
227.621	36.69
227.856	42.69
228.09	48.69
228.324	55.69
228.559	59.69
228.793	82.69
229.027	127.69
229.262	137.69
229.496	142.69
229.73	151.69
229.964	157.69
230.199	187.69
230.433	169.69
230.667	201.69
230.901	188.69
231.136	169.69
231.37	186.69
231.604	169.69
231.838	168.69
232.072	188.69
232.306	174.69
232.541	177.69
232.775	184.69
233.009	205.69
233.243	186.69
233.477	190.69
233.711	197.69
233.945	202.69
234.179	203.69
234.413	210.69
234.647	209.69
234.881	221.69
235.115	201.69
235.349	205.69
235.583	188.69
235.817	177.69
236.051	204.69
236.285	194.69
236.519	210.69
236.753	229.69
236.987	215.69
237.221	218.69
237.455	238.69
237.689	234.69
237.922	214.69
238.156	205.69
238.39	224.69
238.624	234.69
238.858	229.69
239.091	250.69
239.325	281.69
239.559	270.69
239.793	298.69
240.027	305.69
240.26	300.69
240.494	255.69
240.728	227.69
240.961	232.69
241.195	241.69
241.429	245.69
241.662	243.69
241.896	252.69
242.13	248.69
242.363	260.69
242.597	285.69
242.83	279.69
243.064	275.69
243.298	304.69
243.531	284.69
243.765	268.69
243.998	278.69
244.232	268.69
244.465	258.69
244.699	258.69
244.932	267.69
245.166	315.69
245.399	296.69
245.633	304.69
245.866	268.69
246.099	273.69
246.333	302.69
246.566	305.69
246.8	332.69
247.033	341.69
247.266	329.69
247.5	316.69
247.733	329.69
247.966	338.69
248.2	367.69
248.433	347.69
248.666	369.69
248.899	386.69
249.133	437.69
249.366	462.69
249.599	398.69
249.832	356.69
250.066	383.69
250.299	360.69
250.532	342.69
250.765	327.69
250.998	325.69
251.231	342.69
251.465	359.69
251.698	318.69
251.931	354.69
252.164	363.69
252.397	359.69
252.63	357.69
252.863	325.69
253.096	324.69
253.329	312.69
253.562	346.69
253.795	367.69
254.028	348.69
254.261	341.69
254.494	351.69
254.727	344.69
254.96	356.69
255.193	380.69
255.426	426.69
255.659	429.69
255.892	454.69
256.124	401.69
256.357	387.69
256.59	404.69
256.823	401.69
257.056	424.69
257.289	483.69
257.521	491.69
257.754	457.69
257.987	433.69
258.22	453.69
258.452	456.69
258.685	387.69
258.918	399.69
259.151	385.69
259.383	384.69
259.616	345.69
259.849	372.69
260.081	399.69
260.314	447.69
260.547	484.69
260.779	458.69
261.012	439.69
261.244	415.69
261.477	401.69
261.71	395.69
261.942	389.69
262.175	395.69
262.407	393.69
262.64	397.69
262.872	355.69
263.105	367.69
263.337	379.69
263.57	374.69
263.802	372.69
264.035	370.69
264.267	345.69
264.499	341.69
264.732	371.69
264.964	395.69
265.197	395.69
265.429	407.69
265.661	459.69
265.894	484.69
266.126	493.69
266.358	456.69
266.591	464.69
266.823	480.69
267.055	445.69
267.287	440.69
267.52	451.69
267.752	464.69
267.984	451.69
268.216	468.69
268.448	469.69
268.681	438.69
268.913	433.69
269.145	410.69
269.377	391.69
269.609	457.69
269.841	516.69
270.073	578.69
270.306	629.69
270.538	623.69
270.77	522.69
271.002	473.69
271.234	471.69
271.466	490.69
271.698	517.69
271.93	592.69
272.162	585.69
272.394	527.69
272.626	507.69
272.858	452.69
273.09	413.69
273.322	396.69
273.553	387.69
273.785	399.69
274.017	415.69
274.249	438.69
274.481	439.69
274.713	432.69
274.945	413.69
275.176	403.69
275.408	411.69
275.64	384.69
275.872	412.69
276.104	433.69
276.335	502.69
276.567	543.69
276.799	507.69
277.031	475.69
277.262	451.69
277.494	478.69
277.726	537.69
277.957	508.69
278.189	458.69
278.421	431.69
278.652	410.69
278.884	430.69
279.115	443.69
279.347	435.69
279.579	424.69
279.81	451.69
280.042	486.69
280.273	515.69
280.505	505.69
280.736	522.69
280.968	470.69
281.199	421.69
281.431	405.69
281.662	421.69
281.894	444.69
282.125	427.69
282.356	454.69
282.588	463.69
282.819	451.69
283.051	479.69
283.282	524.69
283.513	467.69
283.745	430.69
283.976	437.69
284.207	429.69
284.439	432.69
284.67	461.69
284.901	458.69
285.132	478.69
285.364	451.69
285.595	462.69
285.826	439.69
286.057	462.69
286.288	459.69
286.52	454.69
286.751	490.69
286.982	508.69
287.213	452.69
287.444	430.69
287.675	461.69
287.906	483.69
288.138	481.69
288.369	455.69
288.6	450.69
288.831	450.69
289.062	459.69
289.293	448.69
289.524	457.69
289.755	472.69
289.986	464.69
290.217	436.69
290.448	454.69
290.679	467.69
290.91	473.69
291.141	447.69
291.371	472.69
291.602	469.69
291.833	505.69
292.064	508.69
292.295	488.69
292.526	470.69
292.757	512.69
292.987	476.69
293.218	480.69
293.449	528.69
293.68	553.69
293.91	606.69
294.141	547.69
294.372	537.69
294.603	562.69
294.833	564.69
295.064	552.69
295.295	477.69
295.525	473.69
295.756	452.69
295.987	432.69
296.217	443.69
296.448	458.69
296.679	453.69
296.909	467.69
297.14	464.69
297.37	488.69
297.601	486.69
297.831	530.69
298.062	509.69
298.292	489.69
298.523	472.69
298.753	473.69
298.984	461.69
299.214	489.69
299.445	511.69
299.675	484.69
299.905	487.69
300.136	474.69
300.366	456.69
300.597	455.69
300.827	467.69
301.057	467.69
301.288	492.69
301.518	484.69
301.748	522.69
301.979	544.69
302.209	545.69
302.439	587.69
302.669	582.69
302.9	547.69
303.13	509.69
303.36	523.69
303.59	512.69
303.82	498.69
304.051	534.69
304.281	528.69
304.511	546.69
304.741	577.69
304.971	612.69
305.201	624.69
305.431	561.69
305.661	472.69
305.891	454.69
306.121	448.69
306.352	452.69
306.582	515.69
306.812	545.69
307.042	546.69
307.272	570.69
307.502	578.69
307.731	625.69
307.961	639.69
308.191	585.69
308.421	529.69
308.651	477.69
308.881	504.69
309.111	501.69
309.341	502.69
309.571	482.69
309.8	476.69
310.03	492.69
310.26	488.69
310.49	466.69
310.72	515.69
310.949	514.69
311.179	553.69
311.409	507.69
311.639	509.69
311.868	507.69
312.098	517.69
312.328	503.69
312.557	535.69
312.787	517.69
313.017	511.69
313.246	522.69
313.476	542.69
313.706	541.69
313.935	532.69
314.165	543.69
314.394	571.69
314.624	614.69
314.853	602.69
315.083	631.69
315.312	617.69
315.542	598.69
315.771	538.69
316.001	557.69
316.23	589.69
316.46	575.69
316.689	538.69
316.919	519.69
317.148	521.69
317.377	539.69
317.607	586.69
317.836	629.69
318.065	668.69
318.295	612.69
318.524	604.69
318.753	586.69
318.983	575.69
319.212	551.69
319.441	550.69
319.67	554.69
319.9	571.69
320.129	593.69
320.358	608.69
320.587	634.69
320.816	630.69
321.046	570.69
321.275	590.69
321.504	582.69
321.733	628.69
321.962	603.69
322.191	559.69
322.42	581.69
322.649	543.69
322.878	544.69
323.108	546.69
323.337	553.69
323.566	557.69
323.795	579.69
324.024	556.69
324.253	557.69
324.482	568.69
324.71	529.69
324.939	528.69
325.168	552.69
325.397	575.69
325.626	583.69
325.855	582.69
326.084	551.69
326.313	560.69
326.542	586.69
326.77	563.69
326.999	555.69
327.228	547.69
327.457	527.69
327.686	553.69
327.914	535.69
328.143	581.69
328.372	569.69
328.6	548.69
328.829	575.69
329.058	555.69
329.287	555.69
329.515	559.69
329.744	585.69
329.972	595.69
330.201	631.69
330.43	604.69
330.658	579.69
330.887	602.69
331.115	587.69
331.344	613.69
331.572	593.69
331.801	585.69
332.03	585.69
332.258	595.69
332.486	601.69
332.715	616.69
332.943	596.69
333.172	584.69
333.4	595.69
333.629	643.69
333.857	666.69
334.085	741.69
334.314	807.69
334.542	846.69
334.771	777.69
334.999	729.69
335.227	664.69
335.455	629.69
335.684	635.69
335.912	664.69
336.14	640.69
336.369	621.69
336.597	603.69
336.825	627.69
337.053	642.69
337.281	657.69
337.51	698.69
337.738	695.69
337.966	672.69
338.194	615.69
338.422	605.69
338.65	588.69
338.878	599.69
339.106	559.69
339.334	553.69
339.562	571.69
339.79	583.69
340.018	627.69
340.246	647.69
340.474	627.69
340.702	637.69
340.93	611.69
341.158	627.69
341.386	615.69
341.614	607.69
341.842	584.69
342.07	575.69
342.298	595.69
342.526	602.69
342.754	611.69
342.981	611.69
343.209	595.69
343.437	589.69
343.665	584.69
343.893	616.69
344.12	651.69
344.348	637.69
344.576	608.69
344.804	611.69
345.031	595.69
345.259	597.69
345.487	570.69
345.714	571.69
345.942	569.69
346.17	580.69
346.397	596.69
346.625	571.69
346.853	522.69
347.08	529.69
347.308	567.69
347.535	554.69
347.763	586.69
347.99	582.69
348.218	540.69
348.445	563.69
348.673	576.69
348.9	593.69
349.128	617.69
349.355	638.69
349.583	591.69
349.81	573.69
350.037	539.69
350.265	545.69
350.492	567.69
350.72	583.69
350.947	594.69
351.174	570.69
351.402	547.69
351.629	541.69
351.856	536.69
352.083	509.69
352.311	537.69
352.538	521.69
352.765	565.69
352.992	564.69
353.22	552.69
353.447	573.69
353.674	580.69
353.901	570.69
354.128	543.69
354.355	559.69
354.583	595.69
354.81	600.69
355.037	587.69
355.264	571.69
355.491	564.69
355.718	575.69
355.945	562.69
356.172	555.69
356.399	578.69
356.626	550.69
356.853	575.69
357.08	643.69
357.307	681.69
357.534	652.69
357.761	588.69
357.988	538.69
358.215	543.69
358.441	532.69
358.668	540.69
358.895	555.69
359.122	600.69
359.349	639.69
359.576	608.69
359.802	563.69
360.029	546.69
360.256	548.69
360.483	569.69
360.709	603.69
360.936	597.69
361.163	640.69
361.39	673.69
361.616	697.69
361.843	698.69
362.07	667.69
362.296	584.69
362.523	564.69
362.749	563.69
362.976	567.69
363.203	596.69
363.429	567.69
363.656	552.69
363.882	581.69
364.109	637.69
364.335	657.69
364.562	631.69
364.788	608.69
365.015	581.69
365.241	559.69
365.468	592.69
365.694	604.69
365.92	635.69
366.147	597.69
366.373	566.69
366.599	533.69
366.826	553.69
367.052	566.69
367.278	575.69
367.505	563.69
367.731	579.69
367.957	624.69
368.184	631.69
368.41	688.69
368.636	673.69
368.862	665.69
369.089	670.69
369.315	640.69
369.541	601.69
369.767	604.69
369.993	591.69
370.219	607.69
370.445	630.69
370.672	669.69
370.898	691.69
371.124	651.69
371.35	631.69
371.576	643.69
371.802	647.69
372.028	643.69
372.254	623.69
372.48	600.69
372.706	605.69
372.932	607.69
373.158	645.69
373.384	638.69
373.61	645.69
373.835	664.69
374.061	610.69
374.287	620.69
374.513	624.69
374.739	623.69
374.965	629.69
375.191	642.69
375.416	667.69
375.642	687.69
375.868	691.69
376.094	712.69
376.319	687.69
376.545	632.69
376.771	668.69
376.997	736.69
377.222	674.69
377.448	673.69
377.674	668.69
377.899	695.69
378.125	710.69
378.35	691.69
378.576	657.69
378.802	632.69
379.027	620.69
379.253	632.69
379.478	662.69
379.704	631.69
379.929	648.69
380.155	649.69
380.38	648.69
380.606	659.69
380.831	671.69
381.057	696.69
381.282	700.69
381.507	696.69
381.733	731.69
381.958	756.69
382.184	671.69
382.409	687.69
382.634	667.69
382.86	672.69
383.085	675.69
383.31	704.69
383.535	755.69
383.761	817.69
383.986	765.69
384.211	701.69
384.436	713.69
384.662	777.69
384.887	774.69
385.112	738.69
385.337	727.69
385.562	738.69
385.787	726.69
386.013	759.69
386.238	771.69
386.463	779.69
386.688	842.69
386.913	854.69
387.138	828.69
387.363	785.69
387.588	786.69
387.813	765.69
388.038	792.69
388.263	803.69
388.488	782.69
388.713	726.69
388.938	729.69
389.163	728.69
389.387	753.69
389.612	721.69
389.837	755.69
390.062	779.69
390.287	752.69
390.512	728.69
390.736	731.69
390.961	724.69
391.186	747.69
391.411	748.69
391.636	731.69
391.86	764.69
392.085	739.69
392.31	744.69
392.534	742.69
392.759	771.69
392.984	755.69
393.208	795.69
393.433	801.69
393.658	805.69
393.882	812.69
394.107	766.69
394.331	772.69
394.556	769.69
394.78	793.69
395.005	785.69
395.229	836.69
395.454	895.69
395.678	860.69
395.903	826.69
396.127	819.69
396.352	808.69
396.576	831.69
396.801	860.69
397.025	850.69
397.249	818.69
397.474	826.69
397.698	811.69
397.922	872.69
398.147	893.69
398.371	945.69
398.595	934.69
398.82	883.69
399.044	891.69
399.268	954.69
399.492	971.69
399.717	972.69
399.941	984.69
400.165	964.69
400.389	956.69
400.613	1005.69
400.837	1111.69
401.062	1185.69
401.286	1024.69
401.51	994.69
401.734	998.69
401.958	955.69
402.182	897.69
402.406	868.69
402.63	870.69
402.854	880.69
403.078	875.69
403.302	903.69
403.526	909.69
403.75	927.69
403.974	921.69
404.198	958.69
404.422	995.69
404.645	1014.69
404.869	963.69
405.093	945.69
405.317	904.69
405.541	924.69
405.765	939.69
405.988	920.69
406.212	939.69
406.436	963.69
406.66	991.69
406.883	1023.69
407.107	1132.69
407.331	1233.69
407.555	1271.69
407.778	1115.69
408.002	1025.69
408.226	965.69
408.449	961.69
408.673	968.69
408.896	945.69
409.12	970.69
409.344	933.69
409.567	931.69
409.791	957.69
410.014	987.69
410.238	1025.69
410.461	1045.69
410.685	937.69
410.908	932.69
411.132	951.69
411.355	947.69
411.578	940.69
411.802	931.69
412.025	967.69
412.249	933.69
412.472	911.69
412.695	916.69
412.919	908.69
413.142	917.69
413.365	929.69
413.589	970.69
413.812	978.69
414.035	993.69
414.258	945.69
414.482	892.69
414.705	938.69
414.928	915.69
415.151	913.69
415.374	925.69
415.597	948.69
415.821	950.69
416.044	927.69
416.267	915.69
416.49	910.69
416.713	895.69
416.936	966.69
417.159	972.69
417.382	947.69
417.605	963.69
417.828	971.69
418.051	966.69
418.274	946.69
418.497	932.69
418.72	917.69
418.943	897.69
419.166	993.69
419.389	1024.69
419.611	983.69
419.834	938.69
420.057	962.69
420.28	923.69
420.503	907.69
420.726	963.69
420.948	977.69
421.171	914.69
421.394	940.69
421.617	980.69
421.839	995.69
422.062	980.69
422.285	947.69
422.507	919.69
422.73	931.69
422.953	874.69
423.175	913.69
423.398	929.69
423.621	927.69
423.843	957.69
424.066	962.69
424.288	1009.69
424.511	1064.69
424.733	1000.69
424.956	948.69
425.178	937.69
425.401	949.69
425.623	962.69
425.846	943.69
426.068	982.69
426.291	1005.69
426.513	954.69
426.735	956.69
426.958	1064.69
427.18	1073.69
427.402	994.69
427.625	1047.69
427.847	979.69
428.069	910.69
428.292	914.69
428.514	912.69
428.736	909.69
428.958	917.69
429.181	937.69
429.403	1069.69
429.625	1221.69
429.847	1049.69
430.069	981.69
430.292	1061.69
430.514	1029.69
430.736	964.69
430.958	989.69
431.18	924.69
431.402	860.69
431.624	865.69
431.846	797.69
432.068	717.69
432.29	732.69
432.512	822.69
432.734	891.69
432.956	931.69
433.178	956.69
433.4	953.69
433.622	937.69
433.844	909.69
434.066	880.69
434.287	791.69
434.509	774.69
434.731	840.69
434.953	910.69
435.175	921.69
435.397	913.69
435.618	903.69
435.84	867.69
436.062	823.69
436.284	891.69
436.505	939.69
436.727	955.69
436.949	933.69
437.17	907.69
437.392	896.69
437.614	887.69
437.835	789.69
438.057	815.69
438.278	840.69
438.5	897.69
438.721	870.69
438.943	901.69
439.165	907.69
439.386	939.69
439.608	931.69
439.829	962.69
440.05	967.69
440.272	954.69
440.493	969.69
440.715	983.69
440.936	1011.69
441.158	1061.69
441.379	1034.69
441.6	1034.69
441.822	1039.69
442.043	1008.69
442.264	1001.69
442.486	951.69
442.707	971.69
442.928	959.69
443.149	1004.69
443.371	1007.69
443.592	1016.69
443.813	1024.69
444.034	1017.69
444.255	985.69
444.476	1049.69
444.698	1046.69
444.919	1030.69
445.14	1120.69
445.361	1108.69
445.582	1069.69
445.803	1061.69
446.024	1031.69
446.245	1069.69
446.466	1076.69
446.687	1030.69
446.908	1051.69
447.129	1031.69
447.35	996.69
447.571	1021.69
447.792	953.69
448.013	950.69
448.234	951.69
448.455	1004.69
448.675	987.69
448.896	947.69
449.117	926.69
449.338	913.69
449.559	933.69
449.779	957.69
450	1016.69
450.221	1079.69
450.442	1035.69
450.662	957.69
450.883	877.69
451.104	886.69
451.324	880.69
451.545	864.69
451.766	871.69
451.986	836.69
452.207	828.69
452.428	823.69
452.648	801.69
452.869	782.69
453.089	799.69
453.31	776.69
453.53	784.69
453.751	768.69
453.971	704.69
454.192	739.69
454.412	778.69
454.633	780.69
454.853	795.69
455.073	762.69
455.294	773.69
455.514	797.69
455.734	769.69
455.955	764.69
456.175	748.69
456.395	735.69
456.616	746.69
456.836	719.69
457.056	743.69
457.276	735.69
457.497	727.69
457.717	714.69
457.937	721.69
458.157	724.69
458.377	716.69
458.598	675.69
458.818	675.69
459.038	721.69
459.258	719.69
459.478	715.69
459.698	704.69
459.918	739.69
460.138	790.69
460.358	852.69
460.578	843.69
460.798	869.69
461.018	903.69
461.238	895.69
461.458	852.69
461.678	850.69
461.898	835.69
462.118	790.69
462.338	840.69
462.558	860.69
462.777	830.69
462.997	851.69
463.217	875.69
463.437	889.69
463.657	854.69
463.876	837.69
464.096	822.69
464.316	833.69
464.536	866.69
464.755	900.69
464.975	897.69
465.195	872.69
465.414	905.69
465.634	889.69
465.854	906.69
466.073	941.69
466.293	930.69
466.512	856.69
466.732	863.69
466.951	905.69
467.171	931.69
467.391	862.69
467.61	876.69
467.829	913.69
468.049	991.69
468.268	1056.69
468.488	986.69
468.707	908.69
468.927	920.69
469.146	874.69
469.365	913.69
469.585	913.69
469.804	912.69
470.023	921.69
470.243	930.69
470.462	947.69
470.681	932.69
470.901	968.69
471.12	957.69
471.339	932.69
471.558	899.69
471.777	907.69
471.997	890.69
472.216	865.69
472.435	813.69
472.654	769.69
472.873	781.69
473.092	854.69
473.311	879.69
473.53	829.69
473.749	846.69
473.968	836.69
474.187	849.69
474.406	849.69
474.625	861.69
474.844	892.69
475.063	881.69
475.282	858.69
475.501	833.69
475.72	841.69
475.939	882.69
476.158	921.69
476.377	878.69
476.596	851.69
476.814	818.69
477.033	819.69
477.252	860.69
477.471	912.69
477.69	897.69
477.908	963.69
478.127	1011.69
478.346	1016.69
478.564	988.69
478.783	1008.69
479.002	1029.69
479.22	1011.69
479.439	1036.69
479.658	1061.69
479.876	984.69
480.095	897.69
480.313	897.69
480.532	893.69
480.751	867.69
480.969	852.69
481.188	781.69
481.406	769.69
481.624	753.69
481.843	822.69
482.061	832.69
482.28	865.69
482.498	885.69
482.717	857.69
482.935	895.69
483.153	959.69
483.372	1049.69
483.59	1016.69
483.808	973.69
484.027	953.69
484.245	1033.69
484.463	1223.69
484.681	1309.69
484.9	1002.69
485.118	949.69
485.336	909.69
485.554	925.69
485.772	895.69
485.99	876.69
486.209	903.69
486.427	881.69
486.645	955.69
486.863	1027.69
487.081	1066.69
487.299	1012.69
487.517	1006.69
487.735	1104.69
487.953	1202.69
488.171	1179.69
488.389	1139.69
488.607	1114.69
488.825	1148.69
489.043	1068.69
489.261	993.69
489.479	1045.69
489.696	1061.69
489.914	1051.69
490.132	1034.69
490.35	1101.69
490.568	1194.69
490.786	1193.69
491.003	1181.69
491.221	1272.69
491.439	1356.69
491.657	1327.69
491.874	1359.69
492.092	1423.69
492.31	1513.69
492.527	1490.69
492.745	1427.69
492.963	1337.69
493.18	1334.69
493.398	1378.69
493.615	1328.69
493.833	1279.69
494.05	1255.69
494.268	1238.69
494.485	1240.69
494.703	1224.69
494.92	1222.69
495.138	1246.69
495.355	1283.69
495.573	1252.69
495.79	1320.69
496.008	1297.69
496.225	1233.69
496.442	1244.69
496.66	1243.69
496.877	1180.69
497.094	1257.69
497.312	1251.69
497.529	1213.69
497.746	1191.69
497.963	1287.69
498.181	1318.69
498.398	1244.69
498.615	1164.69
498.832	1163.69
499.049	1144.69
499.267	1149.69
499.484	1281.69
499.701	1362.69
499.918	1392.69
500.135	1485.69
500.352	1556.69
500.569	1549.69
500.786	1692.69
501.003	1588.69
501.22	1453.69
501.437	1403.69
501.654	1447.69
501.871	1331.69
502.088	1194.69
502.305	1175.69
502.522	1166.69
502.739	1109.69
502.956	1051.69
503.172	1073.69
503.389	1040.69
503.606	998.69
503.823	1018.69
504.04	1010.69
504.256	1004.69
504.473	1003.69
504.69	999.69
504.907	990.69
505.123	970.69
505.34	1082.69
505.557	1381.69
505.773	1132.69
505.99	963.69
506.207	915.69
506.423	915.69
506.64	892.69
506.856	906.69
507.073	1053.69
507.289	1091.69
507.506	1003.69
507.722	898.69
507.939	853.69
508.155	861.69
508.372	843.69
508.588	779.69
508.805	804.69
509.021	809.69
509.238	790.69
509.454	759.69
509.67	760.69
509.887	728.69
510.103	723.69
510.319	745.69
510.536	776.69
510.752	761.69
510.968	761.69
511.184	795.69
511.401	755.69
511.617	709.69
511.833	693.69
512.049	698.69
512.265	698.69
512.481	722.69
512.698	747.69
512.914	747.69
513.13	742.69
513.346	720.69
513.562	688.69
513.778	715.69
513.994	749.69
514.21	769.69
514.426	764.69
514.642	813.69
514.858	779.69
515.074	737.69
515.29	707.69
515.506	728.69
515.721	723.69
515.937	785.69
516.153	828.69
516.369	755.69
516.585	738.69
516.801	736.69
517.016	743.69
517.232	746.69
517.448	769.69
517.664	787.69
517.879	778.69
518.095	819.69
518.311	778.69
518.527	754.69
518.742	739.69
518.958	769.69
519.173	786.69
519.389	785.69
519.605	787.69
519.82	790.69
520.036	788.69
520.251	783.69
520.467	771.69
520.682	818.69
520.898	827.69
521.113	691.69
521.329	706.69
521.544	775.69
521.76	753.69
521.975	716.69
522.19	707.69
522.406	745.69
522.621	927.69
522.836	852.69
523.052	734.69
523.267	745.69
523.482	745.69
523.698	730.69
523.913	732.69
524.128	784.69
524.343	802.69
524.559	813.69
524.774	776.69
524.989	751.69
525.204	785.69
525.419	768.69
525.634	747.69
525.849	739.69
526.064	728.69
526.28	714.69
526.495	670.69
526.71	656.69
526.925	632.69
527.14	611.69
527.355	619.69
527.57	632.69
527.785	668.69
527.999	653.69
528.214	657.69
528.429	708.69
528.644	731.69
528.859	789.69
529.074	829.69
529.289	897.69
529.503	895.69
529.718	807.69
529.933	769.69
530.148	657.69
530.363	663.69
530.577	649.69
530.792	627.69
531.007	627.69
531.221	617.69
531.436	639.69
531.651	685.69
531.865	685.69
532.08	645.69
532.295	605.69
532.509	596.69
532.724	592.69
532.938	623.69
533.153	699.69
533.367	710.69
533.582	735.69
533.796	736.69
534.011	721.69
534.225	680.69
534.44	631.69
534.654	633.69
534.868	648.69
535.083	682.69
535.297	708.69
535.511	675.69
535.726	691.69
535.94	676.69
536.154	660.69
536.369	635.69
536.583	607.69
536.797	617.69
537.011	643.69
537.225	609.69
537.44	600.69
537.654	643.69
537.868	657.69
538.082	615.69
538.296	595.69
538.51	632.69
538.724	662.69
538.938	719.69
539.153	757.69
539.367	718.69
539.581	707.69
539.795	667.69
540.009	639.69
540.222	641.69
540.436	672.69
540.65	741.69
540.864	816.69
541.078	805.69
541.292	868.69
541.506	911.69
541.72	963.69
541.934	1045.69
542.147	1083.69
542.361	1017.69
542.575	909.69
542.789	836.69
543.002	767.69
543.216	728.69
543.43	756.69
543.644	799.69
543.857	847.69
544.071	915.69
544.285	940.69
544.498	956.69
544.712	940.69
544.925	961.69
545.139	984.69
545.352	956.69
545.566	972.69
545.779	955.69
545.993	964.69
546.206	969.69
546.42	950.69
546.633	941.69
546.847	923.69
547.06	963.69
547.274	971.69
547.487	998.69
547.7	1007.69
547.914	981.69
548.127	967.69
548.34	940.69
548.554	919.69
548.767	917.69
548.98	939.69
549.193	923.69
549.407	955.69
549.62	947.69
549.833	921.69
550.046	915.69
550.259	919.69
550.473	894.69
550.686	881.69
550.899	866.69
551.112	859.69
551.325	831.69
551.538	858.69
551.751	865.69
551.964	700.69
552.177	736.69
552.39	816.69
552.603	841.69
552.816	859.69
553.029	897.69
553.242	913.69
553.455	919.69
553.667	910.69
553.88	932.69
554.093	889.69
554.306	845.69
554.519	853.69
554.732	843.69
554.944	854.69
555.157	831.69
555.37	803.69
555.583	810.69
555.795	771.69
556.008	754.69
556.221	718.69
556.433	713.69
556.646	738.69
556.859	715.69
557.071	752.69
557.284	735.69
557.496	752.69
557.709	757.69
557.921	732.69
558.134	729.69
558.346	731.69
558.559	733.69
558.771	737.69
558.984	718.69
559.196	692.69
559.409	668.69
559.621	697.69
559.833	657.69
560.046	660.69
560.258	659.69
560.47	675.69
560.683	682.69
560.895	675.69
561.107	678.69
561.32	688.69
561.532	687.69
561.744	684.69
561.956	699.69
562.168	671.69
562.381	673.69
562.593	650.69
562.805	647.69
563.017	643.69
563.229	666.69
563.441	664.69
563.653	617.69
563.865	615.69
564.077	595.69
564.289	588.69
564.501	593.69
564.713	639.69
564.925	673.69
565.137	679.69
565.349	618.69
565.561	620.69
565.773	603.69
565.985	643.69
566.197	665.69
566.408	669.69
566.62	687.69
566.832	665.69
567.044	695.69
567.255	636.69
567.467	634.69
567.679	662.69
567.891	641.69
568.102	606.69
568.314	578.69
568.526	526.69
568.737	522.69
568.949	487.69
569.161	466.69
569.372	444.69
569.584	440.69
569.795	450.69
570.007	460.69
570.218	436.69
570.43	435.69
570.641	447.69
570.853	456.69
571.064	476.69
571.276	473.69
571.487	477.69
571.698	466.69
571.91	475.69
572.121	484.69
572.333	446.69
572.544	440.69
572.755	420.69
572.966	397.69
573.178	401.69
573.389	413.69
573.6	398.69
573.811	427.69
574.023	394.69
574.234	376.69
574.445	392.69
574.656	396.69
574.867	395.69
575.078	427.69
575.289	413.69
575.501	423.69
575.712	391.69
575.923	387.69
576.134	391.69
576.345	408.69
576.556	411.69
576.767	388.69
576.978	387.69
577.188	385.69
577.399	394.69
577.61	377.69
577.821	377.69
578.032	361.69
578.243	359.69
578.454	360.69
578.665	353.69
578.875	359.69
579.086	335.69
579.297	337.69
579.508	364.69
579.718	345.69
579.929	351.69
580.14	351.69
580.35	358.69
580.561	343.69
580.772	383.69
580.982	358.69
581.193	374.69
581.403	357.69
581.614	362.69
581.825	369.69
582.035	335.69
582.246	369.69
582.456	356.69
582.667	355.69
582.877	340.69
583.087	325.69
583.298	334.69
583.508	331.69
583.719	336.69
583.929	327.69
584.139	333.69
584.35	308.69
584.56	319.69
584.77	335.69
584.981	332.69
585.191	324.69
585.401	334.69
585.611	331.69
585.821	315.69
586.032	323.69
586.242	313.69
586.452	310.69
586.662	315.69
586.872	295.69
587.082	340.69
587.292	318.69
587.502	318.69
587.713	322.69
587.923	313.69
588.133	307.69
588.343	328.69
588.553	303.69
588.762	305.69
588.972	308.69
589.182	320.69
589.392	302.69
589.602	317.69
589.812	304.69
590.022	301.69
590.232	322.69
590.441	318.69
590.651	311.69
590.861	292.69
591.071	305.69
591.281	307.69
591.49	291.69
591.7	314.69
591.91	313.69
592.119	297.69
592.329	331.69
592.539	296.69
592.748	337.69
592.958	334.69
593.167	323.69
593.377	311.69
593.587	346.69
593.796	316.69
594.006	331.69
594.215	336.69
594.424	353.69
594.634	332.69
594.843	349.69
595.053	349.69
595.262	324.69
595.472	315.69
595.681	313.69
595.89	308.69
596.1	329.69
596.309	316.69
596.518	322.69
596.727	317.69
596.937	335.69
597.146	327.69
597.355	311.69
597.564	309.69
597.774	289.69
597.983	297.69
598.192	277.69
598.401	262.69
598.61	283.69
598.819	284.69
599.028	306.69
599.237	298.69
599.446	312.69
599.655	291.69
599.864	303.69
600.073	287.69
600.282	297.69
600.491	289.69
600.7	279.69
600.909	295.69
601.118	310.69
601.327	342.69
601.536	351.69
601.745	315.69
601.953	334.69
602.162	355.69
602.371	355.69
602.58	361.69
602.789	353.69
602.997	351.69
603.206	346.69
603.415	367.69
603.623	335.69
603.832	346.69
604.041	348.69
604.249	316.69
604.458	324.69
604.666	315.69
604.875	301.69
605.084	320.69
605.292	338.69
605.501	345.69
605.709	352.69
605.918	350.69
606.126	360.69
606.334	371.69
606.543	371.69
606.751	382.69
606.96	373.69
607.168	347.69
607.376	327.69
607.585	356.69
607.793	356.69
608.001	351.69
608.21	371.69
608.418	364.69
608.626	363.69
608.834	371.69
609.043	356.69
609.251	383.69
609.459	373.69
609.667	362.69
609.875	361.69
610.083	393.69
610.291	377.69
610.499	372.69
610.707	361.69
610.916	355.69
611.124	351.69
611.332	364.69
611.54	360.69
611.748	357.69
611.955	372.69
612.163	362.69
612.371	347.69
612.579	356.69
612.787	348.69
612.995	373.69
613.203	354.69
613.411	362.69
613.618	361.69
613.826	359.69
614.034	352.69
614.242	358.69
614.449	371.69
614.657	356.69
614.865	351.69
615.072	378.69
615.28	355.69
615.488	370.69
615.695	350.69
615.903	355.69
616.111	369.69
616.318	371.69
616.526	351.69
616.733	341.69
616.941	371.69
617.148	343.69
617.356	339.69
617.563	341.69
617.771	346.69
617.978	342.69
618.185	345.69
618.393	349.69
618.6	354.69
618.807	345.69
619.015	353.69
619.222	346.69
619.429	344.69
619.637	318.69
619.844	282.69
620.051	298.69
620.258	319.69
620.466	317.69
620.673	332.69
620.88	312.69
621.087	305.69
621.294	284.69
621.501	295.69
621.708	284.69
621.915	319.69
622.122	309.69
622.329	335.69
622.536	341.69
622.743	322.69
622.95	333.69
623.157	309.69
623.364	305.69
623.571	321.69
623.778	312.69
623.985	327.69
624.192	329.69
624.399	307.69
624.606	311.69
624.812	309.69
625.019	296.69
625.226	299.69
625.433	288.69
625.639	273.69
625.846	272.69
626.053	258.69
626.259	248.69
626.466	245.69
626.673	234.69
626.879	238.69
627.086	259.69
627.293	267.69
627.499	281.69
627.706	304.69
627.912	298.69
628.119	309.69
628.325	279.69
628.532	303.69
628.738	295.69
628.945	295.69
629.151	296.69
629.357	284.69
629.564	267.69
629.77	280.69
629.976	257.69
630.183	263.69
630.389	265.69
630.595	289.69
630.802	282.69
631.008	297.69
631.214	277.69
631.42	264.69
631.627	266.69
631.833	265.69
632.039	285.69
632.245	293.69
632.451	272.69
632.657	266.69
632.863	275.69
633.069	248.69
633.275	268.69
633.481	260.69
633.688	258.69
633.893	259.69
634.099	270.69
634.305	261.69
634.511	254.69
634.717	242.69
634.923	232.69
635.129	228.69
635.335	232.69
635.541	253.69
635.747	250.69
635.952	266.69
636.158	272.69
636.364	263.69
636.57	281.69
636.775	266.69
636.981	260.69
637.187	248.69
637.392	256.69
637.598	258.69
637.804	265.69
638.009	255.69
638.215	265.69
638.421	264.69
638.626	259.69
638.832	248.69
639.037	267.69
639.243	258.69
639.448	236.69
639.654	269.69
639.859	255.69
640.065	236.69
640.27	253.69
640.475	232.69
640.681	244.69
640.886	260.69
641.091	250.69
641.297	268.69
641.502	256.69
641.707	259.69
641.913	253.69
642.118	266.69
642.323	239.69
642.528	255.69
642.733	254.69
642.939	257.69
643.144	233.69
643.349	237.69
643.554	238.69
643.759	245.69
643.964	261.69
644.169	241.69
644.374	242.69
644.579	244.69
644.784	246.69
644.989	242.69
645.194	247.69
645.399	253.69
645.604	260.69
645.809	251.69
646.014	240.69
646.219	238.69
646.423	243.69
646.628	241.69
646.833	231.69
647.038	237.69
647.243	243.69
647.447	245.69
647.652	246.69
647.857	244.69
648.062	240.69
648.266	230.69
648.471	243.69
648.676	250.69
648.88	263.69
649.085	259.69
649.289	231.69
649.494	236.69
649.698	236.69
649.903	239.69
650.107	239.69
650.312	230.69
650.516	235.69
650.721	232.69
650.925	221.69
651.13	230.69
651.334	235.69
651.539	229.69
651.743	226.69
651.947	223.69
652.152	208.69
652.356	237.69
652.56	209.69
652.764	203.69
652.969	217.69
653.173	218.69
653.377	200.69
653.581	209.69
653.785	212.69
653.99	213.69
654.194	215.69
654.398	205.69
654.602	207.69
654.806	210.69
655.01	203.69
655.214	199.69
655.418	201.69
655.622	187.69
655.826	203.69
656.03	233.69
656.234	221.69
656.438	221.69
656.642	226.69
656.846	216.69
657.049	218.69
657.253	177.69
657.457	187.69
657.661	162.69
657.865	168.69
658.068	181.69
658.272	149.69
658.476	164.69
658.68	158.69
658.883	127.69
659.087	131.69
659.291	151.69
659.494	123.69
659.698	131.69
659.901	135.69
660.105	131.69
660.309	125.69
660.512	109.69
660.716	125.69
660.919	117.69
661.123	123.69
661.326	107.69
661.53	111.69
661.733	113.69
661.936	100.69
662.14	106.69
662.343	102.69
662.546	109.69
662.75	86.69
662.953	79.69
663.156	97.69
663.36	88.69
663.563	88.69
663.766	87.69
663.969	79.69
664.173	91.69
664.376	86.69
664.579	96.69
664.782	97.69
664.985	91.69
665.188	89.69
665.391	94.69
665.594	91.69
665.797	95.69
666	88.69
666.203	81.69
666.406	67.69
666.609	91.69
666.812	79.69
667.015	71.69
667.218	83.69
667.421	83.69
667.624	80.69
667.827	84.69
668.03	72.69
668.232	98.69
668.435	84.69
668.638	88.69
668.841	87.69
669.043	68.69
669.246	68.69
669.449	87.69
669.651	76.69
669.854	87.69
670.057	80.69
670.259	81.69
670.462	79.69
670.665	77.69
670.867	86.69
671.07	88.69
671.272	88.69
671.475	89.69
671.677	67.69
671.88	85.69
672.082	83.69
672.284	73.69
672.487	79.69
672.689	83.69
672.892	89.69
