Data from WStandard_LampEnergy8_LIBS07252019.E.O._I.C._HRD10591_16-00-13-929.txt Node
Date: Thu Jul 25 16:00:13 EDT 2019
User: cochatt
Spectrometer: HR+D1059
Trigger mode: 1
Integration Time (sec): 1.000000E-1
Scans to average: 1
Electric dark correction enabled: true
Nonlinearity correction enabled: false
Boxcar width: 0
XAxis mode: Wavelengths
Number of Pixels in Spectrum: 2048
>>>>>Begin Spectral Data<<<<<
223.165	-12.88
223.4	-12.88
223.635	-12.88
223.869	-36.88
224.104	-11.88
224.338	-0.88
224.573	-18.88
224.808	-7.88
225.042	-5.88
225.277	-14.88
225.511	4.12
225.746	5.12
225.98	7.12
226.215	11.12
226.449	12.12
226.683	29.12
226.918	16.12
227.152	25.12
227.387	29.12
227.621	30.12
227.856	24.12
228.09	61.12
228.324	49.12
228.559	39.12
228.793	93.12
229.027	186.12
229.262	205.12
229.496	219.12
229.73	226.12
229.964	235.12
230.199	256.12
230.433	264.12
230.667	271.12
230.901	301.12
231.136	263.12
231.37	250.12
231.604	242.12
231.838	264.12
232.072	266.12
232.306	255.12
232.541	260.12
232.775	309.12
233.009	320.12
233.243	314.12
233.477	291.12
233.711	306.12
233.945	315.12
234.179	286.12
234.413	310.12
234.647	339.12
234.881	304.12
235.115	291.12
235.349	294.12
235.583	295.12
235.817	286.12
236.051	306.12
236.285	292.12
236.519	322.12
236.753	358.12
236.987	353.12
237.221	357.12
237.455	379.12
237.689	369.12
237.922	352.12
238.156	343.12
238.39	342.12
238.624	359.12
238.858	380.12
239.091	405.12
239.325	419.12
239.559	450.12
239.793	469.12
240.027	527.12
240.26	480.12
240.494	367.12
240.728	351.12
240.961	382.12
241.195	375.12
241.429	395.12
241.662	394.12
241.896	387.12
242.13	387.12
242.363	434.12
242.597	467.12
242.83	447.12
243.064	443.12
243.298	472.12
243.531	465.12
243.765	454.12
243.998	432.12
244.232	396.12
244.465	399.12
244.699	412.12
244.932	461.12
245.166	516.12
245.399	477.12
245.633	449.12
245.866	453.12
246.099	479.12
246.333	469.12
246.566	501.12
246.8	516.12
247.033	572.12
247.266	518.12
247.5	512.12
247.733	538.12
247.966	546.12
248.2	610.12
248.433	555.12
248.666	593.12
248.899	677.12
249.133	726.12
249.366	796.12
249.599	674.12
249.832	590.12
250.066	624.12
250.299	625.12
250.532	603.12
250.765	534.12
250.998	565.12
251.231	582.12
251.465	616.12
251.698	547.12
251.931	574.12
252.164	587.12
252.397	578.12
252.63	581.12
252.863	531.12
253.096	549.12
253.329	565.12
253.562	563.12
253.795	625.12
254.028	615.12
254.261	573.12
254.494	570.12
254.727	545.12
254.96	579.12
255.193	645.12
255.426	703.12
255.659	754.12
255.892	768.12
256.124	651.12
256.357	649.12
256.59	679.12
256.823	691.12
257.056	704.12
257.289	837.12
257.521	881.12
257.754	785.12
257.987	783.12
258.22	841.12
258.452	787.12
258.685	674.12
258.918	652.12
259.151	679.12
259.383	594.12
259.616	569.12
259.849	593.12
260.081	673.12
260.314	730.12
260.547	793.12
260.779	784.12
261.012	741.12
261.244	672.12
261.477	662.12
261.71	685.12
261.942	663.12
262.175	680.12
262.407	671.12
262.64	643.12
262.872	638.12
263.105	614.12
263.337	610.12
263.57	622.12
263.802	609.12
264.035	581.12
264.267	548.12
264.499	556.12
264.732	609.12
264.964	618.12
265.197	674.12
265.429	697.12
265.661	765.12
265.894	851.12
266.126	856.12
266.358	770.12
266.591	823.12
266.823	843.12
267.055	786.12
267.287	749.12
267.52	758.12
267.752	758.12
267.984	768.12
268.216	803.12
268.448	806.12
268.681	771.12
268.913	706.12
269.145	682.12
269.377	676.12
269.609	749.12
269.841	878.12
270.073	995.12
270.306	1073.12
270.538	1089.12
270.77	961.12
271.002	814.12
271.234	800.12
271.466	806.12
271.698	907.12
271.93	1029.12
272.162	1048.12
272.394	936.12
272.626	904.12
272.858	777.12
273.09	728.12
273.322	687.12
273.553	657.12
273.785	674.12
274.017	726.12
274.249	765.12
274.481	754.12
274.713	699.12
274.945	704.12
275.176	695.12
275.408	680.12
275.64	665.12
275.872	674.12
276.104	735.12
276.335	833.12
276.567	920.12
276.799	898.12
277.031	798.12
277.262	785.12
277.494	841.12
277.726	871.12
277.957	864.12
278.189	768.12
278.421	773.12
278.652	735.12
278.884	733.12
279.115	749.12
279.347	715.12
279.579	739.12
279.81	725.12
280.042	809.12
280.273	836.12
280.505	849.12
280.736	842.12
280.968	789.12
281.199	727.12
281.431	691.12
281.662	700.12
281.894	709.12
282.125	743.12
282.356	752.12
282.588	737.12
282.819	794.12
283.051	815.12
283.282	904.12
283.513	845.12
283.745	745.12
283.976	729.12
284.207	722.12
284.439	725.12
284.67	737.12
284.901	777.12
285.132	779.12
285.364	757.12
285.595	774.12
285.826	734.12
286.057	724.12
286.288	735.12
286.52	788.12
286.751	849.12
286.982	888.12
287.213	777.12
287.444	708.12
287.675	763.12
287.906	809.12
288.138	805.12
288.369	785.12
288.6	755.12
288.831	753.12
289.062	741.12
289.293	728.12
289.524	767.12
289.755	789.12
289.986	771.12
290.217	742.12
290.448	727.12
290.679	795.12
290.91	770.12
291.141	803.12
291.371	814.12
291.602	813.12
291.833	804.12
292.064	825.12
292.295	813.12
292.526	838.12
292.757	843.12
292.987	805.12
293.218	786.12
293.449	857.12
293.68	939.12
293.91	977.12
294.141	943.12
294.372	914.12
294.603	914.12
294.833	938.12
295.064	910.12
295.295	839.12
295.525	802.12
295.756	729.12
295.987	734.12
296.217	769.12
296.448	737.12
296.679	750.12
296.909	765.12
297.14	749.12
297.37	741.12
297.601	826.12
297.831	856.12
298.062	847.12
298.292	785.12
298.523	785.12
298.753	782.12
298.984	787.12
299.214	786.12
299.445	835.12
299.675	871.12
299.905	849.12
300.136	806.12
300.366	791.12
300.597	765.12
300.827	781.12
301.057	813.12
301.288	853.12
301.518	842.12
301.748	869.12
301.979	903.12
302.209	925.12
302.439	965.12
302.669	978.12
302.9	929.12
303.13	858.12
303.36	816.12
303.59	864.12
303.82	860.12
304.051	818.12
304.281	838.12
304.511	899.12
304.741	955.12
304.971	1011.12
305.201	1061.12
305.431	970.12
305.661	819.12
305.891	755.12
306.121	761.12
306.352	791.12
306.582	832.12
306.812	891.12
307.042	939.12
307.272	933.12
307.502	986.12
307.731	1059.12
307.961	1081.12
308.191	965.12
308.421	855.12
308.651	829.12
308.881	834.12
309.111	858.12
309.341	822.12
309.571	833.12
309.8	843.12
310.03	811.12
310.26	815.12
310.49	804.12
310.72	797.12
310.949	871.12
311.179	864.12
311.409	857.12
311.639	849.12
311.868	821.12
312.098	822.12
312.328	841.12
312.557	855.12
312.787	865.12
313.017	858.12
313.246	859.12
313.476	855.12
313.706	863.12
313.935	909.12
314.165	871.12
314.394	927.12
314.624	990.12
314.853	1003.12
315.083	1054.12
315.312	1075.12
315.542	967.12
315.771	893.12
316.001	895.12
316.23	933.12
316.46	936.12
316.689	913.12
316.919	864.12
317.148	863.12
317.377	896.12
317.607	943.12
317.836	1058.12
318.065	1074.12
318.295	1022.12
318.524	994.12
318.753	971.12
318.983	941.12
319.212	918.12
319.441	919.12
319.67	889.12
319.9	915.12
320.129	984.12
320.358	1020.12
320.587	1026.12
320.816	1020.12
321.046	988.12
321.275	962.12
321.504	959.12
321.733	1033.12
321.962	991.12
322.191	941.12
322.42	944.12
322.649	895.12
322.878	896.12
323.108	938.12
323.337	961.12
323.566	965.12
323.795	915.12
324.024	943.12
324.253	925.12
324.482	946.12
324.71	890.12
324.939	864.12
325.168	879.12
325.397	925.12
325.626	932.12
325.855	935.12
326.084	904.12
326.313	908.12
326.542	934.12
326.77	970.12
326.999	966.12
327.228	951.12
327.457	849.12
327.686	879.12
327.914	903.12
328.143	932.12
328.372	900.12
328.6	905.12
328.829	901.12
329.058	890.12
329.287	909.12
329.515	951.12
329.744	953.12
329.972	1030.12
330.201	1051.12
330.43	1006.12
330.658	977.12
330.887	984.12
331.115	971.12
331.344	994.12
331.572	959.12
331.801	972.12
332.03	992.12
332.258	994.12
332.486	984.12
332.715	955.12
332.943	1009.12
333.172	993.12
333.4	993.12
333.629	1009.12
333.857	1117.12
334.085	1206.12
334.314	1353.12
334.542	1413.12
334.771	1293.12
334.999	1152.12
335.227	1067.12
335.455	1057.12
335.684	1033.12
335.912	1066.12
336.14	1057.12
336.369	1069.12
336.597	1011.12
336.825	1006.12
337.053	1027.12
337.281	1066.12
337.51	1163.12
337.738	1176.12
337.966	1089.12
338.194	983.12
338.422	999.12
338.65	960.12
338.878	965.12
339.106	961.12
339.334	936.12
339.562	904.12
339.79	941.12
340.018	1038.12
340.246	1029.12
340.474	1037.12
340.702	1001.12
340.93	1025.12
341.158	1022.12
341.386	1004.12
341.614	985.12
341.842	987.12
342.07	963.12
342.298	987.12
342.526	980.12
342.754	975.12
342.981	978.12
343.209	982.12
343.437	934.12
343.665	986.12
343.893	1025.12
344.12	1038.12
344.348	1020.12
344.576	1027.12
344.804	979.12
345.031	984.12
345.259	985.12
345.487	939.12
345.714	903.12
345.942	906.12
346.17	922.12
346.397	928.12
346.625	925.12
346.853	919.12
347.08	883.12
347.308	919.12
347.535	911.12
347.763	927.12
347.99	915.12
348.218	911.12
348.445	905.12
348.673	912.12
348.9	944.12
349.128	968.12
349.355	983.12
349.583	974.12
349.81	919.12
350.037	857.12
350.265	867.12
350.492	870.12
350.72	895.12
350.947	957.12
351.174	929.12
351.402	873.12
351.629	848.12
351.856	845.12
352.083	857.12
352.311	869.12
352.538	891.12
352.765	917.12
352.992	933.12
353.22	882.12
353.447	885.12
353.674	914.12
353.901	917.12
354.128	916.12
354.355	902.12
354.583	933.12
354.81	931.12
355.037	944.12
355.264	958.12
355.491	936.12
355.718	921.12
355.945	903.12
356.172	910.12
356.399	888.12
356.626	878.12
356.853	933.12
357.08	1033.12
357.307	1120.12
357.534	1057.12
357.761	943.12
357.988	899.12
358.215	851.12
358.441	855.12
358.668	886.12
358.895	919.12
359.122	967.12
359.349	1034.12
359.576	1005.12
359.802	905.12
360.029	889.12
360.256	892.12
360.483	895.12
360.709	902.12
360.936	981.12
361.163	1025.12
361.39	1101.12
361.616	1174.12
361.843	1122.12
362.07	1040.12
362.296	937.12
362.523	906.12
362.749	935.12
362.976	925.12
363.203	937.12
363.429	912.12
363.656	892.12
363.882	945.12
364.109	1051.12
364.335	1083.12
364.562	1011.12
364.788	980.12
365.015	923.12
365.241	902.12
365.468	964.12
365.694	980.12
365.92	981.12
366.147	942.12
366.373	895.12
366.599	899.12
366.826	907.12
367.052	905.12
367.278	888.12
367.505	924.12
367.731	903.12
367.957	957.12
368.184	994.12
368.41	1050.12
368.636	1037.12
368.862	1066.12
369.089	1093.12
369.315	998.12
369.541	967.12
369.767	950.12
369.993	890.12
370.219	918.12
370.445	986.12
370.672	1008.12
370.898	1034.12
371.124	1032.12
371.35	984.12
371.576	1039.12
371.802	1031.12
372.028	992.12
372.254	963.12
372.48	935.12
372.706	957.12
372.932	950.12
373.158	957.12
373.384	945.12
373.61	1001.12
373.835	1011.12
374.061	1018.12
374.287	1013.12
374.513	959.12
374.739	955.12
374.965	986.12
375.191	990.12
375.416	1010.12
375.642	1030.12
375.868	1079.12
376.094	1103.12
376.319	1048.12
376.545	1000.12
376.771	1040.12
376.997	1057.12
377.222	1030.12
377.448	1029.12
377.674	1031.12
377.899	1009.12
378.125	1104.12
378.35	1043.12
378.576	975.12
378.802	942.12
379.027	929.12
379.253	982.12
379.478	955.12
379.704	999.12
379.929	970.12
380.155	987.12
380.38	983.12
380.606	992.12
380.831	1001.12
381.057	1080.12
381.282	1062.12
381.507	1042.12
381.733	1119.12
381.958	1156.12
382.184	1066.12
382.409	1034.12
382.634	1054.12
382.86	1034.12
383.085	1027.12
383.31	1062.12
383.535	1189.12
383.761	1209.12
383.986	1137.12
384.211	1094.12
384.436	1124.12
384.662	1170.12
384.887	1192.12
385.112	1130.12
385.337	1137.12
385.562	1143.12
385.787	1126.12
386.013	1146.12
386.238	1163.12
386.463	1120.12
386.688	1225.12
386.913	1281.12
387.138	1259.12
387.363	1163.12
387.588	1167.12
387.813	1160.12
388.038	1177.12
388.263	1187.12
388.488	1170.12
388.713	1081.12
388.938	1093.12
389.163	1086.12
389.387	1117.12
389.612	1108.12
389.837	1115.12
390.062	1122.12
390.287	1137.12
390.512	1136.12
390.736	1115.12
390.961	1099.12
391.186	1057.12
391.411	1083.12
391.636	1114.12
391.86	1134.12
392.085	1079.12
392.31	1075.12
392.534	1077.12
392.759	1163.12
392.984	1151.12
393.208	1118.12
393.433	1185.12
393.658	1209.12
393.882	1214.12
394.107	1128.12
394.331	1118.12
394.556	1141.12
394.78	1135.12
395.005	1195.12
395.229	1221.12
395.454	1271.12
395.678	1298.12
395.903	1208.12
396.127	1175.12
396.352	1218.12
396.576	1240.12
396.801	1216.12
397.025	1235.12
397.249	1218.12
397.474	1207.12
397.698	1203.12
397.922	1251.12
398.147	1298.12
398.371	1336.12
398.595	1297.12
398.82	1297.12
399.044	1327.12
399.268	1370.12
399.492	1413.12
399.717	1478.12
399.941	1494.12
400.165	1431.12
400.389	1427.12
400.613	1432.12
400.837	1637.12
401.062	1762.12
401.286	1483.12
401.51	1405.12
401.734	1477.12
401.958	1415.12
402.182	1318.12
402.406	1267.12
402.63	1268.12
402.854	1250.12
403.078	1289.12
403.302	1303.12
403.526	1343.12
403.75	1331.12
403.974	1328.12
404.198	1313.12
404.422	1386.12
404.645	1481.12
404.869	1439.12
405.093	1321.12
405.317	1281.12
405.541	1334.12
405.765	1334.12
405.988	1351.12
406.212	1375.12
406.436	1384.12
406.66	1450.12
406.883	1466.12
407.107	1663.12
407.331	1813.12
407.555	1891.12
407.778	1656.12
408.002	1411.12
408.226	1391.12
408.449	1418.12
408.673	1372.12
408.896	1405.12
409.12	1416.12
409.344	1383.12
409.567	1322.12
409.791	1338.12
410.014	1394.12
410.238	1477.12
410.461	1517.12
410.685	1357.12
410.908	1346.12
411.132	1344.12
411.355	1369.12
411.578	1305.12
411.802	1329.12
412.025	1361.12
412.249	1329.12
412.472	1282.12
412.695	1296.12
412.919	1299.12
413.142	1285.12
413.365	1295.12
413.589	1339.12
413.812	1377.12
414.035	1405.12
414.258	1290.12
414.482	1297.12
414.705	1314.12
414.928	1280.12
415.151	1264.12
415.374	1286.12
415.597	1342.12
415.821	1326.12
416.044	1348.12
416.267	1366.12
416.49	1251.12
416.713	1249.12
416.936	1334.12
417.159	1347.12
417.382	1362.12
417.605	1278.12
417.828	1290.12
418.051	1328.12
418.274	1299.12
418.497	1292.12
418.72	1291.12
418.943	1274.12
419.166	1320.12
419.389	1361.12
419.611	1269.12
419.834	1304.12
420.057	1337.12
420.28	1279.12
420.503	1297.12
420.726	1329.12
420.948	1305.12
421.171	1231.12
421.394	1254.12
421.617	1346.12
421.839	1340.12
422.062	1326.12
422.285	1290.12
422.507	1283.12
422.73	1221.12
422.953	1218.12
423.175	1208.12
423.398	1275.12
423.621	1262.12
423.843	1255.12
424.066	1299.12
424.288	1337.12
424.511	1398.12
424.733	1361.12
424.956	1241.12
425.178	1257.12
425.401	1254.12
425.623	1255.12
425.846	1270.12
426.068	1317.12
426.291	1325.12
426.513	1303.12
426.735	1328.12
426.958	1439.12
427.18	1487.12
427.402	1346.12
427.625	1393.12
427.847	1341.12
428.069	1277.12
428.292	1237.12
428.514	1217.12
428.736	1215.12
428.958	1252.12
429.181	1234.12
429.403	1454.12
429.625	1748.12
429.847	1471.12
430.069	1289.12
430.292	1433.12
430.514	1438.12
430.736	1371.12
430.958	1387.12
431.18	1298.12
431.402	1213.12
431.624	1207.12
431.846	1141.12
432.068	1145.12
432.29	1135.12
432.512	1167.12
432.734	1275.12
432.956	1289.12
433.178	1328.12
433.4	1295.12
433.622	1309.12
433.844	1243.12
434.066	1203.12
434.287	1178.12
434.509	1187.12
434.731	1257.12
434.953	1349.12
435.175	1317.12
435.397	1263.12
435.618	1255.12
435.84	1261.12
436.062	1233.12
436.284	1261.12
436.505	1298.12
436.727	1301.12
436.949	1285.12
437.17	1217.12
437.392	1196.12
437.614	1211.12
437.835	1162.12
438.057	1196.12
438.278	1239.12
438.5	1207.12
438.721	1190.12
438.943	1197.12
439.165	1227.12
439.386	1219.12
439.608	1236.12
439.829	1229.12
440.05	1221.12
440.272	1243.12
440.493	1240.12
440.715	1293.12
440.936	1361.12
441.158	1394.12
441.379	1358.12
441.6	1351.12
441.822	1341.12
442.043	1325.12
442.264	1303.12
442.486	1238.12
442.707	1253.12
442.928	1242.12
443.149	1294.12
443.371	1346.12
443.592	1370.12
443.813	1352.12
444.034	1355.12
444.255	1342.12
444.476	1379.12
444.698	1418.12
444.919	1372.12
445.14	1502.12
445.361	1441.12
445.582	1446.12
445.803	1383.12
446.024	1350.12
446.245	1420.12
446.466	1351.12
446.687	1303.12
446.908	1317.12
447.129	1305.12
447.35	1300.12
447.571	1271.12
447.792	1232.12
448.013	1215.12
448.234	1242.12
448.455	1283.12
448.675	1295.12
448.896	1215.12
449.117	1183.12
449.338	1204.12
449.559	1277.12
449.779	1339.12
450	1417.12
450.221	1459.12
450.442	1425.12
450.662	1243.12
450.883	1158.12
451.104	1159.12
451.324	1178.12
451.545	1205.12
451.766	1187.12
451.986	1119.12
452.207	1156.12
452.428	1092.12
452.648	1059.12
452.869	1090.12
453.089	1145.12
453.31	1145.12
453.53	1146.12
453.751	1099.12
453.971	1066.12
454.192	1069.12
454.412	1137.12
454.633	1149.12
454.853	1095.12
455.073	1079.12
455.294	1049.12
455.514	1066.12
455.734	1075.12
455.955	1085.12
456.175	1063.12
456.395	1084.12
456.616	1059.12
456.836	1089.12
457.056	1082.12
457.276	1081.12
457.497	1041.12
457.717	1014.12
457.937	1043.12
458.157	1042.12
458.377	1030.12
458.598	1052.12
458.818	1026.12
459.038	1083.12
459.258	1153.12
459.478	1103.12
459.698	1102.12
459.918	1151.12
460.138	1199.12
460.358	1256.12
460.578	1233.12
460.798	1277.12
461.018	1344.12
461.238	1312.12
461.458	1245.12
461.678	1267.12
461.898	1188.12
462.118	1172.12
462.338	1226.12
462.558	1285.12
462.777	1232.12
462.997	1309.12
463.217	1349.12
463.437	1349.12
463.657	1264.12
463.876	1275.12
464.096	1227.12
464.316	1265.12
464.536	1265.12
464.755	1290.12
464.975	1285.12
465.195	1270.12
465.414	1322.12
465.634	1290.12
465.854	1265.12
466.073	1382.12
466.293	1319.12
466.512	1186.12
466.732	1194.12
466.951	1269.12
467.171	1223.12
467.391	1194.12
467.61	1162.12
467.829	1195.12
468.049	1307.12
468.268	1423.12
468.488	1309.12
468.707	1237.12
468.927	1224.12
469.146	1179.12
469.365	1190.12
469.585	1209.12
469.804	1191.12
470.023	1213.12
470.243	1263.12
470.462	1206.12
470.681	1227.12
470.901	1205.12
471.12	1206.12
471.339	1222.12
471.558	1213.12
471.777	1184.12
471.997	1202.12
472.216	1205.12
472.435	1097.12
472.654	1115.12
472.873	1194.12
473.092	1222.12
473.311	1183.12
473.53	1152.12
473.749	1155.12
473.968	1152.12
474.187	1214.12
474.406	1247.12
474.625	1186.12
474.844	1199.12
475.063	1206.12
475.282	1227.12
475.501	1161.12
475.72	1172.12
475.939	1246.12
476.158	1209.12
476.377	1209.12
476.596	1207.12
476.814	1181.12
477.033	1224.12
477.252	1250.12
477.471	1293.12
477.69	1301.12
477.908	1268.12
478.127	1339.12
478.346	1409.12
478.564	1394.12
478.783	1428.12
479.002	1455.12
479.22	1414.12
479.439	1454.12
479.658	1569.12
479.876	1489.12
480.095	1337.12
480.313	1333.12
480.532	1266.12
480.751	1271.12
480.969	1261.12
481.188	1265.12
481.406	1261.12
481.624	1209.12
481.843	1272.12
482.061	1239.12
482.28	1333.12
482.498	1355.12
482.717	1307.12
482.935	1281.12
483.153	1353.12
483.372	1362.12
483.59	1350.12
483.808	1371.12
484.027	1386.12
484.245	1436.12
484.463	1745.12
484.681	1885.12
484.9	1458.12
485.118	1369.12
485.336	1305.12
485.554	1345.12
485.772	1418.12
485.99	1359.12
486.209	1376.12
486.427	1374.12
486.645	1396.12
486.863	1429.12
487.081	1411.12
487.299	1471.12
487.517	1447.12
487.735	1493.12
487.953	1519.12
488.171	1494.12
488.389	1466.12
488.607	1439.12
488.825	1589.12
489.043	1514.12
489.261	1399.12
489.479	1461.12
489.696	1470.12
489.914	1434.12
490.132	1424.12
490.35	1454.12
490.568	1503.12
490.786	1487.12
491.003	1465.12
491.221	1554.12
491.439	1562.12
491.657	1577.12
491.874	1562.12
492.092	1634.12
492.31	1701.12
492.527	1646.12
492.745	1583.12
492.963	1552.12
493.18	1567.12
493.398	1661.12
493.615	1710.12
493.833	1568.12
494.05	1547.12
494.268	1506.12
494.485	1570.12
494.703	1542.12
494.92	1507.12
495.138	1510.12
495.355	1553.12
495.573	1625.12
495.79	1663.12
496.008	1640.12
496.225	1549.12
496.442	1601.12
496.66	1575.12
496.877	1599.12
497.094	1643.12
497.312	1635.12
497.529	1611.12
497.746	1616.12
497.963	1847.12
498.181	2009.12
498.398	1880.12
498.615	1803.12
498.832	1798.12
499.049	1727.12
499.267	1731.12
499.484	1897.12
499.701	2020.12
499.918	2041.12
500.135	2167.12
500.352	2336.12
500.569	2339.12
500.786	2479.12
501.003	2257.12
501.22	2096.12
501.437	2079.12
501.654	2100.12
501.871	1955.12
502.088	1748.12
502.305	1741.12
502.522	1671.12
502.739	1561.12
502.956	1544.12
503.172	1574.12
503.389	1542.12
503.606	1463.12
503.823	1478.12
504.04	1450.12
504.256	1485.12
504.473	1526.12
504.69	1487.12
504.907	1442.12
505.123	1415.12
505.34	1515.12
505.557	1963.12
505.773	1593.12
505.99	1346.12
506.207	1295.12
506.423	1306.12
506.64	1289.12
506.856	1294.12
507.073	1491.12
507.289	1576.12
507.506	1470.12
507.722	1279.12
507.939	1261.12
508.155	1245.12
508.372	1241.12
508.588	1203.12
508.805	1178.12
509.021	1127.12
509.238	1149.12
509.454	1119.12
509.67	1122.12
509.887	1111.12
510.103	1175.12
510.319	1141.12
510.536	1208.12
510.752	1236.12
510.968	1182.12
511.184	1253.12
511.401	1241.12
511.617	1089.12
511.833	1053.12
512.049	1088.12
512.265	1114.12
512.481	1093.12
512.698	1145.12
512.914	1203.12
513.13	1164.12
513.346	1113.12
513.562	1075.12
513.778	1097.12
513.994	1168.12
514.21	1181.12
514.426	1167.12
514.642	1282.12
514.858	1218.12
515.074	1135.12
515.29	1114.12
515.506	1127.12
515.721	1144.12
515.937	1171.12
516.153	1307.12
516.369	1251.12
516.585	1185.12
516.801	1125.12
517.016	1131.12
517.232	1167.12
517.448	1215.12
517.664	1204.12
517.879	1226.12
518.095	1254.12
518.311	1200.12
518.527	1183.12
518.742	1151.12
518.958	1096.12
519.173	1114.12
519.389	1169.12
519.605	1175.12
519.82	1174.12
520.036	1169.12
520.251	1161.12
520.467	1151.12
520.682	1249.12
520.898	1242.12
521.113	1114.12
521.329	1145.12
521.544	1193.12
521.76	1147.12
521.975	1104.12
522.19	1106.12
522.406	1104.12
522.621	1374.12
522.836	1314.12
523.052	1102.12
523.267	1101.12
523.482	1087.12
523.698	1062.12
523.913	1042.12
524.128	1080.12
524.343	1143.12
524.559	1116.12
524.774	1073.12
524.989	1070.12
525.204	1073.12
525.419	1030.12
525.634	1041.12
525.849	1051.12
526.064	1080.12
526.28	1040.12
526.495	1007.12
526.71	981.12
526.925	985.12
527.14	986.12
527.355	962.12
527.57	969.12
527.785	1009.12
527.999	989.12
528.214	977.12
528.429	966.12
528.644	1002.12
528.859	1072.12
529.074	1077.12
529.289	1089.12
529.503	1091.12
529.718	1065.12
529.933	1014.12
530.148	967.12
530.363	983.12
530.577	954.12
530.792	984.12
531.007	958.12
531.221	965.12
531.436	969.12
531.651	1024.12
531.865	1064.12
532.08	978.12
532.295	973.12
532.509	934.12
532.724	961.12
532.938	990.12
533.153	1078.12
533.367	1030.12
533.582	1023.12
533.796	1030.12
534.011	1034.12
534.225	982.12
534.44	969.12
534.654	958.12
534.868	977.12
535.083	1018.12
535.297	1012.12
535.511	987.12
535.726	983.12
535.94	994.12
536.154	968.12
536.369	938.12
536.583	922.12
536.797	934.12
537.011	929.12
537.225	931.12
537.44	933.12
537.654	970.12
537.868	916.12
538.082	895.12
538.296	897.12
538.51	900.12
538.724	922.12
538.938	968.12
539.153	1000.12
539.367	983.12
539.581	953.12
539.795	984.12
540.009	922.12
540.222	943.12
540.436	973.12
540.65	1074.12
540.864	1066.12
541.078	1022.12
541.292	1007.12
541.506	1056.12
541.72	1104.12
541.934	1153.12
542.147	1177.12
542.361	1138.12
542.575	1057.12
542.789	1019.12
543.002	982.12
543.216	956.12
543.43	1015.12
543.644	1073.12
543.857	1137.12
544.071	1122.12
544.285	1098.12
544.498	1097.12
544.712	1087.12
544.925	1067.12
545.139	1130.12
545.352	1091.12
545.566	1049.12
545.779	1023.12
545.993	1091.12
546.206	1090.12
546.42	1073.12
546.633	1055.12
546.847	1042.12
547.06	1053.12
547.274	1059.12
547.487	1075.12
547.7	1087.12
547.914	1097.12
548.127	1088.12
548.34	1083.12
548.554	1045.12
548.767	1061.12
548.98	1046.12
549.193	1058.12
549.407	1122.12
549.62	1083.12
549.833	1041.12
550.046	1045.12
550.259	1010.12
550.473	1031.12
550.686	1002.12
550.899	1008.12
551.112	1002.12
551.325	963.12
551.538	1012.12
551.751	1115.12
551.964	932.12
552.177	908.12
552.39	945.12
552.603	967.12
552.816	1024.12
553.029	1042.12
553.242	1059.12
553.455	1034.12
553.667	1021.12
553.88	1027.12
554.093	987.12
554.306	976.12
554.519	975.12
554.732	932.12
554.944	923.12
555.157	967.12
555.37	932.12
555.583	914.12
555.795	893.12
556.008	900.12
556.221	851.12
556.433	844.12
556.646	853.12
556.859	850.12
557.071	862.12
557.284	873.12
557.496	858.12
557.709	865.12
557.921	851.12
558.134	831.12
558.346	816.12
558.559	864.12
558.771	834.12
558.984	821.12
559.196	820.12
559.409	808.12
559.621	809.12
559.833	806.12
560.046	839.12
560.258	799.12
560.47	830.12
560.683	809.12
560.895	805.12
561.107	824.12
561.32	809.12
561.532	819.12
561.744	801.12
561.956	817.12
562.168	799.12
562.381	796.12
562.593	786.12
562.805	733.12
563.017	765.12
563.229	769.12
563.441	789.12
563.653	786.12
563.865	746.12
564.077	765.12
564.289	782.12
564.501	790.12
564.713	818.12
564.925	827.12
565.137	848.12
565.349	805.12
565.561	782.12
565.773	809.12
565.985	788.12
566.197	831.12
566.408	905.12
566.62	867.12
566.832	888.12
567.044	910.12
567.255	874.12
567.467	875.12
567.679	901.12
567.891	915.12
568.102	896.12
568.314	839.12
568.526	785.12
568.737	764.12
568.949	735.12
569.161	696.12
569.372	687.12
569.584	708.12
569.795	672.12
570.007	686.12
570.218	652.12
570.43	642.12
570.641	663.12
570.853	652.12
571.064	641.12
571.276	657.12
571.487	662.12
571.698	635.12
571.91	615.12
572.121	639.12
572.333	626.12
572.544	605.12
572.755	585.12
572.966	595.12
573.178	573.12
573.389	584.12
573.6	584.12
573.811	633.12
574.023	574.12
574.234	569.12
574.445	542.12
574.656	561.12
574.867	561.12
575.078	582.12
575.289	542.12
575.501	549.12
575.712	552.12
575.923	562.12
576.134	569.12
576.345	541.12
576.556	552.12
576.767	538.12
576.978	531.12
577.188	523.12
577.399	542.12
577.61	531.12
577.821	535.12
578.032	515.12
578.243	498.12
578.454	513.12
578.665	493.12
578.875	497.12
579.086	499.12
579.297	518.12
579.508	519.12
579.718	501.12
579.929	505.12
580.14	472.12
580.35	485.12
580.561	521.12
580.772	538.12
580.982	518.12
581.193	479.12
581.403	490.12
581.614	495.12
581.825	449.12
582.035	456.12
582.246	477.12
582.456	483.12
582.667	486.12
582.877	465.12
583.087	487.12
583.298	451.12
583.508	455.12
583.719	481.12
583.929	477.12
584.139	452.12
584.35	442.12
584.56	446.12
584.77	470.12
584.981	464.12
585.191	463.12
585.401	485.12
585.611	455.12
585.821	464.12
586.032	453.12
586.242	447.12
586.452	454.12
586.662	449.12
586.872	438.12
587.082	413.12
587.292	442.12
587.502	445.12
587.713	478.12
587.923	424.12
588.133	453.12
588.343	454.12
588.553	442.12
588.762	449.12
588.972	444.12
589.182	442.12
589.392	436.12
589.602	460.12
589.812	472.12
590.022	437.12
590.232	418.12
590.441	441.12
590.651	463.12
590.861	448.12
591.071	431.12
591.281	417.12
591.49	441.12
591.7	443.12
591.91	431.12
592.119	431.12
592.329	432.12
592.539	440.12
592.748	449.12
592.958	466.12
593.167	463.12
593.377	473.12
593.587	451.12
593.796	454.12
594.006	467.12
594.215	467.12
594.424	474.12
594.634	442.12
594.843	452.12
595.053	486.12
595.262	449.12
595.472	436.12
595.681	440.12
595.89	443.12
596.1	436.12
596.309	432.12
596.518	440.12
596.727	433.12
596.937	441.12
597.146	415.12
597.355	416.12
597.564	403.12
597.774	378.12
597.983	403.12
598.192	403.12
598.401	388.12
598.61	385.12
598.819	381.12
599.028	397.12
599.237	400.12
599.446	399.12
599.655	411.12
599.864	392.12
600.073	365.12
600.282	377.12
600.491	390.12
600.7	394.12
600.909	397.12
601.118	410.12
601.327	403.12
601.536	416.12
601.745	421.12
601.953	403.12
602.162	404.12
602.371	433.12
602.58	399.12
602.789	405.12
602.997	394.12
603.206	403.12
603.415	401.12
603.623	412.12
603.832	407.12
604.041	375.12
604.249	390.12
604.458	376.12
604.666	390.12
604.875	383.12
605.084	389.12
605.292	399.12
605.501	419.12
605.709	407.12
605.918	410.12
606.126	387.12
606.334	401.12
606.543	394.12
606.751	383.12
606.96	395.12
607.168	394.12
607.376	399.12
607.585	394.12
607.793	401.12
608.001	405.12
608.21	409.12
608.418	394.12
608.626	413.12
608.834	403.12
609.043	393.12
609.251	413.12
609.459	383.12
609.667	398.12
609.875	387.12
610.083	408.12
610.291	411.12
610.499	402.12
610.707	387.12
610.916	386.12
611.124	388.12
611.332	395.12
611.54	413.12
611.748	401.12
611.955	385.12
612.163	377.12
612.371	391.12
612.579	388.12
612.787	371.12
612.995	377.12
613.203	386.12
613.411	402.12
613.618	388.12
613.826	383.12
614.034	394.12
614.242	386.12
614.449	388.12
614.657	396.12
614.865	378.12
615.072	373.12
615.28	386.12
615.488	385.12
615.695	405.12
615.903	383.12
616.111	383.12
616.318	392.12
616.526	375.12
616.733	384.12
616.941	408.12
617.148	377.12
617.356	377.12
617.563	362.12
617.771	370.12
617.978	357.12
618.185	371.12
618.393	375.12
618.6	370.12
618.807	373.12
619.015	390.12
619.222	344.12
619.429	360.12
619.637	342.12
619.844	353.12
620.051	351.12
620.258	347.12
620.466	336.12
620.673	342.12
620.88	359.12
621.087	353.12
621.294	332.12
621.501	341.12
621.708	342.12
621.915	330.12
622.122	367.12
622.329	339.12
622.536	359.12
622.743	350.12
622.95	353.12
623.157	320.12
623.364	358.12
623.571	356.12
623.778	362.12
623.985	329.12
624.192	337.12
624.399	314.12
624.606	343.12
624.812	332.12
625.019	325.12
625.226	327.12
625.433	315.12
625.639	313.12
625.846	305.12
626.053	307.12
626.259	298.12
626.466	301.12
626.673	299.12
626.879	293.12
627.086	311.12
627.293	300.12
627.499	290.12
627.706	320.12
627.912	314.12
628.119	322.12
628.325	316.12
628.532	323.12
628.738	316.12
628.945	317.12
629.151	296.12
629.357	333.12
629.564	319.12
629.77	295.12
629.976	296.12
630.183	297.12
630.389	287.12
630.595	288.12
630.802	319.12
631.008	299.12
631.214	292.12
631.42	296.12
631.627	278.12
631.833	270.12
632.039	285.12
632.245	304.12
632.451	287.12
632.657	303.12
632.863	274.12
633.069	291.12
633.275	280.12
633.481	303.12
633.688	302.12
633.893	272.12
634.099	273.12
634.305	279.12
634.511	257.12
634.717	273.12
634.923	268.12
635.129	258.12
635.335	261.12
635.541	249.12
635.747	270.12
635.952	295.12
636.158	274.12
636.364	281.12
636.57	296.12
636.775	273.12
636.981	299.12
637.187	280.12
637.392	272.12
637.598	285.12
637.804	261.12
638.009	289.12
638.215	287.12
638.421	268.12
638.626	273.12
638.832	272.12
639.037	265.12
639.243	272.12
639.448	263.12
639.654	245.12
639.859	242.12
640.065	279.12
640.27	264.12
640.475	260.12
640.681	265.12
640.886	270.12
641.091	260.12
641.297	264.12
641.502	284.12
641.707	273.12
641.913	265.12
642.118	266.12
642.323	241.12
642.528	253.12
642.733	261.12
642.939	251.12
643.144	240.12
643.349	257.12
643.554	264.12
643.759	250.12
643.964	259.12
644.169	270.12
644.374	256.12
644.579	261.12
644.784	264.12
644.989	261.12
645.194	254.12
645.399	249.12
645.604	255.12
645.809	253.12
646.014	254.12
646.219	265.12
646.423	251.12
646.628	245.12
646.833	251.12
647.038	262.12
647.243	243.12
647.447	265.12
647.652	252.12
647.857	241.12
648.062	261.12
648.266	259.12
648.471	253.12
648.676	249.12
648.88	247.12
649.085	245.12
649.289	239.12
649.494	254.12
649.698	243.12
649.903	235.12
650.107	244.12
650.312	243.12
650.516	256.12
650.721	239.12
650.925	231.12
651.13	241.12
651.334	237.12
651.539	230.12
651.743	223.12
651.947	230.12
652.152	231.12
652.356	230.12
652.56	242.12
652.764	214.12
652.969	221.12
653.173	233.12
653.377	226.12
653.581	227.12
653.785	228.12
653.99	220.12
654.194	218.12
654.398	222.12
654.602	223.12
654.806	221.12
655.01	210.12
655.214	230.12
655.418	222.12
655.622	214.12
655.826	240.12
656.03	255.12
656.234	245.12
656.438	245.12
656.642	239.12
656.846	238.12
657.049	241.12
657.253	226.12
657.457	197.12
657.661	195.12
657.865	173.12
658.068	178.12
658.272	177.12
658.476	187.12
658.68	155.12
658.883	154.12
659.087	155.12
659.291	149.12
659.494	137.12
659.698	133.12
659.901	130.12
660.105	121.12
660.309	115.12
660.512	123.12
660.716	120.12
660.919	107.12
661.123	113.12
661.326	111.12
661.53	101.12
661.733	109.12
661.936	90.12
662.14	93.12
662.343	112.12
662.546	93.12
662.75	90.12
662.953	85.12
663.156	96.12
663.36	92.12
663.563	85.12
663.766	74.12
663.969	85.12
664.173	87.12
664.376	77.12
664.579	94.12
664.782	84.12
664.985	90.12
665.188	88.12
665.391	97.12
665.594	79.12
665.797	82.12
666	75.12
666.203	80.12
666.406	75.12
666.609	88.12
666.812	93.12
667.015	81.12
667.218	71.12
667.421	74.12
667.624	98.12
667.827	75.12
668.03	85.12
668.232	74.12
668.435	75.12
668.638	79.12
668.841	81.12
669.043	85.12
669.246	79.12
669.449	85.12
669.651	95.12
669.854	79.12
670.057	81.12
670.259	80.12
670.462	81.12
670.665	82.12
670.867	85.12
671.07	87.12
671.272	91.12
671.475	81.12
671.677	83.12
671.88	88.12
672.082	70.12
672.284	82.12
672.487	78.12
672.689	81.12
672.892	91.12
