Data from WStandard_LampEnergy10_LIBS07252019.E.O._I.C._HRD10591_15-52-52-928.txt Node
Date: Thu Jul 25 15:52:52 EDT 2019
User: cochatt
Spectrometer: HR+D1059
Trigger mode: 1
Integration Time (sec): 1.000000E-1
Scans to average: 1
Electric dark correction enabled: true
Nonlinearity correction enabled: false
Boxcar width: 0
XAxis mode: Wavelengths
Number of Pixels in Spectrum: 2048
>>>>>Begin Spectral Data<<<<<
223.165	-22.62
223.4	-22.62
223.635	-22.62
223.869	-2.62
224.104	-16.62
224.338	-23.62
224.573	-14.62
224.808	-14.62
225.042	-11.62
225.277	-9.62
225.511	8.38
225.746	-3.62
225.98	10.38
226.215	4.38
226.449	12.38
226.683	27.38
226.918	24.38
227.152	32.38
227.387	40.38
227.621	45.38
227.856	43.38
228.09	39.38
228.324	43.38
228.559	69.38
228.793	90.38
229.027	192.38
229.262	228.38
229.496	235.38
229.73	235.38
229.964	257.38
230.199	258.38
230.433	267.38
230.667	289.38
230.901	311.38
231.136	274.38
231.37	267.38
231.604	264.38
231.838	270.38
232.072	280.38
232.306	278.38
232.541	283.38
232.775	329.38
233.009	344.38
233.243	324.38
233.477	308.38
233.711	307.38
233.945	313.38
234.179	316.38
234.413	318.38
234.647	338.38
234.881	318.38
235.115	305.38
235.349	306.38
235.583	331.38
235.817	324.38
236.051	317.38
236.285	309.38
236.519	336.38
236.753	369.38
236.987	364.38
237.221	380.38
237.455	390.38
237.689	380.38
237.922	365.38
238.156	348.38
238.39	360.38
238.624	398.38
238.858	420.38
239.091	425.38
239.325	427.38
239.559	476.38
239.793	473.38
240.027	526.38
240.26	500.38
240.494	410.38
240.728	391.38
240.961	380.38
241.195	403.38
241.429	442.38
241.662	421.38
241.896	402.38
242.13	420.38
242.363	445.38
242.597	490.38
242.83	491.38
243.064	469.38
243.298	471.38
243.531	498.38
243.765	476.38
243.998	485.38
244.232	422.38
244.465	434.38
244.699	421.38
244.932	472.38
245.166	540.38
245.399	511.38
245.633	494.38
245.866	487.38
246.099	496.38
246.333	499.38
246.566	516.38
246.8	538.38
247.033	587.38
247.266	549.38
247.5	563.38
247.733	566.38
247.966	588.38
248.2	638.38
248.433	614.38
248.666	637.38
248.899	706.38
249.133	760.38
249.366	833.38
249.599	712.38
249.832	643.38
250.066	637.38
250.299	654.38
250.532	618.38
250.765	561.38
250.998	603.38
251.231	616.38
251.465	608.38
251.698	608.38
251.931	570.38
252.164	641.38
252.397	636.38
252.63	629.38
252.863	580.38
253.096	592.38
253.329	604.38
253.562	637.38
253.795	650.38
254.028	655.38
254.261	597.38
254.494	588.38
254.727	574.38
254.96	630.38
255.193	695.38
255.426	733.38
255.659	793.38
255.892	822.38
256.124	685.38
256.357	673.38
256.59	751.38
256.823	739.38
257.056	740.38
257.289	846.38
257.521	920.38
257.754	849.38
257.987	820.38
258.22	856.38
258.452	821.38
258.685	706.38
258.918	701.38
259.151	715.38
259.383	691.38
259.616	629.38
259.849	646.38
260.081	727.38
260.314	827.38
260.547	828.38
260.779	850.38
261.012	784.38
261.244	728.38
261.477	708.38
261.71	740.38
261.942	731.38
262.175	715.38
262.407	729.38
262.64	686.38
262.872	659.38
263.105	654.38
263.337	650.38
263.57	664.38
263.802	669.38
264.035	621.38
264.267	618.38
264.499	589.38
264.732	655.38
264.964	677.38
265.197	701.38
265.429	750.38
265.661	831.38
265.894	877.38
266.126	845.38
266.358	805.38
266.591	838.38
266.823	898.38
267.055	806.38
267.287	816.38
267.52	814.38
267.752	774.38
267.984	824.38
268.216	836.38
268.448	843.38
268.681	796.38
268.913	729.38
269.145	729.38
269.377	759.38
269.609	802.38
269.841	908.38
270.073	1084.38
270.306	1125.38
270.538	1152.38
270.77	991.38
271.002	902.38
271.234	845.38
271.466	852.38
271.698	948.38
271.93	1088.38
272.162	1095.38
272.394	993.38
272.626	929.38
272.858	833.38
273.09	748.38
273.322	741.38
273.553	702.38
273.785	710.38
274.017	781.38
274.249	789.38
274.481	795.38
274.713	732.38
274.945	722.38
275.176	741.38
275.408	712.38
275.64	728.38
275.872	693.38
276.104	783.38
276.335	889.38
276.567	990.38
276.799	936.38
277.031	852.38
277.262	836.38
277.494	891.38
277.726	927.38
277.957	914.38
278.189	874.38
278.421	786.38
278.652	774.38
278.884	758.38
279.115	778.38
279.347	768.38
279.579	750.38
279.81	790.38
280.042	852.38
280.273	954.38
280.505	948.38
280.736	924.38
280.968	845.38
281.199	759.38
281.431	747.38
281.662	754.38
281.894	782.38
282.125	788.38
282.356	802.38
282.588	812.38
282.819	814.38
283.051	878.38
283.282	911.38
283.513	891.38
283.745	795.38
283.976	768.38
284.207	755.38
284.439	809.38
284.67	782.38
284.901	829.38
285.132	833.38
285.364	786.38
285.595	828.38
285.826	813.38
286.057	802.38
286.288	816.38
286.52	844.38
286.751	920.38
286.982	904.38
287.213	831.38
287.444	771.38
287.675	790.38
287.906	812.38
288.138	868.38
288.369	810.38
288.6	774.38
288.831	748.38
289.062	778.38
289.293	810.38
289.524	800.38
289.755	822.38
289.986	821.38
290.217	789.38
290.448	796.38
290.679	801.38
290.91	814.38
291.141	830.38
291.371	872.38
291.602	848.38
291.833	857.38
292.064	857.38
292.295	882.38
292.526	904.38
292.757	920.38
292.987	883.38
293.218	848.38
293.449	946.38
293.68	991.38
293.91	1042.38
294.141	997.38
294.372	952.38
294.603	1000.38
294.833	1010.38
295.064	954.38
295.295	898.38
295.525	842.38
295.756	800.38
295.987	783.38
296.217	789.38
296.448	805.38
296.679	822.38
296.909	821.38
297.14	791.38
297.37	834.38
297.601	884.38
297.831	917.38
298.062	909.38
298.292	851.38
298.523	838.38
298.753	806.38
298.984	835.38
299.214	831.38
299.445	869.38
299.675	886.38
299.905	874.38
300.136	870.38
300.366	841.38
300.597	800.38
300.827	792.38
301.057	824.38
301.288	893.38
301.518	880.38
301.748	922.38
301.979	984.38
302.209	1008.38
302.439	1055.38
302.669	1044.38
302.9	970.38
303.13	913.38
303.36	925.38
303.59	917.38
303.82	931.38
304.051	901.38
304.281	918.38
304.511	947.38
304.741	1005.38
304.971	1079.38
305.201	1113.38
305.431	988.38
305.661	853.38
305.891	805.38
306.121	763.38
306.352	857.38
306.582	900.38
306.812	968.38
307.042	996.38
307.272	999.38
307.502	1063.38
307.731	1152.38
307.961	1187.38
308.191	1049.38
308.421	914.38
308.651	899.38
308.881	847.38
309.111	908.38
309.341	857.38
309.571	880.38
309.8	889.38
310.03	876.38
310.26	866.38
310.49	846.38
310.72	880.38
310.949	954.38
311.179	950.38
311.409	930.38
311.639	920.38
311.868	864.38
312.098	902.38
312.328	930.38
312.557	916.38
312.787	903.38
313.017	942.38
313.246	914.38
313.476	911.38
313.706	937.38
313.935	921.38
314.165	955.38
314.394	1010.38
314.624	1013.38
314.853	1093.38
315.083	1110.38
315.312	1082.38
315.542	1050.38
315.771	946.38
316.001	990.38
316.23	1035.38
316.46	996.38
316.689	978.38
316.919	949.38
317.148	903.38
317.377	976.38
317.607	1002.38
317.836	1128.38
318.065	1144.38
318.295	1096.38
318.524	1048.38
318.753	1007.38
318.983	998.38
319.212	988.38
319.441	961.38
319.67	960.38
319.9	1015.38
320.129	1064.38
320.358	1072.38
320.587	1096.38
320.816	1099.38
321.046	1030.38
321.275	1032.38
321.504	1050.38
321.733	1121.38
321.962	1042.38
322.191	965.38
322.42	974.38
322.649	949.38
322.878	961.38
323.108	997.38
323.337	1038.38
323.566	1032.38
323.795	1003.38
324.024	1036.38
324.253	1002.38
324.482	986.38
324.71	966.38
324.939	916.38
325.168	942.38
325.397	988.38
325.626	1006.38
325.855	988.38
326.084	980.38
326.313	993.38
326.542	1005.38
326.77	1036.38
326.999	1002.38
327.228	966.38
327.457	952.38
327.686	948.38
327.914	936.38
328.143	1010.38
328.372	1021.38
328.6	972.38
328.829	955.38
329.058	958.38
329.287	988.38
329.515	976.38
329.744	1003.38
329.972	1074.38
330.201	1109.38
330.43	1061.38
330.658	1057.38
330.887	1030.38
331.115	1051.38
331.344	1074.38
331.572	1040.38
331.801	1029.38
332.03	1028.38
332.258	1058.38
332.486	1076.38
332.715	1056.38
332.943	1089.38
333.172	1052.38
333.4	1044.38
333.629	1094.38
333.857	1156.38
334.085	1285.38
334.314	1461.38
334.542	1542.38
334.771	1385.38
334.999	1218.38
335.227	1161.38
335.455	1149.38
335.684	1137.38
335.912	1187.38
336.14	1176.38
336.369	1120.38
336.597	1060.38
336.825	1045.38
337.053	1105.38
337.281	1193.38
337.51	1224.38
337.738	1225.38
337.966	1159.38
338.194	1093.38
338.422	1065.38
338.65	1042.38
338.878	1034.38
339.106	998.38
339.334	984.38
339.562	993.38
339.79	1019.38
340.018	1098.38
340.246	1126.38
340.474	1094.38
340.702	1116.38
340.93	1099.38
341.158	1072.38
341.386	1064.38
341.614	1040.38
341.842	1030.38
342.07	1045.38
342.298	1077.38
342.526	1014.38
342.754	1039.38
342.981	1020.38
343.209	999.38
343.437	1026.38
343.665	1031.38
343.893	1080.38
344.12	1108.38
344.348	1122.38
344.576	1038.38
344.804	1052.38
345.031	1025.38
345.259	1049.38
345.487	1012.38
345.714	976.38
345.942	946.38
346.17	966.38
346.397	985.38
346.625	981.38
346.853	946.38
347.08	942.38
347.308	950.38
347.535	993.38
347.763	1011.38
347.99	980.38
348.218	940.38
348.445	943.38
348.673	1003.38
348.9	1045.38
349.128	1043.38
349.355	1079.38
349.583	1046.38
349.81	974.38
350.037	921.38
350.265	908.38
350.492	954.38
350.72	958.38
350.947	993.38
351.174	1001.38
351.402	962.38
351.629	935.38
351.856	922.38
352.083	931.38
352.311	944.38
352.538	972.38
352.765	994.38
352.992	1011.38
353.22	962.38
353.447	934.38
353.674	979.38
353.901	943.38
354.128	941.38
354.355	956.38
354.583	1020.38
354.81	997.38
355.037	993.38
355.264	1013.38
355.491	980.38
355.718	981.38
355.945	952.38
356.172	944.38
356.399	922.38
356.626	937.38
356.853	1014.38
357.08	1097.38
357.307	1164.38
357.534	1120.38
357.761	998.38
357.988	942.38
358.215	913.38
358.441	968.38
358.668	916.38
358.895	965.38
359.122	1048.38
359.349	1120.38
359.576	1074.38
359.802	973.38
360.029	909.38
360.256	928.38
360.483	935.38
360.709	991.38
360.936	1035.38
361.163	1082.38
361.39	1188.38
361.616	1228.38
361.843	1206.38
362.07	1099.38
362.296	998.38
362.523	966.38
362.749	989.38
362.976	998.38
363.203	1019.38
363.429	963.38
363.656	959.38
363.882	1025.38
364.109	1134.38
364.335	1180.38
364.562	1071.38
364.788	1059.38
365.015	978.38
365.241	966.38
365.468	1000.38
365.694	1069.38
365.92	1058.38
366.147	987.38
366.373	972.38
366.599	992.38
366.826	972.38
367.052	946.38
367.278	996.38
367.505	979.38
367.731	1039.38
367.957	1031.38
368.184	1070.38
368.41	1133.38
368.636	1123.38
368.862	1163.38
369.089	1120.38
369.315	1088.38
369.541	1021.38
369.767	1040.38
369.993	993.38
370.219	988.38
370.445	1017.38
370.672	1128.38
370.898	1140.38
371.124	1112.38
371.35	1049.38
371.576	1123.38
371.802	1109.38
372.028	1066.38
372.254	1052.38
372.48	996.38
372.706	1017.38
372.932	1020.38
373.158	1010.38
373.384	1045.38
373.61	1092.38
373.835	1114.38
374.061	1072.38
374.287	1052.38
374.513	1060.38
374.739	1067.38
374.965	1062.38
375.191	1070.38
375.416	1083.38
375.642	1132.38
375.868	1187.38
376.094	1180.38
376.319	1119.38
376.545	1056.38
376.771	1126.38
376.997	1165.38
377.222	1139.38
377.448	1113.38
377.674	1118.38
377.899	1131.38
378.125	1204.38
378.35	1125.38
378.576	1026.38
378.802	1037.38
379.027	1034.38
379.253	1074.38
379.478	1045.38
379.704	1052.38
379.929	1090.38
380.155	1082.38
380.38	1072.38
380.606	1102.38
380.831	1112.38
381.057	1148.38
381.282	1133.38
381.507	1156.38
381.733	1210.38
381.958	1204.38
382.184	1134.38
382.409	1128.38
382.634	1129.38
382.86	1122.38
383.085	1129.38
383.31	1172.38
383.535	1291.38
383.761	1314.38
383.986	1250.38
384.211	1217.38
384.436	1229.38
384.662	1271.38
384.887	1284.38
385.112	1229.38
385.337	1246.38
385.562	1213.38
385.787	1214.38
386.013	1249.38
386.238	1260.38
386.463	1275.38
386.688	1341.38
386.913	1409.38
387.138	1370.38
387.363	1292.38
387.588	1226.38
387.813	1225.38
388.038	1288.38
388.263	1302.38
388.488	1232.38
388.713	1171.38
388.938	1144.38
389.163	1219.38
389.387	1222.38
389.612	1201.38
389.837	1244.38
390.062	1223.38
390.287	1235.38
390.512	1187.38
390.736	1195.38
390.961	1180.38
391.186	1146.38
391.411	1185.38
391.636	1196.38
391.86	1203.38
392.085	1201.38
392.31	1211.38
392.534	1221.38
392.759	1272.38
392.984	1261.38
393.208	1252.38
393.433	1286.38
393.658	1355.38
393.882	1364.38
394.107	1238.38
394.331	1242.38
394.556	1251.38
394.78	1270.38
395.005	1316.38
395.229	1360.38
395.454	1418.38
395.678	1420.38
395.903	1342.38
396.127	1298.38
396.352	1328.38
396.576	1358.38
396.801	1368.38
397.025	1382.38
397.249	1383.38
397.474	1353.38
397.698	1311.38
397.922	1383.38
398.147	1439.38
398.371	1484.38
398.595	1441.38
398.82	1434.38
399.044	1472.38
399.268	1514.38
399.492	1569.38
399.717	1629.38
399.941	1627.38
400.165	1622.38
400.389	1589.38
400.613	1599.38
400.837	1823.38
401.062	1961.38
401.286	1630.38
401.51	1581.38
401.734	1627.38
401.958	1533.38
402.182	1449.38
402.406	1406.38
402.63	1367.38
402.854	1404.38
403.078	1450.38
403.302	1474.38
403.526	1469.38
403.75	1517.38
403.974	1518.38
404.198	1495.38
404.422	1554.38
404.645	1656.38
404.869	1546.38
405.093	1478.38
405.317	1454.38
405.541	1504.38
405.765	1485.38
405.988	1498.38
406.212	1517.38
406.436	1528.38
406.66	1602.38
406.883	1633.38
407.107	1835.38
407.331	2002.38
407.555	2136.38
407.778	1831.38
408.002	1575.38
408.226	1576.38
408.449	1534.38
408.673	1524.38
408.896	1558.38
409.12	1560.38
409.344	1480.38
409.567	1468.38
409.791	1518.38
410.014	1569.38
410.238	1650.38
410.461	1653.38
410.685	1504.38
410.908	1507.38
411.132	1512.38
411.355	1505.38
411.578	1477.38
411.802	1520.38
412.025	1503.38
412.249	1461.38
412.472	1422.38
412.695	1444.38
412.919	1459.38
413.142	1408.38
413.365	1456.38
413.589	1522.38
413.812	1580.38
414.035	1561.38
414.258	1512.38
414.482	1440.38
414.705	1446.38
414.928	1409.38
415.151	1419.38
415.374	1470.38
415.597	1466.38
415.821	1460.38
416.044	1479.38
416.267	1481.38
416.49	1399.38
416.713	1401.38
416.936	1462.38
417.159	1543.38
417.382	1514.38
417.605	1425.38
417.828	1460.38
418.051	1475.38
418.274	1467.38
418.497	1427.38
418.72	1463.38
418.943	1443.38
419.166	1489.38
419.389	1572.38
419.611	1504.38
419.834	1427.38
420.057	1457.38
420.28	1465.38
420.503	1453.38
420.726	1449.38
420.948	1470.38
421.171	1452.38
421.394	1461.38
421.617	1520.38
421.839	1509.38
422.062	1494.38
422.285	1448.38
422.507	1422.38
422.73	1382.38
422.953	1359.38
423.175	1384.38
423.398	1428.38
423.621	1444.38
423.843	1437.38
424.066	1508.38
424.288	1554.38
424.511	1596.38
424.733	1520.38
424.956	1425.38
425.178	1385.38
425.401	1413.38
425.623	1432.38
425.846	1433.38
426.068	1472.38
426.291	1504.38
426.513	1458.38
426.735	1482.38
426.958	1624.38
427.18	1697.38
427.402	1568.38
427.625	1612.38
427.847	1543.38
428.069	1417.38
428.292	1413.38
428.514	1367.38
428.736	1396.38
428.958	1403.38
429.181	1431.38
429.403	1644.38
429.625	1937.38
429.847	1633.38
430.069	1490.38
430.292	1597.38
430.514	1642.38
430.736	1515.38
430.958	1497.38
431.18	1432.38
431.402	1387.38
431.624	1332.38
431.846	1289.38
432.068	1197.38
432.29	1229.38
432.512	1298.38
432.734	1397.38
432.956	1454.38
433.178	1498.38
433.4	1511.38
433.622	1448.38
433.844	1396.38
434.066	1365.38
434.287	1291.38
434.509	1285.38
434.731	1378.38
434.953	1463.38
435.175	1448.38
435.397	1388.38
435.618	1387.38
435.84	1366.38
436.062	1316.38
436.284	1418.38
436.505	1442.38
436.727	1479.38
436.949	1424.38
437.17	1416.38
437.392	1358.38
437.614	1328.38
437.835	1259.38
438.057	1344.38
438.278	1368.38
438.5	1387.38
438.721	1378.38
438.943	1394.38
439.165	1402.38
439.386	1398.38
439.608	1428.38
439.829	1427.38
440.05	1449.38
440.272	1385.38
440.493	1456.38
440.715	1485.38
440.936	1536.38
441.158	1597.38
441.379	1578.38
441.6	1568.38
441.822	1522.38
442.043	1520.38
442.264	1510.38
442.486	1434.38
442.707	1425.38
442.928	1446.38
443.149	1472.38
443.371	1538.38
443.592	1572.38
443.813	1557.38
444.034	1571.38
444.255	1561.38
444.476	1577.38
444.698	1595.38
444.919	1591.38
445.14	1673.38
445.361	1640.38
445.582	1625.38
445.803	1567.38
446.024	1570.38
446.245	1653.38
446.466	1594.38
446.687	1573.38
446.908	1536.38
447.129	1479.38
447.35	1519.38
447.571	1475.38
447.792	1417.38
448.013	1424.38
448.234	1429.38
448.455	1489.38
448.675	1480.38
448.896	1357.38
449.117	1355.38
449.338	1372.38
449.559	1405.38
449.779	1475.38
450	1580.38
450.221	1645.38
450.442	1577.38
450.662	1454.38
450.883	1372.38
451.104	1311.38
451.324	1336.38
451.545	1368.38
451.766	1320.38
451.986	1253.38
452.207	1254.38
452.428	1234.38
452.648	1201.38
452.869	1231.38
453.089	1257.38
453.31	1261.38
453.53	1249.38
453.751	1227.38
453.971	1161.38
454.192	1180.38
454.412	1262.38
454.633	1240.38
454.853	1225.38
455.073	1165.38
455.294	1189.38
455.514	1192.38
455.734	1187.38
455.955	1182.38
456.175	1179.38
456.395	1143.38
456.616	1180.38
456.836	1174.38
457.056	1180.38
457.276	1163.38
457.497	1108.38
457.717	1120.38
457.937	1145.38
458.157	1132.38
458.377	1138.38
458.598	1111.38
458.818	1111.38
459.038	1197.38
459.258	1204.38
459.478	1224.38
459.698	1180.38
459.918	1210.38
460.138	1341.38
460.358	1349.38
460.578	1373.38
460.798	1402.38
461.018	1465.38
461.238	1403.38
461.458	1342.38
461.678	1371.38
461.898	1347.38
462.118	1285.38
462.338	1364.38
462.558	1381.38
462.777	1373.38
462.997	1432.38
463.217	1465.38
463.437	1472.38
463.657	1384.38
463.876	1371.38
464.096	1378.38
464.316	1366.38
464.536	1402.38
464.755	1434.38
464.975	1448.38
465.195	1396.38
465.414	1430.38
465.634	1413.38
465.854	1454.38
466.073	1551.38
466.293	1493.38
466.512	1321.38
466.732	1376.38
466.951	1416.38
467.171	1380.38
467.391	1354.38
467.61	1368.38
467.829	1376.38
468.049	1492.38
468.268	1614.38
468.488	1472.38
468.707	1440.38
468.927	1389.38
469.146	1388.38
469.365	1396.38
469.585	1420.38
469.804	1379.38
470.023	1408.38
470.243	1454.38
470.462	1398.38
470.681	1381.38
470.901	1414.38
471.12	1422.38
471.339	1411.38
471.558	1366.38
471.777	1352.38
471.997	1361.38
472.216	1341.38
472.435	1226.38
472.654	1245.38
472.873	1272.38
473.092	1344.38
473.311	1298.38
473.53	1290.38
473.749	1266.38
473.968	1333.38
474.187	1369.38
474.406	1387.38
474.625	1361.38
474.844	1332.38
475.063	1381.38
475.282	1337.38
475.501	1284.38
475.72	1343.38
475.939	1422.38
476.158	1366.38
476.377	1361.38
476.596	1346.38
476.814	1317.38
477.033	1328.38
477.252	1391.38
477.471	1408.38
477.69	1394.38
477.908	1467.38
478.127	1532.38
478.346	1610.38
478.564	1574.38
478.783	1562.38
479.002	1622.38
479.22	1566.38
479.439	1664.38
479.658	1712.38
479.876	1666.38
480.095	1502.38
480.313	1477.38
480.532	1419.38
480.751	1419.38
480.969	1411.38
481.188	1390.38
481.406	1304.38
481.624	1328.38
481.843	1345.38
482.061	1426.38
482.28	1420.38
482.498	1469.38
482.717	1426.38
482.935	1401.38
483.153	1494.38
483.372	1571.38
483.59	1504.38
483.808	1497.38
484.027	1507.38
484.245	1613.38
484.463	1932.38
484.681	2050.38
484.9	1657.38
485.118	1510.38
485.336	1488.38
485.554	1479.38
485.772	1492.38
485.99	1479.38
486.209	1520.38
486.427	1464.38
486.645	1516.38
486.863	1576.38
487.081	1650.38
487.299	1603.38
487.517	1596.38
487.735	1678.38
487.953	1781.38
488.171	1718.38
488.389	1701.38
488.607	1644.38
488.825	1780.38
489.043	1705.38
489.261	1538.38
489.479	1623.38
489.696	1661.38
489.914	1622.38
490.132	1628.38
490.35	1676.38
490.568	1740.38
490.786	1734.38
491.003	1725.38
491.221	1773.38
491.439	1857.38
491.657	1821.38
491.874	1932.38
492.092	2019.38
492.31	2027.38
492.527	2005.38
492.745	1894.38
492.963	1892.38
493.18	1917.38
493.398	1954.38
493.615	1971.38
493.833	1867.38
494.05	1819.38
494.268	1814.38
494.485	1804.38
494.703	1794.38
494.92	1768.38
495.138	1826.38
495.355	1815.38
495.573	1838.38
495.79	1955.38
496.008	1936.38
496.225	1858.38
496.442	1876.38
496.66	1865.38
496.877	1851.38
497.094	1864.38
497.312	1850.38
497.529	1833.38
497.746	1884.38
497.963	2038.38
498.181	2185.38
498.398	2033.38
498.615	1956.38
498.832	1958.38
499.049	1890.38
499.267	1883.38
499.484	2043.38
499.701	2210.38
499.918	2264.38
500.135	2420.38
500.352	2562.38
500.569	2616.38
500.786	2829.38
501.003	2528.38
501.22	2334.38
501.437	2244.38
501.654	2283.38
501.871	2199.38
502.088	1967.38
502.305	1938.38
502.522	1899.38
502.739	1763.38
502.956	1713.38
503.172	1691.38
503.389	1650.38
503.606	1637.38
503.823	1620.38
504.04	1648.38
504.256	1613.38
504.473	1620.38
504.69	1662.38
504.907	1604.38
505.123	1549.38
505.34	1728.38
505.557	2189.38
505.773	1796.38
505.99	1513.38
506.207	1414.38
506.423	1436.38
506.64	1426.38
506.856	1444.38
507.073	1678.38
507.289	1732.38
507.506	1668.38
507.722	1439.38
507.939	1365.38
508.155	1382.38
508.372	1396.38
508.588	1320.38
508.805	1302.38
509.021	1281.38
509.238	1252.38
509.454	1226.38
509.67	1247.38
509.887	1208.38
510.103	1214.38
510.319	1233.38
510.536	1281.38
510.752	1333.38
510.968	1299.38
511.184	1355.38
511.401	1304.38
511.617	1188.38
511.833	1204.38
512.049	1165.38
512.265	1162.38
512.481	1184.38
512.698	1251.38
512.914	1294.38
513.13	1268.38
513.346	1192.38
513.562	1187.38
513.778	1230.38
513.994	1226.38
514.21	1260.38
514.426	1296.38
514.642	1388.38
514.858	1341.38
515.074	1220.38
515.29	1208.38
515.506	1232.38
515.721	1238.38
515.937	1230.38
516.153	1390.38
516.369	1323.38
516.585	1305.38
516.801	1189.38
517.016	1253.38
517.232	1277.38
517.448	1269.38
517.664	1329.38
517.879	1329.38
518.095	1382.38
518.311	1303.38
518.527	1253.38
518.742	1232.38
518.958	1219.38
519.173	1258.38
519.389	1267.38
519.605	1256.38
519.82	1277.38
520.036	1280.38
520.251	1237.38
520.467	1273.38
520.682	1351.38
520.898	1318.38
521.113	1183.38
521.329	1219.38
521.544	1283.38
521.76	1222.38
521.975	1190.38
522.19	1172.38
522.406	1225.38
522.621	1496.38
522.836	1404.38
523.052	1161.38
523.267	1212.38
523.482	1218.38
523.698	1194.38
523.913	1153.38
524.128	1204.38
524.343	1312.38
524.559	1276.38
524.774	1197.38
524.989	1190.38
525.204	1191.38
525.419	1178.38
525.634	1153.38
525.849	1171.38
526.064	1158.38
526.28	1186.38
526.495	1076.38
526.71	1056.38
526.925	1069.38
527.14	1076.38
527.355	1036.38
527.57	1062.38
527.785	1104.38
527.999	1091.38
528.214	1109.38
528.429	1100.38
528.644	1121.38
528.859	1203.38
529.074	1222.38
529.289	1281.38
529.503	1292.38
529.718	1213.38
529.933	1141.38
530.148	1096.38
530.363	1070.38
530.577	1001.38
530.792	995.38
531.007	1069.38
531.221	1026.38
531.436	1055.38
531.651	1084.38
531.865	1120.38
532.08	1068.38
532.295	1036.38
532.509	993.38
532.724	1026.38
532.938	1056.38
533.153	1146.38
533.367	1136.38
533.582	1127.38
533.796	1117.38
534.011	1128.38
534.225	1074.38
534.44	1028.38
534.654	1041.38
534.868	1072.38
535.083	1108.38
535.297	1156.38
535.511	1082.38
535.726	1106.38
535.94	1082.38
536.154	1041.38
536.369	1026.38
536.583	992.38
536.797	997.38
537.011	1045.38
537.225	1016.38
537.44	982.38
537.654	1062.38
537.868	1029.38
538.082	992.38
538.296	990.38
538.51	1000.38
538.724	1038.38
538.938	1093.38
539.153	1092.38
539.367	1103.38
539.581	1063.38
539.795	1117.38
540.009	1041.38
540.222	1035.38
540.436	1078.38
540.65	1170.38
540.864	1181.38
541.078	1180.38
541.292	1190.38
541.506	1236.38
541.72	1312.38
541.934	1393.38
542.147	1449.38
542.361	1332.38
542.575	1248.38
542.789	1171.38
543.002	1124.38
543.216	1134.38
543.43	1149.38
543.644	1225.38
543.857	1300.38
544.071	1286.38
544.285	1277.38
544.498	1274.38
544.712	1292.38
544.925	1338.38
545.139	1343.38
545.352	1245.38
545.566	1262.38
545.779	1262.38
545.993	1285.38
546.206	1340.38
546.42	1284.38
546.633	1253.38
546.847	1308.38
547.06	1281.38
547.274	1278.38
547.487	1293.38
547.7	1321.38
547.914	1307.38
548.127	1286.38
548.34	1291.38
548.554	1274.38
548.767	1290.38
548.98	1254.38
549.193	1320.38
549.407	1338.38
549.62	1339.38
549.833	1255.38
550.046	1275.38
550.259	1207.38
550.473	1205.38
550.686	1192.38
550.899	1202.38
551.112	1170.38
551.325	1167.38
551.538	1208.38
551.751	1291.38
551.964	1031.38
552.177	1068.38
552.39	1117.38
552.603	1155.38
552.816	1207.38
553.029	1254.38
553.242	1300.38
553.455	1248.38
553.667	1234.38
553.88	1224.38
554.093	1221.38
554.306	1140.38
554.519	1144.38
554.732	1148.38
554.944	1106.38
555.157	1190.38
555.37	1144.38
555.583	1119.38
555.795	1058.38
556.008	1052.38
556.221	1003.38
556.433	1024.38
556.646	1044.38
556.859	1012.38
557.071	1018.38
557.284	1042.38
557.496	1030.38
557.709	1026.38
557.921	1017.38
558.134	1020.38
558.346	1022.38
558.559	1013.38
558.771	995.38
558.984	959.38
559.196	941.38
559.409	924.38
559.621	938.38
559.833	973.38
560.046	977.38
560.258	956.38
560.47	932.38
560.683	967.38
560.895	957.38
561.107	957.38
561.32	952.38
561.532	950.38
561.744	958.38
561.956	954.38
562.168	928.38
562.381	866.38
562.593	906.38
562.805	924.38
563.017	875.38
563.229	908.38
563.441	928.38
563.653	890.38
563.865	905.38
564.077	882.38
564.289	884.38
564.501	859.38
564.713	896.38
564.925	962.38
565.137	975.38
565.349	914.38
565.561	918.38
565.773	904.38
565.985	925.38
566.197	980.38
566.408	1003.38
566.62	997.38
566.832	1013.38
567.044	999.38
567.255	976.38
567.467	997.38
567.679	1016.38
567.891	1015.38
568.102	973.38
568.314	911.38
568.526	870.38
568.737	827.38
568.949	788.38
569.161	753.38
569.372	759.38
569.584	741.38
569.795	755.38
570.007	697.38
570.218	686.38
570.43	706.38
570.641	714.38
570.853	707.38
571.064	774.38
571.276	729.38
571.487	748.38
571.698	720.38
571.91	684.38
572.121	693.38
572.333	688.38
572.544	670.38
572.755	646.38
572.966	618.38
573.178	624.38
573.389	616.38
573.6	650.38
573.811	680.38
574.023	618.38
574.234	635.38
574.445	584.38
574.656	589.38
574.867	602.38
575.078	632.38
575.289	629.38
575.501	594.38
575.712	598.38
575.923	587.38
576.134	605.38
576.345	613.38
576.556	610.38
576.767	601.38
576.978	585.38
577.188	581.38
577.399	595.38
577.61	551.38
577.821	558.38
578.032	553.38
578.243	561.38
578.454	543.38
578.665	552.38
578.875	532.38
579.086	546.38
579.297	540.38
579.508	553.38
579.718	538.38
579.929	523.38
580.14	532.38
580.35	525.38
580.561	563.38
580.772	616.38
580.982	572.38
581.193	531.38
581.403	536.38
581.614	518.38
581.825	538.38
582.035	519.38
582.246	525.38
582.456	555.38
582.667	535.38
582.877	536.38
583.087	521.38
583.298	518.38
583.508	512.38
583.719	496.38
583.929	499.38
584.139	515.38
584.35	513.38
584.56	493.38
584.77	491.38
584.981	489.38
585.191	489.38
585.401	530.38
585.611	523.38
585.821	501.38
586.032	496.38
586.242	486.38
586.452	473.38
586.662	491.38
586.872	486.38
587.082	492.38
587.292	503.38
587.502	513.38
587.713	509.38
587.923	473.38
588.133	490.38
588.343	499.38
588.553	464.38
588.762	458.38
588.972	450.38
589.182	488.38
589.392	481.38
589.602	477.38
589.812	493.38
590.022	477.38
590.232	491.38
590.441	459.38
590.651	472.38
590.861	462.38
591.071	464.38
591.281	471.38
591.49	472.38
591.7	474.38
591.91	473.38
592.119	484.38
592.329	494.38
592.539	482.38
592.748	477.38
592.958	476.38
593.167	485.38
593.377	494.38
593.587	500.38
593.796	491.38
594.006	516.38
594.215	501.38
594.424	517.38
594.634	530.38
594.843	512.38
595.053	522.38
595.262	504.38
595.472	462.38
595.681	469.38
595.89	479.38
596.1	458.38
596.309	493.38
596.518	473.38
596.727	505.38
596.937	474.38
597.146	481.38
597.355	456.38
597.564	456.38
597.774	433.38
597.983	416.38
598.192	434.38
598.401	403.38
598.61	423.38
598.819	424.38
599.028	437.38
599.237	452.38
599.446	419.38
599.655	419.38
599.864	411.38
600.073	426.38
600.282	418.38
600.491	421.38
600.7	413.38
600.909	414.38
601.118	440.38
601.327	430.38
601.536	442.38
601.745	456.38
601.953	447.38
602.162	470.38
602.371	474.38
602.58	449.38
602.789	469.38
602.997	490.38
603.206	484.38
603.415	470.38
603.623	481.38
603.832	432.38
604.041	442.38
604.249	420.38
604.458	418.38
604.666	430.38
604.875	409.38
605.084	452.38
605.292	471.38
605.501	473.38
605.709	473.38
605.918	469.38
606.126	486.38
606.334	479.38
606.543	468.38
606.751	491.38
606.96	497.38
607.168	464.38
607.376	449.38
607.585	467.38
607.793	484.38
608.001	470.38
608.21	465.38
608.418	480.38
608.626	476.38
608.834	465.38
609.043	472.38
609.251	472.38
609.459	466.38
609.667	470.38
609.875	457.38
610.083	480.38
610.291	469.38
610.499	488.38
610.707	474.38
610.916	473.38
611.124	485.38
611.332	441.38
611.54	462.38
611.748	460.38
611.955	444.38
612.163	444.38
612.371	470.38
612.579	457.38
612.787	469.38
612.995	475.38
613.203	464.38
613.411	443.38
613.618	454.38
613.826	444.38
614.034	461.38
614.242	452.38
614.449	464.38
614.657	472.38
614.865	461.38
615.072	470.38
615.28	453.38
615.488	453.38
615.695	501.38
615.903	470.38
616.111	438.38
616.318	462.38
616.526	444.38
616.733	462.38
616.941	456.38
617.148	458.38
617.356	444.38
617.563	437.38
617.771	444.38
617.978	427.38
618.185	433.38
618.393	445.38
618.6	438.38
618.807	455.38
619.015	456.38
619.222	409.38
619.429	406.38
619.637	420.38
619.844	406.38
620.051	398.38
620.258	416.38
620.466	441.38
620.673	419.38
620.88	406.38
621.087	401.38
621.294	406.38
621.501	379.38
621.708	388.38
621.915	420.38
622.122	413.38
622.329	417.38
622.536	404.38
622.743	404.38
622.95	405.38
623.157	387.38
623.364	410.38
623.571	408.38
623.778	406.38
623.985	428.38
624.192	375.38
624.399	413.38
624.606	405.38
624.812	398.38
625.019	377.38
625.226	378.38
625.433	375.38
625.639	379.38
625.846	362.38
626.053	350.38
626.259	328.38
626.466	335.38
626.673	341.38
626.879	313.38
627.086	338.38
627.293	334.38
627.499	361.38
627.706	367.38
627.912	378.38
628.119	385.38
628.325	381.38
628.532	398.38
628.738	387.38
628.945	390.38
629.151	361.38
629.357	375.38
629.564	374.38
629.77	374.38
629.976	339.38
630.183	346.38
630.389	336.38
630.595	360.38
630.802	364.38
631.008	349.38
631.214	365.38
631.42	338.38
631.627	327.38
631.833	326.38
632.039	334.38
632.245	338.38
632.451	342.38
632.657	330.38
632.863	328.38
633.069	310.38
633.275	343.38
633.481	332.38
633.688	328.38
633.893	339.38
634.099	305.38
634.305	332.38
634.511	322.38
634.717	317.38
634.923	283.38
635.129	301.38
635.335	298.38
635.541	300.38
635.747	322.38
635.952	308.38
636.158	345.38
636.364	326.38
636.57	325.38
636.775	335.38
636.981	332.38
637.187	325.38
637.392	334.38
637.598	338.38
637.804	338.38
638.009	322.38
638.215	324.38
638.421	313.38
638.626	336.38
638.832	320.38
639.037	305.38
639.243	289.38
639.448	313.38
639.654	317.38
639.859	300.38
640.065	293.38
640.27	307.38
640.475	341.38
640.681	305.38
640.886	325.38
641.091	342.38
641.297	319.38
641.502	306.38
641.707	311.38
641.913	322.38
642.118	312.38
642.323	310.38
642.528	299.38
642.733	285.38
642.939	304.38
643.144	312.38
643.349	302.38
643.554	292.38
643.759	298.38
643.964	305.38
644.169	293.38
644.374	303.38
644.579	296.38
644.784	321.38
644.989	329.38
645.194	297.38
645.399	288.38
645.604	290.38
645.809	314.38
646.014	308.38
646.219	300.38
646.423	307.38
646.628	297.38
646.833	297.38
647.038	304.38
647.243	314.38
647.447	305.38
647.652	309.38
647.857	308.38
648.062	323.38
648.266	301.38
648.471	308.38
648.676	297.38
648.88	299.38
649.085	310.38
649.289	297.38
649.494	302.38
649.698	304.38
649.903	287.38
650.107	286.38
650.312	297.38
650.516	299.38
650.721	285.38
650.925	263.38
651.13	278.38
651.334	274.38
651.539	270.38
651.743	269.38
651.947	290.38
652.152	273.38
652.356	261.38
652.56	273.38
652.764	252.38
652.969	262.38
653.173	256.38
653.377	270.38
653.581	248.38
653.785	251.38
653.99	275.38
654.194	249.38
654.398	248.38
654.602	265.38
654.806	243.38
655.01	240.38
655.214	268.38
655.418	259.38
655.622	251.38
655.826	254.38
656.03	284.38
656.234	273.38
656.438	286.38
656.642	278.38
656.846	253.38
657.049	275.38
657.253	260.38
657.457	210.38
657.661	213.38
657.865	185.38
658.068	206.38
658.272	194.38
658.476	176.38
658.68	174.38
658.883	168.38
659.087	181.38
659.291	160.38
659.494	161.38
659.698	154.38
659.901	145.38
660.105	138.38
660.309	141.38
660.512	137.38
660.716	131.38
660.919	143.38
661.123	123.38
661.326	114.38
661.53	118.38
661.733	115.38
661.936	120.38
662.14	132.38
662.343	101.38
662.546	102.38
662.75	98.38
662.953	106.38
663.156	93.38
663.36	106.38
663.563	99.38
663.766	88.38
663.969	89.38
664.173	87.38
664.376	78.38
664.579	95.38
664.782	101.38
664.985	78.38
665.188	82.38
665.391	78.38
665.594	97.38
665.797	92.38
666	86.38
666.203	72.38
666.406	70.38
666.609	90.38
666.812	81.38
667.015	85.38
667.218	94.38
667.421	84.38
667.624	83.38
667.827	72.38
668.03	83.38
668.232	78.38
668.435	95.38
668.638	88.38
668.841	82.38
669.043	74.38
669.246	74.38
669.449	85.38
669.651	90.38
669.854	89.38
670.057	78.38
670.259	64.38
670.462	70.38
670.665	89.38
670.867	87.38
671.07	90.38
671.272	84.38
671.475	81.38
671.677	94.38
671.88	83.38
672.082	84.38
672.284	72.38
672.487	73.38
672.689	70.38
672.892	79.38
