Data from WStandard_LampEnergy5.5LIBS07252019.E.O._I.C._HRD10591_16-06-22-920.txt Node
Date: Thu Jul 25 16:06:22 EDT 2019
User: cochatt
Spectrometer: HR+D1059
Trigger mode: 1
Integration Time (sec): 1.000000E-1
Scans to average: 1
Electric dark correction enabled: true
Nonlinearity correction enabled: false
Boxcar width: 0
XAxis mode: Wavelengths
Number of Pixels in Spectrum: 2048
>>>>>Begin Spectral Data<<<<<
223.165	-20.88
223.4	-20.88
223.635	-20.88
223.869	-25.88
224.104	-7.88
224.338	-4.88
224.573	-21.88
224.808	-7.88
225.042	-7.88
225.277	-4.88
225.511	5.12
225.746	2.12
225.98	-6.88
226.215	13.12
226.449	13.12
226.683	26.12
226.918	11.12
227.152	38.12
227.387	34.12
227.621	39.12
227.856	37.12
228.09	52.12
228.324	63.12
228.559	48.12
228.793	128.12
229.027	324.12
229.262	325.12
229.496	364.12
229.73	379.12
229.964	382.12
230.199	391.12
230.433	405.12
230.667	458.12
230.901	468.12
231.136	442.12
231.37	404.12
231.604	408.12
231.838	430.12
232.072	418.12
232.306	404.12
232.541	418.12
232.775	489.12
233.009	543.12
233.243	498.12
233.477	462.12
233.711	483.12
233.945	496.12
234.179	482.12
234.413	520.12
234.647	568.12
234.881	527.12
235.115	480.12
235.349	484.12
235.583	501.12
235.817	492.12
236.051	479.12
236.285	460.12
236.519	517.12
236.753	580.12
236.987	601.12
237.221	589.12
237.455	661.12
237.689	642.12
237.922	598.12
238.156	566.12
238.39	561.12
238.624	613.12
238.858	640.12
239.091	656.12
239.325	677.12
239.559	790.12
239.793	818.12
240.027	902.12
240.26	897.12
240.494	666.12
240.728	614.12
240.961	635.12
241.195	632.12
241.429	706.12
241.662	705.12
241.896	662.12
242.13	672.12
242.363	725.12
242.597	789.12
242.83	744.12
243.064	763.12
243.298	816.12
243.531	806.12
243.765	795.12
243.998	808.12
244.232	692.12
244.465	664.12
244.699	687.12
244.932	770.12
245.166	873.12
245.399	838.12
245.633	762.12
245.866	746.12
246.099	764.12
246.333	838.12
246.566	812.12
246.8	872.12
247.033	1001.12
247.266	907.12
247.5	924.12
247.733	886.12
247.966	926.12
248.2	1029.12
248.433	980.12
248.666	1022.12
248.899	1123.12
249.133	1281.12
249.366	1461.12
249.599	1202.12
249.832	1043.12
250.066	1097.12
250.299	1090.12
250.532	1024.12
250.765	895.12
250.998	987.12
251.231	1032.12
251.465	1061.12
251.698	1005.12
251.931	1001.12
252.164	1012.12
252.397	1031.12
252.63	1074.12
252.863	923.12
253.096	923.12
253.329	983.12
253.562	1014.12
253.795	1090.12
254.028	1102.12
254.261	1010.12
254.494	1000.12
254.727	939.12
254.96	968.12
255.193	1057.12
255.426	1190.12
255.659	1383.12
255.892	1394.12
256.124	1156.12
256.357	1117.12
256.59	1206.12
256.823	1226.12
257.056	1202.12
257.289	1440.12
257.521	1590.12
257.754	1456.12
257.987	1352.12
258.22	1486.12
258.452	1462.12
258.685	1161.12
258.918	1156.12
259.151	1170.12
259.383	1120.12
259.616	1000.12
259.849	1051.12
260.081	1157.12
260.314	1264.12
260.547	1429.12
260.779	1444.12
261.012	1354.12
261.244	1203.12
261.477	1134.12
261.71	1196.12
261.942	1210.12
262.175	1174.12
262.407	1189.12
262.64	1141.12
262.872	1062.12
263.105	1028.12
263.337	1086.12
263.57	1099.12
263.802	1097.12
264.035	1038.12
264.267	968.12
264.499	972.12
264.732	1020.12
264.964	1069.12
265.197	1150.12
265.429	1151.12
265.661	1316.12
265.894	1460.12
266.126	1464.12
266.358	1320.12
266.591	1402.12
266.823	1528.12
267.055	1374.12
267.287	1317.12
267.52	1309.12
267.752	1302.12
267.984	1291.12
268.216	1359.12
268.448	1396.12
268.681	1421.12
268.913	1292.12
269.145	1198.12
269.377	1165.12
269.609	1258.12
269.841	1470.12
270.073	1657.12
270.306	1881.12
270.538	2018.12
270.77	1690.12
271.002	1425.12
271.234	1353.12
271.466	1344.12
271.698	1513.12
271.93	1844.12
272.162	1851.12
272.394	1642.12
272.626	1571.12
272.858	1371.12
273.09	1237.12
273.322	1230.12
273.553	1136.12
273.785	1204.12
274.017	1252.12
274.249	1310.12
274.481	1316.12
274.713	1191.12
274.945	1190.12
275.176	1206.12
275.408	1181.12
275.64	1195.12
275.872	1162.12
276.104	1214.12
276.335	1358.12
276.567	1549.12
276.799	1623.12
277.031	1428.12
277.262	1326.12
277.494	1356.12
277.726	1534.12
277.957	1516.12
278.189	1420.12
278.421	1300.12
278.652	1269.12
278.884	1230.12
279.115	1221.12
279.347	1260.12
279.579	1232.12
279.81	1229.12
280.042	1360.12
280.273	1474.12
280.505	1463.12
280.736	1531.12
280.968	1434.12
281.199	1302.12
281.431	1255.12
281.662	1220.12
281.894	1225.12
282.125	1258.12
282.356	1332.12
282.588	1356.12
282.819	1310.12
283.051	1383.12
283.282	1505.12
283.513	1458.12
283.745	1279.12
283.976	1180.12
284.207	1200.12
284.439	1251.12
284.67	1235.12
284.901	1259.12
285.132	1314.12
285.364	1300.12
285.595	1294.12
285.826	1285.12
286.057	1259.12
286.288	1220.12
286.52	1334.12
286.751	1424.12
286.982	1450.12
287.213	1357.12
287.444	1250.12
287.675	1250.12
287.906	1287.12
288.138	1344.12
288.369	1346.12
288.6	1301.12
288.831	1239.12
289.062	1292.12
289.293	1334.12
289.524	1307.12
289.755	1302.12
289.986	1290.12
290.217	1209.12
290.448	1274.12
290.679	1321.12
290.91	1340.12
291.141	1328.12
291.371	1399.12
291.602	1366.12
291.833	1344.12
292.064	1396.12
292.295	1401.12
292.526	1410.12
292.757	1475.12
292.987	1416.12
293.218	1309.12
293.449	1374.12
293.68	1574.12
293.91	1704.12
294.141	1537.12
294.372	1440.12
294.603	1492.12
294.833	1547.12
295.064	1516.12
295.295	1392.12
295.525	1387.12
295.756	1249.12
295.987	1225.12
296.217	1252.12
296.448	1314.12
296.679	1332.12
296.909	1268.12
297.14	1258.12
297.37	1264.12
297.601	1355.12
297.831	1474.12
298.062	1456.12
298.292	1356.12
298.523	1301.12
298.753	1308.12
298.984	1336.12
299.214	1289.12
299.445	1313.12
299.675	1370.12
299.905	1360.12
300.136	1324.12
300.366	1371.12
300.597	1290.12
300.827	1300.12
301.057	1324.12
301.288	1406.12
301.518	1395.12
301.748	1372.12
301.979	1475.12
302.209	1502.12
302.439	1575.12
302.669	1663.12
302.9	1541.12
303.13	1414.12
303.36	1394.12
303.59	1444.12
303.82	1416.12
304.051	1392.12
304.281	1397.12
304.511	1370.12
304.741	1458.12
304.971	1622.12
305.201	1707.12
305.431	1653.12
305.661	1402.12
305.891	1303.12
306.121	1252.12
306.352	1305.12
306.582	1340.12
306.812	1396.12
307.042	1550.12
307.272	1532.12
307.502	1564.12
307.731	1685.12
307.961	1840.12
308.191	1700.12
308.421	1492.12
308.651	1424.12
308.881	1402.12
309.111	1355.12
309.341	1340.12
309.571	1374.12
309.8	1353.12
310.03	1347.12
310.26	1369.12
310.49	1360.12
310.72	1365.12
310.949	1440.12
311.179	1443.12
311.409	1438.12
311.639	1440.12
311.868	1384.12
312.098	1368.12
312.328	1394.12
312.557	1368.12
312.787	1408.12
313.017	1475.12
313.246	1412.12
313.476	1432.12
313.706	1490.12
313.935	1438.12
314.165	1460.12
314.394	1490.12
314.624	1572.12
314.853	1660.12
315.083	1685.12
315.312	1781.12
315.542	1653.12
315.771	1468.12
316.001	1426.12
316.23	1565.12
316.46	1529.12
316.689	1497.12
316.919	1448.12
317.148	1412.12
317.377	1415.12
317.607	1527.12
317.836	1669.12
318.065	1737.12
318.295	1649.12
318.524	1608.12
318.753	1546.12
318.983	1522.12
319.212	1491.12
319.441	1460.12
319.67	1476.12
319.9	1488.12
320.129	1574.12
320.358	1634.12
320.587	1691.12
320.816	1652.12
321.046	1601.12
321.275	1495.12
321.504	1528.12
321.733	1652.12
321.962	1639.12
322.191	1490.12
322.42	1467.12
322.649	1514.12
322.878	1484.12
323.108	1495.12
323.337	1528.12
323.566	1555.12
323.795	1521.12
324.024	1554.12
324.253	1500.12
324.482	1546.12
324.71	1507.12
324.939	1452.12
325.168	1467.12
325.397	1466.12
325.626	1518.12
325.855	1540.12
326.084	1459.12
326.313	1484.12
326.542	1473.12
326.77	1558.12
326.999	1576.12
327.228	1535.12
327.457	1455.12
327.686	1447.12
327.914	1432.12
328.143	1501.12
328.372	1508.12
328.6	1549.12
328.829	1508.12
329.058	1496.12
329.287	1482.12
329.515	1502.12
329.744	1578.12
329.972	1625.12
330.201	1652.12
330.43	1656.12
330.658	1617.12
330.887	1603.12
331.115	1592.12
331.344	1603.12
331.572	1604.12
331.801	1600.12
332.03	1595.12
332.258	1606.12
332.486	1638.12
332.715	1620.12
332.943	1605.12
333.172	1598.12
333.4	1653.12
333.629	1659.12
333.857	1760.12
334.085	1911.12
334.314	2114.12
334.542	2292.12
334.771	2150.12
334.999	1893.12
335.227	1820.12
335.455	1767.12
335.684	1712.12
335.912	1748.12
336.14	1779.12
336.369	1743.12
336.597	1642.12
336.825	1576.12
337.053	1657.12
337.281	1765.12
337.51	1833.12
337.738	1878.12
337.966	1826.12
338.194	1654.12
338.422	1578.12
338.65	1625.12
338.878	1577.12
339.106	1601.12
339.334	1541.12
339.562	1523.12
339.79	1513.12
340.018	1615.12
340.246	1657.12
340.474	1696.12
340.702	1616.12
340.93	1659.12
341.158	1637.12
341.386	1568.12
341.614	1596.12
341.842	1565.12
342.07	1578.12
342.298	1618.12
342.526	1609.12
342.754	1556.12
342.981	1553.12
343.209	1539.12
343.437	1560.12
343.665	1591.12
343.893	1626.12
344.12	1693.12
344.348	1716.12
344.576	1622.12
344.804	1629.12
345.031	1608.12
345.259	1603.12
345.487	1569.12
345.714	1515.12
345.942	1466.12
346.17	1449.12
346.397	1514.12
346.625	1541.12
346.853	1480.12
347.08	1422.12
347.308	1452.12
347.535	1475.12
347.763	1516.12
347.99	1482.12
348.218	1414.12
348.445	1446.12
348.673	1450.12
348.9	1520.12
349.128	1579.12
349.355	1565.12
349.583	1578.12
349.81	1475.12
350.037	1435.12
350.265	1395.12
350.492	1396.12
350.72	1418.12
350.947	1471.12
351.174	1508.12
351.402	1478.12
351.629	1404.12
351.856	1400.12
352.083	1406.12
352.311	1384.12
352.538	1442.12
352.765	1476.12
352.992	1497.12
353.22	1466.12
353.447	1432.12
353.674	1444.12
353.901	1503.12
354.128	1428.12
354.355	1421.12
354.583	1480.12
354.81	1557.12
355.037	1549.12
355.264	1530.12
355.491	1445.12
355.718	1508.12
355.945	1479.12
356.172	1435.12
356.399	1420.12
356.626	1409.12
356.853	1446.12
357.08	1517.12
357.307	1705.12
357.534	1715.12
357.761	1550.12
357.988	1438.12
358.215	1394.12
358.441	1412.12
358.668	1423.12
358.895	1421.12
359.122	1485.12
359.349	1609.12
359.576	1621.12
359.802	1464.12
360.029	1420.12
360.256	1404.12
360.483	1447.12
360.709	1458.12
360.936	1495.12
361.163	1568.12
361.39	1688.12
361.616	1766.12
361.843	1721.12
362.07	1650.12
362.296	1479.12
362.523	1448.12
362.749	1468.12
362.976	1474.12
363.203	1538.12
363.429	1464.12
363.656	1414.12
363.882	1453.12
364.109	1606.12
364.335	1705.12
364.562	1632.12
364.788	1556.12
365.015	1477.12
365.241	1438.12
365.468	1418.12
365.694	1524.12
365.92	1604.12
366.147	1548.12
366.373	1450.12
366.599	1430.12
366.826	1405.12
367.052	1432.12
367.278	1446.12
367.505	1424.12
367.731	1464.12
367.957	1484.12
368.184	1496.12
368.41	1541.12
368.636	1577.12
368.862	1641.12
369.089	1635.12
369.315	1619.12
369.541	1532.12
369.767	1488.12
369.993	1465.12
370.219	1428.12
370.445	1464.12
370.672	1598.12
370.898	1630.12
371.124	1617.12
371.35	1532.12
371.576	1565.12
371.802	1636.12
372.028	1564.12
372.254	1492.12
372.48	1485.12
372.706	1493.12
372.932	1479.12
373.158	1528.12
373.384	1521.12
373.61	1563.12
373.835	1654.12
374.061	1577.12
374.287	1571.12
374.513	1558.12
374.739	1586.12
374.965	1595.12
375.191	1586.12
375.416	1608.12
375.642	1589.12
375.868	1627.12
376.094	1727.12
376.319	1630.12
376.545	1532.12
376.771	1577.12
376.997	1615.12
377.222	1602.12
377.448	1561.12
377.674	1588.12
377.899	1542.12
378.125	1641.12
378.35	1690.12
378.576	1567.12
378.802	1506.12
379.027	1527.12
379.253	1547.12
379.478	1538.12
379.704	1506.12
379.929	1536.12
380.155	1530.12
380.38	1548.12
380.606	1578.12
380.831	1543.12
381.057	1606.12
381.282	1661.12
381.507	1626.12
381.733	1696.12
381.958	1748.12
382.184	1637.12
382.409	1571.12
382.634	1627.12
382.86	1627.12
383.085	1639.12
383.31	1658.12
383.535	1742.12
383.761	1857.12
383.986	1761.12
384.211	1734.12
384.436	1710.12
384.662	1793.12
384.887	1881.12
385.112	1810.12
385.337	1833.12
385.562	1771.12
385.787	1783.12
386.013	1844.12
386.238	1817.12
386.463	1792.12
386.688	1895.12
386.913	1994.12
387.138	1955.12
387.363	1802.12
387.588	1798.12
387.813	1814.12
388.038	1860.12
388.263	1868.12
388.488	1844.12
388.713	1717.12
388.938	1748.12
389.163	1729.12
389.387	1769.12
389.612	1724.12
389.837	1785.12
390.062	1788.12
390.287	1780.12
390.512	1796.12
390.736	1777.12
390.961	1737.12
391.186	1702.12
391.411	1751.12
391.636	1825.12
391.86	1826.12
392.085	1767.12
392.31	1773.12
392.534	1818.12
392.759	1865.12
392.984	1819.12
393.208	1865.12
393.433	2014.12
393.658	2078.12
393.882	1974.12
394.107	1829.12
394.331	1803.12
394.556	1799.12
394.78	1801.12
395.005	1823.12
395.229	1864.12
395.454	2009.12
395.678	2010.12
395.903	1980.12
396.127	1886.12
396.352	1922.12
396.576	1986.12
396.801	2018.12
397.025	2066.12
397.249	1953.12
397.474	1964.12
397.698	1924.12
397.922	1977.12
398.147	2058.12
398.371	2127.12
398.595	2112.12
398.82	2063.12
399.044	2115.12
399.268	2175.12
399.492	2366.12
399.717	2424.12
399.941	2441.12
400.165	2413.12
400.389	2320.12
400.613	2238.12
400.837	2421.12
401.062	2715.12
401.286	2392.12
401.51	2211.12
401.734	2288.12
401.958	2201.12
402.182	2093.12
402.406	2025.12
402.63	2061.12
402.854	2032.12
403.078	2090.12
403.302	2116.12
403.526	2172.12
403.75	2147.12
403.974	2186.12
404.198	2157.12
404.422	2212.12
404.645	2279.12
404.869	2226.12
405.093	2097.12
405.317	2100.12
405.541	2202.12
405.765	2204.12
405.988	2151.12
406.212	2192.12
406.436	2263.12
406.66	2245.12
406.883	2270.12
407.107	2466.12
407.331	2682.12
407.555	2860.12
407.778	2740.12
408.002	2340.12
408.226	2225.12
408.449	2270.12
408.673	2181.12
408.896	2235.12
409.12	2232.12
409.344	2198.12
409.567	2110.12
409.791	2240.12
410.014	2217.12
410.238	2296.12
410.461	2376.12
410.685	2176.12
410.908	2094.12
411.132	2151.12
411.355	2166.12
411.578	2122.12
411.802	2084.12
412.025	2128.12
412.249	2093.12
412.472	2041.12
412.695	1976.12
412.919	2050.12
413.142	2009.12
413.365	2063.12
413.589	2138.12
413.812	2145.12
414.035	2194.12
414.258	2054.12
414.482	2047.12
414.705	2065.12
414.928	2051.12
415.151	2062.12
415.374	2093.12
415.597	2099.12
415.821	2096.12
416.044	2170.12
416.267	2165.12
416.49	1988.12
416.713	1942.12
416.936	2017.12
417.159	2070.12
417.382	2096.12
417.605	2018.12
417.828	2092.12
418.051	2107.12
418.274	2026.12
418.497	1979.12
418.72	1996.12
418.943	1970.12
419.166	2130.12
419.389	2225.12
419.611	2130.12
419.834	2032.12
420.057	2050.12
420.28	2002.12
420.503	1986.12
420.726	1991.12
420.948	2022.12
421.171	1961.12
421.394	2042.12
421.617	2063.12
421.839	2042.12
422.062	2010.12
422.285	1934.12
422.507	1973.12
422.73	1950.12
422.953	1912.12
423.175	1944.12
423.398	1953.12
423.621	1970.12
423.843	1970.12
424.066	2013.12
424.288	2028.12
424.511	2082.12
424.733	2038.12
424.956	1882.12
425.178	1874.12
425.401	1881.12
425.623	1930.12
425.846	1923.12
426.068	1955.12
426.291	2027.12
426.513	1984.12
426.735	1972.12
426.958	2014.12
427.18	2148.12
427.402	1974.12
427.625	2037.12
427.847	2059.12
428.069	2022.12
428.292	1902.12
428.514	1865.12
428.736	1861.12
428.958	1885.12
429.181	1929.12
429.403	2080.12
429.625	2492.12
429.847	2258.12
430.069	1915.12
430.292	2063.12
430.514	2153.12
430.736	2020.12
430.958	2093.12
431.18	2048.12
431.402	1913.12
431.624	1880.12
431.846	1886.12
432.068	1860.12
432.29	1895.12
432.512	1940.12
432.734	1968.12
432.956	2013.12
433.178	2059.12
433.4	2008.12
433.622	2016.12
433.844	1979.12
434.066	1852.12
434.287	1876.12
434.509	1928.12
434.731	2002.12
434.953	2164.12
435.175	2133.12
435.397	2048.12
435.618	2024.12
435.84	2022.12
436.062	1986.12
436.284	1991.12
436.505	2034.12
436.727	2006.12
436.949	1963.12
437.17	1924.12
437.392	1934.12
437.614	1944.12
437.835	1871.12
438.057	1944.12
438.278	2068.12
438.5	1939.12
438.721	1894.12
438.943	1925.12
439.165	1920.12
439.386	1886.12
439.608	1866.12
439.829	1909.12
440.05	1869.12
440.272	1858.12
440.493	1848.12
440.715	1858.12
440.936	1998.12
441.158	2224.12
441.379	2174.12
441.6	2099.12
441.822	2013.12
442.043	2052.12
442.264	1971.12
442.486	1913.12
442.707	1887.12
442.928	1862.12
443.149	1970.12
443.371	2069.12
443.592	2139.12
443.813	2057.12
444.034	2074.12
444.255	2115.12
444.476	2165.12
444.698	2181.12
444.919	2176.12
445.14	2242.12
445.361	2213.12
445.582	2300.12
445.803	2146.12
446.024	2105.12
446.245	2157.12
446.466	2115.12
446.687	2019.12
446.908	1957.12
447.129	1900.12
447.35	1998.12
447.571	1940.12
447.792	1851.12
448.013	1864.12
448.234	1904.12
448.455	1989.12
448.675	1972.12
448.896	1831.12
449.117	1826.12
449.338	1886.12
449.559	1909.12
449.779	2010.12
450	2208.12
450.221	2368.12
450.442	2339.12
450.662	2039.12
450.883	1758.12
451.104	1791.12
451.324	1840.12
451.545	1856.12
451.766	1858.12
451.986	1787.12
452.207	1788.12
452.428	1718.12
452.648	1662.12
452.869	1790.12
453.089	1859.12
453.31	1821.12
453.53	1914.12
453.751	1860.12
453.971	1716.12
454.192	1795.12
454.412	1861.12
454.633	1784.12
454.853	1756.12
455.073	1666.12
455.294	1684.12
455.514	1643.12
455.734	1672.12
455.955	1687.12
456.175	1697.12
456.395	1706.12
456.616	1745.12
456.836	1789.12
457.056	1714.12
457.276	1692.12
457.497	1652.12
457.717	1625.12
457.937	1625.12
458.157	1745.12
458.377	1702.12
458.598	1702.12
458.818	1690.12
459.038	1797.12
459.258	1906.12
459.478	1895.12
459.698	1844.12
459.918	1885.12
460.138	2014.12
460.358	2021.12
460.578	2094.12
460.798	2115.12
461.018	2253.12
461.238	2115.12
461.458	2046.12
461.678	2029.12
461.898	2041.12
462.118	1926.12
462.338	2084.12
462.558	2048.12
462.777	2075.12
462.997	2133.12
463.217	2317.12
463.437	2302.12
463.657	2145.12
463.876	2061.12
464.096	2059.12
464.316	2048.12
464.536	2158.12
464.755	2144.12
464.975	2220.12
465.195	2053.12
465.414	2128.12
465.634	2174.12
465.854	2000.12
466.073	2065.12
466.293	2101.12
466.512	1890.12
466.732	1852.12
466.951	1889.12
467.171	1902.12
467.391	1852.12
467.61	1810.12
467.829	1782.12
468.049	1956.12
468.268	2110.12
468.488	2001.12
468.707	1948.12
468.927	1870.12
469.146	1900.12
469.365	1802.12
469.585	1832.12
469.804	1836.12
470.023	1841.12
470.243	1833.12
470.462	1871.12
470.681	1810.12
470.901	1860.12
471.12	1847.12
471.339	1822.12
471.558	1786.12
471.777	1765.12
471.997	1799.12
472.216	1802.12
472.435	1771.12
472.654	1777.12
472.873	1844.12
473.092	1950.12
473.311	1849.12
473.53	1768.12
473.749	1802.12
473.968	1864.12
474.187	1913.12
474.406	1988.12
474.625	1905.12
474.844	1824.12
475.063	1854.12
475.282	1908.12
475.501	1875.12
475.72	1882.12
475.939	1937.12
476.158	1939.12
476.377	1888.12
476.596	1914.12
476.814	1922.12
477.033	1943.12
477.252	2054.12
477.471	2057.12
477.69	1973.12
477.908	1952.12
478.127	2049.12
478.346	2204.12
478.564	2232.12
478.783	2216.12
479.002	2296.12
479.22	2222.12
479.439	2308.12
479.658	2583.12
479.876	2520.12
480.095	2248.12
480.313	2140.12
480.532	2071.12
480.751	2088.12
480.969	2125.12
481.188	2068.12
481.406	2076.12
481.624	2017.12
481.843	2060.12
482.061	2125.12
482.28	2110.12
482.498	2136.12
482.717	2112.12
482.935	2052.12
483.153	2052.12
483.372	2053.12
483.59	2010.12
483.808	2044.12
484.027	2123.12
484.245	2175.12
484.463	2433.12
484.681	2719.12
484.9	2299.12
485.118	2101.12
485.336	2085.12
485.554	2149.12
485.772	2278.12
485.99	2228.12
486.209	2211.12
486.427	2259.12
486.645	2225.12
486.863	2148.12
487.081	2218.12
487.299	2250.12
487.517	2219.12
487.735	2150.12
487.953	2101.12
488.171	2112.12
488.389	2104.12
488.607	2137.12
488.825	2273.12
489.043	2317.12
489.261	2122.12
489.479	2234.12
489.696	2289.12
489.914	2262.12
490.132	2186.12
490.35	2190.12
490.568	2229.12
490.786	2203.12
491.003	2108.12
491.221	2151.12
491.439	2227.12
491.657	2250.12
491.874	2245.12
492.092	2249.12
492.31	2309.12
492.527	2264.12
492.745	2186.12
492.963	2221.12
493.18	2275.12
493.398	2445.12
493.615	2499.12
493.833	2326.12
494.05	2264.12
494.268	2291.12
494.485	2308.12
494.703	2283.12
494.92	2255.12
495.138	2235.12
495.355	2274.12
495.573	2324.12
495.79	2524.12
496.008	2501.12
496.225	2368.12
496.442	2366.12
496.66	2378.12
496.877	2379.12
497.094	2473.12
497.312	2454.12
497.529	2477.12
497.746	2493.12
497.963	2868.12
498.181	3193.12
498.398	3005.12
498.615	2906.12
498.832	2900.12
499.049	2911.12
499.267	2960.12
499.484	3136.12
499.701	3410.12
499.918	3473.12
500.135	3738.12
500.352	3995.12
500.569	3939.12
500.786	4089.12
501.003	3828.12
501.22	3574.12
501.437	3422.12
501.654	3367.12
501.871	3240.12
502.088	2912.12
502.305	2887.12
502.522	2814.12
502.739	2622.12
502.956	2570.12
503.172	2514.12
503.389	2438.12
503.606	2358.12
503.823	2408.12
504.04	2397.12
504.256	2363.12
504.473	2400.12
504.69	2482.12
504.907	2392.12
505.123	2251.12
505.34	2268.12
505.557	2790.12
505.773	2487.12
505.99	2153.12
506.207	2100.12
506.423	2061.12
506.64	2005.12
506.856	2009.12
507.073	2187.12
507.289	2356.12
507.506	2289.12
507.722	1997.12
507.939	1939.12
508.155	1960.12
508.372	2014.12
508.588	1920.12
508.805	1869.12
509.021	1867.12
509.238	1843.12
509.454	1846.12
509.67	1861.12
509.887	1812.12
510.103	1844.12
510.319	1881.12
510.536	1924.12
510.752	1956.12
510.968	1943.12
511.184	2065.12
511.401	2066.12
511.617	1845.12
511.833	1782.12
512.049	1738.12
512.265	1795.12
512.481	1765.12
512.698	1801.12
512.914	1951.12
513.13	1880.12
513.346	1847.12
513.562	1778.12
513.778	1830.12
513.994	1846.12
514.21	1898.12
514.426	1962.12
514.642	2141.12
514.858	2032.12
515.074	1884.12
515.29	1816.12
515.506	1881.12
515.721	1893.12
515.937	1933.12
516.153	2172.12
516.369	2104.12
516.585	2001.12
516.801	1865.12
517.016	1939.12
517.232	1964.12
517.448	2012.12
517.664	2032.12
517.879	2059.12
518.095	2113.12
518.311	2014.12
518.527	1894.12
518.742	1935.12
518.958	1866.12
519.173	1878.12
519.389	1859.12
519.605	1855.12
519.82	1860.12
520.036	1937.12
520.251	1836.12
520.467	1828.12
520.682	1943.12
520.898	2002.12
521.113	1835.12
521.329	1783.12
521.544	1932.12
521.76	1818.12
521.975	1754.12
522.19	1761.12
522.406	1690.12
522.621	1942.12
522.836	1999.12
523.052	1746.12
523.267	1730.12
523.482	1746.12
523.698	1654.12
523.913	1632.12
524.128	1658.12
524.343	1716.12
524.559	1757.12
524.774	1648.12
524.989	1678.12
525.204	1661.12
525.419	1610.12
525.634	1624.12
525.849	1637.12
526.064	1645.12
526.28	1654.12
526.495	1614.12
526.71	1580.12
526.925	1590.12
527.14	1565.12
527.355	1558.12
527.57	1541.12
527.785	1602.12
527.999	1541.12
528.214	1565.12
528.429	1537.12
528.644	1539.12
528.859	1572.12
529.074	1554.12
529.289	1557.12
529.503	1594.12
529.718	1616.12
529.933	1580.12
530.148	1538.12
530.363	1549.12
530.577	1571.12
530.792	1589.12
531.007	1592.12
531.221	1565.12
531.436	1595.12
531.651	1595.12
531.865	1695.12
532.08	1611.12
532.295	1526.12
532.509	1487.12
532.724	1550.12
532.938	1596.12
533.153	1693.12
533.367	1638.12
533.582	1594.12
533.796	1590.12
534.011	1547.12
534.225	1570.12
534.44	1542.12
534.654	1517.12
534.868	1490.12
535.083	1554.12
535.297	1580.12
535.511	1538.12
535.726	1533.12
535.94	1508.12
536.154	1534.12
536.369	1520.12
536.583	1511.12
536.797	1475.12
537.011	1511.12
537.225	1492.12
537.44	1438.12
537.654	1505.12
537.868	1493.12
538.082	1423.12
538.296	1399.12
538.51	1420.12
538.724	1438.12
538.938	1427.12
539.153	1466.12
539.367	1477.12
539.581	1445.12
539.795	1526.12
540.009	1485.12
540.222	1494.12
540.436	1475.12
540.65	1633.12
540.864	1626.12
541.078	1500.12
541.292	1448.12
541.506	1489.12
541.72	1499.12
541.934	1469.12
542.147	1514.12
542.361	1474.12
542.575	1437.12
542.789	1428.12
543.002	1408.12
543.216	1436.12
543.43	1460.12
543.644	1501.12
543.857	1571.12
544.071	1529.12
544.285	1487.12
544.498	1451.12
544.712	1463.12
544.925	1481.12
545.139	1527.12
545.352	1428.12
545.566	1403.12
545.779	1403.12
545.993	1430.12
546.206	1460.12
546.42	1441.12
546.633	1438.12
546.847	1436.12
547.06	1377.12
547.274	1420.12
547.487	1402.12
547.7	1406.12
547.914	1404.12
548.127	1434.12
548.34	1467.12
548.554	1421.12
548.767	1418.12
548.98	1397.12
549.193	1389.12
549.407	1456.12
549.62	1478.12
549.833	1417.12
550.046	1415.12
550.259	1393.12
550.473	1383.12
550.686	1382.12
550.899	1392.12
551.112	1344.12
551.325	1341.12
551.538	1401.12
551.751	1561.12
551.964	1348.12
552.177	1332.12
552.39	1333.12
552.603	1369.12
552.816	1408.12
553.029	1454.12
553.242	1472.12
553.455	1436.12
553.667	1366.12
553.88	1418.12
554.093	1382.12
554.306	1356.12
554.519	1290.12
554.732	1296.12
554.944	1291.12
555.157	1318.12
555.37	1302.12
555.583	1317.12
555.795	1275.12
556.008	1225.12
556.221	1226.12
556.433	1208.12
556.646	1211.12
556.859	1220.12
557.071	1189.12
557.284	1189.12
557.496	1182.12
557.709	1181.12
557.921	1166.12
558.134	1175.12
558.346	1168.12
558.559	1195.12
558.771	1183.12
558.984	1119.12
559.196	1093.12
559.409	1119.12
559.621	1122.12
559.833	1144.12
560.046	1178.12
560.258	1166.12
560.47	1145.12
560.683	1142.12
560.895	1126.12
561.107	1148.12
561.32	1146.12
561.532	1167.12
561.744	1149.12
561.956	1135.12
562.168	1136.12
562.381	1117.12
562.593	1103.12
562.805	1084.12
563.017	1124.12
563.229	1123.12
563.441	1141.12
563.653	1143.12
563.865	1142.12
564.077	1126.12
564.289	1105.12
564.501	1146.12
564.713	1163.12
564.925	1205.12
565.137	1226.12
565.349	1195.12
565.561	1177.12
565.773	1203.12
565.985	1242.12
566.197	1270.12
566.408	1357.12
566.62	1376.12
566.832	1374.12
567.044	1403.12
567.255	1403.12
567.467	1400.12
567.679	1432.12
567.891	1494.12
568.102	1457.12
568.314	1389.12
568.526	1332.12
568.737	1284.12
568.949	1242.12
569.161	1158.12
569.372	1120.12
569.584	1109.12
569.795	1113.12
570.007	1097.12
570.218	1039.12
570.43	1050.12
570.641	1040.12
570.853	1032.12
571.064	1054.12
571.276	1010.12
571.487	1009.12
571.698	972.12
571.91	975.12
572.121	956.12
572.333	940.12
572.544	954.12
572.755	925.12
572.966	886.12
573.178	939.12
573.389	916.12
573.6	919.12
573.811	987.12
574.023	906.12
574.234	890.12
574.445	853.12
574.656	852.12
574.867	832.12
575.078	858.12
575.289	859.12
575.501	803.12
575.712	854.12
575.923	867.12
576.134	825.12
576.345	828.12
576.556	820.12
576.767	818.12
576.978	816.12
577.188	830.12
577.399	796.12
577.61	796.12
577.821	822.12
578.032	786.12
578.243	805.12
578.454	787.12
578.665	795.12
578.875	788.12
579.086	754.12
579.297	754.12
579.508	820.12
579.718	760.12
579.929	771.12
580.14	759.12
580.35	753.12
580.561	772.12
580.772	798.12
580.982	772.12
581.193	748.12
581.403	743.12
581.614	760.12
581.825	732.12
582.035	711.12
582.246	729.12
582.456	746.12
582.667	737.12
582.877	721.12
583.087	700.12
583.298	694.12
583.508	716.12
583.719	706.12
583.929	697.12
584.139	720.12
584.35	731.12
584.56	718.12
584.77	700.12
584.981	731.12
585.191	729.12
585.401	728.12
585.611	709.12
585.821	698.12
586.032	716.12
586.242	703.12
586.452	700.12
586.662	691.12
586.872	689.12
587.082	678.12
587.292	696.12
587.502	722.12
587.713	727.12
587.923	703.12
588.133	712.12
588.343	688.12
588.553	682.12
588.762	725.12
588.972	704.12
589.182	716.12
589.392	717.12
589.602	705.12
589.812	736.12
590.022	695.12
590.232	677.12
590.441	673.12
590.651	669.12
590.861	661.12
591.071	672.12
591.281	656.12
591.49	662.12
591.7	701.12
591.91	703.12
592.119	667.12
592.329	704.12
592.539	708.12
592.748	723.12
592.958	717.12
593.167	716.12
593.377	748.12
593.587	732.12
593.796	732.12
594.006	728.12
594.215	738.12
594.424	718.12
594.634	714.12
594.843	692.12
595.053	714.12
595.262	690.12
595.472	673.12
595.681	686.12
595.89	666.12
596.1	641.12
596.309	641.12
596.518	636.12
596.727	613.12
596.937	612.12
597.146	617.12
597.355	606.12
597.564	613.12
597.774	620.12
597.983	585.12
598.192	589.12
598.401	582.12
598.61	603.12
598.819	594.12
599.028	579.12
599.237	589.12
599.446	587.12
599.655	551.12
599.864	549.12
600.073	576.12
600.282	568.12
600.491	551.12
600.7	540.12
600.909	552.12
601.118	565.12
601.327	572.12
601.536	561.12
601.745	571.12
601.953	549.12
602.162	572.12
602.371	582.12
602.58	569.12
602.789	560.12
602.997	558.12
603.206	554.12
603.415	569.12
603.623	551.12
603.832	534.12
604.041	544.12
604.249	526.12
604.458	523.12
604.666	517.12
604.875	519.12
605.084	562.12
605.292	566.12
605.501	547.12
605.709	555.12
605.918	539.12
606.126	516.12
606.334	504.12
606.543	531.12
606.751	542.12
606.96	532.12
607.168	517.12
607.376	523.12
607.585	503.12
607.793	507.12
608.001	518.12
608.21	525.12
608.418	543.12
608.626	530.12
608.834	510.12
609.043	506.12
609.251	512.12
609.459	500.12
609.667	512.12
609.875	508.12
610.083	552.12
610.291	502.12
610.499	534.12
610.707	510.12
610.916	508.12
611.124	507.12
611.332	485.12
611.54	489.12
611.748	509.12
611.955	476.12
612.163	496.12
612.371	485.12
612.579	492.12
612.787	492.12
612.995	474.12
613.203	493.12
613.411	499.12
613.618	472.12
613.826	500.12
614.034	504.12
614.242	494.12
614.449	488.12
614.657	472.12
614.865	488.12
615.072	469.12
615.28	476.12
615.488	483.12
615.695	534.12
615.903	472.12
616.111	492.12
616.318	489.12
616.526	476.12
616.733	476.12
616.941	469.12
617.148	465.12
617.356	477.12
617.563	477.12
617.771	473.12
617.978	468.12
618.185	468.12
618.393	484.12
618.6	458.12
618.807	462.12
619.015	466.12
619.222	456.12
619.429	469.12
619.637	466.12
619.844	466.12
620.051	443.12
620.258	438.12
620.466	427.12
620.673	450.12
620.88	418.12
621.087	418.12
621.294	437.12
621.501	414.12
621.708	447.12
621.915	422.12
622.122	451.12
622.329	445.12
622.536	440.12
622.743	442.12
622.95	427.12
623.157	432.12
623.364	431.12
623.571	433.12
623.778	418.12
623.985	410.12
624.192	430.12
624.399	417.12
624.606	412.12
624.812	414.12
625.019	416.12
625.226	406.12
625.433	421.12
625.639	423.12
625.846	392.12
626.053	402.12
626.259	387.12
626.466	421.12
626.673	385.12
626.879	381.12
627.086	404.12
627.293	374.12
627.499	398.12
627.706	404.12
627.912	413.12
628.119	392.12
628.325	410.12
628.532	378.12
628.738	401.12
628.945	389.12
629.151	379.12
629.357	381.12
629.564	385.12
629.77	362.12
629.976	386.12
630.183	376.12
630.389	363.12
630.595	362.12
630.802	380.12
631.008	356.12
631.214	366.12
631.42	365.12
631.627	378.12
631.833	339.12
632.039	354.12
632.245	354.12
632.451	343.12
632.657	353.12
632.863	352.12
633.069	352.12
633.275	366.12
633.481	350.12
633.688	337.12
633.893	340.12
634.099	339.12
634.305	329.12
634.511	357.12
634.717	323.12
634.923	333.12
635.129	342.12
635.335	350.12
635.541	363.12
635.747	344.12
635.952	350.12
636.158	334.12
636.364	347.12
636.57	334.12
636.775	341.12
636.981	334.12
637.187	326.12
637.392	348.12
637.598	358.12
637.804	328.12
638.009	342.12
638.215	336.12
638.421	317.12
638.626	303.12
638.832	315.12
639.037	329.12
639.243	296.12
639.448	325.12
639.654	308.12
639.859	311.12
640.065	294.12
640.27	304.12
640.475	307.12
640.681	305.12
640.886	325.12
641.091	296.12
641.297	297.12
641.502	299.12
641.707	315.12
641.913	310.12
642.118	298.12
642.323	304.12
642.528	305.12
642.733	298.12
642.939	294.12
643.144	309.12
643.349	292.12
643.554	297.12
643.759	297.12
643.964	298.12
644.169	310.12
644.374	278.12
644.579	307.12
644.784	300.12
644.989	316.12
645.194	297.12
645.399	304.12
645.604	284.12
645.809	308.12
646.014	312.12
646.219	309.12
646.423	308.12
646.628	300.12
646.833	312.12
647.038	295.12
647.243	313.12
647.447	294.12
647.652	306.12
647.857	296.12
648.062	305.12
648.266	303.12
648.471	300.12
648.676	299.12
648.88	300.12
649.085	291.12
649.289	307.12
649.494	291.12
649.698	284.12
649.903	273.12
650.107	295.12
650.312	279.12
650.516	284.12
650.721	276.12
650.925	262.12
651.13	273.12
651.334	259.12
651.539	258.12
651.743	260.12
651.947	256.12
652.152	264.12
652.356	257.12
652.56	261.12
652.764	242.12
652.969	243.12
653.173	231.12
653.377	238.12
653.581	236.12
653.785	234.12
653.99	237.12
654.194	221.12
654.398	224.12
654.602	212.12
654.806	226.12
655.01	229.12
655.214	235.12
655.418	221.12
655.622	222.12
655.826	236.12
656.03	232.12
656.234	240.12
656.438	245.12
656.642	259.12
656.846	229.12
657.049	232.12
657.253	206.12
657.457	194.12
657.661	179.12
657.865	157.12
658.068	167.12
658.272	168.12
658.476	154.12
658.68	148.12
658.883	140.12
659.087	128.12
659.291	144.12
659.494	123.12
659.698	134.12
659.901	124.12
660.105	114.12
660.309	123.12
660.512	128.12
660.716	116.12
660.919	105.12
661.123	121.12
661.326	114.12
661.53	96.12
661.733	124.12
661.936	104.12
662.14	98.12
662.343	102.12
662.546	90.12
662.75	92.12
662.953	87.12
663.156	92.12
663.36	105.12
663.563	94.12
663.766	98.12
663.969	86.12
664.173	91.12
664.376	82.12
664.579	87.12
664.782	84.12
664.985	88.12
665.188	76.12
665.391	82.12
665.594	98.12
665.797	81.12
666	95.12
666.203	75.12
666.406	89.12
666.609	66.12
666.812	75.12
667.015	92.12
667.218	84.12
667.421	86.12
667.624	92.12
667.827	75.12
668.03	94.12
668.232	84.12
668.435	82.12
668.638	88.12
668.841	82.12
669.043	80.12
669.246	84.12
669.449	82.12
669.651	84.12
669.854	92.12
670.057	76.12
670.259	80.12
670.462	84.12
670.665	87.12
670.867	82.12
671.07	81.12
671.272	82.12
671.475	83.12
671.677	86.12
671.88	97.12
672.082	88.12
672.284	102.12
672.487	86.12
672.689	85.12
672.892	80.12
