Data from WStandard_LampEnergy8_LIBS07252019.E.O._I.C._HRD10591_16-00-56-930.txt Node
Date: Thu Jul 25 16:00:56 EDT 2019
User: cochatt
Spectrometer: HR+D1059
Trigger mode: 1
Integration Time (sec): 1.000000E-1
Scans to average: 1
Electric dark correction enabled: true
Nonlinearity correction enabled: false
Boxcar width: 0
XAxis mode: Wavelengths
Number of Pixels in Spectrum: 2048
>>>>>Begin Spectral Data<<<<<
223.165	-14.62
223.4	-14.62
223.635	-14.62
223.869	-11.62
224.104	-26.62
224.338	-4.62
224.573	-1.62
224.808	1.38
225.042	-16.62
225.277	-22.62
225.511	1.38
225.746	0.38
225.98	6.38
226.215	13.38
226.449	9.38
226.683	20.38
226.918	21.38
227.152	24.38
227.387	38.38
227.621	22.38
227.856	36.38
228.09	40.38
228.324	76.38
228.559	61.38
228.793	99.38
229.027	195.38
229.262	194.38
229.496	191.38
229.73	219.38
229.964	247.38
230.199	257.38
230.433	267.38
230.667	271.38
230.901	296.38
231.136	267.38
231.37	272.38
231.604	268.38
231.838	256.38
232.072	257.38
232.306	248.38
232.541	259.38
232.775	293.38
233.009	317.38
233.243	296.38
233.477	279.38
233.711	284.38
233.945	309.38
234.179	274.38
234.413	308.38
234.647	331.38
234.881	311.38
235.115	281.38
235.349	284.38
235.583	284.38
235.817	283.38
236.051	271.38
236.285	292.38
236.519	309.38
236.753	350.38
236.987	359.38
237.221	363.38
237.455	373.38
237.689	355.38
237.922	335.38
238.156	343.38
238.39	342.38
238.624	354.38
238.858	388.38
239.091	385.38
239.325	415.38
239.559	440.38
239.793	465.38
240.027	508.38
240.26	485.38
240.494	369.38
240.728	365.38
240.961	368.38
241.195	368.38
241.429	395.38
241.662	407.38
241.896	382.38
242.13	396.38
242.363	423.38
242.597	453.38
242.83	433.38
243.064	450.38
243.298	479.38
243.531	453.38
243.765	447.38
243.998	449.38
244.232	383.38
244.465	395.38
244.699	417.38
244.932	434.38
245.166	496.38
245.399	473.38
245.633	446.38
245.866	441.38
246.099	491.38
246.333	480.38
246.566	484.38
246.8	513.38
247.033	561.38
247.266	536.38
247.5	499.38
247.733	516.38
247.966	547.38
248.2	587.38
248.433	582.38
248.666	592.38
248.899	640.38
249.133	716.38
249.366	772.38
249.599	674.38
249.832	602.38
250.066	581.38
250.299	611.38
250.532	557.38
250.765	512.38
250.998	548.38
251.231	583.38
251.465	589.38
251.698	563.38
251.931	565.38
252.164	584.38
252.397	595.38
252.63	593.38
252.863	520.38
253.096	531.38
253.329	541.38
253.562	578.38
253.795	615.38
254.028	605.38
254.261	552.38
254.494	559.38
254.727	541.38
254.96	541.38
255.193	617.38
255.426	700.38
255.659	740.38
255.892	762.38
256.124	655.38
256.357	636.38
256.59	683.38
256.823	683.38
257.056	698.38
257.289	809.38
257.521	873.38
257.754	781.38
257.987	735.38
258.22	820.38
258.452	785.38
258.685	673.38
258.918	650.38
259.151	657.38
259.383	611.38
259.616	554.38
259.849	599.38
260.081	653.38
260.314	747.38
260.547	805.38
260.779	802.38
261.012	748.38
261.244	681.38
261.477	676.38
261.71	687.38
261.942	684.38
262.175	657.38
262.407	694.38
262.64	666.38
262.872	607.38
263.105	606.38
263.337	619.38
263.57	634.38
263.802	614.38
264.035	601.38
264.267	567.38
264.499	570.38
264.732	606.38
264.964	630.38
265.197	647.38
265.429	677.38
265.661	727.38
265.894	813.38
266.126	851.38
266.358	791.38
266.591	796.38
266.823	819.38
267.055	760.38
267.287	752.38
267.52	746.38
267.752	746.38
267.984	777.38
268.216	775.38
268.448	777.38
268.681	778.38
268.913	702.38
269.145	686.38
269.377	684.38
269.609	703.38
269.841	845.38
270.073	999.38
270.306	1091.38
270.538	1065.38
270.77	956.38
271.002	780.38
271.234	795.38
271.466	787.38
271.698	905.38
271.93	1037.38
272.162	1016.38
272.394	897.38
272.626	871.38
272.858	767.38
273.09	701.38
273.322	695.38
273.553	660.38
273.785	683.38
274.017	697.38
274.249	740.38
274.481	722.38
274.713	709.38
274.945	695.38
275.176	691.38
275.408	675.38
275.64	667.38
275.872	660.38
276.104	707.38
276.335	836.38
276.567	877.38
276.799	852.38
277.031	780.38
277.262	811.38
277.494	847.38
277.726	862.38
277.957	891.38
278.189	791.38
278.421	735.38
278.652	698.38
278.884	675.38
279.115	718.38
279.347	735.38
279.579	709.38
279.81	761.38
280.042	797.38
280.273	825.38
280.505	887.38
280.736	863.38
280.968	802.38
281.199	712.38
281.431	697.38
281.662	692.38
281.894	712.38
282.125	713.38
282.356	741.38
282.588	761.38
282.819	763.38
283.051	826.38
283.282	869.38
283.513	832.38
283.745	746.38
283.976	691.38
284.207	712.38
284.439	737.38
284.67	720.38
284.901	764.38
285.132	759.38
285.364	747.38
285.595	757.38
285.826	723.38
286.057	741.38
286.288	730.38
286.52	771.38
286.751	819.38
286.982	820.38
287.213	779.38
287.444	727.38
287.675	738.38
287.906	761.38
288.138	799.38
288.369	788.38
288.6	738.38
288.831	740.38
289.062	726.38
289.293	745.38
289.524	730.38
289.755	742.38
289.986	757.38
290.217	729.38
290.448	740.38
290.679	765.38
290.91	777.38
291.141	779.38
291.371	819.38
291.602	771.38
291.833	779.38
292.064	830.38
292.295	800.38
292.526	845.38
292.757	843.38
292.987	800.38
293.218	813.38
293.449	846.38
293.68	938.38
293.91	964.38
294.141	934.38
294.372	879.38
294.603	938.38
294.833	966.38
295.064	896.38
295.295	819.38
295.525	782.38
295.756	753.38
295.987	702.38
296.217	757.38
296.448	733.38
296.679	785.38
296.909	780.38
297.14	763.38
297.37	784.38
297.601	826.38
297.831	872.38
298.062	867.38
298.292	793.38
298.523	760.38
298.753	778.38
298.984	763.38
299.214	780.38
299.445	830.38
299.675	840.38
299.905	819.38
300.136	773.38
300.366	801.38
300.597	763.38
300.827	777.38
301.057	807.38
301.288	815.38
301.518	825.38
301.748	833.38
301.979	908.38
302.209	909.38
302.439	982.38
302.669	991.38
302.9	933.38
303.13	839.38
303.36	831.38
303.59	867.38
303.82	829.38
304.051	843.38
304.281	851.38
304.511	873.38
304.741	931.38
304.971	1021.38
305.201	1019.38
305.431	939.38
305.661	815.38
305.891	777.38
306.121	739.38
306.352	795.38
306.582	854.38
306.812	895.38
307.042	937.38
307.272	951.38
307.502	958.38
307.731	1046.38
307.961	1058.38
308.191	982.38
308.421	887.38
308.651	821.38
308.881	799.38
309.111	805.38
309.341	804.38
309.571	811.38
309.8	788.38
310.03	806.38
310.26	803.38
310.49	812.38
310.72	855.38
310.949	885.38
311.179	875.38
311.409	830.38
311.639	856.38
311.868	826.38
312.098	832.38
312.328	836.38
312.557	852.38
312.787	829.38
313.017	831.38
313.246	840.38
313.476	850.38
313.706	865.38
313.935	863.38
314.165	891.38
314.394	909.38
314.624	962.38
314.853	999.38
315.083	1066.38
315.312	1038.38
315.542	959.38
315.771	913.38
316.001	922.38
316.23	950.38
316.46	933.38
316.689	923.38
316.919	876.38
317.148	848.38
317.377	871.38
317.607	936.38
317.836	1047.38
318.065	1066.38
318.295	1001.38
318.524	977.38
318.753	904.38
318.983	899.38
319.212	915.38
319.441	868.38
319.67	891.38
319.9	916.38
320.129	975.38
320.358	1026.38
320.587	1037.38
320.816	1036.38
321.046	996.38
321.275	956.38
321.504	977.38
321.733	1021.38
321.962	977.38
322.191	943.38
322.42	916.38
322.649	925.38
322.878	923.38
323.108	938.38
323.337	919.38
323.566	954.38
323.795	945.38
324.024	970.38
324.253	922.38
324.482	917.38
324.71	868.38
324.939	857.38
325.168	889.38
325.397	882.38
325.626	945.38
325.855	936.38
326.084	933.38
326.313	915.38
326.542	928.38
326.77	974.38
326.999	948.38
327.228	897.38
327.457	867.38
327.686	882.38
327.914	891.38
328.143	908.38
328.372	913.38
328.6	923.38
328.829	907.38
329.058	913.38
329.287	882.38
329.515	914.38
329.744	976.38
329.972	989.38
330.201	1045.38
330.43	1008.38
330.658	970.38
330.887	971.38
331.115	960.38
331.344	995.38
331.572	945.38
331.801	927.38
332.03	948.38
332.258	956.38
332.486	988.38
332.715	998.38
332.943	999.38
333.172	936.38
333.4	983.38
333.629	1011.38
333.857	1093.38
334.085	1221.38
334.314	1347.38
334.542	1378.38
334.771	1307.38
334.999	1131.38
335.227	1061.38
335.455	1015.38
335.684	1035.38
335.912	1066.38
336.14	1113.38
336.369	1049.38
336.597	981.38
336.825	955.38
337.053	1032.38
337.281	1083.38
337.51	1127.38
337.738	1144.38
337.966	1102.38
338.194	989.38
338.422	968.38
338.65	987.38
338.878	938.38
339.106	931.38
339.334	927.38
339.562	922.38
339.79	929.38
340.018	1000.38
340.246	1009.38
340.474	1031.38
340.702	1015.38
340.93	1046.38
341.158	986.38
341.386	953.38
341.614	984.38
341.842	961.38
342.07	973.38
342.298	964.38
342.526	984.38
342.754	949.38
342.981	976.38
343.209	961.38
343.437	967.38
343.665	977.38
343.893	1039.38
344.12	1048.38
344.348	1044.38
344.576	973.38
344.804	979.38
345.031	947.38
345.259	971.38
345.487	914.38
345.714	904.38
345.942	929.38
346.17	924.38
346.397	924.38
346.625	927.38
346.853	883.38
347.08	912.38
347.308	884.38
347.535	915.38
347.763	948.38
347.99	880.38
348.218	864.38
348.445	899.38
348.673	936.38
348.9	926.38
349.128	971.38
349.355	984.38
349.583	966.38
349.81	895.38
350.037	883.38
350.265	841.38
350.492	851.38
350.72	901.38
350.947	920.38
351.174	924.38
351.402	876.38
351.629	838.38
351.856	858.38
352.083	833.38
352.311	863.38
352.538	928.38
352.765	963.38
352.992	918.38
353.22	895.38
353.447	890.38
353.674	897.38
353.901	891.38
354.128	872.38
354.355	865.38
354.583	907.38
354.81	943.38
355.037	954.38
355.264	903.38
355.491	897.38
355.718	935.38
355.945	909.38
356.172	895.38
356.399	881.38
356.626	897.38
356.853	940.38
357.08	994.38
357.307	1099.38
357.534	1079.38
357.761	945.38
357.988	884.38
358.215	890.38
358.441	886.38
358.668	883.38
358.895	917.38
359.122	953.38
359.349	1028.38
359.576	993.38
359.802	923.38
360.029	864.38
360.256	890.38
360.483	872.38
360.709	921.38
360.936	987.38
361.163	1013.38
361.39	1062.38
361.616	1154.38
361.843	1106.38
362.07	1055.38
362.296	951.38
362.523	941.38
362.749	923.38
362.976	909.38
363.203	945.38
363.429	913.38
363.656	913.38
363.882	931.38
364.109	1040.38
364.335	1089.38
364.562	1009.38
364.788	948.38
365.015	895.38
365.241	903.38
365.468	929.38
365.694	949.38
365.92	998.38
366.147	953.38
366.373	890.38
366.599	889.38
366.826	903.38
367.052	895.38
367.278	912.38
367.505	940.38
367.731	936.38
367.957	949.38
368.184	979.38
368.41	993.38
368.636	1039.38
368.862	1036.38
369.089	1018.38
369.315	999.38
369.541	968.38
369.767	953.38
369.993	935.38
370.219	899.38
370.445	937.38
370.672	1003.38
370.898	1071.38
371.124	1023.38
371.35	980.38
371.576	989.38
371.802	1003.38
372.028	997.38
372.254	947.38
372.48	963.38
372.706	944.38
372.932	905.38
373.158	955.38
373.384	955.38
373.61	992.38
373.835	1052.38
374.061	1021.38
374.287	978.38
374.513	1016.38
374.739	989.38
374.965	984.38
375.191	980.38
375.416	1003.38
375.642	1027.38
375.868	1089.38
376.094	1096.38
376.319	1016.38
376.545	974.38
376.771	1012.38
376.997	1039.38
377.222	1015.38
377.448	1026.38
377.674	1004.38
377.899	1058.38
378.125	1080.38
378.35	1073.38
378.576	963.38
378.802	917.38
379.027	954.38
379.253	935.38
379.478	970.38
379.704	972.38
379.929	976.38
380.155	971.38
380.38	990.38
380.606	1007.38
380.831	996.38
381.057	1068.38
381.282	1039.38
381.507	1040.38
381.733	1088.38
381.958	1143.38
382.184	1042.38
382.409	1007.38
382.634	1032.38
382.86	1040.38
383.085	1046.38
383.31	1083.38
383.535	1171.38
383.761	1185.38
383.986	1168.38
384.211	1139.38
384.436	1081.38
384.662	1135.38
384.887	1165.38
385.112	1131.38
385.337	1125.38
385.562	1109.38
385.787	1129.38
386.013	1153.38
386.238	1155.38
386.463	1120.38
386.688	1227.38
386.913	1261.38
387.138	1235.38
387.363	1150.38
387.588	1151.38
387.813	1145.38
388.038	1180.38
388.263	1192.38
388.488	1126.38
388.713	1113.38
388.938	1057.38
389.163	1086.38
389.387	1122.38
389.612	1108.38
389.837	1124.38
390.062	1149.38
390.287	1127.38
390.512	1117.38
390.736	1098.38
390.961	1096.38
391.186	1026.38
391.411	1099.38
391.636	1123.38
391.86	1095.38
392.085	1089.38
392.31	1102.38
392.534	1103.38
392.759	1120.38
392.984	1112.38
393.208	1121.38
393.433	1172.38
393.658	1213.38
393.882	1207.38
394.107	1122.38
394.331	1109.38
394.556	1103.38
394.78	1151.38
395.005	1221.38
395.229	1203.38
395.454	1293.38
395.678	1248.38
395.903	1181.38
396.127	1189.38
396.352	1191.38
396.576	1190.38
396.801	1225.38
397.025	1209.38
397.249	1246.38
397.474	1209.38
397.698	1210.38
397.922	1270.38
398.147	1329.38
398.371	1312.38
398.595	1321.38
398.82	1304.38
399.044	1289.38
399.268	1356.38
399.492	1397.38
399.717	1466.38
399.941	1467.38
400.165	1462.38
400.389	1410.38
400.613	1428.38
400.837	1634.38
401.062	1835.38
401.286	1512.38
401.51	1409.38
401.734	1445.38
401.958	1375.38
402.182	1298.38
402.406	1251.38
402.63	1292.38
402.854	1281.38
403.078	1290.38
403.302	1310.38
403.526	1295.38
403.75	1343.38
403.974	1370.38
404.198	1353.38
404.422	1393.38
404.645	1458.38
404.869	1431.38
405.093	1297.38
405.317	1272.38
405.541	1338.38
405.765	1332.38
405.988	1363.38
406.212	1333.38
406.436	1384.38
406.66	1451.38
406.883	1471.38
407.107	1637.38
407.331	1768.38
407.555	1842.38
407.778	1687.38
408.002	1431.38
408.226	1426.38
408.449	1401.38
408.673	1378.38
408.896	1351.38
409.12	1403.38
409.344	1324.38
409.567	1336.38
409.791	1322.38
410.014	1365.38
410.238	1457.38
410.461	1537.38
410.685	1385.38
410.908	1336.38
411.132	1333.38
411.355	1335.38
411.578	1270.38
411.802	1317.38
412.025	1333.38
412.249	1327.38
412.472	1270.38
412.695	1293.38
412.919	1264.38
413.142	1264.38
413.365	1251.38
413.589	1301.38
413.812	1402.38
414.035	1405.38
414.258	1312.38
414.482	1319.38
414.705	1309.38
414.928	1285.38
415.151	1298.38
415.374	1300.38
415.597	1303.38
415.821	1300.38
416.044	1371.38
416.267	1355.38
416.49	1237.38
416.713	1249.38
416.936	1316.38
417.159	1370.38
417.382	1355.38
417.605	1290.38
417.828	1328.38
418.051	1299.38
418.274	1298.38
418.497	1269.38
418.72	1263.38
418.943	1281.38
419.166	1333.38
419.389	1356.38
419.611	1331.38
419.834	1277.38
420.057	1296.38
420.28	1280.38
420.503	1287.38
420.726	1298.38
420.948	1262.38
421.171	1232.38
421.394	1265.38
421.617	1292.38
421.839	1311.38
422.062	1305.38
422.285	1271.38
422.507	1241.38
422.73	1241.38
422.953	1216.38
423.175	1213.38
423.398	1272.38
423.621	1244.38
423.843	1239.38
424.066	1315.38
424.288	1383.38
424.511	1378.38
424.733	1323.38
424.956	1212.38
425.178	1238.38
425.401	1264.38
425.623	1237.38
425.846	1235.38
426.068	1331.38
426.291	1322.38
426.513	1309.38
426.735	1317.38
426.958	1393.38
427.18	1430.38
427.402	1377.38
427.625	1381.38
427.847	1367.38
428.069	1266.38
428.292	1247.38
428.514	1237.38
428.736	1202.38
428.958	1220.38
429.181	1304.38
429.403	1423.38
429.625	1713.38
429.847	1475.38
430.069	1283.38
430.292	1431.38
430.514	1388.38
430.736	1327.38
430.958	1373.38
431.18	1276.38
431.402	1231.38
431.624	1181.38
431.846	1147.38
432.068	1098.38
432.29	1159.38
432.512	1170.38
432.734	1219.38
432.956	1250.38
433.178	1327.38
433.4	1282.38
433.622	1270.38
433.844	1197.38
434.066	1189.38
434.287	1192.38
434.509	1204.38
434.731	1255.38
434.953	1321.38
435.175	1285.38
435.397	1252.38
435.618	1255.38
435.84	1225.38
436.062	1226.38
436.284	1260.38
436.505	1244.38
436.727	1299.38
436.949	1216.38
437.17	1224.38
437.392	1227.38
437.614	1189.38
437.835	1163.38
438.057	1216.38
438.278	1234.38
438.5	1178.38
438.721	1207.38
438.943	1213.38
439.165	1203.38
439.386	1184.38
439.608	1232.38
439.829	1237.38
440.05	1228.38
440.272	1213.38
440.493	1217.38
440.715	1268.38
440.936	1357.38
441.158	1417.38
441.379	1366.38
441.6	1376.38
441.822	1335.38
442.043	1305.38
442.264	1267.38
442.486	1231.38
442.707	1235.38
442.928	1215.38
443.149	1268.38
443.371	1305.38
443.592	1373.38
443.813	1353.38
444.034	1341.38
444.255	1354.38
444.476	1373.38
444.698	1383.38
444.919	1348.38
445.14	1439.38
445.361	1421.38
445.582	1419.38
445.803	1353.38
446.024	1329.38
446.245	1404.38
446.466	1356.38
446.687	1320.38
446.908	1329.38
447.129	1285.38
447.35	1290.38
447.571	1302.38
447.792	1243.38
448.013	1245.38
448.234	1270.38
448.455	1296.38
448.675	1286.38
448.896	1186.38
449.117	1171.38
449.338	1194.38
449.559	1243.38
449.779	1301.38
450	1392.38
450.221	1448.38
450.442	1394.38
450.662	1265.38
450.883	1164.38
451.104	1161.38
451.324	1180.38
451.545	1196.38
451.766	1178.38
451.986	1149.38
452.207	1111.38
452.428	1087.38
452.648	1083.38
452.869	1105.38
453.089	1149.38
453.31	1112.38
453.53	1156.38
453.751	1097.38
453.971	1060.38
454.192	1068.38
454.412	1159.38
454.633	1113.38
454.853	1098.38
455.073	1073.38
455.294	1069.38
455.514	1062.38
455.734	1057.38
455.955	1044.38
456.175	1055.38
456.395	1043.38
456.616	1095.38
456.836	1062.38
457.056	1066.38
457.276	1053.38
457.497	1036.38
457.717	994.38
457.937	1031.38
458.157	1052.38
458.377	1075.38
458.598	1022.38
458.818	1045.38
459.038	1118.38
459.258	1119.38
459.478	1127.38
459.698	1089.38
459.918	1143.38
460.138	1240.38
460.358	1236.38
460.578	1196.38
460.798	1309.38
461.018	1341.38
461.238	1265.38
461.458	1237.38
461.678	1223.38
461.898	1240.38
462.118	1185.38
462.338	1251.38
462.558	1223.38
462.777	1247.38
462.997	1312.38
463.217	1352.38
463.437	1318.38
463.657	1272.38
463.876	1240.38
464.096	1256.38
464.316	1258.38
464.536	1284.38
464.755	1307.38
464.975	1296.38
465.195	1296.38
465.414	1304.38
465.634	1281.38
465.854	1284.38
466.073	1341.38
466.293	1327.38
466.512	1204.38
466.732	1171.38
466.951	1252.38
467.171	1231.38
467.391	1185.38
467.61	1157.38
467.829	1196.38
468.049	1294.38
468.268	1382.38
468.488	1287.38
468.707	1243.38
468.927	1212.38
469.146	1172.38
469.365	1221.38
469.585	1191.38
469.804	1215.38
470.023	1224.38
470.243	1221.38
470.462	1216.38
470.681	1212.38
470.901	1196.38
471.12	1226.38
471.339	1196.38
471.558	1188.38
471.777	1168.38
471.997	1195.38
472.216	1199.38
472.435	1119.38
472.654	1112.38
472.873	1153.38
473.092	1203.38
473.311	1179.38
473.53	1120.38
473.749	1125.38
473.968	1176.38
474.187	1203.38
474.406	1229.38
474.625	1198.38
474.844	1190.38
475.063	1188.38
475.282	1198.38
475.501	1189.38
475.72	1180.38
475.939	1265.38
476.158	1212.38
476.377	1187.38
476.596	1175.38
476.814	1174.38
477.033	1190.38
477.252	1253.38
477.471	1257.38
477.69	1260.38
477.908	1275.38
478.127	1323.38
478.346	1417.38
478.564	1367.38
478.783	1386.38
479.002	1450.38
479.22	1401.38
479.439	1457.38
479.658	1544.38
479.876	1499.38
480.095	1361.38
480.313	1337.38
480.532	1315.38
480.751	1289.38
480.969	1265.38
481.188	1215.38
481.406	1244.38
481.624	1254.38
481.843	1254.38
482.061	1285.38
482.28	1287.38
482.498	1313.38
482.717	1266.38
482.935	1283.38
483.153	1355.38
483.372	1337.38
483.59	1359.38
483.808	1343.38
484.027	1350.38
484.245	1459.38
484.463	1668.38
484.681	1832.38
484.9	1483.38
485.118	1349.38
485.336	1359.38
485.554	1352.38
485.772	1388.38
485.99	1365.38
486.209	1415.38
486.427	1363.38
486.645	1396.38
486.863	1425.38
487.081	1468.38
487.299	1407.38
487.517	1424.38
487.735	1468.38
487.953	1480.38
488.171	1473.38
488.389	1466.38
488.607	1430.38
488.825	1569.38
489.043	1501.38
489.261	1365.38
489.479	1450.38
489.696	1463.38
489.914	1432.38
490.132	1401.38
490.35	1457.38
490.568	1514.38
490.786	1485.38
491.003	1443.38
491.221	1532.38
491.439	1551.38
491.657	1571.38
491.874	1580.38
492.092	1657.38
492.31	1685.38
492.527	1655.38
492.745	1637.38
492.963	1553.38
493.18	1591.38
493.398	1665.38
493.615	1661.38
493.833	1585.38
494.05	1543.38
494.268	1564.38
494.485	1574.38
494.703	1514.38
494.92	1533.38
495.138	1521.38
495.355	1573.38
495.573	1555.38
495.79	1641.38
496.008	1671.38
496.225	1585.38
496.442	1590.38
496.66	1593.38
496.877	1591.38
497.094	1609.38
497.312	1624.38
497.529	1592.38
497.746	1635.38
497.963	1855.38
498.181	1928.38
498.398	1921.38
498.615	1827.38
498.832	1723.38
499.049	1717.38
499.267	1725.38
499.484	1830.38
499.701	2005.38
499.918	2010.38
500.135	2231.38
500.352	2285.38
500.569	2306.38
500.786	2411.38
501.003	2274.38
501.22	2073.38
501.437	2069.38
501.654	2063.38
501.871	1956.38
502.088	1695.38
502.305	1733.38
502.522	1651.38
502.739	1593.38
502.956	1541.38
503.172	1536.38
503.389	1476.38
503.606	1461.38
503.823	1465.38
504.04	1478.38
504.256	1480.38
504.473	1445.38
504.69	1519.38
504.907	1431.38
505.123	1394.38
505.34	1515.38
505.557	1913.38
505.773	1607.38
505.99	1367.38
506.207	1260.38
506.423	1266.38
506.64	1266.38
506.856	1283.38
507.073	1462.38
507.289	1541.38
507.506	1479.38
507.722	1284.38
507.939	1226.38
508.155	1244.38
508.372	1218.38
508.588	1164.38
508.805	1161.38
509.021	1140.38
509.238	1146.38
509.454	1124.38
509.67	1143.38
509.887	1115.38
510.103	1107.38
510.319	1140.38
510.536	1207.38
510.752	1187.38
510.968	1218.38
511.184	1244.38
511.401	1234.38
511.617	1096.38
511.833	1105.38
512.049	1100.38
512.265	1092.38
512.481	1091.38
512.698	1151.38
512.914	1206.38
513.13	1155.38
513.346	1101.38
513.562	1082.38
513.778	1115.38
513.994	1154.38
514.21	1186.38
514.426	1186.38
514.642	1277.38
514.858	1183.38
515.074	1139.38
515.29	1127.38
515.506	1136.38
515.721	1137.38
515.937	1173.38
516.153	1289.38
516.369	1203.38
516.585	1159.38
516.801	1145.38
517.016	1147.38
517.232	1183.38
517.448	1202.38
517.664	1186.38
517.879	1188.38
518.095	1255.38
518.311	1196.38
518.527	1175.38
518.742	1144.38
518.958	1117.38
519.173	1116.38
519.389	1161.38
519.605	1177.38
519.82	1147.38
520.036	1184.38
520.251	1147.38
520.467	1132.38
520.682	1211.38
520.898	1229.38
521.113	1116.38
521.329	1155.38
521.544	1177.38
521.76	1128.38
521.975	1087.38
522.19	1084.38
522.406	1116.38
522.621	1400.38
522.836	1287.38
523.052	1093.38
523.267	1079.38
523.482	1087.38
523.698	1073.38
523.913	1030.38
524.128	1051.38
524.343	1129.38
524.559	1124.38
524.774	1082.38
524.989	1068.38
525.204	1052.38
525.419	1048.38
525.634	1035.38
525.849	1060.38
526.064	1052.38
526.28	1030.38
526.495	966.38
526.71	996.38
526.925	985.38
527.14	1000.38
527.355	936.38
527.57	933.38
527.785	1026.38
527.999	959.38
528.214	977.38
528.429	985.38
528.644	1008.38
528.859	1038.38
529.074	1063.38
529.289	1069.38
529.503	1084.38
529.718	1036.38
529.933	1025.38
530.148	985.38
530.363	968.38
530.577	957.38
530.792	982.38
531.007	969.38
531.221	951.38
531.436	973.38
531.651	1008.38
531.865	1043.38
532.08	996.38
532.295	953.38
532.509	935.38
532.724	945.38
532.938	1027.38
533.153	1077.38
533.367	1031.38
533.582	1037.38
533.796	995.38
534.011	990.38
534.225	974.38
534.44	953.38
534.654	948.38
534.868	973.38
535.083	1013.38
535.297	1014.38
535.511	1000.38
535.726	992.38
535.94	1011.38
536.154	974.38
536.369	938.38
536.583	964.38
536.797	901.38
537.011	929.38
537.225	905.38
537.44	924.38
537.654	957.38
537.868	915.38
538.082	908.38
538.296	911.38
538.51	906.38
538.724	915.38
538.938	925.38
539.153	996.38
539.367	963.38
539.581	965.38
539.795	978.38
540.009	945.38
540.222	917.38
540.436	931.38
540.65	1048.38
540.864	1061.38
541.078	1037.38
541.292	1009.38
541.506	1069.38
541.72	1091.38
541.934	1116.38
542.147	1170.38
542.361	1118.38
542.575	1043.38
542.789	1018.38
543.002	945.38
543.216	964.38
543.43	993.38
543.644	1053.38
543.857	1096.38
544.071	1110.38
544.285	1081.38
544.498	1041.38
544.712	1053.38
544.925	1112.38
545.139	1113.38
545.352	1061.38
545.566	1052.38
545.779	1030.38
545.993	1043.38
546.206	1059.38
546.42	1026.38
546.633	1051.38
546.847	1035.38
547.06	1056.38
547.274	1066.38
547.487	1073.38
547.7	1095.38
547.914	1089.38
548.127	1093.38
548.34	1074.38
548.554	1036.38
548.767	1039.38
548.98	1065.38
549.193	1066.38
549.407	1079.38
549.62	1061.38
549.833	1063.38
550.046	1019.38
550.259	1034.38
550.473	1026.38
550.686	1004.38
550.899	970.38
551.112	946.38
551.325	963.38
551.538	1016.38
551.751	1114.38
551.964	889.38
552.177	909.38
552.39	953.38
552.603	999.38
552.816	1017.38
553.029	1055.38
553.242	1047.38
553.455	1060.38
553.667	1008.38
553.88	1029.38
554.093	992.38
554.306	966.38
554.519	978.38
554.732	973.38
554.944	964.38
555.157	970.38
555.37	917.38
555.583	933.38
555.795	888.38
556.008	892.38
556.221	837.38
556.433	855.38
556.646	876.38
556.859	855.38
557.071	855.38
557.284	884.38
557.496	850.38
557.709	851.38
557.921	840.38
558.134	859.38
558.346	855.38
558.559	826.38
558.771	831.38
558.984	820.38
559.196	777.38
559.409	808.38
559.621	798.38
559.833	778.38
560.046	839.38
560.258	807.38
560.47	819.38
560.683	829.38
560.895	805.38
561.107	791.38
561.32	805.38
561.532	824.38
561.744	779.38
561.956	799.38
562.168	800.38
562.381	769.38
562.593	770.38
562.805	768.38
563.017	752.38
563.229	797.38
563.441	795.38
563.653	777.38
563.865	754.38
564.077	786.38
564.289	769.38
564.501	785.38
564.713	792.38
564.925	821.38
565.137	851.38
565.349	793.38
565.561	782.38
565.773	782.38
565.985	793.38
566.197	844.38
566.408	899.38
566.62	893.38
566.832	897.38
567.044	897.38
567.255	867.38
567.467	895.38
567.679	879.38
567.891	930.38
568.102	872.38
568.314	806.38
568.526	800.38
568.737	755.38
568.949	752.38
569.161	655.38
569.372	684.38
569.584	665.38
569.795	672.38
570.007	649.38
570.218	630.38
570.43	631.38
570.641	660.38
570.853	649.38
571.064	681.38
571.276	636.38
571.487	633.38
571.698	632.38
571.91	639.38
572.121	657.38
572.333	611.38
572.544	585.38
572.755	572.38
572.966	588.38
573.178	578.38
573.389	576.38
573.6	600.38
573.811	634.38
574.023	579.38
574.234	561.38
574.445	550.38
574.656	550.38
574.867	547.38
575.078	559.38
575.289	587.38
575.501	563.38
575.712	547.38
575.923	533.38
576.134	536.38
576.345	551.38
576.556	538.38
576.767	521.38
576.978	527.38
577.188	518.38
577.399	496.38
577.61	528.38
577.821	515.38
578.032	487.38
578.243	496.38
578.454	507.38
578.665	486.38
578.875	484.38
579.086	499.38
579.297	486.38
579.508	507.38
579.718	479.38
579.929	488.38
580.14	449.38
580.35	473.38
580.561	504.38
580.772	535.38
580.982	516.38
581.193	488.38
581.403	480.38
581.614	473.38
581.825	489.38
582.035	473.38
582.246	477.38
582.456	489.38
582.667	473.38
582.877	468.38
583.087	469.38
583.298	477.38
583.508	457.38
583.719	460.38
583.929	444.38
584.139	460.38
584.35	467.38
584.56	453.38
584.77	476.38
584.981	451.38
585.191	491.38
585.401	472.38
585.611	473.38
585.821	469.38
586.032	465.38
586.242	439.38
586.452	438.38
586.662	459.38
586.872	443.38
587.082	460.38
587.292	451.38
587.502	455.38
587.713	445.38
587.923	442.38
588.133	449.38
588.343	452.38
588.553	448.38
588.762	432.38
588.972	441.38
589.182	451.38
589.392	435.38
589.602	453.38
589.812	443.38
590.022	420.38
590.232	426.38
590.441	442.38
590.651	441.38
590.861	449.38
591.071	436.38
591.281	437.38
591.49	424.38
591.7	438.38
591.91	427.38
592.119	428.38
592.329	462.38
592.539	451.38
592.748	469.38
592.958	472.38
593.167	465.38
593.377	445.38
593.587	447.38
593.796	443.38
594.006	471.38
594.215	464.38
594.424	457.38
594.634	465.38
594.843	461.38
595.053	484.38
595.262	435.38
595.472	426.38
595.681	437.38
595.89	424.38
596.1	446.38
596.309	432.38
596.518	424.38
596.727	439.38
596.937	433.38
597.146	412.38
597.355	404.38
597.564	411.38
597.774	407.38
597.983	404.38
598.192	409.38
598.401	384.38
598.61	369.38
598.819	379.38
599.028	394.38
599.237	391.38
599.446	380.38
599.655	401.38
599.864	379.38
600.073	372.38
600.282	386.38
600.491	379.38
600.7	375.38
600.909	387.38
601.118	405.38
601.327	401.38
601.536	402.38
601.745	385.38
601.953	385.38
602.162	389.38
602.371	408.38
602.58	401.38
602.789	387.38
602.997	404.38
603.206	405.38
603.415	375.38
603.623	394.38
603.832	410.38
604.041	413.38
604.249	376.38
604.458	371.38
604.666	391.38
604.875	373.38
605.084	392.38
605.292	401.38
605.501	380.38
605.709	374.38
605.918	394.38
606.126	392.38
606.334	397.38
606.543	403.38
606.751	394.38
606.96	389.38
607.168	399.38
607.376	390.38
607.585	393.38
607.793	375.38
608.001	396.38
608.21	393.38
608.418	405.38
608.626	398.38
608.834	397.38
609.043	409.38
609.251	411.38
609.459	387.38
609.667	390.38
609.875	417.38
610.083	401.38
610.291	402.38
610.499	393.38
610.707	402.38
610.916	407.38
611.124	374.38
611.332	396.38
611.54	400.38
611.748	386.38
611.955	375.38
612.163	393.38
612.371	398.38
612.579	387.38
612.787	387.38
612.995	382.38
613.203	398.38
613.411	384.38
613.618	403.38
613.826	385.38
614.034	402.38
614.242	387.38
614.449	386.38
614.657	402.38
614.865	372.38
615.072	382.38
615.28	386.38
615.488	396.38
615.695	398.38
615.903	401.38
616.111	373.38
616.318	375.38
616.526	389.38
616.733	372.38
616.941	373.38
617.148	370.38
617.356	361.38
617.563	341.38
617.771	348.38
617.978	363.38
618.185	356.38
618.393	373.38
618.6	371.38
618.807	367.38
619.015	376.38
619.222	375.38
619.429	362.38
619.637	345.38
619.844	339.38
620.051	338.38
620.258	361.38
620.466	353.38
620.673	343.38
620.88	329.38
621.087	354.38
621.294	343.38
621.501	332.38
621.708	322.38
621.915	340.38
622.122	359.38
622.329	352.38
622.536	347.38
622.743	341.38
622.95	337.38
623.157	329.38
623.364	342.38
623.571	352.38
623.778	345.38
623.985	362.38
624.192	346.38
624.399	347.38
624.606	343.38
624.812	329.38
625.019	356.38
625.226	319.38
625.433	338.38
625.639	313.38
625.846	326.38
626.053	295.38
626.259	297.38
626.466	296.38
626.673	265.38
626.879	272.38
627.086	319.38
627.293	287.38
627.499	321.38
627.706	315.38
627.912	327.38
628.119	334.38
628.325	309.38
628.532	317.38
628.738	323.38
628.945	312.38
629.151	315.38
629.357	301.38
629.564	309.38
629.77	301.38
629.976	306.38
630.183	295.38
630.389	300.38
630.595	296.38
630.802	291.38
631.008	299.38
631.214	314.38
631.42	311.38
631.627	275.38
631.833	289.38
632.039	285.38
632.245	305.38
632.451	307.38
632.657	281.38
632.863	269.38
633.069	287.38
633.275	301.38
633.481	299.38
633.688	270.38
633.893	266.38
634.099	285.38
634.305	280.38
634.511	278.38
634.717	268.38
634.923	275.38
635.129	264.38
635.335	284.38
635.541	279.38
635.747	277.38
635.952	281.38
636.158	282.38
636.364	287.38
636.57	267.38
636.775	281.38
636.981	289.38
637.187	277.38
637.392	269.38
637.598	285.38
637.804	284.38
638.009	269.38
638.215	286.38
638.421	264.38
638.626	254.38
638.832	276.38
639.037	251.38
639.243	256.38
639.448	273.38
639.654	263.38
639.859	276.38
640.065	278.38
640.27	279.38
640.475	269.38
640.681	280.38
640.886	259.38
641.091	260.38
641.297	283.38
641.502	279.38
641.707	268.38
641.913	263.38
642.118	267.38
642.323	260.38
642.528	264.38
642.733	257.38
642.939	239.38
643.144	251.38
643.349	253.38
643.554	265.38
643.759	265.38
643.964	252.38
644.169	244.38
644.374	246.38
644.579	246.38
644.784	263.38
644.989	245.38
645.194	252.38
645.399	267.38
645.604	233.38
645.809	239.38
646.014	266.38
646.219	256.38
646.423	269.38
646.628	261.38
646.833	273.38
647.038	262.38
647.243	248.38
647.447	259.38
647.652	260.38
647.857	243.38
648.062	246.38
648.266	244.38
648.471	257.38
648.676	276.38
648.88	253.38
649.085	274.38
649.289	260.38
649.494	255.38
649.698	255.38
649.903	250.38
650.107	247.38
650.312	228.38
650.516	251.38
650.721	253.38
650.925	231.38
651.13	233.38
651.334	232.38
651.539	231.38
651.743	227.38
651.947	226.38
652.152	230.38
652.356	216.38
652.56	229.38
652.764	225.38
652.969	217.38
653.173	217.38
653.377	212.38
653.581	225.38
653.785	213.38
653.99	211.38
654.194	217.38
654.398	208.38
654.602	210.38
654.806	204.38
655.01	223.38
655.214	210.38
655.418	225.38
655.622	237.38
655.826	237.38
656.03	246.38
656.234	255.38
656.438	266.38
656.642	270.38
656.846	230.38
657.049	232.38
657.253	210.38
657.457	214.38
657.661	215.38
657.865	200.38
658.068	173.38
658.272	173.38
658.476	148.38
658.68	166.38
658.883	151.38
659.087	156.38
659.291	162.38
659.494	139.38
659.698	118.38
659.901	125.38
660.105	131.38
660.309	121.38
660.512	123.38
660.716	124.38
660.919	126.38
661.123	117.38
661.326	121.38
661.53	117.38
661.733	111.38
661.936	108.38
662.14	111.38
662.343	107.38
662.546	96.38
662.75	114.38
662.953	113.38
663.156	86.38
663.36	95.38
663.563	88.38
663.766	90.38
663.969	87.38
664.173	85.38
664.376	93.38
664.579	86.38
664.782	60.38
664.985	73.38
665.188	76.38
665.391	88.38
665.594	84.38
665.797	93.38
666	87.38
666.203	84.38
666.406	84.38
666.609	88.38
666.812	77.38
667.015	76.38
667.218	82.38
667.421	73.38
667.624	81.38
667.827	73.38
668.03	69.38
668.232	80.38
668.435	86.38
668.638	83.38
668.841	76.38
669.043	82.38
669.246	81.38
669.449	74.38
669.651	72.38
669.854	74.38
670.057	77.38
670.259	66.38
670.462	93.38
670.665	88.38
670.867	85.38
671.07	76.38
671.272	91.38
671.475	83.38
671.677	85.38
671.88	69.38
672.082	92.38
672.284	81.38
672.487	68.38
672.689	76.38
672.892	75.38
