Data from WStandard_LampEnergy8_LIBS07252019.E.O._I.C._HRD10591_15-58-23-929.txt Node
Date: Thu Jul 25 15:58:23 EDT 2019
User: cochatt
Spectrometer: HR+D1059
Trigger mode: 1
Integration Time (sec): 1.000000E-1
Scans to average: 1
Electric dark correction enabled: true
Nonlinearity correction enabled: false
Boxcar width: 0
XAxis mode: Wavelengths
Number of Pixels in Spectrum: 2048
>>>>>Begin Spectral Data<<<<<
223.165	-19.19
223.4	-19.19
223.635	-19.19
223.869	-12.19
224.104	-11.19
224.338	-9.19
224.573	-17.19
224.808	-28.19
225.042	-17.19
225.277	5.81
225.511	-12.19
225.746	6.81
225.98	9.81
226.215	11.81
226.449	8.81
226.683	26.81
226.918	23.81
227.152	32.81
227.387	42.81
227.621	48.81
227.856	54.81
228.09	50.81
228.324	48.81
228.559	57.81
228.793	103.81
229.027	196.81
229.262	202.81
229.496	203.81
229.73	220.81
229.964	253.81
230.199	254.81
230.433	270.81
230.667	283.81
230.901	281.81
231.136	269.81
231.37	260.81
231.604	268.81
231.838	260.81
232.072	271.81
232.306	262.81
232.541	270.81
232.775	323.81
233.009	316.81
233.243	317.81
233.477	288.81
233.711	284.81
233.945	290.81
234.179	306.81
234.413	315.81
234.647	316.81
234.881	311.81
235.115	323.81
235.349	294.81
235.583	287.81
235.817	312.81
236.051	316.81
236.285	320.81
236.519	314.81
236.753	350.81
236.987	337.81
237.221	388.81
237.455	415.81
237.689	377.81
237.922	346.81
238.156	345.81
238.39	360.81
238.624	378.81
238.858	386.81
239.091	419.81
239.325	416.81
239.559	466.81
239.793	488.81
240.027	512.81
240.26	507.81
240.494	378.81
240.728	364.81
240.961	370.81
241.195	368.81
241.429	406.81
241.662	409.81
241.896	388.81
242.13	405.81
242.363	440.81
242.597	456.81
242.83	441.81
243.064	449.81
243.298	482.81
243.531	482.81
243.765	468.81
243.998	475.81
244.232	408.81
244.465	411.81
244.699	432.81
244.932	459.81
245.166	511.81
245.399	495.81
245.633	437.81
245.866	440.81
246.099	479.81
246.333	476.81
246.566	494.81
246.8	528.81
247.033	602.81
247.266	560.81
247.5	518.81
247.733	539.81
247.966	577.81
248.2	606.81
248.433	597.81
248.666	649.81
248.899	662.81
249.133	736.81
249.366	817.81
249.599	667.81
249.832	603.81
250.066	633.81
250.299	638.81
250.532	614.81
250.765	531.81
250.998	594.81
251.231	594.81
251.465	606.81
251.698	561.81
251.931	582.81
252.164	592.81
252.397	614.81
252.63	619.81
252.863	554.81
253.096	560.81
253.329	590.81
253.562	599.81
253.795	610.81
254.028	614.81
254.261	580.81
254.494	556.81
254.727	550.81
254.96	561.81
255.193	623.81
255.426	721.81
255.659	786.81
255.892	775.81
256.124	656.81
256.357	651.81
256.59	738.81
256.823	710.81
257.056	738.81
257.289	825.81
257.521	913.81
257.754	818.81
257.987	767.81
258.22	843.81
258.452	817.81
258.685	703.81
258.918	678.81
259.151	677.81
259.383	647.81
259.616	586.81
259.849	634.81
260.081	671.81
260.314	782.81
260.547	826.81
260.779	842.81
261.012	751.81
261.244	692.81
261.477	660.81
261.71	697.81
261.942	708.81
262.175	675.81
262.407	719.81
262.64	650.81
262.872	642.81
263.105	644.81
263.337	624.81
263.57	635.81
263.802	616.81
264.035	584.81
264.267	584.81
264.499	580.81
264.732	606.81
264.964	645.81
265.197	678.81
265.429	696.81
265.661	780.81
265.894	855.81
266.126	865.81
266.358	806.81
266.591	806.81
266.823	846.81
267.055	771.81
267.287	784.81
267.52	774.81
267.752	732.81
267.984	748.81
268.216	775.81
268.448	834.81
268.681	800.81
268.913	732.81
269.145	698.81
269.377	699.81
269.609	772.81
269.841	887.81
270.073	999.81
270.306	1086.81
270.538	1113.81
270.77	924.81
271.002	820.81
271.234	802.81
271.466	815.81
271.698	912.81
271.93	1053.81
272.162	1054.81
272.394	964.81
272.626	904.81
272.858	785.81
273.09	718.81
273.322	699.81
273.553	682.81
273.785	683.81
274.017	727.81
274.249	726.81
274.481	762.81
274.713	721.81
274.945	714.81
275.176	698.81
275.408	700.81
275.64	690.81
275.872	697.81
276.104	758.81
276.335	823.81
276.567	912.81
276.799	913.81
277.031	825.81
277.262	824.81
277.494	838.81
277.726	925.81
277.957	884.81
278.189	839.81
278.421	757.81
278.652	750.81
278.884	741.81
279.115	754.81
279.347	761.81
279.579	735.81
279.81	766.81
280.042	803.81
280.273	857.81
280.505	875.81
280.736	881.81
280.968	850.81
281.199	745.81
281.431	721.81
281.662	718.81
281.894	724.81
282.125	734.81
282.356	766.81
282.588	771.81
282.819	781.81
283.051	856.81
283.282	872.81
283.513	842.81
283.745	775.81
283.976	689.81
284.207	743.81
284.439	730.81
284.67	745.81
284.901	782.81
285.132	773.81
285.364	796.81
285.595	804.81
285.826	764.81
286.057	786.81
286.288	787.81
286.52	791.81
286.751	845.81
286.982	855.81
287.213	807.81
287.444	741.81
287.675	741.81
287.906	805.81
288.138	826.81
288.369	816.81
288.6	749.81
288.831	745.81
289.062	753.81
289.293	743.81
289.524	742.81
289.755	800.81
289.986	778.81
290.217	755.81
290.448	755.81
290.679	814.81
290.91	793.81
291.141	798.81
291.371	830.81
291.602	823.81
291.833	805.81
292.064	854.81
292.295	838.81
292.526	852.81
292.757	882.81
292.987	844.81
293.218	810.81
293.449	878.81
293.68	986.81
293.91	1036.81
294.141	942.81
294.372	924.81
294.603	944.81
294.833	987.81
295.064	938.81
295.295	855.81
295.525	811.81
295.756	770.81
295.987	713.81
296.217	738.81
296.448	780.81
296.679	789.81
296.909	772.81
297.14	774.81
297.37	808.81
297.601	842.81
297.831	916.81
298.062	906.81
298.292	794.81
298.523	786.81
298.753	790.81
298.984	802.81
299.214	796.81
299.445	826.81
299.675	828.81
299.905	824.81
300.136	820.81
300.366	818.81
300.597	788.81
300.827	786.81
301.057	818.81
301.288	863.81
301.518	880.81
301.748	858.81
301.979	890.81
302.209	959.81
302.439	998.81
302.669	1003.81
302.9	955.81
303.13	888.81
303.36	871.81
303.59	866.81
303.82	854.81
304.051	883.81
304.281	868.81
304.511	912.81
304.741	968.81
304.971	1012.81
305.201	1063.81
305.431	956.81
305.661	817.81
305.891	750.81
306.121	772.81
306.352	802.81
306.582	857.81
306.812	916.81
307.042	980.81
307.272	965.81
307.502	1003.81
307.731	1058.81
307.961	1100.81
308.191	983.81
308.421	870.81
308.651	854.81
308.881	830.81
309.111	819.81
309.341	822.81
309.571	825.81
309.8	820.81
310.03	823.81
310.26	835.81
310.49	816.81
310.72	851.81
310.949	905.81
311.179	879.81
311.409	846.81
311.639	863.81
311.868	875.81
312.098	854.81
312.328	851.81
312.557	843.81
312.787	868.81
313.017	866.81
313.246	888.81
313.476	886.81
313.706	905.81
313.935	912.81
314.165	893.81
314.394	949.81
314.624	960.81
314.853	1014.81
315.083	1080.81
315.312	1078.81
315.542	972.81
315.771	906.81
316.001	937.81
316.23	944.81
316.46	926.81
316.689	949.81
316.919	902.81
317.148	858.81
317.377	892.81
317.607	998.81
317.836	1074.81
318.065	1077.81
318.295	1011.81
318.524	995.81
318.753	938.81
318.983	965.81
319.212	952.81
319.441	944.81
319.67	926.81
319.9	939.81
320.129	968.81
320.358	995.81
320.587	1056.81
320.816	1051.81
321.046	997.81
321.275	944.81
321.504	958.81
321.733	1038.81
321.962	1037.81
322.191	961.81
322.42	908.81
322.649	929.81
322.878	933.81
323.108	924.81
323.337	984.81
323.566	977.81
323.795	978.81
324.024	923.81
324.253	931.81
324.482	962.81
324.71	938.81
324.939	904.81
325.168	900.81
325.397	943.81
325.626	946.81
325.855	954.81
326.084	921.81
326.313	915.81
326.542	923.81
326.77	963.81
326.999	944.81
327.228	938.81
327.457	898.81
327.686	878.81
327.914	917.81
328.143	960.81
328.372	944.81
328.6	932.81
328.829	932.81
329.058	909.81
329.287	924.81
329.515	971.81
329.744	978.81
329.972	1010.81
330.201	1066.81
330.43	1024.81
330.658	984.81
330.887	1000.81
331.115	977.81
331.344	983.81
331.572	983.81
331.801	977.81
332.03	990.81
332.258	1007.81
332.486	1002.81
332.715	1032.81
332.943	1032.81
333.172	1001.81
333.4	1031.81
333.629	1092.81
333.857	1126.81
334.085	1242.81
334.314	1352.81
334.542	1414.81
334.771	1304.81
334.999	1145.81
335.227	1108.81
335.455	1054.81
335.684	1050.81
335.912	1100.81
336.14	1110.81
336.369	1066.81
336.597	993.81
336.825	1008.81
337.053	1040.81
337.281	1146.81
337.51	1149.81
337.738	1198.81
337.966	1128.81
338.194	1023.81
338.422	993.81
338.65	997.81
338.878	975.81
339.106	949.81
339.334	966.81
339.562	945.81
339.79	973.81
340.018	1041.81
340.246	1054.81
340.474	1041.81
340.702	1054.81
340.93	1040.81
341.158	1015.81
341.386	1003.81
341.614	987.81
341.842	1010.81
342.07	1005.81
342.298	981.81
342.526	999.81
342.754	972.81
342.981	998.81
343.209	982.81
343.437	979.81
343.665	994.81
343.893	1038.81
344.12	1057.81
344.348	1052.81
344.576	1033.81
344.804	981.81
345.031	1003.81
345.259	964.81
345.487	958.81
345.714	931.81
345.942	908.81
346.17	947.81
346.397	950.81
346.625	961.81
346.853	904.81
347.08	896.81
347.308	891.81
347.535	926.81
347.763	979.81
347.99	932.81
348.218	893.81
348.445	946.81
348.673	922.81
348.9	970.81
349.128	984.81
349.355	1011.81
349.583	955.81
349.81	940.81
350.037	878.81
350.265	875.81
350.492	902.81
350.72	926.81
350.947	954.81
351.174	968.81
351.402	912.81
351.629	842.81
351.856	862.81
352.083	850.81
352.311	864.81
352.538	913.81
352.765	953.81
352.992	946.81
353.22	944.81
353.447	925.81
353.674	922.81
353.901	938.81
354.128	906.81
354.355	934.81
354.583	978.81
354.81	977.81
355.037	981.81
355.264	941.81
355.491	928.81
355.718	936.81
355.945	950.81
356.172	894.81
356.399	882.81
356.626	880.81
356.853	950.81
357.08	1026.81
357.307	1100.81
357.534	1077.81
357.761	944.81
357.988	905.81
358.215	877.81
358.441	905.81
358.668	859.81
358.895	917.81
359.122	984.81
359.349	1055.81
359.576	1008.81
359.802	946.81
360.029	909.81
360.256	908.81
360.483	935.81
360.709	978.81
360.936	998.81
361.163	1045.81
361.39	1097.81
361.616	1188.81
361.843	1164.81
362.07	1050.81
362.296	935.81
362.523	903.81
362.749	944.81
362.976	974.81
363.203	986.81
363.429	930.81
363.656	946.81
363.882	975.81
364.109	1074.81
364.335	1107.81
364.562	1058.81
364.788	962.81
365.015	980.81
365.241	952.81
365.468	964.81
365.694	975.81
365.92	984.81
366.147	935.81
366.373	916.81
366.599	889.81
366.826	914.81
367.052	901.81
367.278	928.81
367.505	943.81
367.731	967.81
367.957	981.81
368.184	1011.81
368.41	1026.81
368.636	1048.81
368.862	1034.81
369.089	1062.81
369.315	1024.81
369.541	1006.81
369.767	965.81
369.993	946.81
370.219	950.81
370.445	966.81
370.672	1028.81
370.898	1052.81
371.124	1046.81
371.35	1009.81
371.576	1029.81
371.802	1043.81
372.028	973.81
372.254	958.81
372.48	939.81
372.706	937.81
372.932	944.81
373.158	967.81
373.384	976.81
373.61	1014.81
373.835	1067.81
374.061	1000.81
374.287	988.81
374.513	1011.81
374.739	985.81
374.965	1003.81
375.191	1010.81
375.416	1014.81
375.642	1028.81
375.868	1079.81
376.094	1111.81
376.319	1058.81
376.545	1000.81
376.771	1055.81
376.997	1087.81
377.222	1082.81
377.448	1042.81
377.674	1046.81
377.899	1047.81
378.125	1124.81
378.35	1088.81
378.576	975.81
378.802	920.81
379.027	990.81
379.253	965.81
379.478	981.81
379.704	1001.81
379.929	971.81
380.155	1010.81
380.38	1028.81
380.606	1014.81
380.831	1036.81
381.057	1118.81
381.282	1083.81
381.507	1071.81
381.733	1123.81
381.958	1157.81
382.184	1076.81
382.409	1022.81
382.634	1043.81
382.86	1037.81
383.085	1030.81
383.31	1090.81
383.535	1194.81
383.761	1233.81
383.986	1173.81
384.211	1124.81
384.436	1154.81
384.662	1206.81
384.887	1194.81
385.112	1183.81
385.337	1163.81
385.562	1138.81
385.787	1142.81
386.013	1177.81
386.238	1160.81
386.463	1170.81
386.688	1271.81
386.913	1334.81
387.138	1284.81
387.363	1186.81
387.588	1177.81
387.813	1180.81
388.038	1156.81
388.263	1231.81
388.488	1188.81
388.713	1086.81
388.938	1092.81
389.163	1091.81
389.387	1127.81
389.612	1118.81
389.837	1149.81
390.062	1178.81
390.287	1153.81
390.512	1150.81
390.736	1143.81
390.961	1117.81
391.186	1108.81
391.411	1152.81
391.636	1139.81
391.86	1155.81
392.085	1152.81
392.31	1120.81
392.534	1154.81
392.759	1152.81
392.984	1144.81
393.208	1182.81
393.433	1175.81
393.658	1260.81
393.882	1243.81
394.107	1168.81
394.331	1177.81
394.556	1110.81
394.78	1190.81
395.005	1235.81
395.229	1263.81
395.454	1354.81
395.678	1312.81
395.903	1243.81
396.127	1216.81
396.352	1226.81
396.576	1257.81
396.801	1257.81
397.025	1265.81
397.249	1283.81
397.474	1238.81
397.698	1243.81
397.922	1322.81
398.147	1351.81
398.371	1360.81
398.595	1355.81
398.82	1305.81
399.044	1336.81
399.268	1391.81
399.492	1448.81
399.717	1493.81
399.941	1509.81
400.165	1496.81
400.389	1455.81
400.613	1487.81
400.837	1663.81
401.062	1831.81
401.286	1575.81
401.51	1411.81
401.734	1503.81
401.958	1435.81
402.182	1322.81
402.406	1331.81
402.63	1315.81
402.854	1296.81
403.078	1332.81
403.302	1349.81
403.526	1337.81
403.75	1392.81
403.974	1420.81
404.198	1382.81
404.422	1426.81
404.645	1470.81
404.869	1417.81
405.093	1341.81
405.317	1326.81
405.541	1336.81
405.765	1361.81
405.988	1344.81
406.212	1404.81
406.436	1451.81
406.66	1478.81
406.883	1504.81
407.107	1696.81
407.331	1822.81
407.555	1908.81
407.778	1722.81
408.002	1473.81
408.226	1425.81
408.449	1423.81
408.673	1351.81
408.896	1386.81
409.12	1416.81
409.344	1374.81
409.567	1343.81
409.791	1353.81
410.014	1430.81
410.238	1502.81
410.461	1564.81
410.685	1375.81
410.908	1336.81
411.132	1416.81
411.355	1348.81
411.578	1326.81
411.802	1352.81
412.025	1390.81
412.249	1343.81
412.472	1326.81
412.695	1330.81
412.919	1311.81
413.142	1306.81
413.365	1311.81
413.589	1334.81
413.812	1425.81
414.035	1460.81
414.258	1344.81
414.482	1336.81
414.705	1333.81
414.928	1287.81
415.151	1316.81
415.374	1327.81
415.597	1325.81
415.821	1327.81
416.044	1337.81
416.267	1368.81
416.49	1310.81
416.713	1300.81
416.936	1360.81
417.159	1417.81
417.382	1383.81
417.605	1310.81
417.828	1313.81
418.051	1338.81
418.274	1298.81
418.497	1282.81
418.72	1307.81
418.943	1294.81
419.166	1350.81
419.389	1420.81
419.611	1359.81
419.834	1319.81
420.057	1322.81
420.28	1302.81
420.503	1312.81
420.726	1336.81
420.948	1316.81
421.171	1290.81
421.394	1292.81
421.617	1379.81
421.839	1304.81
422.062	1375.81
422.285	1310.81
422.507	1281.81
422.73	1264.81
422.953	1219.81
423.175	1263.81
423.398	1296.81
423.621	1297.81
423.843	1269.81
424.066	1340.81
424.288	1368.81
424.511	1424.81
424.733	1345.81
424.956	1235.81
425.178	1236.81
425.401	1239.81
425.623	1278.81
425.846	1304.81
426.068	1371.81
426.291	1376.81
426.513	1333.81
426.735	1364.81
426.958	1465.81
427.18	1532.81
427.402	1402.81
427.625	1432.81
427.847	1387.81
428.069	1273.81
428.292	1284.81
428.514	1263.81
428.736	1269.81
428.958	1287.81
429.181	1291.81
429.403	1505.81
429.625	1758.81
429.847	1494.81
430.069	1326.81
430.292	1472.81
430.514	1494.81
430.736	1338.81
430.958	1402.81
431.18	1317.81
431.402	1235.81
431.624	1214.81
431.846	1207.81
432.068	1131.81
432.29	1168.81
432.512	1189.81
432.734	1228.81
432.956	1306.81
433.178	1343.81
433.4	1349.81
433.622	1323.81
433.844	1260.81
434.066	1198.81
434.287	1216.81
434.509	1220.81
434.731	1266.81
434.953	1368.81
435.175	1344.81
435.397	1259.81
435.618	1265.81
435.84	1249.81
436.062	1204.81
436.284	1284.81
436.505	1283.81
436.727	1311.81
436.949	1263.81
437.17	1267.81
437.392	1245.81
437.614	1224.81
437.835	1188.81
438.057	1228.81
438.278	1243.81
438.5	1244.81
438.721	1238.81
438.943	1234.81
439.165	1258.81
439.386	1224.81
439.608	1266.81
439.829	1257.81
440.05	1245.81
440.272	1278.81
440.493	1271.81
440.715	1314.81
440.936	1361.81
441.158	1429.81
441.379	1430.81
441.6	1381.81
441.822	1366.81
442.043	1359.81
442.264	1330.81
442.486	1265.81
442.707	1284.81
442.928	1269.81
443.149	1340.81
443.371	1363.81
443.592	1411.81
443.813	1379.81
444.034	1383.81
444.255	1396.81
444.476	1412.81
444.698	1407.81
444.919	1433.81
445.14	1490.81
445.361	1455.81
445.582	1454.81
445.803	1397.81
446.024	1410.81
446.245	1452.81
446.466	1393.81
446.687	1348.81
446.908	1360.81
447.129	1331.81
447.35	1330.81
447.571	1291.81
447.792	1238.81
448.013	1250.81
448.234	1302.81
448.455	1315.81
448.675	1319.81
448.896	1225.81
449.117	1187.81
449.338	1240.81
449.559	1302.81
449.779	1318.81
450	1426.81
450.221	1483.81
450.442	1428.81
450.662	1286.81
450.883	1202.81
451.104	1163.81
451.324	1212.81
451.545	1218.81
451.766	1211.81
451.986	1147.81
452.207	1135.81
452.428	1106.81
452.648	1074.81
452.869	1115.81
453.089	1151.81
453.31	1165.81
453.53	1155.81
453.751	1119.81
453.971	1050.81
454.192	1103.81
454.412	1130.81
454.633	1154.81
454.853	1107.81
455.073	1094.81
455.294	1077.81
455.514	1073.81
455.734	1102.81
455.955	1107.81
456.175	1080.81
456.395	1087.81
456.616	1104.81
456.836	1111.81
457.056	1113.81
457.276	1099.81
457.497	1103.81
457.717	1039.81
457.937	1030.81
458.157	1058.81
458.377	1028.81
458.598	1034.81
458.818	1071.81
459.038	1112.81
459.258	1155.81
459.478	1176.81
459.698	1130.81
459.918	1159.81
460.138	1228.81
460.358	1287.81
460.578	1255.81
460.798	1288.81
461.018	1357.81
461.238	1292.81
461.458	1291.81
461.678	1278.81
461.898	1239.81
462.118	1192.81
462.338	1266.81
462.558	1264.81
462.777	1270.81
462.997	1359.81
463.217	1393.81
463.437	1348.81
463.657	1310.81
463.876	1272.81
464.096	1279.81
464.316	1285.81
464.536	1307.81
464.755	1317.81
464.975	1305.81
465.195	1252.81
465.414	1333.81
465.634	1306.81
465.854	1283.81
466.073	1382.81
466.293	1377.81
466.512	1230.81
466.732	1168.81
466.951	1251.81
467.171	1220.81
467.391	1185.81
467.61	1213.81
467.829	1244.81
468.049	1355.81
468.268	1470.81
468.488	1348.81
468.707	1251.81
468.927	1251.81
469.146	1198.81
469.365	1228.81
469.585	1267.81
469.804	1248.81
470.023	1248.81
470.243	1265.81
470.462	1228.81
470.681	1214.81
470.901	1243.81
471.12	1252.81
471.339	1212.81
471.558	1212.81
471.777	1222.81
471.997	1222.81
472.216	1146.81
472.435	1150.81
472.654	1141.81
472.873	1198.81
473.092	1243.81
473.311	1178.81
473.53	1156.81
473.749	1150.81
473.968	1158.81
474.187	1195.81
474.406	1250.81
474.625	1204.81
474.844	1232.81
475.063	1219.81
475.282	1226.81
475.501	1213.81
475.72	1214.81
475.939	1290.81
476.158	1273.81
476.377	1223.81
476.596	1218.81
476.814	1236.81
477.033	1236.81
477.252	1307.81
477.471	1327.81
477.69	1294.81
477.908	1298.81
478.127	1390.81
478.346	1434.81
478.564	1407.81
478.783	1426.81
479.002	1459.81
479.22	1397.81
479.439	1468.81
479.658	1620.81
479.876	1510.81
480.095	1379.81
480.313	1372.81
480.532	1287.81
480.751	1286.81
480.969	1318.81
481.188	1282.81
481.406	1250.81
481.624	1253.81
481.843	1279.81
482.061	1302.81
482.28	1351.81
482.498	1355.81
482.717	1321.81
482.935	1326.81
483.153	1339.81
483.372	1378.81
483.59	1364.81
483.808	1355.81
484.027	1383.81
484.245	1492.81
484.463	1739.81
484.681	1906.81
484.9	1462.81
485.118	1395.81
485.336	1367.81
485.554	1386.81
485.772	1398.81
485.99	1340.81
486.209	1406.81
486.427	1422.81
486.645	1421.81
486.863	1440.81
487.081	1476.81
487.299	1459.81
487.517	1464.81
487.735	1492.81
487.953	1510.81
488.171	1462.81
488.389	1476.81
488.607	1487.81
488.825	1628.81
489.043	1563.81
489.261	1410.81
489.479	1483.81
489.696	1484.81
489.914	1451.81
490.132	1431.81
490.35	1454.81
490.568	1542.81
490.786	1517.81
491.003	1486.81
491.221	1545.81
491.439	1579.81
491.657	1611.81
491.874	1629.81
492.092	1646.81
492.31	1708.81
492.527	1683.81
492.745	1622.81
492.963	1609.81
493.18	1631.81
493.398	1705.81
493.615	1716.81
493.833	1598.81
494.05	1569.81
494.268	1542.81
494.485	1603.81
494.703	1562.81
494.92	1525.81
495.138	1582.81
495.355	1567.81
495.573	1625.81
495.79	1673.81
496.008	1652.81
496.225	1624.81
496.442	1631.81
496.66	1612.81
496.877	1607.81
497.094	1623.81
497.312	1648.81
497.529	1634.81
497.746	1666.81
497.963	1871.81
498.181	1981.81
498.398	1936.81
498.615	1885.81
498.832	1802.81
499.049	1788.81
499.267	1806.81
499.484	1906.81
499.701	2048.81
499.918	2106.81
500.135	2279.81
500.352	2363.81
500.569	2343.81
500.786	2548.81
501.003	2370.81
501.22	2131.81
501.437	2068.81
501.654	2098.81
501.871	2031.81
502.088	1842.81
502.305	1787.81
502.522	1701.81
502.739	1637.81
502.956	1593.81
503.172	1546.81
503.389	1503.81
503.606	1498.81
503.823	1504.81
504.04	1503.81
504.256	1547.81
504.473	1533.81
504.69	1519.81
504.907	1479.81
505.123	1436.81
505.34	1564.81
505.557	2024.81
505.773	1692.81
505.99	1402.81
506.207	1315.81
506.423	1306.81
506.64	1315.81
506.856	1330.81
507.073	1530.81
507.289	1608.81
507.506	1518.81
507.722	1302.81
507.939	1268.81
508.155	1252.81
508.372	1242.81
508.588	1226.81
508.805	1202.81
509.021	1170.81
509.238	1165.81
509.454	1175.81
509.67	1165.81
509.887	1173.81
510.103	1113.81
510.319	1174.81
510.536	1199.81
510.752	1235.81
510.968	1246.81
511.184	1276.81
511.401	1227.81
511.617	1110.81
511.833	1084.81
512.049	1105.81
512.265	1125.81
512.481	1115.81
512.698	1159.81
512.914	1198.81
513.13	1170.81
513.346	1130.81
513.562	1098.81
513.778	1097.81
513.994	1154.81
514.21	1187.81
514.426	1228.81
514.642	1294.81
514.858	1251.81
515.074	1142.81
515.29	1106.81
515.506	1178.81
515.721	1177.81
515.937	1186.81
516.153	1305.81
516.369	1266.81
516.585	1188.81
516.801	1155.81
517.016	1182.81
517.232	1198.81
517.448	1228.81
517.664	1230.81
517.879	1225.81
518.095	1260.81
518.311	1237.81
518.527	1219.81
518.742	1173.81
518.958	1123.81
519.173	1148.81
519.389	1160.81
519.605	1196.81
519.82	1191.81
520.036	1192.81
520.251	1160.81
520.467	1177.81
520.682	1264.81
520.898	1286.81
521.113	1135.81
521.329	1125.81
521.544	1237.81
521.76	1160.81
521.975	1141.81
522.19	1083.81
522.406	1111.81
522.621	1402.81
522.836	1286.81
523.052	1095.81
523.267	1144.81
523.482	1144.81
523.698	1091.81
523.913	1044.81
524.128	1087.81
524.343	1145.81
524.559	1156.81
524.774	1113.81
524.989	1090.81
525.204	1075.81
525.419	1048.81
525.634	1040.81
525.849	1060.81
526.064	1085.81
526.28	1058.81
526.495	1015.81
526.71	1007.81
526.925	1014.81
527.14	973.81
527.355	986.81
527.57	983.81
527.785	1055.81
527.999	1005.81
528.214	992.81
528.429	984.81
528.644	1030.81
528.859	1058.81
529.074	1093.81
529.289	1100.81
529.503	1116.81
529.718	1096.81
529.933	1046.81
530.148	1001.81
530.363	981.81
530.577	968.81
530.792	990.81
531.007	992.81
531.221	979.81
531.436	1014.81
531.651	999.81
531.865	1072.81
532.08	1027.81
532.295	960.81
532.509	945.81
532.724	947.81
532.938	999.81
533.153	1030.81
533.367	1070.81
533.582	1038.81
533.796	1022.81
534.011	1019.81
534.225	985.81
534.44	950.81
534.654	991.81
534.868	972.81
535.083	1023.81
535.297	1030.81
535.511	1024.81
535.726	1020.81
535.94	967.81
536.154	978.81
536.369	964.81
536.583	966.81
536.797	960.81
537.011	964.81
537.225	933.81
537.44	933.81
537.654	1004.81
537.868	969.81
538.082	910.81
538.296	935.81
538.51	946.81
538.724	936.81
538.938	958.81
539.153	999.81
539.367	1006.81
539.581	962.81
539.795	1000.81
540.009	991.81
540.222	976.81
540.436	968.81
540.65	1030.81
540.864	1100.81
541.078	1068.81
541.292	1065.81
541.506	1078.81
541.72	1110.81
541.934	1135.81
542.147	1182.81
542.361	1123.81
542.575	1110.81
542.789	989.81
543.002	997.81
543.216	994.81
543.43	1015.81
543.644	1086.81
543.857	1131.81
544.071	1116.81
544.285	1127.81
544.498	1087.81
544.712	1098.81
544.925	1119.81
545.139	1118.81
545.352	1108.81
545.566	1058.81
545.779	1040.81
545.993	1079.81
546.206	1109.81
546.42	1075.81
546.633	1058.81
546.847	1077.81
547.06	1089.81
547.274	1066.81
547.487	1101.81
547.7	1100.81
547.914	1103.81
548.127	1120.81
548.34	1109.81
548.554	1071.81
548.767	1066.81
548.98	1062.81
549.193	1088.81
549.407	1103.81
549.62	1104.81
549.833	1072.81
550.046	1062.81
550.259	1068.81
550.473	1069.81
550.686	1059.81
550.899	1010.81
551.112	973.81
551.325	978.81
551.538	1059.81
551.751	1150.81
551.964	960.81
552.177	922.81
552.39	959.81
552.603	986.81
552.816	1009.81
553.029	1090.81
553.242	1063.81
553.455	1078.81
553.667	1029.81
553.88	1036.81
554.093	1017.81
554.306	1034.81
554.519	1020.81
554.732	963.81
554.944	960.81
555.157	992.81
555.37	990.81
555.583	963.81
555.795	941.81
556.008	918.81
556.221	874.81
556.433	865.81
556.646	903.81
556.859	873.81
557.071	870.81
557.284	881.81
557.496	894.81
557.709	870.81
557.921	882.81
558.134	871.81
558.346	885.81
558.559	840.81
558.771	844.81
558.984	846.81
559.196	858.81
559.409	823.81
559.621	819.81
559.833	836.81
560.046	846.81
560.258	841.81
560.47	823.81
560.683	829.81
560.895	850.81
561.107	841.81
561.32	831.81
561.532	834.81
561.744	821.81
561.956	852.81
562.168	828.81
562.381	791.81
562.593	816.81
562.805	803.81
563.017	762.81
563.229	803.81
563.441	812.81
563.653	805.81
563.865	770.81
564.077	793.81
564.289	794.81
564.501	791.81
564.713	806.81
564.925	826.81
565.137	878.81
565.349	810.81
565.561	806.81
565.773	836.81
565.985	825.81
566.197	887.81
566.408	942.81
566.62	951.81
566.832	926.81
567.044	928.81
567.255	890.81
567.467	896.81
567.679	936.81
567.891	931.81
568.102	913.81
568.314	847.81
568.526	816.81
568.737	767.81
568.949	726.81
569.161	707.81
569.372	711.81
569.584	694.81
569.795	703.81
570.007	680.81
570.218	668.81
570.43	646.81
570.641	643.81
570.853	665.81
571.064	683.81
571.276	686.81
571.487	676.81
571.698	657.81
571.91	666.81
572.121	633.81
572.333	633.81
572.544	609.81
572.755	598.81
572.966	581.81
573.178	595.81
573.389	560.81
573.6	590.81
573.811	631.81
574.023	596.81
574.234	580.81
574.445	576.81
574.656	575.81
574.867	575.81
575.078	580.81
575.289	560.81
575.501	544.81
575.712	530.81
575.923	592.81
576.134	563.81
576.345	570.81
576.556	578.81
576.767	568.81
576.978	538.81
577.188	518.81
577.399	512.81
577.61	524.81
577.821	516.81
578.032	519.81
578.243	528.81
578.454	528.81
578.665	514.81
578.875	499.81
579.086	487.81
579.297	506.81
579.508	548.81
579.718	514.81
579.929	504.81
580.14	510.81
580.35	496.81
580.561	487.81
580.772	550.81
580.982	516.81
581.193	511.81
581.403	491.81
581.614	495.81
581.825	489.81
582.035	484.81
582.246	497.81
582.456	497.81
582.667	493.81
582.877	478.81
583.087	490.81
583.298	477.81
583.508	481.81
583.719	480.81
583.929	474.81
584.139	486.81
584.35	474.81
584.56	463.81
584.77	448.81
584.981	455.81
585.191	469.81
585.401	490.81
585.611	463.81
585.821	474.81
586.032	465.81
586.242	455.81
586.452	461.81
586.662	453.81
586.872	460.81
587.082	463.81
587.292	460.81
587.502	486.81
587.713	467.81
587.923	458.81
588.133	447.81
588.343	483.81
588.553	459.81
588.762	441.81
588.972	421.81
589.182	460.81
589.392	440.81
589.602	462.81
589.812	446.81
590.022	442.81
590.232	432.81
590.441	449.81
590.651	458.81
590.861	439.81
591.071	448.81
591.281	457.81
591.49	455.81
591.7	448.81
591.91	452.81
592.119	424.81
592.329	444.81
592.539	459.81
592.748	473.81
592.958	461.81
593.167	470.81
593.377	449.81
593.587	469.81
593.796	461.81
594.006	468.81
594.215	456.81
594.424	453.81
594.634	464.81
594.843	462.81
595.053	460.81
595.262	458.81
595.472	458.81
595.681	438.81
595.89	440.81
596.1	436.81
596.309	463.81
596.518	463.81
596.727	440.81
596.937	437.81
597.146	427.81
597.355	430.81
597.564	438.81
597.774	401.81
597.983	396.81
598.192	380.81
598.401	386.81
598.61	390.81
598.819	401.81
599.028	406.81
599.237	407.81
599.446	400.81
599.655	394.81
599.864	395.81
600.073	386.81
600.282	391.81
600.491	374.81
600.7	379.81
600.909	398.81
601.118	393.81
601.327	401.81
601.536	424.81
601.745	402.81
601.953	402.81
602.162	430.81
602.371	432.81
602.58	416.81
602.789	418.81
602.997	413.81
603.206	413.81
603.415	411.81
603.623	395.81
603.832	435.81
604.041	392.81
604.249	379.81
604.458	382.81
604.666	391.81
604.875	384.81
605.084	395.81
605.292	411.81
605.501	411.81
605.709	432.81
605.918	414.81
606.126	406.81
606.334	406.81
606.543	400.81
606.751	403.81
606.96	407.81
607.168	407.81
607.376	394.81
607.585	400.81
607.793	392.81
608.001	377.81
608.21	424.81
608.418	404.81
608.626	407.81
608.834	406.81
609.043	414.81
609.251	367.81
609.459	404.81
609.667	400.81
609.875	401.81
610.083	402.81
610.291	425.81
610.499	414.81
610.707	403.81
610.916	395.81
611.124	396.81
611.332	396.81
611.54	399.81
611.748	398.81
611.955	389.81
612.163	401.81
612.371	388.81
612.579	390.81
612.787	385.81
612.995	406.81
613.203	408.81
613.411	379.81
613.618	393.81
613.826	399.81
614.034	387.81
614.242	392.81
614.449	377.81
614.657	388.81
614.865	393.81
615.072	396.81
615.28	419.81
615.488	386.81
615.695	403.81
615.903	385.81
616.111	388.81
616.318	401.81
616.526	377.81
616.733	379.81
616.941	367.81
617.148	379.81
617.356	355.81
617.563	366.81
617.771	380.81
617.978	390.81
618.185	375.81
618.393	387.81
618.6	386.81
618.807	394.81
619.015	367.81
619.222	352.81
619.429	376.81
619.637	357.81
619.844	359.81
620.051	372.81
620.258	354.81
620.466	360.81
620.673	353.81
620.88	331.81
621.087	352.81
621.294	345.81
621.501	362.81
621.708	331.81
621.915	347.81
622.122	349.81
622.329	346.81
622.536	350.81
622.743	347.81
622.95	340.81
623.157	351.81
623.364	359.81
623.571	345.81
623.778	343.81
623.985	340.81
624.192	348.81
624.399	349.81
624.606	359.81
624.812	336.81
625.019	328.81
625.226	335.81
625.433	323.81
625.639	330.81
625.846	310.81
626.053	288.81
626.259	296.81
626.466	302.81
626.673	282.81
626.879	299.81
627.086	288.81
627.293	309.81
627.499	312.81
627.706	332.81
627.912	319.81
628.119	331.81
628.325	334.81
628.532	328.81
628.738	346.81
628.945	330.81
629.151	303.81
629.357	322.81
629.564	296.81
629.77	310.81
629.976	296.81
630.183	293.81
630.389	309.81
630.595	313.81
630.802	308.81
631.008	300.81
631.214	298.81
631.42	291.81
631.627	301.81
631.833	298.81
632.039	304.81
632.245	298.81
632.451	315.81
632.657	279.81
632.863	285.81
633.069	292.81
633.275	290.81
633.481	279.81
633.688	278.81
633.893	296.81
634.099	290.81
634.305	281.81
634.511	279.81
634.717	275.81
634.923	272.81
635.129	273.81
635.335	269.81
635.541	269.81
635.747	278.81
635.952	285.81
636.158	268.81
636.364	283.81
636.57	276.81
636.775	279.81
636.981	281.81
637.187	280.81
637.392	280.81
637.598	272.81
637.804	284.81
638.009	272.81
638.215	286.81
638.421	283.81
638.626	269.81
638.832	291.81
639.037	279.81
639.243	261.81
639.448	249.81
639.654	270.81
639.859	276.81
640.065	272.81
640.27	272.81
640.475	265.81
640.681	280.81
640.886	287.81
641.091	249.81
641.297	266.81
641.502	275.81
641.707	262.81
641.913	269.81
642.118	251.81
642.323	248.81
642.528	256.81
642.733	266.81
642.939	264.81
643.144	254.81
643.349	252.81
643.554	280.81
643.759	256.81
643.964	243.81
644.169	253.81
644.374	238.81
644.579	273.81
644.784	287.81
644.989	234.81
645.194	279.81
645.399	264.81
645.604	249.81
645.809	244.81
646.014	260.81
646.219	259.81
646.423	246.81
646.628	247.81
646.833	237.81
647.038	247.81
647.243	264.81
647.447	253.81
647.652	251.81
647.857	250.81
648.062	234.81
648.266	252.81
648.471	254.81
648.676	251.81
648.88	258.81
649.085	263.81
649.289	262.81
649.494	260.81
649.698	244.81
649.903	243.81
650.107	278.81
650.312	241.81
650.516	242.81
650.721	234.81
650.925	240.81
651.13	232.81
651.334	242.81
651.539	241.81
651.743	215.81
651.947	251.81
652.152	236.81
652.356	238.81
652.56	218.81
652.764	220.81
652.969	252.81
653.173	203.81
653.377	238.81
653.581	224.81
653.785	216.81
653.99	243.81
654.194	215.81
654.398	215.81
654.602	207.81
654.806	211.81
655.01	202.81
655.214	209.81
655.418	222.81
655.622	225.81
655.826	227.81
656.03	234.81
656.234	238.81
656.438	271.81
656.642	248.81
656.846	258.81
657.049	239.81
657.253	206.81
657.457	210.81
657.661	189.81
657.865	163.81
658.068	160.81
658.272	149.81
658.476	158.81
658.68	155.81
658.883	150.81
659.087	146.81
659.291	140.81
659.494	151.81
659.698	146.81
659.901	136.81
660.105	126.81
660.309	131.81
660.512	120.81
660.716	126.81
660.919	123.81
661.123	119.81
661.326	129.81
661.53	118.81
661.733	98.81
661.936	107.81
662.14	96.81
662.343	97.81
662.546	105.81
662.75	85.81
662.953	86.81
663.156	92.81
663.36	89.81
663.563	94.81
663.766	87.81
663.969	89.81
664.173	88.81
664.376	94.81
664.579	93.81
664.782	90.81
664.985	96.81
665.188	75.81
665.391	82.81
665.594	85.81
665.797	88.81
666	62.81
666.203	76.81
666.406	79.81
666.609	76.81
666.812	77.81
667.015	75.81
667.218	92.81
667.421	89.81
667.624	84.81
667.827	78.81
668.03	86.81
668.232	80.81
668.435	90.81
668.638	77.81
668.841	74.81
669.043	79.81
669.246	92.81
669.449	92.81
669.651	95.81
669.854	77.81
670.057	74.81
670.259	82.81
670.462	79.81
670.665	77.81
670.867	91.81
671.07	98.81
671.272	89.81
671.475	99.81
671.677	71.81
671.88	83.81
672.082	79.81
672.284	90.81
672.487	80.81
672.689	89.81
672.892	76.81
