Data from WStandard_LampEnergy10_LIBS07252019.E.O._I.C._HRD10591_15-54-46-929.txt Node
Date: Thu Jul 25 15:54:46 EDT 2019
User: cochatt
Spectrometer: HR+D1059
Trigger mode: 1
Integration Time (sec): 1.000000E-1
Scans to average: 1
Electric dark correction enabled: true
Nonlinearity correction enabled: false
Boxcar width: 0
XAxis mode: Wavelengths
Number of Pixels in Spectrum: 2048
>>>>>Begin Spectral Data<<<<<
223.165	-25.88
223.4	-25.88
223.635	-25.88
223.869	-15.88
224.104	-34.88
224.338	-9.88
224.573	-15.88
224.808	-15.88
225.042	-2.88
225.277	-14.88
225.511	-6.88
225.746	10.12
225.98	1.12
226.215	13.12
226.449	27.12
226.683	25.12
226.918	24.12
227.152	42.12
227.387	32.12
227.621	50.12
227.856	43.12
228.09	48.12
228.324	46.12
228.559	50.12
228.793	93.12
229.027	122.12
229.262	149.12
229.496	141.12
229.73	161.12
229.964	154.12
230.199	172.12
230.433	176.12
230.667	184.12
230.901	187.12
231.136	175.12
231.37	166.12
231.604	184.12
231.838	178.12
232.072	178.12
232.306	183.12
232.541	183.12
232.775	196.12
233.009	209.12
233.243	191.12
233.477	182.12
233.711	205.12
233.945	204.12
234.179	202.12
234.413	200.12
234.647	209.12
234.881	196.12
235.115	184.12
235.349	207.12
235.583	202.12
235.817	199.12
236.051	193.12
236.285	188.12
236.519	205.12
236.753	226.12
236.987	232.12
237.221	212.12
237.455	228.12
237.689	225.12
237.922	216.12
238.156	222.12
238.39	212.12
238.624	229.12
238.858	251.12
239.091	240.12
239.325	270.12
239.559	296.12
239.793	277.12
240.027	312.12
240.26	304.12
240.494	240.12
240.728	222.12
240.961	233.12
241.195	249.12
241.429	263.12
241.662	278.12
241.896	252.12
242.13	232.12
242.363	258.12
242.597	276.12
242.83	289.12
243.064	271.12
243.298	301.12
243.531	276.12
243.765	287.12
243.998	266.12
244.232	246.12
244.465	239.12
244.699	262.12
244.932	268.12
245.166	310.12
245.399	297.12
245.633	276.12
245.866	262.12
246.099	300.12
246.333	301.12
246.566	301.12
246.8	327.12
247.033	340.12
247.266	316.12
247.5	321.12
247.733	320.12
247.966	333.12
248.2	365.12
248.433	349.12
248.666	372.12
248.899	363.12
249.133	463.12
249.366	476.12
249.599	390.12
249.832	353.12
250.066	350.12
250.299	382.12
250.532	362.12
250.765	310.12
250.998	347.12
251.231	351.12
251.465	342.12
251.698	337.12
251.931	344.12
252.164	348.12
252.397	350.12
252.63	369.12
252.863	298.12
253.096	336.12
253.329	329.12
253.562	373.12
253.795	355.12
254.028	372.12
254.261	340.12
254.494	318.12
254.727	329.12
254.96	343.12
255.193	377.12
255.426	422.12
255.659	450.12
255.892	456.12
256.124	386.12
256.357	388.12
256.59	403.12
256.823	404.12
257.056	398.12
257.289	480.12
257.521	522.12
257.754	455.12
257.987	455.12
258.22	466.12
258.452	442.12
258.685	406.12
258.918	398.12
259.151	396.12
259.383	375.12
259.616	342.12
259.849	388.12
260.081	422.12
260.314	457.12
260.547	471.12
260.779	445.12
261.012	438.12
261.244	395.12
261.477	380.12
261.71	400.12
261.942	404.12
262.175	403.12
262.407	428.12
262.64	382.12
262.872	364.12
263.105	362.12
263.337	353.12
263.57	400.12
263.802	368.12
264.035	348.12
264.267	331.12
264.499	334.12
264.732	369.12
264.964	391.12
265.197	398.12
265.429	426.12
265.661	446.12
265.894	512.12
266.126	505.12
266.358	464.12
266.591	484.12
266.823	502.12
267.055	458.12
267.287	441.12
267.52	462.12
267.752	442.12
267.984	437.12
268.216	473.12
268.448	475.12
268.681	443.12
268.913	437.12
269.145	414.12
269.377	407.12
269.609	448.12
269.841	530.12
270.073	580.12
270.306	622.12
270.538	612.12
270.77	544.12
271.002	501.12
271.234	472.12
271.466	496.12
271.698	547.12
271.93	602.12
272.162	570.12
272.394	526.12
272.626	501.12
272.858	430.12
273.09	416.12
273.322	434.12
273.553	398.12
273.785	395.12
274.017	417.12
274.249	445.12
274.481	427.12
274.713	412.12
274.945	417.12
275.176	400.12
275.408	432.12
275.64	384.12
275.872	416.12
276.104	433.12
276.335	496.12
276.567	520.12
276.799	522.12
277.031	475.12
277.262	487.12
277.494	495.12
277.726	530.12
277.957	515.12
278.189	467.12
278.421	440.12
278.652	424.12
278.884	422.12
279.115	436.12
279.347	441.12
279.579	433.12
279.81	452.12
280.042	470.12
280.273	513.12
280.505	528.12
280.736	496.12
280.968	460.12
281.199	425.12
281.431	432.12
281.662	427.12
281.894	442.12
282.125	423.12
282.356	452.12
282.588	475.12
282.819	437.12
283.051	482.12
283.282	500.12
283.513	486.12
283.745	438.12
283.976	416.12
284.207	429.12
284.439	448.12
284.67	435.12
284.901	467.12
285.132	464.12
285.364	449.12
285.595	488.12
285.826	419.12
286.057	436.12
286.288	441.12
286.52	483.12
286.751	498.12
286.982	516.12
287.213	451.12
287.444	445.12
287.675	440.12
287.906	478.12
288.138	474.12
288.369	476.12
288.6	450.12
288.831	439.12
289.062	433.12
289.293	447.12
289.524	446.12
289.755	485.12
289.986	428.12
290.217	440.12
290.448	428.12
290.679	438.12
290.91	453.12
291.141	470.12
291.371	493.12
291.602	472.12
291.833	460.12
292.064	478.12
292.295	505.12
292.526	514.12
292.757	498.12
292.987	492.12
293.218	481.12
293.449	528.12
293.68	579.12
293.91	597.12
294.141	538.12
294.372	536.12
294.603	550.12
294.833	580.12
295.064	545.12
295.295	498.12
295.525	466.12
295.756	445.12
295.987	436.12
296.217	460.12
296.448	465.12
296.679	462.12
296.909	462.12
297.14	457.12
297.37	476.12
297.601	524.12
297.831	529.12
298.062	526.12
298.292	487.12
298.523	456.12
298.753	467.12
298.984	478.12
299.214	471.12
299.445	472.12
299.675	516.12
299.905	512.12
300.136	477.12
300.366	460.12
300.597	459.12
300.827	462.12
301.057	522.12
301.288	494.12
301.518	510.12
301.748	506.12
301.979	524.12
302.209	582.12
302.439	591.12
302.669	578.12
302.9	546.12
303.13	496.12
303.36	512.12
303.59	512.12
303.82	526.12
304.051	499.12
304.281	516.12
304.511	520.12
304.741	573.12
304.971	612.12
305.201	634.12
305.431	563.12
305.661	477.12
305.891	464.12
306.121	459.12
306.352	496.12
306.582	519.12
306.812	548.12
307.042	546.12
307.272	577.12
307.502	596.12
307.731	628.12
307.961	652.12
308.191	576.12
308.421	532.12
308.651	498.12
308.881	502.12
309.111	485.12
309.341	491.12
309.571	482.12
309.8	510.12
310.03	492.12
310.26	502.12
310.49	483.12
310.72	524.12
310.949	532.12
311.179	506.12
311.409	528.12
311.639	509.12
311.868	513.12
312.098	513.12
312.328	502.12
312.557	500.12
312.787	509.12
313.017	525.12
313.246	526.12
313.476	529.12
313.706	512.12
313.935	533.12
314.165	532.12
314.394	556.12
314.624	573.12
314.853	611.12
315.083	633.12
315.312	631.12
315.542	594.12
315.771	536.12
316.001	567.12
316.23	565.12
316.46	550.12
316.689	536.12
316.919	530.12
317.148	524.12
317.377	557.12
317.607	581.12
317.836	647.12
318.065	620.12
318.295	606.12
318.524	602.12
318.753	570.12
318.983	552.12
319.212	545.12
319.441	547.12
319.67	549.12
319.9	561.12
320.129	604.12
320.358	617.12
320.587	604.12
320.816	604.12
321.046	599.12
321.275	577.12
321.504	594.12
321.733	609.12
321.962	597.12
322.191	551.12
322.42	554.12
322.649	555.12
322.878	548.12
323.108	569.12
323.337	568.12
323.566	590.12
323.795	578.12
324.024	573.12
324.253	565.12
324.482	547.12
324.71	538.12
324.939	539.12
325.168	550.12
325.397	570.12
325.626	564.12
325.855	559.12
326.084	544.12
326.313	540.12
326.542	554.12
326.77	615.12
326.999	588.12
327.228	534.12
327.457	561.12
327.686	541.12
327.914	545.12
328.143	564.12
328.372	556.12
328.6	565.12
328.829	571.12
329.058	521.12
329.287	544.12
329.515	570.12
329.744	582.12
329.972	593.12
330.201	630.12
330.43	588.12
330.658	614.12
330.887	582.12
331.115	597.12
331.344	601.12
331.572	594.12
331.801	595.12
332.03	610.12
332.258	614.12
332.486	602.12
332.715	597.12
332.943	604.12
333.172	588.12
333.4	613.12
333.629	611.12
333.857	702.12
334.085	747.12
334.314	820.12
334.542	867.12
334.771	760.12
334.999	700.12
335.227	665.12
335.455	634.12
335.684	597.12
335.912	670.12
336.14	654.12
336.369	609.12
336.597	599.12
336.825	584.12
337.053	639.12
337.281	664.12
337.51	692.12
337.738	708.12
337.966	666.12
338.194	630.12
338.422	606.12
338.65	607.12
338.878	585.12
339.106	575.12
339.334	573.12
339.562	576.12
339.79	583.12
340.018	603.12
340.246	642.12
340.474	638.12
340.702	612.12
340.93	601.12
341.158	624.12
341.386	626.12
341.614	610.12
341.842	562.12
342.07	610.12
342.298	598.12
342.526	594.12
342.754	597.12
342.981	613.12
343.209	578.12
343.437	594.12
343.665	594.12
343.893	620.12
344.12	633.12
344.348	626.12
344.576	632.12
344.804	597.12
345.031	588.12
345.259	595.12
345.487	560.12
345.714	563.12
345.942	567.12
346.17	570.12
346.397	558.12
346.625	585.12
346.853	554.12
347.08	552.12
347.308	530.12
347.535	560.12
347.763	591.12
347.99	584.12
348.218	556.12
348.445	564.12
348.673	565.12
348.9	585.12
349.128	602.12
349.355	615.12
349.583	590.12
349.81	573.12
350.037	529.12
350.265	527.12
350.492	545.12
350.72	564.12
350.947	588.12
351.174	587.12
351.402	567.12
351.629	544.12
351.856	514.12
352.083	523.12
352.311	518.12
352.538	561.12
352.765	594.12
352.992	594.12
353.22	539.12
353.447	537.12
353.674	564.12
353.901	545.12
354.128	562.12
354.355	574.12
354.583	605.12
354.81	603.12
355.037	581.12
355.264	542.12
355.491	578.12
355.718	574.12
355.945	529.12
356.172	572.12
356.399	563.12
356.626	553.12
356.853	599.12
357.08	662.12
357.307	700.12
357.534	650.12
357.761	589.12
357.988	554.12
358.215	544.12
358.441	546.12
358.668	547.12
358.895	566.12
359.122	600.12
359.349	650.12
359.576	600.12
359.802	558.12
360.029	539.12
360.256	539.12
360.483	553.12
360.709	593.12
360.936	607.12
361.163	637.12
361.39	664.12
361.616	699.12
361.843	700.12
362.07	644.12
362.296	568.12
362.523	573.12
362.749	576.12
362.976	554.12
363.203	581.12
363.429	576.12
363.656	542.12
363.882	611.12
364.109	658.12
364.335	660.12
364.562	642.12
364.788	619.12
365.015	586.12
365.241	549.12
365.468	588.12
365.694	598.12
365.92	616.12
366.147	589.12
366.373	562.12
366.599	548.12
366.826	569.12
367.052	566.12
367.278	572.12
367.505	584.12
367.731	607.12
367.957	595.12
368.184	629.12
368.41	683.12
368.636	645.12
368.862	658.12
369.089	691.12
369.315	634.12
369.541	621.12
369.767	600.12
369.993	579.12
370.219	611.12
370.445	605.12
370.672	646.12
370.898	674.12
371.124	640.12
371.35	625.12
371.576	646.12
371.802	664.12
372.028	633.12
372.254	626.12
372.48	589.12
372.706	574.12
372.932	590.12
373.158	616.12
373.384	629.12
373.61	630.12
373.835	665.12
374.061	641.12
374.287	612.12
374.513	626.12
374.739	618.12
374.965	650.12
375.191	643.12
375.416	625.12
375.642	661.12
375.868	682.12
376.094	702.12
376.319	676.12
376.545	644.12
376.771	648.12
376.997	676.12
377.222	684.12
377.448	643.12
377.674	672.12
377.899	678.12
378.125	714.12
378.35	715.12
378.576	614.12
378.802	601.12
379.027	639.12
379.253	634.12
379.478	645.12
379.704	653.12
379.929	649.12
380.155	649.12
380.38	666.12
380.606	666.12
380.831	671.12
381.057	717.12
381.282	704.12
381.507	667.12
381.733	747.12
381.958	742.12
382.184	679.12
382.409	643.12
382.634	698.12
382.86	662.12
383.085	658.12
383.31	711.12
383.535	779.12
383.761	773.12
383.986	763.12
384.211	716.12
384.436	742.12
384.662	764.12
384.887	778.12
385.112	734.12
385.337	732.12
385.562	761.12
385.787	752.12
386.013	770.12
386.238	756.12
386.463	747.12
386.688	836.12
386.913	872.12
387.138	827.12
387.363	785.12
387.588	772.12
387.813	753.12
388.038	768.12
388.263	779.12
388.488	754.12
388.713	735.12
388.938	708.12
389.163	715.12
389.387	717.12
389.612	749.12
389.837	782.12
390.062	755.12
390.287	748.12
390.512	756.12
390.736	721.12
390.961	724.12
391.186	742.12
391.411	754.12
391.636	747.12
391.86	755.12
392.085	732.12
392.31	748.12
392.534	777.12
392.759	768.12
392.984	761.12
393.208	751.12
393.433	813.12
393.658	842.12
393.882	823.12
394.107	788.12
394.331	765.12
394.556	746.12
394.78	766.12
395.005	821.12
395.229	828.12
395.454	878.12
395.678	885.12
395.903	826.12
396.127	792.12
396.352	830.12
396.576	855.12
396.801	828.12
397.025	836.12
397.249	840.12
397.474	811.12
397.698	822.12
397.922	871.12
398.147	886.12
398.371	880.12
398.595	887.12
398.82	839.12
399.044	868.12
399.268	929.12
399.492	946.12
399.717	990.12
399.941	973.12
400.165	940.12
400.389	924.12
400.613	973.12
400.837	1129.12
401.062	1153.12
401.286	1057.12
401.51	962.12
401.734	982.12
401.958	949.12
402.182	906.12
402.406	892.12
402.63	870.12
402.854	878.12
403.078	892.12
403.302	910.12
403.526	911.12
403.75	917.12
403.974	948.12
404.198	937.12
404.422	993.12
404.645	1003.12
404.869	941.12
405.093	918.12
405.317	908.12
405.541	945.12
405.765	936.12
405.988	936.12
406.212	930.12
406.436	951.12
406.66	999.12
406.883	1040.12
407.107	1140.12
407.331	1210.12
407.555	1282.12
407.778	1125.12
408.002	960.12
408.226	970.12
408.449	943.12
408.673	956.12
408.896	957.12
409.12	952.12
409.344	938.12
409.567	928.12
409.791	963.12
410.014	971.12
410.238	1002.12
410.461	1057.12
410.685	956.12
410.908	918.12
411.132	980.12
411.355	926.12
411.578	920.12
411.802	921.12
412.025	946.12
412.249	948.12
412.472	908.12
412.695	885.12
412.919	903.12
413.142	878.12
413.365	929.12
413.589	968.12
413.812	979.12
414.035	999.12
414.258	936.12
414.482	904.12
414.705	933.12
414.928	924.12
415.151	936.12
415.374	934.12
415.597	926.12
415.821	929.12
416.044	919.12
416.267	912.12
416.49	908.12
416.713	905.12
416.936	960.12
417.159	972.12
417.382	962.12
417.605	920.12
417.828	890.12
418.051	932.12
418.274	944.12
418.497	924.12
418.72	918.12
418.943	867.12
419.166	937.12
419.389	997.12
419.611	966.12
419.834	925.12
420.057	936.12
420.28	947.12
420.503	949.12
420.726	982.12
420.948	975.12
421.171	910.12
421.394	915.12
421.617	985.12
421.839	972.12
422.062	957.12
422.285	935.12
422.507	922.12
422.73	891.12
422.953	894.12
423.175	898.12
423.398	917.12
423.621	900.12
423.843	934.12
424.066	966.12
424.288	1013.12
424.511	1066.12
424.733	958.12
424.956	930.12
425.178	932.12
425.401	947.12
425.623	948.12
425.846	914.12
426.068	954.12
426.291	974.12
426.513	948.12
426.735	922.12
426.958	1062.12
427.18	1051.12
427.402	990.12
427.625	1010.12
427.847	971.12
428.069	944.12
428.292	922.12
428.514	897.12
428.736	880.12
428.958	924.12
429.181	925.12
429.403	1052.12
429.625	1222.12
429.847	1034.12
430.069	933.12
430.292	1032.12
430.514	1046.12
430.736	970.12
430.958	978.12
431.18	928.12
431.402	877.12
431.624	879.12
431.846	812.12
432.068	730.12
432.29	756.12
432.512	820.12
432.734	889.12
432.956	936.12
433.178	964.12
433.4	965.12
433.622	925.12
433.844	904.12
434.066	830.12
434.287	790.12
434.509	789.12
434.731	819.12
434.953	908.12
435.175	938.12
435.397	910.12
435.618	891.12
435.84	851.12
436.062	854.12
436.284	876.12
436.505	921.12
436.727	930.12
436.949	921.12
437.17	934.12
437.392	876.12
437.614	865.12
437.835	792.12
438.057	822.12
438.278	830.12
438.5	848.12
438.721	898.12
438.943	928.12
439.165	947.12
439.386	933.12
439.608	951.12
439.829	930.12
440.05	931.12
440.272	963.12
440.493	930.12
440.715	956.12
440.936	1032.12
441.158	1043.12
441.379	1051.12
441.6	1061.12
441.822	989.12
442.043	1021.12
442.264	1005.12
442.486	970.12
442.707	966.12
442.928	960.12
443.149	985.12
443.371	1011.12
443.592	1004.12
443.813	1003.12
444.034	973.12
444.255	1019.12
444.476	1004.12
444.698	1051.12
444.919	1055.12
445.14	1139.12
445.361	1063.12
445.582	1090.12
445.803	1046.12
446.024	1045.12
446.245	1064.12
446.466	1062.12
446.687	1030.12
446.908	1059.12
447.129	1046.12
447.35	1001.12
447.571	1012.12
447.792	939.12
448.013	962.12
448.234	971.12
448.455	993.12
448.675	970.12
448.896	941.12
449.117	929.12
449.338	935.12
449.559	946.12
449.779	956.12
450	1032.12
450.221	1050.12
450.442	1040.12
450.662	916.12
450.883	882.12
451.104	884.12
451.324	883.12
451.545	883.12
451.766	867.12
451.986	834.12
452.207	813.12
452.428	790.12
452.648	778.12
452.869	787.12
453.089	760.12
453.31	779.12
453.53	766.12
453.751	722.12
453.971	704.12
454.192	738.12
454.412	756.12
454.633	760.12
454.853	771.12
455.073	760.12
455.294	780.12
455.514	763.12
455.734	748.12
455.955	783.12
456.175	745.12
456.395	737.12
456.616	733.12
456.836	765.12
457.056	734.12
457.276	738.12
457.497	701.12
457.717	696.12
457.937	709.12
458.157	725.12
458.377	698.12
458.598	665.12
458.818	677.12
459.038	690.12
459.258	732.12
459.478	726.12
459.698	698.12
459.918	733.12
460.138	800.12
460.358	822.12
460.578	835.12
460.798	874.12
461.018	886.12
461.238	882.12
461.458	901.12
461.678	843.12
461.898	820.12
462.118	840.12
462.338	850.12
462.558	874.12
462.777	847.12
462.997	866.12
463.217	892.12
463.437	873.12
463.657	857.12
463.876	838.12
464.096	832.12
464.316	850.12
464.536	857.12
464.755	863.12
464.975	842.12
465.195	882.12
465.414	893.12
465.634	854.12
465.854	902.12
466.073	982.12
466.293	952.12
466.512	874.12
466.732	875.12
466.951	890.12
467.171	898.12
467.391	877.12
467.61	890.12
467.829	924.12
468.049	991.12
468.268	1076.12
468.488	977.12
468.707	932.12
468.927	940.12
469.146	909.12
469.365	912.12
469.585	923.12
469.804	892.12
470.023	938.12
470.243	930.12
470.462	934.12
470.681	933.12
470.901	915.12
471.12	918.12
471.339	939.12
471.558	934.12
471.777	867.12
471.997	928.12
472.216	841.12
472.435	794.12
472.654	745.12
472.873	761.12
473.092	841.12
473.311	829.12
473.53	823.12
473.749	822.12
473.968	867.12
474.187	842.12
474.406	846.12
474.625	846.12
474.844	892.12
475.063	866.12
475.282	862.12
475.501	810.12
475.72	854.12
475.939	934.12
476.158	887.12
476.377	856.12
476.596	853.12
476.814	823.12
477.033	782.12
477.252	827.12
477.471	890.12
477.69	926.12
477.908	949.12
478.127	982.12
478.346	998.12
478.564	1013.12
478.783	991.12
479.002	1020.12
479.22	1009.12
479.439	1015.12
479.658	1036.12
479.876	993.12
480.095	922.12
480.313	888.12
480.532	905.12
480.751	870.12
480.969	832.12
481.188	792.12
481.406	779.12
481.624	782.12
481.843	770.12
482.061	810.12
482.28	849.12
482.498	890.12
482.717	835.12
482.935	896.12
483.153	979.12
483.372	1035.12
483.59	1013.12
483.808	972.12
484.027	964.12
484.245	1000.12
484.463	1195.12
484.681	1289.12
484.9	1034.12
485.118	966.12
485.336	924.12
485.554	924.12
485.772	913.12
485.99	887.12
486.209	904.12
486.427	919.12
486.645	924.12
486.863	981.12
487.081	1038.12
487.299	1003.12
487.517	1013.12
487.735	1099.12
487.953	1172.12
488.171	1176.12
488.389	1154.12
488.607	1096.12
488.825	1132.12
489.043	1042.12
489.261	986.12
489.479	1028.12
489.696	1060.12
489.914	1032.12
490.132	1028.12
490.35	1085.12
490.568	1160.12
490.786	1187.12
491.003	1176.12
491.221	1216.12
491.439	1285.12
491.657	1295.12
491.874	1371.12
492.092	1460.12
492.31	1478.12
492.527	1433.12
492.745	1348.12
492.963	1310.12
493.18	1324.12
493.398	1370.12
493.615	1346.12
493.833	1252.12
494.05	1209.12
494.268	1242.12
494.485	1224.12
494.703	1233.12
494.92	1241.12
495.138	1248.12
495.355	1242.12
495.573	1248.12
495.79	1244.12
496.008	1287.12
496.225	1246.12
496.442	1248.12
496.66	1216.12
496.877	1179.12
497.094	1210.12
497.312	1242.12
497.529	1182.12
497.746	1202.12
497.963	1272.12
498.181	1281.12
498.398	1260.12
498.615	1196.12
498.832	1164.12
499.049	1136.12
499.267	1207.12
499.484	1231.12
499.701	1326.12
499.918	1359.12
500.135	1494.12
500.352	1570.12
500.569	1568.12
500.786	1698.12
501.003	1522.12
501.22	1413.12
501.437	1412.12
501.654	1373.12
501.871	1345.12
502.088	1212.12
502.305	1218.12
502.522	1149.12
502.739	1091.12
502.956	1088.12
503.172	1066.12
503.389	1011.12
503.606	998.12
503.823	989.12
504.04	995.12
504.256	1000.12
504.473	1009.12
504.69	1003.12
504.907	958.12
505.123	977.12
505.34	1074.12
505.557	1358.12
505.773	1076.12
505.99	957.12
506.207	906.12
506.423	875.12
506.64	906.12
506.856	904.12
507.073	1027.12
507.289	1078.12
507.506	1009.12
507.722	881.12
507.939	827.12
508.155	854.12
508.372	861.12
508.588	827.12
508.805	797.12
509.021	803.12
509.238	772.12
509.454	749.12
509.67	761.12
509.887	712.12
510.103	740.12
510.319	741.12
510.536	775.12
510.752	775.12
510.968	742.12
511.184	820.12
511.401	766.12
511.617	713.12
511.833	698.12
512.049	721.12
512.265	710.12
512.481	694.12
512.698	736.12
512.914	780.12
513.13	768.12
513.346	701.12
513.562	699.12
513.778	730.12
513.994	747.12
514.21	754.12
514.426	756.12
514.642	826.12
514.858	773.12
515.074	746.12
515.29	701.12
515.506	720.12
515.721	728.12
515.937	753.12
516.153	824.12
516.369	774.12
516.585	775.12
516.801	744.12
517.016	738.12
517.232	773.12
517.448	780.12
517.664	783.12
517.879	772.12
518.095	835.12
518.311	801.12
518.527	767.12
518.742	743.12
518.958	752.12
519.173	743.12
519.389	781.12
519.605	803.12
519.82	785.12
520.036	774.12
520.251	753.12
520.467	784.12
520.682	812.12
520.898	832.12
521.113	733.12
521.329	717.12
521.544	764.12
521.76	742.12
521.975	715.12
522.19	706.12
522.406	752.12
522.621	934.12
522.836	877.12
523.052	739.12
523.267	752.12
523.482	777.12
523.698	740.12
523.913	737.12
524.128	771.12
524.343	828.12
524.559	843.12
524.774	786.12
524.989	765.12
525.204	776.12
525.419	755.12
525.634	720.12
525.849	734.12
526.064	717.12
526.28	705.12
526.495	660.12
526.71	662.12
526.925	648.12
527.14	603.12
527.355	605.12
527.57	619.12
527.785	659.12
527.999	638.12
528.214	661.12
528.429	697.12
528.644	736.12
528.859	778.12
529.074	834.12
529.289	901.12
529.503	877.12
529.718	809.12
529.933	718.12
530.148	666.12
530.363	681.12
530.577	641.12
530.792	631.12
531.007	624.12
531.221	628.12
531.436	620.12
531.651	668.12
531.865	675.12
532.08	652.12
532.295	615.12
532.509	611.12
532.724	612.12
532.938	652.12
533.153	698.12
533.367	710.12
533.582	724.12
533.796	732.12
534.011	711.12
534.225	640.12
534.44	645.12
534.654	655.12
534.868	657.12
535.083	677.12
535.297	680.12
535.511	676.12
535.726	679.12
535.94	654.12
536.154	636.12
536.369	599.12
536.583	610.12
536.797	584.12
537.011	624.12
537.225	588.12
537.44	599.12
537.654	641.12
537.868	613.12
538.082	599.12
538.296	624.12
538.51	631.12
538.724	680.12
538.938	721.12
539.153	746.12
539.367	747.12
539.581	674.12
539.795	682.12
540.009	648.12
540.222	628.12
540.436	691.12
540.65	757.12
540.864	815.12
541.078	794.12
541.292	852.12
541.506	884.12
541.72	947.12
541.934	1011.12
542.147	1065.12
542.361	1012.12
542.575	930.12
542.789	850.12
543.002	772.12
543.216	736.12
543.43	758.12
543.644	824.12
543.857	852.12
544.071	899.12
544.285	936.12
544.498	932.12
544.712	918.12
544.925	936.12
545.139	986.12
545.352	934.12
545.566	930.12
545.779	941.12
545.993	957.12
546.206	962.12
546.42	950.12
546.633	934.12
546.847	953.12
547.06	964.12
547.274	971.12
547.487	985.12
547.7	996.12
547.914	978.12
548.127	959.12
548.34	959.12
548.554	926.12
548.767	918.12
548.98	946.12
549.193	919.12
549.407	955.12
549.62	920.12
549.833	905.12
550.046	922.12
550.259	917.12
550.473	889.12
550.686	869.12
550.899	848.12
551.112	834.12
551.325	805.12
551.538	843.12
551.751	865.12
551.964	724.12
552.177	736.12
552.39	801.12
552.603	833.12
552.816	871.12
553.029	910.12
553.242	928.12
553.455	927.12
553.667	890.12
553.88	904.12
554.093	878.12
554.306	867.12
554.519	832.12
554.732	834.12
554.944	816.12
555.157	824.12
555.37	824.12
555.583	802.12
555.795	781.12
556.008	741.12
556.221	712.12
556.433	707.12
556.646	717.12
556.859	724.12
557.071	724.12
557.284	728.12
557.496	734.12
557.709	732.12
557.921	716.12
558.134	744.12
558.346	735.12
558.559	717.12
558.771	716.12
558.984	705.12
559.196	644.12
559.409	679.12
559.621	661.12
559.833	682.12
560.046	686.12
560.258	651.12
560.47	688.12
560.683	679.12
560.895	664.12
561.107	684.12
561.32	685.12
561.532	674.12
561.744	672.12
561.956	676.12
562.168	670.12
562.381	643.12
562.593	636.12
562.805	651.12
563.017	613.12
563.229	637.12
563.441	641.12
563.653	652.12
563.865	635.12
564.077	610.12
564.289	606.12
564.501	604.12
564.713	623.12
564.925	646.12
565.137	663.12
565.349	612.12
565.561	623.12
565.773	635.12
565.985	616.12
566.197	666.12
566.408	662.12
566.62	657.12
566.832	683.12
567.044	671.12
567.255	677.12
567.467	646.12
567.679	663.12
567.891	664.12
568.102	616.12
568.314	572.12
568.526	532.12
568.737	511.12
568.949	486.12
569.161	465.12
569.372	452.12
569.584	442.12
569.795	471.12
570.007	464.12
570.218	434.12
570.43	449.12
570.641	447.12
570.853	470.12
571.064	470.12
571.276	500.12
571.487	477.12
571.698	477.12
571.91	475.12
572.121	442.12
572.333	445.12
572.544	414.12
572.755	415.12
572.966	377.12
573.178	392.12
573.389	372.12
573.6	410.12
573.811	457.12
574.023	386.12
574.234	404.12
574.445	419.12
574.656	385.12
574.867	392.12
575.078	405.12
575.289	419.12
575.501	394.12
575.712	397.12
575.923	390.12
576.134	414.12
576.345	421.12
576.556	418.12
576.767	397.12
576.978	410.12
577.188	374.12
577.399	376.12
577.61	374.12
577.821	380.12
578.032	391.12
578.243	361.12
578.454	386.12
578.665	347.12
578.875	356.12
579.086	338.12
579.297	342.12
579.508	354.12
579.718	344.12
579.929	339.12
580.14	329.12
580.35	341.12
580.561	334.12
580.772	380.12
580.982	369.12
581.193	361.12
581.403	375.12
581.614	356.12
581.825	343.12
582.035	359.12
582.246	356.12
582.456	361.12
582.667	353.12
582.877	336.12
583.087	322.12
583.298	317.12
583.508	332.12
583.719	324.12
583.929	337.12
584.139	326.12
584.35	288.12
584.56	325.12
584.77	335.12
584.981	322.12
585.191	317.12
585.401	329.12
585.611	334.12
585.821	316.12
586.032	333.12
586.242	322.12
586.452	313.12
586.662	300.12
586.872	310.12
587.082	326.12
587.292	328.12
587.502	327.12
587.713	328.12
587.923	314.12
588.133	297.12
588.343	309.12
588.553	310.12
588.762	316.12
588.972	326.12
589.182	324.12
589.392	308.12
589.602	320.12
589.812	298.12
590.022	317.12
590.232	312.12
590.441	315.12
590.651	307.12
590.861	309.12
591.071	309.12
591.281	297.12
591.49	322.12
591.7	310.12
591.91	314.12
592.119	308.12
592.329	310.12
592.539	348.12
592.748	338.12
592.958	311.12
593.167	319.12
593.377	332.12
593.587	337.12
593.796	336.12
594.006	341.12
594.215	337.12
594.424	333.12
594.634	326.12
594.843	342.12
595.053	338.12
595.262	338.12
595.472	310.12
595.681	323.12
595.89	300.12
596.1	322.12
596.309	324.12
596.518	313.12
596.727	334.12
596.937	345.12
597.146	338.12
597.355	323.12
597.564	316.12
597.774	287.12
597.983	276.12
598.192	293.12
598.401	286.12
598.61	288.12
598.819	299.12
599.028	298.12
599.237	313.12
599.446	320.12
599.655	270.12
599.864	272.12
600.073	305.12
600.282	296.12
600.491	288.12
600.7	294.12
600.909	316.12
601.118	299.12
601.327	343.12
601.536	321.12
601.745	315.12
601.953	352.12
602.162	352.12
602.371	343.12
602.58	354.12
602.789	345.12
602.997	347.12
603.206	349.12
603.415	362.12
603.623	342.12
603.832	357.12
604.041	342.12
604.249	308.12
604.458	312.12
604.666	299.12
604.875	296.12
605.084	317.12
605.292	328.12
605.501	348.12
605.709	376.12
605.918	372.12
606.126	363.12
606.334	351.12
606.543	362.12
606.751	362.12
606.96	357.12
607.168	356.12
607.376	356.12
607.585	334.12
607.793	360.12
608.001	349.12
608.21	357.12
608.418	368.12
608.626	365.12
608.834	364.12
609.043	364.12
609.251	349.12
609.459	369.12
609.667	362.12
609.875	370.12
610.083	380.12
610.291	344.12
610.499	359.12
610.707	366.12
610.916	373.12
611.124	362.12
611.332	372.12
611.54	351.12
611.748	363.12
611.955	368.12
612.163	378.12
612.371	373.12
612.579	364.12
612.787	349.12
612.995	357.12
613.203	368.12
613.411	357.12
613.618	344.12
613.826	352.12
614.034	365.12
614.242	368.12
614.449	368.12
614.657	355.12
614.865	367.12
615.072	349.12
615.28	353.12
615.488	349.12
615.695	368.12
615.903	342.12
616.111	344.12
616.318	358.12
616.526	356.12
616.733	348.12
616.941	363.12
617.148	354.12
617.356	340.12
617.563	338.12
617.771	335.12
617.978	335.12
618.185	340.12
618.393	337.12
618.6	338.12
618.807	358.12
619.015	343.12
619.222	334.12
619.429	329.12
619.637	334.12
619.844	294.12
620.051	330.12
620.258	317.12
620.466	312.12
620.673	322.12
620.88	329.12
621.087	307.12
621.294	309.12
621.501	300.12
621.708	308.12
621.915	314.12
622.122	333.12
622.329	334.12
622.536	310.12
622.743	332.12
622.95	315.12
623.157	298.12
623.364	336.12
623.571	327.12
623.778	316.12
623.985	331.12
624.192	332.12
624.399	307.12
624.606	318.12
624.812	309.12
625.019	290.12
625.226	298.12
625.433	291.12
625.639	288.12
625.846	269.12
626.053	252.12
626.259	259.12
626.466	238.12
626.673	244.12
626.879	233.12
627.086	279.12
627.293	269.12
627.499	292.12
627.706	306.12
627.912	292.12
628.119	305.12
628.325	296.12
628.532	297.12
628.738	311.12
628.945	287.12
629.151	278.12
629.357	282.12
629.564	284.12
629.77	278.12
629.976	282.12
630.183	257.12
630.389	262.12
630.595	269.12
630.802	274.12
631.008	278.12
631.214	297.12
631.42	259.12
631.627	246.12
631.833	276.12
632.039	274.12
632.245	263.12
632.451	266.12
632.657	276.12
632.863	252.12
633.069	276.12
633.275	255.12
633.481	252.12
633.688	243.12
633.893	242.12
634.099	256.12
634.305	243.12
634.511	245.12
634.717	232.12
634.923	223.12
635.129	228.12
635.335	235.12
635.541	243.12
635.747	224.12
635.952	254.12
636.158	265.12
636.364	242.12
636.57	263.12
636.775	248.12
636.981	289.12
637.187	247.12
637.392	256.12
637.598	260.12
637.804	274.12
638.009	257.12
638.215	261.12
638.421	250.12
638.626	267.12
638.832	249.12
639.037	244.12
639.243	232.12
639.448	237.12
639.654	236.12
639.859	246.12
640.065	233.12
640.27	242.12
640.475	262.12
640.681	262.12
640.886	243.12
641.091	266.12
641.297	266.12
641.502	246.12
641.707	252.12
641.913	239.12
642.118	253.12
642.323	252.12
642.528	243.12
642.733	261.12
642.939	241.12
643.144	244.12
643.349	248.12
643.554	248.12
643.759	245.12
643.964	256.12
644.169	247.12
644.374	237.12
644.579	241.12
644.784	248.12
644.989	259.12
645.194	247.12
645.399	259.12
645.604	229.12
645.809	239.12
646.014	237.12
646.219	242.12
646.423	235.12
646.628	232.12
646.833	230.12
647.038	230.12
647.243	230.12
647.447	232.12
647.652	254.12
647.857	240.12
648.062	227.12
648.266	238.12
648.471	235.12
648.676	244.12
648.88	246.12
649.085	259.12
649.289	254.12
649.494	237.12
649.698	251.12
649.903	262.12
650.107	223.12
650.312	252.12
650.516	233.12
650.721	236.12
650.925	216.12
651.13	216.12
651.334	218.12
651.539	227.12
651.743	215.12
651.947	229.12
652.152	229.12
652.356	202.12
652.56	217.12
652.764	230.12
652.969	232.12
653.173	214.12
653.377	218.12
653.581	205.12
653.785	197.12
653.99	197.12
654.194	195.12
654.398	192.12
654.602	202.12
654.806	208.12
655.01	210.12
655.214	223.12
655.418	192.12
655.622	186.12
655.826	209.12
656.03	227.12
656.234	211.12
656.438	242.12
656.642	215.12
656.846	214.12
657.049	220.12
657.253	201.12
657.457	180.12
657.661	177.12
657.865	182.12
658.068	170.12
658.272	167.12
658.476	155.12
658.68	164.12
658.883	141.12
659.087	152.12
659.291	130.12
659.494	152.12
659.698	139.12
659.901	125.12
660.105	136.12
660.309	128.12
660.512	113.12
660.716	124.12
660.919	117.12
661.123	126.12
661.326	112.12
661.53	110.12
661.733	103.12
661.936	118.12
662.14	91.12
662.343	94.12
662.546	101.12
662.75	90.12
662.953	83.12
663.156	86.12
663.36	107.12
663.563	102.12
663.766	77.12
663.969	90.12
664.173	80.12
664.376	71.12
664.579	84.12
664.782	79.12
664.985	93.12
665.188	91.12
665.391	94.12
665.594	82.12
665.797	83.12
666	83.12
666.203	83.12
666.406	87.12
666.609	88.12
666.812	85.12
667.015	85.12
667.218	93.12
667.421	96.12
667.624	79.12
667.827	92.12
668.03	81.12
668.232	89.12
668.435	80.12
668.638	78.12
668.841	99.12
669.043	82.12
669.246	83.12
669.449	81.12
669.651	89.12
669.854	79.12
670.057	93.12
670.259	81.12
670.462	90.12
670.665	93.12
670.867	84.12
671.07	88.12
671.272	78.12
671.475	83.12
671.677	85.12
671.88	93.12
672.082	88.12
672.284	77.12
672.487	90.12
672.689	84.12
672.892	83.12
