Data from WStandard_LampEnergy5.5LIBS07252019.E.O._I.C._HRD10591_16-08-45-920.txt Node
Date: Thu Jul 25 16:08:45 EDT 2019
User: cochatt
Spectrometer: HR+D1059
Trigger mode: 1
Integration Time (sec): 1.000000E-1
Scans to average: 1
Electric dark correction enabled: true
Nonlinearity correction enabled: false
Boxcar width: 0
XAxis mode: Wavelengths
Number of Pixels in Spectrum: 2048
>>>>>Begin Spectral Data<<<<<
223.165	-21.38
223.4	-21.38
223.635	-21.38
223.869	-16.38
224.104	-12.38
224.338	-9.38
224.573	-18.38
224.808	-12.38
225.042	-19.38
225.277	-5.38
225.511	3.62
225.746	5.62
225.98	0.62
226.215	19.62
226.449	21.62
226.683	19.62
226.918	21.62
227.152	22.62
227.387	35.62
227.621	40.62
227.856	37.62
228.09	51.62
228.324	51.62
228.559	54.62
228.793	160.62
229.027	363.62
229.262	373.62
229.496	367.62
229.73	377.62
229.964	443.62
230.199	447.62
230.433	469.62
230.667	449.62
230.901	510.62
231.136	476.62
231.37	483.62
231.604	446.62
231.838	465.62
232.072	449.62
232.306	438.62
232.541	491.62
232.775	550.62
233.009	603.62
233.243	589.62
233.477	531.62
233.711	525.62
233.945	549.62
234.179	541.62
234.413	569.62
234.647	646.62
234.881	603.62
235.115	533.62
235.349	551.62
235.583	564.62
235.817	549.62
236.051	529.62
236.285	551.62
236.519	587.62
236.753	675.62
236.987	653.62
237.221	648.62
237.455	739.62
237.689	716.62
237.922	670.62
238.156	657.62
238.39	657.62
238.624	700.62
238.858	723.62
239.091	776.62
239.325	793.62
239.559	870.62
239.793	959.62
240.027	1040.62
240.26	1054.62
240.494	780.62
240.728	712.62
240.961	732.62
241.195	738.62
241.429	801.62
241.662	819.62
241.896	759.62
242.13	746.62
242.363	835.62
242.597	899.62
242.83	901.62
243.064	861.62
243.298	928.62
243.531	904.62
243.765	882.62
243.998	914.62
244.232	786.62
244.465	763.62
244.699	785.62
244.932	907.62
245.166	1023.62
245.399	981.62
245.633	905.62
245.866	901.62
246.099	946.62
246.333	945.62
246.566	966.62
246.8	1004.62
247.033	1160.62
247.266	1073.62
247.5	1083.62
247.733	1052.62
247.966	1097.62
248.2	1183.62
248.433	1165.62
248.666	1200.62
248.899	1291.62
249.133	1514.62
249.366	1719.62
249.599	1392.62
249.832	1209.62
250.066	1253.62
250.299	1293.62
250.532	1206.62
250.765	1055.62
250.998	1164.62
251.231	1201.62
251.465	1234.62
251.698	1161.62
251.931	1145.62
252.164	1187.62
252.397	1268.62
252.63	1258.62
252.863	1086.62
253.096	1085.62
253.329	1137.62
253.562	1166.62
253.795	1267.62
254.028	1235.62
254.261	1175.62
254.494	1158.62
254.727	1132.62
254.96	1130.62
255.193	1272.62
255.426	1423.62
255.659	1584.62
255.892	1662.62
256.124	1353.62
256.357	1291.62
256.59	1418.62
256.823	1445.62
257.056	1416.62
257.289	1692.62
257.521	1878.62
257.754	1687.62
257.987	1537.62
258.22	1781.62
258.452	1733.62
258.685	1413.62
258.918	1347.62
259.151	1401.62
259.383	1319.62
259.616	1178.62
259.849	1207.62
260.081	1400.62
260.314	1516.62
260.547	1673.62
260.779	1711.62
261.012	1573.62
261.244	1436.62
261.477	1377.62
261.71	1403.62
261.942	1387.62
262.175	1373.62
262.407	1443.62
262.64	1362.62
262.872	1268.62
263.105	1218.62
263.337	1242.62
263.57	1287.62
263.802	1258.62
264.035	1215.62
264.267	1128.62
264.499	1108.62
264.732	1225.62
264.964	1303.62
265.197	1343.62
265.429	1379.62
265.661	1584.62
265.894	1733.62
266.126	1790.62
266.358	1550.62
266.591	1626.62
266.823	1810.62
267.055	1617.62
267.287	1586.62
267.52	1548.62
267.752	1542.62
267.984	1537.62
268.216	1616.62
268.448	1657.62
268.681	1649.62
268.913	1495.62
269.145	1431.62
269.377	1369.62
269.609	1504.62
269.841	1733.62
270.073	1992.62
270.306	2217.62
270.538	2431.62
270.77	2027.62
271.002	1699.62
271.234	1622.62
271.466	1593.62
271.698	1826.62
271.93	2170.62
272.162	2213.62
272.394	1973.62
272.626	1905.62
272.858	1665.62
273.09	1452.62
273.322	1442.62
273.553	1391.62
273.785	1367.62
274.017	1422.62
274.249	1567.62
274.481	1595.62
274.713	1443.62
274.945	1384.62
275.176	1422.62
275.408	1395.62
275.64	1396.62
275.872	1357.62
276.104	1445.62
276.335	1602.62
276.567	1863.62
276.799	1941.62
277.031	1721.62
277.262	1583.62
277.494	1631.62
277.726	1868.62
277.957	1827.62
278.189	1619.62
278.421	1554.62
278.652	1479.62
278.884	1427.62
279.115	1479.62
279.347	1517.62
279.579	1472.62
279.81	1442.62
280.042	1627.62
280.273	1758.62
280.505	1763.62
280.736	1797.62
280.968	1687.62
281.199	1497.62
281.431	1419.62
281.662	1467.62
281.894	1432.62
282.125	1435.62
282.356	1560.62
282.588	1535.62
282.819	1535.62
283.051	1647.62
283.282	1809.62
283.513	1738.62
283.745	1492.62
283.976	1408.62
284.207	1421.62
284.439	1467.62
284.67	1480.62
284.901	1507.62
285.132	1543.62
285.364	1503.62
285.595	1533.62
285.826	1539.62
286.057	1495.62
286.288	1475.62
286.52	1513.62
286.751	1641.62
286.982	1699.62
287.213	1612.62
287.444	1445.62
287.675	1440.62
287.906	1511.62
288.138	1660.62
288.369	1626.62
288.6	1521.62
288.831	1438.62
289.062	1497.62
289.293	1474.62
289.524	1483.62
289.755	1584.62
289.986	1583.62
290.217	1449.62
290.448	1487.62
290.679	1502.62
290.91	1536.62
291.141	1549.62
291.371	1590.62
291.602	1585.62
291.833	1572.62
292.064	1640.62
292.295	1594.62
292.526	1638.62
292.757	1700.62
292.987	1634.62
293.218	1516.62
293.449	1656.62
293.68	1889.62
293.91	1997.62
294.141	1859.62
294.372	1746.62
294.603	1835.62
294.833	1916.62
295.064	1832.62
295.295	1657.62
295.525	1592.62
295.756	1459.62
295.987	1407.62
296.217	1469.62
296.448	1477.62
296.679	1493.62
296.909	1480.62
297.14	1496.62
297.37	1503.62
297.601	1564.62
297.831	1706.62
298.062	1717.62
298.292	1591.62
298.523	1507.62
298.753	1483.62
298.984	1501.62
299.214	1540.62
299.445	1535.62
299.675	1628.62
299.905	1623.62
300.136	1565.62
300.366	1519.62
300.597	1495.62
300.827	1472.62
301.057	1522.62
301.288	1605.62
301.518	1615.62
301.748	1648.62
301.979	1733.62
302.209	1756.62
302.439	1852.62
302.669	1955.62
302.9	1817.62
303.13	1661.62
303.36	1608.62
303.59	1660.62
303.82	1659.62
304.051	1641.62
304.281	1660.62
304.511	1649.62
304.741	1691.62
304.971	1889.62
305.201	2067.62
305.431	1899.62
305.661	1612.62
305.891	1444.62
306.121	1420.62
306.352	1479.62
306.582	1553.62
306.812	1655.62
307.042	1781.62
307.272	1797.62
307.502	1815.62
307.731	1992.62
307.961	2129.62
308.191	1969.62
308.421	1709.62
308.651	1559.62
308.881	1557.62
309.111	1598.62
309.341	1560.62
309.571	1595.62
309.8	1562.62
310.03	1540.62
310.26	1566.62
310.49	1573.62
310.72	1596.62
310.949	1642.62
311.179	1717.62
311.409	1686.62
311.639	1640.62
311.868	1545.62
312.098	1579.62
312.328	1569.62
312.557	1573.62
312.787	1604.62
313.017	1666.62
313.246	1636.62
313.476	1622.62
313.706	1674.62
313.935	1665.62
314.165	1695.62
314.394	1678.62
314.624	1795.62
314.853	1924.62
315.083	1935.62
315.312	2044.62
315.542	1918.62
315.771	1750.62
316.001	1692.62
316.23	1807.62
316.46	1811.62
316.689	1747.62
316.919	1667.62
317.148	1593.62
317.377	1644.62
317.607	1714.62
317.836	1957.62
318.065	2036.62
318.295	1944.62
318.524	1845.62
318.753	1803.62
318.983	1759.62
319.212	1723.62
319.441	1688.62
319.67	1651.62
319.9	1700.62
320.129	1797.62
320.358	1871.62
320.587	1941.62
320.816	1911.62
321.046	1882.62
321.275	1781.62
321.504	1795.62
321.733	1965.62
321.962	1869.62
322.191	1724.62
322.42	1731.62
322.649	1717.62
322.878	1707.62
323.108	1685.62
323.337	1822.62
323.566	1797.62
323.795	1776.62
324.024	1777.62
324.253	1726.62
324.482	1747.62
324.71	1675.62
324.939	1635.62
325.168	1621.62
325.397	1699.62
325.626	1754.62
325.855	1803.62
326.084	1709.62
326.313	1699.62
326.542	1766.62
326.77	1779.62
326.999	1805.62
327.228	1751.62
327.457	1651.62
327.686	1648.62
327.914	1673.62
328.143	1717.62
328.372	1724.62
328.6	1722.62
328.829	1714.62
329.058	1695.62
329.287	1658.62
329.515	1706.62
329.744	1740.62
329.972	1827.62
330.201	1895.62
330.43	1845.62
330.658	1824.62
330.887	1845.62
331.115	1837.62
331.344	1844.62
331.572	1789.62
331.801	1784.62
332.03	1797.62
332.258	1827.62
332.486	1855.62
332.715	1848.62
332.943	1833.62
333.172	1805.62
333.4	1819.62
333.629	1842.62
333.857	1952.62
334.085	2137.62
334.314	2410.62
334.542	2672.62
334.771	2471.62
334.999	2176.62
335.227	2057.62
335.455	1934.62
335.684	1937.62
335.912	1952.62
336.14	2032.62
336.369	1957.62
336.597	1849.62
336.825	1823.62
337.053	1887.62
337.281	1996.62
337.51	2061.62
337.738	2158.62
337.966	2071.62
338.194	1892.62
338.422	1831.62
338.65	1799.62
338.878	1806.62
339.106	1711.62
339.334	1762.62
339.562	1707.62
339.79	1716.62
340.018	1827.62
340.246	1896.62
340.474	1890.62
340.702	1855.62
340.93	1886.62
341.158	1827.62
341.386	1793.62
341.614	1802.62
341.842	1782.62
342.07	1785.62
342.298	1815.62
342.526	1793.62
342.754	1754.62
342.981	1735.62
343.209	1759.62
343.437	1751.62
343.665	1773.62
343.893	1817.62
344.12	1907.62
344.348	1947.62
344.576	1874.62
344.804	1776.62
345.031	1801.62
345.259	1807.62
345.487	1758.62
345.714	1684.62
345.942	1666.62
346.17	1692.62
346.397	1714.62
346.625	1719.62
346.853	1640.62
347.08	1607.62
347.308	1580.62
347.535	1656.62
347.763	1726.62
347.99	1697.62
348.218	1623.62
348.445	1624.62
348.673	1648.62
348.9	1721.62
349.128	1775.62
349.355	1836.62
349.583	1771.62
349.81	1724.62
350.037	1557.62
350.265	1541.62
350.492	1576.62
350.72	1620.62
350.947	1632.62
351.174	1736.62
351.402	1610.62
351.629	1581.62
351.856	1546.62
352.083	1545.62
352.311	1556.62
352.538	1599.62
352.765	1663.62
352.992	1719.62
353.22	1653.62
353.447	1569.62
353.674	1647.62
353.901	1675.62
354.128	1607.62
354.355	1584.62
354.583	1661.62
354.81	1700.62
355.037	1693.62
355.264	1682.62
355.491	1666.62
355.718	1676.62
355.945	1639.62
356.172	1610.62
356.399	1594.62
356.626	1601.62
356.853	1673.62
357.08	1739.62
357.307	1956.62
357.534	1951.62
357.761	1713.62
357.988	1604.62
358.215	1573.62
358.441	1583.62
358.668	1567.62
358.895	1597.62
359.122	1663.62
359.349	1833.62
359.576	1862.62
359.802	1691.62
360.029	1613.62
360.256	1576.62
360.483	1546.62
360.709	1644.62
360.936	1700.62
361.163	1732.62
361.39	1867.62
361.616	2077.62
361.843	2020.62
362.07	1961.62
362.296	1683.62
362.523	1631.62
362.749	1647.62
362.976	1638.62
363.203	1680.62
363.429	1640.62
363.656	1580.62
363.882	1621.62
364.109	1775.62
364.335	1939.62
364.562	1800.62
364.788	1739.62
365.015	1713.62
365.241	1652.62
365.468	1640.62
365.694	1698.62
365.92	1808.62
366.147	1681.62
366.373	1620.62
366.599	1591.62
366.826	1561.62
367.052	1601.62
367.278	1594.62
367.505	1679.62
367.731	1651.62
367.957	1668.62
368.184	1698.62
368.41	1832.62
368.636	1844.62
368.862	1803.62
369.089	1799.62
369.315	1753.62
369.541	1701.62
369.767	1677.62
369.993	1627.62
370.219	1645.62
370.445	1660.62
370.672	1750.62
370.898	1778.62
371.124	1841.62
371.35	1700.62
371.576	1815.62
371.802	1860.62
372.028	1777.62
372.254	1711.62
372.48	1695.62
372.706	1633.62
372.932	1680.62
373.158	1635.62
373.384	1685.62
373.61	1731.62
373.835	1825.62
374.061	1739.62
374.287	1752.62
374.513	1725.62
374.739	1731.62
374.965	1705.62
375.191	1779.62
375.416	1767.62
375.642	1795.62
375.868	1852.62
376.094	1943.62
376.319	1840.62
376.545	1697.62
376.771	1753.62
376.997	1836.62
377.222	1848.62
377.448	1785.62
377.674	1763.62
377.899	1795.62
378.125	1899.62
378.35	1856.62
378.576	1735.62
378.802	1668.62
379.027	1672.62
379.253	1710.62
379.478	1745.62
379.704	1699.62
379.929	1703.62
380.155	1725.62
380.38	1751.62
380.606	1792.62
380.831	1756.62
381.057	1809.62
381.282	1823.62
381.507	1763.62
381.733	1869.62
381.958	1988.62
382.184	1853.62
382.409	1739.62
382.634	1808.62
382.86	1770.62
383.085	1768.62
383.31	1810.62
383.535	1941.62
383.761	2100.62
383.986	2002.62
384.211	1930.62
384.436	1923.62
384.662	1999.62
384.887	2101.62
385.112	1983.62
385.337	2007.62
385.562	1967.62
385.787	1969.62
386.013	2003.62
386.238	2039.62
386.463	1980.62
386.688	2093.62
386.913	2251.62
387.138	2176.62
387.363	2019.62
387.588	2031.62
387.813	2030.62
388.038	1994.62
388.263	2115.62
388.488	2024.62
388.713	1881.62
388.938	1884.62
389.163	1896.62
389.387	2007.62
389.612	1933.62
389.837	1983.62
390.062	1967.62
390.287	1964.62
390.512	1985.62
390.736	1933.62
390.961	1923.62
391.186	1834.62
391.411	1901.62
391.636	1921.62
391.86	1957.62
392.085	2001.62
392.31	1906.62
392.534	1956.62
392.759	1978.62
392.984	1951.62
393.208	1985.62
393.433	2034.62
393.658	2068.62
393.882	2118.62
394.107	1984.62
394.331	1957.62
394.556	1961.62
394.78	1988.62
395.005	2047.62
395.229	2080.62
395.454	2214.62
395.678	2269.62
395.903	2197.62
396.127	2071.62
396.352	2075.62
396.576	2133.62
396.801	2185.62
397.025	2101.62
397.249	2105.62
397.474	2121.62
397.698	2122.62
397.922	2204.62
398.147	2241.62
398.371	2352.62
398.595	2336.62
398.82	2224.62
399.044	2295.62
399.268	2386.62
399.492	2549.62
399.717	2591.62
399.941	2695.62
400.165	2588.62
400.389	2496.62
400.613	2433.62
400.837	2711.62
401.062	3131.62
401.286	2702.62
401.51	2457.62
401.734	2567.62
401.958	2493.62
402.182	2313.62
402.406	2219.62
402.63	2209.62
402.854	2199.62
403.078	2260.62
403.302	2271.62
403.526	2363.62
403.75	2335.62
403.974	2378.62
404.198	2340.62
404.422	2409.62
404.645	2515.62
404.869	2494.62
405.093	2329.62
405.317	2236.62
405.541	2361.62
405.765	2355.62
405.988	2332.62
406.212	2338.62
406.436	2474.62
406.66	2515.62
406.883	2463.62
407.107	2816.62
407.331	3075.62
407.555	3275.62
407.778	3087.62
408.002	2505.62
408.226	2435.62
408.449	2476.62
408.673	2392.62
408.896	2397.62
409.12	2457.62
409.344	2384.62
409.567	2305.62
409.791	2321.62
410.014	2394.62
410.238	2531.62
410.461	2635.62
410.685	2440.62
410.908	2233.62
411.132	2309.62
411.355	2275.62
411.578	2311.62
411.802	2312.62
412.025	2320.62
412.249	2250.62
412.472	2239.62
412.695	2168.62
412.919	2222.62
413.142	2189.62
413.365	2227.62
413.589	2282.62
413.812	2348.62
414.035	2434.62
414.258	2268.62
414.482	2213.62
414.705	2254.62
414.928	2202.62
415.151	2186.62
415.374	2248.62
415.597	2284.62
415.821	2262.62
416.044	2330.62
416.267	2347.62
416.49	2151.62
416.713	2132.62
416.936	2226.62
417.159	2260.62
417.382	2323.62
417.605	2217.62
417.828	2268.62
418.051	2298.62
418.274	2190.62
418.497	2146.62
418.72	2175.62
418.943	2124.62
419.166	2263.62
419.389	2394.62
419.611	2271.62
419.834	2223.62
420.057	2278.62
420.28	2157.62
420.503	2142.62
420.726	2211.62
420.948	2159.62
421.171	2160.62
421.394	2174.62
421.617	2243.62
421.839	2193.62
422.062	2113.62
422.285	2135.62
422.507	2123.62
422.73	2093.62
422.953	2032.62
423.175	2068.62
423.398	2125.62
423.621	2117.62
423.843	2115.62
424.066	2163.62
424.288	2225.62
424.511	2329.62
424.733	2241.62
424.956	2077.62
425.178	2031.62
425.401	2099.62
425.623	2107.62
425.846	2077.62
426.068	2196.62
426.291	2207.62
426.513	2179.62
426.735	2202.62
426.958	2322.62
427.18	2482.62
427.402	2246.62
427.625	2318.62
427.847	2324.62
428.069	2218.62
428.292	2125.62
428.514	2101.62
428.736	2054.62
428.958	2067.62
429.181	2145.62
429.403	2338.62
429.625	2960.62
429.847	2583.62
430.069	2189.62
430.292	2343.62
430.514	2441.62
430.736	2248.62
430.958	2358.62
431.18	2268.62
431.402	2075.62
431.624	2088.62
431.846	2071.62
432.068	2063.62
432.29	2060.62
432.512	2099.62
432.734	2191.62
432.956	2177.62
433.178	2235.62
433.4	2232.62
433.622	2267.62
433.844	2148.62
434.066	2053.62
434.287	2083.62
434.509	2212.62
434.731	2232.62
434.953	2379.62
435.175	2348.62
435.397	2209.62
435.618	2217.62
435.84	2184.62
436.062	2160.62
436.284	2207.62
436.505	2231.62
436.727	2212.62
436.949	2175.62
437.17	2120.62
437.392	2095.62
437.614	2105.62
437.835	2052.62
438.057	2153.62
438.278	2251.62
438.5	2081.62
438.721	2088.62
438.943	2120.62
439.165	2085.62
439.386	2041.62
439.608	2064.62
439.829	2093.62
440.05	2077.62
440.272	2033.62
440.493	1977.62
440.715	2043.62
440.936	2187.62
441.158	2420.62
441.379	2347.62
441.6	2276.62
441.822	2272.62
442.043	2192.62
442.264	2211.62
442.486	2088.62
442.707	2059.62
442.928	2067.62
443.149	2133.62
443.371	2249.62
443.592	2310.62
443.813	2245.62
444.034	2252.62
444.255	2305.62
444.476	2340.62
444.698	2348.62
444.919	2321.62
445.14	2421.62
445.361	2404.62
445.582	2548.62
445.803	2401.62
446.024	2245.62
446.245	2387.62
446.466	2268.62
446.687	2187.62
446.908	2160.62
447.129	2096.62
447.35	2160.62
447.571	2163.62
447.792	2040.62
448.013	2006.62
448.234	2059.62
448.455	2129.62
448.675	2187.62
448.896	2026.62
449.117	1977.62
449.338	2035.62
449.559	2085.62
449.779	2256.62
450	2426.62
450.221	2615.62
450.442	2500.62
450.662	2249.62
450.883	2019.62
451.104	1971.62
451.324	1966.62
451.545	2048.62
451.766	2050.62
451.986	1911.62
452.207	1939.62
452.428	1863.62
452.648	1849.62
452.869	1899.62
453.089	2043.62
453.31	2019.62
453.53	2098.62
453.751	1991.62
453.971	1913.62
454.192	1919.62
454.412	2033.62
454.633	1987.62
454.853	1916.62
455.073	1811.62
455.294	1810.62
455.514	1827.62
455.734	1789.62
455.955	1874.62
456.175	1862.62
456.395	1876.62
456.616	1927.62
456.836	1963.62
457.056	1858.62
457.276	1884.62
457.497	1851.62
457.717	1785.62
457.937	1812.62
458.157	1907.62
458.377	1847.62
458.598	1861.62
458.818	1854.62
459.038	1979.62
459.258	2147.62
459.478	2104.62
459.698	1994.62
459.918	2049.62
460.138	2155.62
460.358	2213.62
460.578	2170.62
460.798	2310.62
461.018	2468.62
461.238	2335.62
461.458	2232.62
461.678	2237.62
461.898	2163.62
462.118	2116.62
462.338	2207.62
462.558	2207.62
462.777	2245.62
462.997	2327.62
463.217	2479.62
463.437	2439.62
463.657	2263.62
463.876	2257.62
464.096	2247.62
464.316	2223.62
464.536	2312.62
464.755	2336.62
464.975	2388.62
465.195	2256.62
465.414	2373.62
465.634	2383.62
465.854	2196.62
466.073	2335.62
466.293	2343.62
466.512	2077.62
466.732	2062.62
466.951	2154.62
467.171	2126.62
467.391	2026.62
467.61	1939.62
467.829	2019.62
468.049	2138.62
468.268	2435.62
468.488	2218.62
468.707	2175.62
468.927	2099.62
469.146	2017.62
469.365	2002.62
469.585	2049.62
469.804	2028.62
470.023	2031.62
470.243	2051.62
470.462	2056.62
470.681	1994.62
470.901	2051.62
471.12	2049.62
471.339	1994.62
471.558	1947.62
471.777	1964.62
471.997	1973.62
472.216	1998.62
472.435	1934.62
472.654	1977.62
472.873	2055.62
473.092	2165.62
473.311	2063.62
473.53	1997.62
473.749	1926.62
473.968	2020.62
474.187	2073.62
474.406	2219.62
474.625	2090.62
474.844	2017.62
475.063	2044.62
475.282	2091.62
475.501	2035.62
475.72	2038.62
475.939	2156.62
476.158	2097.62
476.377	2051.62
476.596	2067.62
476.814	2100.62
477.033	2132.62
477.252	2272.62
477.471	2251.62
477.69	2172.62
477.908	2145.62
478.127	2265.62
478.346	2388.62
478.564	2470.62
478.783	2448.62
479.002	2509.62
479.22	2419.62
479.439	2525.62
479.658	2828.62
479.876	2848.62
480.095	2432.62
480.313	2343.62
480.532	2288.62
480.751	2284.62
480.969	2340.62
481.188	2301.62
481.406	2293.62
481.624	2214.62
481.843	2223.62
482.061	2339.62
482.28	2361.62
482.498	2397.62
482.717	2360.62
482.935	2261.62
483.153	2307.62
483.372	2259.62
483.59	2216.62
483.808	2256.62
484.027	2291.62
484.245	2451.62
484.463	2823.62
484.681	3226.62
484.9	2545.62
485.118	2376.62
485.336	2278.62
485.554	2384.62
485.772	2489.62
485.99	2408.62
486.209	2473.62
486.427	2410.62
486.645	2427.62
486.863	2394.62
487.081	2494.62
487.299	2524.62
487.517	2467.62
487.735	2410.62
487.953	2367.62
488.171	2333.62
488.389	2356.62
488.607	2316.62
488.825	2623.62
489.043	2653.62
489.261	2389.62
489.479	2497.62
489.696	2549.62
489.914	2539.62
490.132	2476.62
490.35	2425.62
490.568	2503.62
490.786	2432.62
491.003	2292.62
491.221	2391.62
491.439	2456.62
491.657	2445.62
491.874	2461.62
492.092	2462.62
492.31	2449.62
492.527	2447.62
492.745	2412.62
492.963	2388.62
493.18	2533.62
493.398	2655.62
493.615	2740.62
493.833	2536.62
494.05	2507.62
494.268	2483.62
494.485	2573.62
494.703	2473.62
494.92	2428.62
495.138	2475.62
495.355	2513.62
495.573	2552.62
495.79	2760.62
496.008	2793.62
496.225	2586.62
496.442	2586.62
496.66	2648.62
496.877	2569.62
497.094	2723.62
497.312	2713.62
497.529	2678.62
497.746	2744.62
497.963	3169.62
498.181	3553.62
498.398	3344.62
498.615	3276.62
498.832	3174.62
499.049	3172.62
499.267	3188.62
499.484	3319.62
499.701	3598.62
499.918	3685.62
500.135	3946.62
500.352	4227.62
500.569	4127.62
500.786	4399.62
501.003	4185.62
501.22	3745.62
501.437	3700.62
501.654	3649.62
501.871	3590.62
502.088	3095.62
502.305	3158.62
502.522	3014.62
502.739	2811.62
502.956	2792.62
503.172	2756.62
503.389	2679.62
503.606	2610.62
503.823	2637.62
504.04	2662.62
504.256	2612.62
504.473	2635.62
504.69	2752.62
504.907	2596.62
505.123	2443.62
505.34	2568.62
505.557	3295.62
505.773	2813.62
505.99	2385.62
506.207	2303.62
506.423	2282.62
506.64	2228.62
506.856	2236.62
507.073	2498.62
507.289	2711.62
507.506	2598.62
507.722	2262.62
507.939	2164.62
508.155	2137.62
508.372	2199.62
508.588	2123.62
508.805	2058.62
509.021	2029.62
509.238	2036.62
509.454	2035.62
509.67	2049.62
509.887	2017.62
510.103	2026.62
510.319	2010.62
510.536	2136.62
510.752	2193.62
510.968	2203.62
511.184	2367.62
511.401	2301.62
511.617	2048.62
511.833	1965.62
512.049	1997.62
512.265	1988.62
512.481	1981.62
512.698	2051.62
512.914	2169.62
513.13	2105.62
513.346	1963.62
513.562	1969.62
513.778	1977.62
513.994	2068.62
514.21	2150.62
514.426	2171.62
514.642	2400.62
514.858	2277.62
515.074	2050.62
515.29	1980.62
515.506	2044.62
515.721	2079.62
515.937	2097.62
516.153	2378.62
516.369	2307.62
516.585	2192.62
516.801	2077.62
517.016	2061.62
517.232	2148.62
517.448	2154.62
517.664	2195.62
517.879	2194.62
518.095	2309.62
518.311	2206.62
518.527	2072.62
518.742	2037.62
518.958	2012.62
519.173	2002.62
519.389	2032.62
519.605	2069.62
519.82	2100.62
520.036	2056.62
520.251	2000.62
520.467	2043.62
520.682	2118.62
520.898	2230.62
521.113	2036.62
521.329	1985.62
521.544	2136.62
521.76	1998.62
521.975	1926.62
522.19	1975.62
522.406	1899.62
522.621	2300.62
522.836	2293.62
523.052	1885.62
523.267	1873.62
523.482	1891.62
523.698	1846.62
523.913	1767.62
524.128	1854.62
524.343	1936.62
524.559	1971.62
524.774	1869.62
524.989	1822.62
525.204	1818.62
525.419	1805.62
525.634	1793.62
525.849	1843.62
526.064	1819.62
526.28	1843.62
526.495	1763.62
526.71	1770.62
526.925	1760.62
527.14	1765.62
527.355	1715.62
527.57	1742.62
527.785	1801.62
527.999	1751.62
528.214	1663.62
528.429	1658.62
528.644	1677.62
528.859	1727.62
529.074	1744.62
529.289	1751.62
529.503	1723.62
529.718	1755.62
529.933	1750.62
530.148	1679.62
530.363	1682.62
530.577	1719.62
530.792	1721.62
531.007	1742.62
531.221	1740.62
531.436	1772.62
531.651	1799.62
531.865	1898.62
532.08	1828.62
532.295	1701.62
532.509	1643.62
532.724	1676.62
532.938	1714.62
533.153	1839.62
533.367	1776.62
533.582	1697.62
533.796	1699.62
534.011	1717.62
534.225	1737.62
534.44	1683.62
534.654	1691.62
534.868	1675.62
535.083	1738.62
535.297	1746.62
535.511	1707.62
535.726	1684.62
535.94	1659.62
536.154	1677.62
536.369	1663.62
536.583	1630.62
536.797	1608.62
537.011	1690.62
537.225	1661.62
537.44	1595.62
537.654	1686.62
537.868	1617.62
538.082	1561.62
538.296	1559.62
538.51	1578.62
538.724	1576.62
538.938	1551.62
539.153	1625.62
539.367	1635.62
539.581	1603.62
539.795	1690.62
540.009	1681.62
540.222	1611.62
540.436	1649.62
540.65	1789.62
540.864	1768.62
541.078	1671.62
541.292	1582.62
541.506	1570.62
541.72	1610.62
541.934	1605.62
542.147	1624.62
542.361	1618.62
542.575	1522.62
542.789	1538.62
543.002	1505.62
543.216	1544.62
543.43	1634.62
543.644	1705.62
543.857	1724.62
544.071	1653.62
544.285	1597.62
544.498	1576.62
544.712	1543.62
544.925	1631.62
545.139	1665.62
545.352	1587.62
545.566	1546.62
545.779	1490.62
545.993	1506.62
546.206	1580.62
546.42	1521.62
546.633	1523.62
546.847	1452.62
547.06	1498.62
547.274	1525.62
547.487	1503.62
547.7	1496.62
547.914	1527.62
548.127	1521.62
548.34	1529.62
548.554	1548.62
548.767	1537.62
548.98	1516.62
549.193	1529.62
549.407	1591.62
549.62	1622.62
549.833	1535.62
550.046	1491.62
550.259	1512.62
550.473	1529.62
550.686	1523.62
550.899	1460.62
551.112	1457.62
551.325	1409.62
551.538	1536.62
551.751	1793.62
551.964	1420.62
552.177	1433.62
552.39	1476.62
552.603	1504.62
552.816	1476.62
553.029	1526.62
553.242	1599.62
553.455	1510.62
553.667	1481.62
553.88	1483.62
554.093	1493.62
554.306	1437.62
554.519	1388.62
554.732	1363.62
554.944	1380.62
555.157	1419.62
555.37	1413.62
555.583	1415.62
555.795	1356.62
556.008	1321.62
556.221	1302.62
556.433	1285.62
556.646	1288.62
556.859	1293.62
557.071	1316.62
557.284	1297.62
557.496	1303.62
557.709	1273.62
557.921	1276.62
558.134	1233.62
558.346	1281.62
558.559	1255.62
558.771	1247.62
558.984	1204.62
559.196	1173.62
559.409	1197.62
559.621	1191.62
559.833	1227.62
560.046	1250.62
560.258	1255.62
560.47	1221.62
560.683	1221.62
560.895	1240.62
561.107	1254.62
561.32	1246.62
561.532	1281.62
561.744	1233.62
561.956	1264.62
562.168	1199.62
562.381	1161.62
562.593	1162.62
562.805	1181.62
563.017	1163.62
563.229	1182.62
563.441	1223.62
563.653	1193.62
563.865	1216.62
564.077	1179.62
564.289	1190.62
564.501	1263.62
564.713	1265.62
564.925	1287.62
565.137	1404.62
565.349	1257.62
565.561	1271.62
565.773	1293.62
565.985	1269.62
566.197	1369.62
566.408	1466.62
566.62	1469.62
566.832	1462.62
567.044	1514.62
567.255	1445.62
567.467	1447.62
567.679	1496.62
567.891	1567.62
568.102	1511.62
568.314	1448.62
568.526	1403.62
568.737	1329.62
568.949	1279.62
569.161	1234.62
569.372	1167.62
569.584	1199.62
569.795	1170.62
570.007	1147.62
570.218	1135.62
570.43	1127.62
570.641	1083.62
570.853	1104.62
571.064	1126.62
571.276	1103.62
571.487	1081.62
571.698	1048.62
571.91	1031.62
572.121	1005.62
572.333	1027.62
572.544	1025.62
572.755	978.62
572.966	979.62
573.178	980.62
573.389	963.62
573.6	1015.62
573.811	1071.62
574.023	1003.62
574.234	972.62
574.445	935.62
574.656	905.62
574.867	899.62
575.078	939.62
575.289	918.62
575.501	909.62
575.712	901.62
575.923	953.62
576.134	943.62
576.345	929.62
576.556	879.62
576.767	854.62
576.978	872.62
577.188	872.62
577.399	856.62
577.61	855.62
577.821	865.62
578.032	831.62
578.243	848.62
578.454	852.62
578.665	838.62
578.875	829.62
579.086	834.62
579.297	823.62
579.508	882.62
579.718	834.62
579.929	848.62
580.14	828.62
580.35	799.62
580.561	834.62
580.772	909.62
580.982	844.62
581.193	816.62
581.403	815.62
581.614	780.62
581.825	787.62
582.035	782.62
582.246	764.62
582.456	810.62
582.667	807.62
582.877	804.62
583.087	785.62
583.298	781.62
583.508	774.62
583.719	784.62
583.929	786.62
584.139	791.62
584.35	724.62
584.56	759.62
584.77	771.62
584.981	749.62
585.191	767.62
585.401	796.62
585.611	768.62
585.821	767.62
586.032	751.62
586.242	766.62
586.452	754.62
586.662	773.62
586.872	761.62
587.082	745.62
587.292	782.62
587.502	775.62
587.713	788.62
587.923	757.62
588.133	745.62
588.343	774.62
588.553	748.62
588.762	745.62
588.972	728.62
589.182	744.62
589.392	738.62
589.602	780.62
589.812	759.62
590.022	719.62
590.232	724.62
590.441	739.62
590.651	738.62
590.861	725.62
591.071	693.62
591.281	719.62
591.49	709.62
591.7	726.62
591.91	714.62
592.119	730.62
592.329	747.62
592.539	761.62
592.748	773.62
592.958	756.62
593.167	763.62
593.377	761.62
593.587	784.62
593.796	781.62
594.006	798.62
594.215	748.62
594.424	759.62
594.634	744.62
594.843	740.62
595.053	776.62
595.262	752.62
595.472	733.62
595.681	713.62
595.89	683.62
596.1	676.62
596.309	696.62
596.518	676.62
596.727	674.62
596.937	658.62
597.146	648.62
597.355	657.62
597.564	647.62
597.774	645.62
597.983	636.62
598.192	638.62
598.401	609.62
598.61	632.62
598.819	635.62
599.028	628.62
599.237	632.62
599.446	643.62
599.655	610.62
599.864	611.62
600.073	589.62
600.282	599.62
600.491	608.62
600.7	596.62
600.909	594.62
601.118	613.62
601.327	592.62
601.536	590.62
601.745	585.62
601.953	593.62
602.162	617.62
602.371	596.62
602.58	608.62
602.789	604.62
602.997	578.62
603.206	578.62
603.415	554.62
603.623	590.62
603.832	559.62
604.041	566.62
604.249	581.62
604.458	569.62
604.666	580.62
604.875	584.62
605.084	577.62
605.292	576.62
605.501	551.62
605.709	565.62
605.918	572.62
606.126	560.62
606.334	566.62
606.543	555.62
606.751	560.62
606.96	572.62
607.168	557.62
607.376	561.62
607.585	544.62
607.793	538.62
608.001	559.62
608.21	561.62
608.418	539.62
608.626	554.62
608.834	530.62
609.043	524.62
609.251	551.62
609.459	545.62
609.667	537.62
609.875	545.62
610.083	543.62
610.291	545.62
610.499	557.62
610.707	527.62
610.916	523.62
611.124	521.62
611.332	528.62
611.54	530.62
611.748	513.62
611.955	525.62
612.163	538.62
612.371	521.62
612.579	529.62
612.787	513.62
612.995	522.62
613.203	532.62
613.411	522.62
613.618	519.62
613.826	511.62
614.034	504.62
614.242	535.62
614.449	521.62
614.657	524.62
614.865	515.62
615.072	516.62
615.28	490.62
615.488	511.62
615.695	550.62
615.903	535.62
616.111	522.62
616.318	539.62
616.526	515.62
616.733	483.62
616.941	498.62
617.148	488.62
617.356	490.62
617.563	499.62
617.771	506.62
617.978	486.62
618.185	496.62
618.393	478.62
618.6	503.62
618.807	525.62
619.015	504.62
619.222	484.62
619.429	470.62
619.637	465.62
619.844	487.62
620.051	480.62
620.258	484.62
620.466	458.62
620.673	430.62
620.88	453.62
621.087	459.62
621.294	453.62
621.501	476.62
621.708	449.62
621.915	463.62
622.122	466.62
622.329	461.62
622.536	469.62
622.743	469.62
622.95	452.62
623.157	443.62
623.364	446.62
623.571	460.62
623.778	456.62
623.985	448.62
624.192	440.62
624.399	457.62
624.606	445.62
624.812	426.62
625.019	421.62
625.226	433.62
625.433	430.62
625.639	438.62
625.846	435.62
626.053	411.62
626.259	431.62
626.466	421.62
626.673	413.62
626.879	391.62
627.086	413.62
627.293	422.62
627.499	397.62
627.706	412.62
627.912	405.62
628.119	411.62
628.325	418.62
628.532	413.62
628.738	404.62
628.945	432.62
629.151	398.62
629.357	410.62
629.564	378.62
629.77	420.62
629.976	389.62
630.183	381.62
630.389	388.62
630.595	413.62
630.802	382.62
631.008	387.62
631.214	385.62
631.42	394.62
631.627	362.62
631.833	369.62
632.039	359.62
632.245	393.62
632.451	355.62
632.657	369.62
632.863	371.62
633.069	395.62
633.275	380.62
633.481	371.62
633.688	358.62
633.893	361.62
634.099	354.62
634.305	363.62
634.511	369.62
634.717	349.62
634.923	342.62
635.129	347.62
635.335	338.62
635.541	359.62
635.747	379.62
635.952	349.62
636.158	347.62
636.364	355.62
636.57	340.62
636.775	353.62
636.981	376.62
637.187	351.62
637.392	339.62
637.598	362.62
637.804	351.62
638.009	341.62
638.215	344.62
638.421	346.62
638.626	338.62
638.832	363.62
639.037	331.62
639.243	341.62
639.448	340.62
639.654	338.62
639.859	330.62
640.065	337.62
640.27	333.62
640.475	322.62
640.681	337.62
640.886	310.62
641.091	348.62
641.297	321.62
641.502	326.62
641.707	309.62
641.913	325.62
642.118	316.62
642.323	294.62
642.528	332.62
642.733	327.62
642.939	320.62
643.144	324.62
643.349	337.62
643.554	323.62
643.759	320.62
643.964	302.62
644.169	317.62
644.374	308.62
644.579	309.62
644.784	317.62
644.989	322.62
645.194	311.62
645.399	303.62
645.604	314.62
645.809	298.62
646.014	315.62
646.219	312.62
646.423	329.62
646.628	323.62
646.833	316.62
647.038	319.62
647.243	320.62
647.447	317.62
647.652	311.62
647.857	308.62
648.062	327.62
648.266	321.62
648.471	304.62
648.676	323.62
648.88	315.62
649.085	322.62
649.289	314.62
649.494	303.62
649.698	313.62
649.903	309.62
650.107	289.62
650.312	311.62
650.516	286.62
650.721	303.62
650.925	295.62
651.13	301.62
651.334	303.62
651.539	279.62
651.743	275.62
651.947	301.62
652.152	279.62
652.356	265.62
652.56	245.62
652.764	272.62
652.969	275.62
653.173	246.62
653.377	258.62
653.581	257.62
653.785	239.62
653.99	250.62
654.194	265.62
654.398	249.62
654.602	249.62
654.806	233.62
655.01	251.62
655.214	261.62
655.418	230.62
655.622	251.62
655.826	232.62
656.03	265.62
656.234	280.62
656.438	289.62
656.642	274.62
656.846	259.62
657.049	241.62
657.253	235.62
657.457	207.62
657.661	198.62
657.865	170.62
658.068	179.62
658.272	171.62
658.476	155.62
658.68	162.62
658.883	153.62
659.087	156.62
659.291	140.62
659.494	127.62
659.698	142.62
659.901	132.62
660.105	127.62
660.309	122.62
660.512	116.62
660.716	118.62
660.919	109.62
661.123	114.62
661.326	103.62
661.53	111.62
661.733	103.62
661.936	99.62
662.14	112.62
662.343	85.62
662.546	111.62
662.75	91.62
662.953	89.62
663.156	100.62
663.36	92.62
663.563	87.62
663.766	95.62
663.969	91.62
664.173	91.62
664.376	76.62
664.579	85.62
664.782	92.62
664.985	84.62
665.188	76.62
665.391	87.62
665.594	66.62
665.797	65.62
666	78.62
666.203	87.62
666.406	74.62
666.609	81.62
666.812	80.62
667.015	71.62
667.218	66.62
667.421	82.62
667.624	81.62
667.827	81.62
668.03	78.62
668.232	73.62
668.435	77.62
668.638	83.62
668.841	83.62
669.043	80.62
669.246	88.62
669.449	87.62
669.651	78.62
669.854	78.62
670.057	81.62
670.259	90.62
670.462	81.62
670.665	76.62
670.867	80.62
671.07	71.62
671.272	79.62
671.475	84.62
671.677	76.62
671.88	85.62
672.082	91.62
672.284	72.62
672.487	70.62
672.689	90.62
672.892	79.62
