Data from WStandard_LampEnergy8_LIBS07252019.E.O._I.C._HRD10591_15-59-29-929.txt Node
Date: Thu Jul 25 15:59:29 EDT 2019
User: cochatt
Spectrometer: HR+D1059
Trigger mode: 1
Integration Time (sec): 1.000000E-1
Scans to average: 1
Electric dark correction enabled: true
Nonlinearity correction enabled: false
Boxcar width: 0
XAxis mode: Wavelengths
Number of Pixels in Spectrum: 2048
>>>>>Begin Spectral Data<<<<<
223.165	-20.62
223.4	-20.62
223.635	-20.62
223.869	-20.62
224.104	-19.62
224.338	-25.62
224.573	-7.62
224.808	-23.62
225.042	9.38
225.277	-4.62
225.511	3.38
225.746	9.38
225.98	-2.62
226.215	8.38
226.449	7.38
226.683	23.38
226.918	24.38
227.152	39.38
227.387	44.38
227.621	48.38
227.856	45.38
228.09	44.38
228.324	53.38
228.559	59.38
228.793	106.38
229.027	194.38
229.262	188.38
229.496	235.38
229.73	214.38
229.964	247.38
230.199	262.38
230.433	258.38
230.667	277.38
230.901	282.38
231.136	267.38
231.37	276.38
231.604	268.38
231.838	267.38
232.072	258.38
232.306	228.38
232.541	270.38
232.775	307.38
233.009	329.38
233.243	290.38
233.477	280.38
233.711	306.38
233.945	316.38
234.179	299.38
234.413	313.38
234.647	329.38
234.881	332.38
235.115	293.38
235.349	280.38
235.583	278.38
235.817	316.38
236.051	295.38
236.285	306.38
236.519	318.38
236.753	361.38
236.987	355.38
237.221	356.38
237.455	387.38
237.689	378.38
237.922	359.38
238.156	336.38
238.39	362.38
238.624	371.38
238.858	396.38
239.091	404.38
239.325	399.38
239.559	471.38
239.793	479.38
240.027	521.38
240.26	489.38
240.494	394.38
240.728	384.38
240.961	382.38
241.195	392.38
241.429	418.38
241.662	411.38
241.896	395.38
242.13	407.38
242.363	417.38
242.597	452.38
242.83	463.38
243.064	460.38
243.298	484.38
243.531	467.38
243.765	475.38
243.998	446.38
244.232	403.38
244.465	399.38
244.699	418.38
244.932	452.38
245.166	508.38
245.399	506.38
245.633	458.38
245.866	437.38
246.099	482.38
246.333	484.38
246.566	488.38
246.8	520.38
247.033	579.38
247.266	542.38
247.5	515.38
247.733	546.38
247.966	557.38
248.2	606.38
248.433	594.38
248.666	601.38
248.899	658.38
249.133	756.38
249.366	807.38
249.599	664.38
249.832	617.38
250.066	619.38
250.299	632.38
250.532	570.38
250.765	542.38
250.998	593.38
251.231	580.38
251.465	582.38
251.698	578.38
251.931	577.38
252.164	564.38
252.397	638.38
252.63	624.38
252.863	554.38
253.096	535.38
253.329	572.38
253.562	596.38
253.795	610.38
254.028	599.38
254.261	581.38
254.494	578.38
254.727	566.38
254.96	565.38
255.193	652.38
255.426	710.38
255.659	778.38
255.892	795.38
256.124	654.38
256.357	650.38
256.59	674.38
256.823	681.38
257.056	745.38
257.289	855.38
257.521	900.38
257.754	807.38
257.987	763.38
258.22	833.38
258.452	798.38
258.685	673.38
258.918	640.38
259.151	660.38
259.383	636.38
259.616	571.38
259.849	624.38
260.081	688.38
260.314	766.38
260.547	798.38
260.779	786.38
261.012	769.38
261.244	697.38
261.477	681.38
261.71	671.38
261.942	690.38
262.175	680.38
262.407	690.38
262.64	646.38
262.872	632.38
263.105	603.38
263.337	634.38
263.57	616.38
263.802	612.38
264.035	580.38
264.267	563.38
264.499	568.38
264.732	592.38
264.964	651.38
265.197	666.38
265.429	674.38
265.661	777.38
265.894	845.38
266.126	827.38
266.358	775.38
266.591	803.38
266.823	856.38
267.055	772.38
267.287	780.38
267.52	750.38
267.752	758.38
267.984	750.38
268.216	805.38
268.448	804.38
268.681	788.38
268.913	722.38
269.145	681.38
269.377	695.38
269.609	781.38
269.841	874.38
270.073	984.38
270.306	1114.38
270.538	1108.38
270.77	961.38
271.002	842.38
271.234	820.38
271.466	811.38
271.698	928.38
271.93	1043.38
272.162	1040.38
272.394	933.38
272.626	896.38
272.858	812.38
273.09	705.38
273.322	719.38
273.553	690.38
273.785	682.38
274.017	735.38
274.249	770.38
274.481	767.38
274.713	698.38
274.945	718.38
275.176	695.38
275.408	691.38
275.64	674.38
275.872	694.38
276.104	724.38
276.335	821.38
276.567	896.38
276.799	873.38
277.031	827.38
277.262	794.38
277.494	838.38
277.726	931.38
277.957	865.38
278.189	811.38
278.421	757.38
278.652	718.38
278.884	715.38
279.115	728.38
279.347	750.38
279.579	736.38
279.81	735.38
280.042	835.38
280.273	890.38
280.505	826.38
280.736	882.38
280.968	822.38
281.199	758.38
281.431	747.38
281.662	735.38
281.894	719.38
282.125	756.38
282.356	736.38
282.588	771.38
282.819	747.38
283.051	818.38
283.282	869.38
283.513	842.38
283.745	788.38
283.976	691.38
284.207	743.38
284.439	696.38
284.67	746.38
284.901	745.38
285.132	760.38
285.364	784.38
285.595	771.38
285.826	723.38
286.057	749.38
286.288	768.38
286.52	800.38
286.751	846.38
286.982	851.38
287.213	784.38
287.444	762.38
287.675	745.38
287.906	792.38
288.138	822.38
288.369	812.38
288.6	751.38
288.831	743.38
289.062	768.38
289.293	775.38
289.524	779.38
289.755	809.38
289.986	777.38
290.217	752.38
290.448	766.38
290.679	757.38
290.91	775.38
291.141	807.38
291.371	803.38
291.602	827.38
291.833	824.38
292.064	850.38
292.295	829.38
292.526	848.38
292.757	867.38
292.987	848.38
293.218	814.38
293.449	874.38
293.68	971.38
293.91	1028.38
294.141	956.38
294.372	933.38
294.603	957.38
294.833	994.38
295.064	913.38
295.295	819.38
295.525	815.38
295.756	748.38
295.987	740.38
296.217	739.38
296.448	770.38
296.679	811.38
296.909	785.38
297.14	761.38
297.37	788.38
297.601	853.38
297.831	888.38
298.062	864.38
298.292	792.38
298.523	770.38
298.753	782.38
298.984	826.38
299.214	802.38
299.445	827.38
299.675	821.38
299.905	837.38
300.136	808.38
300.366	779.38
300.597	776.38
300.827	810.38
301.057	806.38
301.288	834.38
301.518	846.38
301.748	878.38
301.979	907.38
302.209	916.38
302.439	978.38
302.669	974.38
302.9	929.38
303.13	877.38
303.36	881.38
303.59	855.38
303.82	864.38
304.051	856.38
304.281	846.38
304.511	875.38
304.741	946.38
304.971	1047.38
305.201	1066.38
305.431	962.38
305.661	821.38
305.891	766.38
306.121	751.38
306.352	794.38
306.582	825.38
306.812	914.38
307.042	945.38
307.272	943.38
307.502	998.38
307.731	1066.38
307.961	1075.38
308.191	1021.38
308.421	863.38
308.651	816.38
308.881	829.38
309.111	818.38
309.341	833.38
309.571	809.38
309.8	824.38
310.03	843.38
310.26	811.38
310.49	793.38
310.72	858.38
310.949	875.38
311.179	876.38
311.409	880.38
311.639	853.38
311.868	851.38
312.098	857.38
312.328	848.38
312.557	856.38
312.787	871.38
313.017	901.38
313.246	858.38
313.476	892.38
313.706	881.38
313.935	874.38
314.165	904.38
314.394	962.38
314.624	974.38
314.853	1057.38
315.083	1099.38
315.312	1055.38
315.542	997.38
315.771	930.38
316.001	900.38
316.23	947.38
316.46	934.38
316.689	953.38
316.919	867.38
317.148	866.38
317.377	920.38
317.607	962.38
317.836	1072.38
318.065	1062.38
318.295	1042.38
318.524	1005.38
318.753	959.38
318.983	964.38
319.212	940.38
319.441	922.38
319.67	904.38
319.9	951.38
320.129	978.38
320.358	993.38
320.587	1046.38
320.816	1029.38
321.046	1018.38
321.275	991.38
321.504	1006.38
321.733	1056.38
321.962	993.38
322.191	942.38
322.42	929.38
322.649	932.38
322.878	915.38
323.108	936.38
323.337	965.38
323.566	969.38
323.795	942.38
324.024	954.38
324.253	929.38
324.482	946.38
324.71	918.38
324.939	882.38
325.168	902.38
325.397	927.38
325.626	954.38
325.855	929.38
326.084	909.38
326.313	963.38
326.542	966.38
326.77	973.38
326.999	950.38
327.228	919.38
327.457	902.38
327.686	877.38
327.914	915.38
328.143	947.38
328.372	953.38
328.6	935.38
328.829	937.38
329.058	932.38
329.287	942.38
329.515	958.38
329.744	990.38
329.972	1010.38
330.201	1026.38
330.43	995.38
330.658	976.38
330.887	999.38
331.115	997.38
331.344	985.38
331.572	983.38
331.801	977.38
332.03	982.38
332.258	1019.38
332.486	1009.38
332.715	1001.38
332.943	998.38
333.172	962.38
333.4	1026.38
333.629	1045.38
333.857	1122.38
334.085	1244.38
334.314	1369.38
334.542	1423.38
334.771	1282.38
334.999	1178.38
335.227	1097.38
335.455	1061.38
335.684	1096.38
335.912	1086.38
336.14	1084.38
336.369	1051.38
336.597	1024.38
336.825	1020.38
337.053	1028.38
337.281	1136.38
337.51	1154.38
337.738	1157.38
337.966	1083.38
338.194	991.38
338.422	997.38
338.65	979.38
338.878	961.38
339.106	940.38
339.334	944.38
339.562	958.38
339.79	979.38
340.018	1014.38
340.246	1044.38
340.474	1052.38
340.702	1022.38
340.93	997.38
341.158	1012.38
341.386	1006.38
341.614	998.38
341.842	986.38
342.07	990.38
342.298	999.38
342.526	986.38
342.754	1007.38
342.981	987.38
343.209	957.38
343.437	947.38
343.665	977.38
343.893	1016.38
344.12	1072.38
344.348	1059.38
344.576	1010.38
344.804	979.38
345.031	983.38
345.259	1007.38
345.487	957.38
345.714	945.38
345.942	917.38
346.17	938.38
346.397	950.38
346.625	907.38
346.853	894.38
347.08	872.38
347.308	873.38
347.535	954.38
347.763	951.38
347.99	900.38
348.218	899.38
348.445	930.38
348.673	929.38
348.9	960.38
349.128	962.38
349.355	985.38
349.583	965.38
349.81	936.38
350.037	883.38
350.265	840.38
350.492	905.38
350.72	936.38
350.947	945.38
351.174	954.38
351.402	904.38
351.629	862.38
351.856	866.38
352.083	841.38
352.311	872.38
352.538	894.38
352.765	938.38
352.992	951.38
353.22	921.38
353.447	912.38
353.674	906.38
353.901	914.38
354.128	917.38
354.355	897.38
354.583	965.38
354.81	949.38
355.037	923.38
355.264	948.38
355.491	930.38
355.718	933.38
355.945	888.38
356.172	892.38
356.399	891.38
356.626	910.38
356.853	948.38
357.08	1030.38
357.307	1086.38
357.534	1074.38
357.761	934.38
357.988	892.38
358.215	865.38
358.441	853.38
358.668	860.38
358.895	927.38
359.122	990.38
359.349	1020.38
359.576	1001.38
359.802	926.38
360.029	913.38
360.256	911.38
360.483	908.38
360.709	927.38
360.936	993.38
361.163	1022.38
361.39	1100.38
361.616	1156.38
361.843	1151.38
362.07	1072.38
362.296	949.38
362.523	931.38
362.749	920.38
362.976	970.38
363.203	943.38
363.429	905.38
363.656	879.38
363.882	967.38
364.109	1032.38
364.335	1091.38
364.562	1026.38
364.788	1004.38
365.015	956.38
365.241	910.38
365.468	937.38
365.694	972.38
365.92	988.38
366.147	950.38
366.373	923.38
366.599	923.38
366.826	938.38
367.052	933.38
367.278	918.38
367.505	952.38
367.731	968.38
367.957	971.38
368.184	978.38
368.41	1066.38
368.636	1063.38
368.862	1059.38
369.089	1040.38
369.315	999.38
369.541	974.38
369.767	975.38
369.993	907.38
370.219	939.38
370.445	980.38
370.672	1022.38
370.898	1080.38
371.124	1046.38
371.35	1009.38
371.576	1026.38
371.802	1062.38
372.028	1010.38
372.254	954.38
372.48	967.38
372.706	902.38
372.932	965.38
373.158	930.38
373.384	993.38
373.61	1052.38
373.835	1020.38
374.061	1016.38
374.287	990.38
374.513	977.38
374.739	972.38
374.965	974.38
375.191	1016.38
375.416	1002.38
375.642	1018.38
375.868	1084.38
376.094	1118.38
376.319	1049.38
376.545	1019.38
376.771	1022.38
376.997	1088.38
377.222	1088.38
377.448	1031.38
377.674	1040.38
377.899	1058.38
378.125	1091.38
378.35	1078.38
378.576	976.38
378.802	943.38
379.027	976.38
379.253	976.38
379.478	954.38
379.704	982.38
379.929	949.38
380.155	976.38
380.38	1001.38
380.606	1031.38
380.831	1004.38
381.057	1100.38
381.282	1066.38
381.507	1057.38
381.733	1136.38
381.958	1154.38
382.184	1066.38
382.409	1056.38
382.634	1073.38
382.86	1037.38
383.085	1027.38
383.31	1082.38
383.535	1177.38
383.761	1210.38
383.986	1180.38
384.211	1131.38
384.436	1115.38
384.662	1170.38
384.887	1184.38
385.112	1144.38
385.337	1175.38
385.562	1114.38
385.787	1161.38
386.013	1148.38
386.238	1163.38
386.463	1189.38
386.688	1249.38
386.913	1300.38
387.138	1267.38
387.363	1156.38
387.588	1172.38
387.813	1175.38
388.038	1202.38
388.263	1230.38
388.488	1152.38
388.713	1114.38
388.938	1102.38
389.163	1104.38
389.387	1111.38
389.612	1128.38
389.837	1132.38
390.062	1158.38
390.287	1118.38
390.512	1148.38
390.736	1116.38
390.961	1124.38
391.186	1076.38
391.411	1110.38
391.636	1124.38
391.86	1123.38
392.085	1114.38
392.31	1135.38
392.534	1114.38
392.759	1152.38
392.984	1152.38
393.208	1128.38
393.433	1198.38
393.658	1255.38
393.882	1217.38
394.107	1128.38
394.331	1148.38
394.556	1138.38
394.78	1143.38
395.005	1230.38
395.229	1247.38
395.454	1306.38
395.678	1313.38
395.903	1222.38
396.127	1192.38
396.352	1218.38
396.576	1262.38
396.801	1245.38
397.025	1252.38
397.249	1228.38
397.474	1239.38
397.698	1198.38
397.922	1254.38
398.147	1309.38
398.371	1359.38
398.595	1335.38
398.82	1321.38
399.044	1306.38
399.268	1396.38
399.492	1450.38
399.717	1475.38
399.941	1474.38
400.165	1462.38
400.389	1408.38
400.613	1468.38
400.837	1640.38
401.062	1791.38
401.286	1571.38
401.51	1456.38
401.734	1497.38
401.958	1402.38
402.182	1337.38
402.406	1312.38
402.63	1258.38
402.854	1299.38
403.078	1346.38
403.302	1324.38
403.526	1346.38
403.75	1358.38
403.974	1352.38
404.198	1386.38
404.422	1421.38
404.645	1487.38
404.869	1427.38
405.093	1317.38
405.317	1296.38
405.541	1354.38
405.765	1348.38
405.988	1345.38
406.212	1402.38
406.436	1409.38
406.66	1466.38
406.883	1497.38
407.107	1690.38
407.331	1791.38
407.555	1909.38
407.778	1670.38
408.002	1487.38
408.226	1452.38
408.449	1443.38
408.673	1400.38
408.896	1375.38
409.12	1406.38
409.344	1390.38
409.567	1338.38
409.791	1375.38
410.014	1439.38
410.238	1490.38
410.461	1553.38
410.685	1368.38
410.908	1329.38
411.132	1354.38
411.355	1366.38
411.578	1359.38
411.802	1370.38
412.025	1402.38
412.249	1305.38
412.472	1292.38
412.695	1329.38
412.919	1317.38
413.142	1285.38
413.365	1326.38
413.589	1350.38
413.812	1443.38
414.035	1429.38
414.258	1332.38
414.482	1296.38
414.705	1314.38
414.928	1282.38
415.151	1305.38
415.374	1350.38
415.597	1340.38
415.821	1340.38
416.044	1348.38
416.267	1347.38
416.49	1288.38
416.713	1272.38
416.936	1361.38
417.159	1370.38
417.382	1322.38
417.605	1310.38
417.828	1337.38
418.051	1357.38
418.274	1294.38
418.497	1328.38
418.72	1316.38
418.943	1270.38
419.166	1356.38
419.389	1392.38
419.611	1314.38
419.834	1327.38
420.057	1325.38
420.28	1292.38
420.503	1299.38
420.726	1305.38
420.948	1285.38
421.171	1258.38
421.394	1298.38
421.617	1348.38
421.839	1328.38
422.062	1357.38
422.285	1306.38
422.507	1292.38
422.73	1257.38
422.953	1229.38
423.175	1206.38
423.398	1273.38
423.621	1262.38
423.843	1303.38
424.066	1325.38
424.288	1400.38
424.511	1402.38
424.733	1330.38
424.956	1225.38
425.178	1268.38
425.401	1237.38
425.623	1294.38
425.846	1239.38
426.068	1326.38
426.291	1341.38
426.513	1312.38
426.735	1353.38
426.958	1457.38
427.18	1504.38
427.402	1384.38
427.625	1404.38
427.847	1388.38
428.069	1290.38
428.292	1284.38
428.514	1231.38
428.736	1228.38
428.958	1255.38
429.181	1283.38
429.403	1466.38
429.625	1788.38
429.847	1463.38
430.069	1304.38
430.292	1475.38
430.514	1426.38
430.736	1346.38
430.958	1389.38
431.18	1286.38
431.402	1202.38
431.624	1200.38
431.846	1171.38
432.068	1144.38
432.29	1161.38
432.512	1170.38
432.734	1265.38
432.956	1281.38
433.178	1363.38
433.4	1335.38
433.622	1334.38
433.844	1234.38
434.066	1192.38
434.287	1172.38
434.509	1213.38
434.731	1279.38
434.953	1355.38
435.175	1341.38
435.397	1285.38
435.618	1286.38
435.84	1288.38
436.062	1219.38
436.284	1278.38
436.505	1273.38
436.727	1328.38
436.949	1286.38
437.17	1239.38
437.392	1236.38
437.614	1215.38
437.835	1172.38
438.057	1234.38
438.278	1234.38
438.5	1254.38
438.721	1246.38
438.943	1216.38
439.165	1269.38
439.386	1251.38
439.608	1252.38
439.829	1268.38
440.05	1249.38
440.272	1266.38
440.493	1265.38
440.715	1274.38
440.936	1330.38
441.158	1448.38
441.379	1370.38
441.6	1383.38
441.822	1395.38
442.043	1324.38
442.264	1304.38
442.486	1292.38
442.707	1259.38
442.928	1257.38
443.149	1312.38
443.371	1363.38
443.592	1402.38
443.813	1361.38
444.034	1348.38
444.255	1343.38
444.476	1400.38
444.698	1396.38
444.919	1408.38
445.14	1514.38
445.361	1498.38
445.582	1467.38
445.803	1401.38
446.024	1359.38
446.245	1424.38
446.466	1342.38
446.687	1367.38
446.908	1366.38
447.129	1293.38
447.35	1333.38
447.571	1304.38
447.792	1270.38
448.013	1242.38
448.234	1278.38
448.455	1313.38
448.675	1295.38
448.896	1219.38
449.117	1194.38
449.338	1250.38
449.559	1274.38
449.779	1362.38
450	1443.38
450.221	1490.38
450.442	1432.38
450.662	1286.38
450.883	1224.38
451.104	1179.38
451.324	1188.38
451.545	1246.38
451.766	1170.38
451.986	1138.38
452.207	1138.38
452.428	1078.38
452.648	1089.38
452.869	1142.38
453.089	1166.38
453.31	1170.38
453.53	1175.38
453.751	1103.38
453.971	1056.38
454.192	1065.38
454.412	1163.38
454.633	1134.38
454.853	1121.38
455.073	1059.38
455.294	1057.38
455.514	1098.38
455.734	1070.38
455.955	1099.38
456.175	1067.38
456.395	1073.38
456.616	1075.38
456.836	1126.38
457.056	1088.38
457.276	1091.38
457.497	1035.38
457.717	1024.38
457.937	1069.38
458.157	1059.38
458.377	1039.38
458.598	1011.38
458.818	1052.38
459.038	1117.38
459.258	1172.38
459.478	1120.38
459.698	1134.38
459.918	1127.38
460.138	1247.38
460.358	1264.38
460.578	1265.38
460.798	1312.38
461.018	1345.38
461.238	1276.38
461.458	1240.38
461.678	1258.38
461.898	1220.38
462.118	1210.38
462.338	1275.38
462.558	1250.38
462.777	1246.38
462.997	1311.38
463.217	1370.38
463.437	1366.38
463.657	1269.38
463.876	1288.38
464.096	1306.38
464.316	1284.38
464.536	1316.38
464.755	1311.38
464.975	1316.38
465.195	1289.38
465.414	1298.38
465.634	1311.38
465.854	1306.38
466.073	1374.38
466.293	1335.38
466.512	1170.38
466.732	1213.38
466.951	1261.38
467.171	1234.38
467.391	1197.38
467.61	1176.38
467.829	1219.38
468.049	1310.38
468.268	1440.38
468.488	1312.38
468.707	1258.38
468.927	1226.38
469.146	1222.38
469.365	1218.38
469.585	1213.38
469.804	1231.38
470.023	1257.38
470.243	1260.38
470.462	1226.38
470.681	1206.38
470.901	1232.38
471.12	1279.38
471.339	1262.38
471.558	1212.38
471.777	1230.38
471.997	1226.38
472.216	1204.38
472.435	1140.38
472.654	1143.38
472.873	1164.38
473.092	1228.38
473.311	1184.38
473.53	1160.38
473.749	1162.38
473.968	1166.38
474.187	1211.38
474.406	1239.38
474.625	1188.38
474.844	1214.38
475.063	1214.38
475.282	1208.38
475.501	1185.38
475.72	1210.38
475.939	1321.38
476.158	1252.38
476.377	1204.38
476.596	1228.38
476.814	1230.38
477.033	1231.38
477.252	1298.38
477.471	1323.38
477.69	1272.38
477.908	1306.38
478.127	1347.38
478.346	1414.38
478.564	1402.38
478.783	1403.38
479.002	1464.38
479.22	1429.38
479.439	1466.38
479.658	1569.38
479.876	1489.38
480.095	1370.38
480.313	1370.38
480.532	1289.38
480.751	1303.38
480.969	1297.38
481.188	1260.38
481.406	1268.38
481.624	1228.38
481.843	1238.38
482.061	1278.38
482.28	1333.38
482.498	1321.38
482.717	1321.38
482.935	1302.38
483.153	1369.38
483.372	1366.38
483.59	1355.38
483.808	1352.38
484.027	1402.38
484.245	1438.38
484.463	1718.38
484.681	1895.38
484.9	1458.38
485.118	1402.38
485.336	1329.38
485.554	1369.38
485.772	1419.38
485.99	1394.38
486.209	1395.38
486.427	1378.38
486.645	1400.38
486.863	1424.38
487.081	1474.38
487.299	1473.38
487.517	1447.38
487.735	1439.38
487.953	1495.38
488.171	1490.38
488.389	1484.38
488.607	1475.38
488.825	1636.38
489.043	1521.38
489.261	1394.38
489.479	1483.38
489.696	1474.38
489.914	1477.38
490.132	1459.38
490.35	1457.38
490.568	1540.38
490.786	1509.38
491.003	1498.38
491.221	1574.38
491.439	1600.38
491.657	1584.38
491.874	1595.38
492.092	1664.38
492.31	1702.38
492.527	1663.38
492.745	1583.38
492.963	1563.38
493.18	1605.38
493.398	1708.38
493.615	1702.38
493.833	1591.38
494.05	1538.38
494.268	1501.38
494.485	1554.38
494.703	1605.38
494.92	1545.38
495.138	1533.38
495.355	1562.38
495.573	1590.38
495.79	1678.38
496.008	1706.38
496.225	1601.38
496.442	1622.38
496.66	1628.38
496.877	1622.38
497.094	1681.38
497.312	1638.38
497.529	1596.38
497.746	1697.38
497.963	1862.38
498.181	2008.38
498.398	1906.38
498.615	1852.38
498.832	1779.38
499.049	1786.38
499.267	1764.38
499.484	1865.38
499.701	1991.38
499.918	2086.38
500.135	2214.38
500.352	2359.38
500.569	2380.38
500.786	2514.38
501.003	2338.38
501.22	2086.38
501.437	2070.38
501.654	2073.38
501.871	2023.38
502.088	1772.38
502.305	1767.38
502.522	1723.38
502.739	1616.38
502.956	1606.38
503.172	1526.38
503.389	1496.38
503.606	1484.38
503.823	1479.38
504.04	1499.38
504.256	1467.38
504.473	1500.38
504.69	1557.38
504.907	1477.38
505.123	1410.38
505.34	1541.38
505.557	1962.38
505.773	1652.38
505.99	1411.38
506.207	1309.38
506.423	1286.38
506.64	1306.38
506.856	1345.38
507.073	1496.38
507.289	1578.38
507.506	1479.38
507.722	1303.38
507.939	1264.38
508.155	1272.38
508.372	1274.38
508.588	1225.38
508.805	1216.38
509.021	1150.38
509.238	1145.38
509.454	1171.38
509.67	1139.38
509.887	1130.38
510.103	1150.38
510.319	1155.38
510.536	1235.38
510.752	1216.38
510.968	1265.38
511.184	1282.38
511.401	1221.38
511.617	1113.38
511.833	1101.38
512.049	1091.38
512.265	1097.38
512.481	1095.38
512.698	1174.38
512.914	1204.38
513.13	1189.38
513.346	1116.38
513.562	1109.38
513.778	1105.38
513.994	1185.38
514.21	1189.38
514.426	1194.38
514.642	1324.38
514.858	1227.38
515.074	1148.38
515.29	1140.38
515.506	1167.38
515.721	1174.38
515.937	1177.38
516.153	1315.38
516.369	1249.38
516.585	1162.38
516.801	1182.38
517.016	1140.38
517.232	1167.38
517.448	1222.38
517.664	1251.38
517.879	1235.38
518.095	1257.38
518.311	1208.38
518.527	1161.38
518.742	1148.38
518.958	1130.38
519.173	1137.38
519.389	1158.38
519.605	1191.38
519.82	1167.38
520.036	1166.38
520.251	1146.38
520.467	1144.38
520.682	1251.38
520.898	1241.38
521.113	1130.38
521.329	1142.38
521.544	1204.38
521.76	1155.38
521.975	1100.38
522.19	1060.38
522.406	1115.38
522.621	1363.38
522.836	1350.38
523.052	1099.38
523.267	1087.38
523.482	1096.38
523.698	1082.38
523.913	1051.38
524.128	1087.38
524.343	1164.38
524.559	1170.38
524.774	1088.38
524.989	1071.38
525.204	1066.38
525.419	1038.38
525.634	1070.38
525.849	1076.38
526.064	1110.38
526.28	1054.38
526.495	1007.38
526.71	989.38
526.925	975.38
527.14	1002.38
527.355	967.38
527.57	971.38
527.785	1051.38
527.999	1012.38
528.214	986.38
528.429	971.38
528.644	1005.38
528.859	1095.38
529.074	1059.38
529.289	1117.38
529.503	1120.38
529.718	1067.38
529.933	1028.38
530.148	974.38
530.363	975.38
530.577	990.38
530.792	1014.38
531.007	987.38
531.221	974.38
531.436	1004.38
531.651	1022.38
531.865	1068.38
532.08	1034.38
532.295	939.38
532.509	920.38
532.724	959.38
532.938	1012.38
533.153	1060.38
533.367	1034.38
533.582	1040.38
533.796	1049.38
534.011	1033.38
534.225	1007.38
534.44	974.38
534.654	975.38
534.868	1002.38
535.083	999.38
535.297	1035.38
535.511	1007.38
535.726	1010.38
535.94	1010.38
536.154	1008.38
536.369	967.38
536.583	942.38
536.797	928.38
537.011	988.38
537.225	932.38
537.44	923.38
537.654	973.38
537.868	941.38
538.082	902.38
538.296	852.38
538.51	940.38
538.724	937.38
538.938	982.38
539.153	1000.38
539.367	986.38
539.581	999.38
539.795	985.38
540.009	967.38
540.222	945.38
540.436	967.38
540.65	1066.38
540.864	1112.38
541.078	1025.38
541.292	1029.38
541.506	1072.38
541.72	1108.38
541.934	1155.38
542.147	1182.38
542.361	1135.38
542.575	1050.38
542.789	998.38
543.002	965.38
543.216	980.38
543.43	1018.38
543.644	1094.38
543.857	1123.38
544.071	1091.38
544.285	1103.38
544.498	1097.38
544.712	1076.38
544.925	1120.38
545.139	1149.38
545.352	1082.38
545.566	1077.38
545.779	1050.38
545.993	1065.38
546.206	1096.38
546.42	1065.38
546.633	1050.38
546.847	1048.38
547.06	1056.38
547.274	1064.38
547.487	1089.38
547.7	1088.38
547.914	1068.38
548.127	1077.38
548.34	1095.38
548.554	1044.38
548.767	1065.38
548.98	1102.38
549.193	1074.38
549.407	1103.38
549.62	1098.38
549.833	1044.38
550.046	1032.38
550.259	1039.38
550.473	1013.38
550.686	1038.38
550.899	1025.38
551.112	997.38
551.325	995.38
551.538	1041.38
551.751	1148.38
551.964	906.38
552.177	955.38
552.39	940.38
552.603	1022.38
552.816	1009.38
553.029	1058.38
553.242	1065.38
553.455	1096.38
553.667	1032.38
553.88	1043.38
554.093	1031.38
554.306	1002.38
554.519	954.38
554.732	964.38
554.944	960.38
555.157	975.38
555.37	955.38
555.583	928.38
555.795	925.38
556.008	903.38
556.221	889.38
556.433	857.38
556.646	868.38
556.859	880.38
557.071	842.38
557.284	871.38
557.496	865.38
557.709	854.38
557.921	854.38
558.134	856.38
558.346	840.38
558.559	858.38
558.771	830.38
558.984	793.38
559.196	807.38
559.409	804.38
559.621	820.38
559.833	838.38
560.046	839.38
560.258	804.38
560.47	816.38
560.683	782.38
560.895	835.38
561.107	811.38
561.32	826.38
561.532	816.38
561.744	806.38
561.956	807.38
562.168	778.38
562.381	780.38
562.593	815.38
562.805	797.38
563.017	756.38
563.229	812.38
563.441	824.38
563.653	793.38
563.865	798.38
564.077	777.38
564.289	778.38
564.501	783.38
564.713	808.38
564.925	827.38
565.137	857.38
565.349	822.38
565.561	818.38
565.773	806.38
565.985	818.38
566.197	870.38
566.408	910.38
566.62	930.38
566.832	919.38
567.044	926.38
567.255	904.38
567.467	890.38
567.679	936.38
567.891	914.38
568.102	882.38
568.314	863.38
568.526	800.38
568.737	773.38
568.949	753.38
569.161	710.38
569.372	694.38
569.584	663.38
569.795	694.38
570.007	682.38
570.218	644.38
570.43	628.38
570.641	639.38
570.853	666.38
571.064	670.38
571.276	642.38
571.487	651.38
571.698	648.38
571.91	651.38
572.121	629.38
572.333	616.38
572.544	600.38
572.755	594.38
572.966	594.38
573.178	570.38
573.389	574.38
573.6	621.38
573.811	651.38
574.023	594.38
574.234	572.38
574.445	567.38
574.656	547.38
574.867	557.38
575.078	576.38
575.289	563.38
575.501	540.38
575.712	552.38
575.923	564.38
576.134	567.38
576.345	555.38
576.556	577.38
576.767	537.38
576.978	542.38
577.188	512.38
577.399	537.38
577.61	534.38
577.821	506.38
578.032	540.38
578.243	509.38
578.454	514.38
578.665	501.38
578.875	486.38
579.086	477.38
579.297	478.38
579.508	519.38
579.718	499.38
579.929	504.38
580.14	519.38
580.35	493.38
580.561	500.38
580.772	562.38
580.982	511.38
581.193	497.38
581.403	507.38
581.614	478.38
581.825	502.38
582.035	483.38
582.246	500.38
582.456	496.38
582.667	481.38
582.877	484.38
583.087	453.38
583.298	461.38
583.508	464.38
583.719	489.38
583.929	490.38
584.139	475.38
584.35	458.38
584.56	458.38
584.77	455.38
584.981	464.38
585.191	477.38
585.401	475.38
585.611	467.38
585.821	469.38
586.032	473.38
586.242	458.38
586.452	459.38
586.662	460.38
586.872	437.38
587.082	442.38
587.292	449.38
587.502	469.38
587.713	454.38
587.923	445.38
588.133	462.38
588.343	460.38
588.553	436.38
588.762	440.38
588.972	435.38
589.182	433.38
589.392	446.38
589.602	483.38
589.812	440.38
590.022	434.38
590.232	416.38
590.441	456.38
590.651	466.38
590.861	448.38
591.071	443.38
591.281	441.38
591.49	433.38
591.7	457.38
591.91	425.38
592.119	441.38
592.329	434.38
592.539	449.38
592.748	449.38
592.958	453.38
593.167	468.38
593.377	470.38
593.587	469.38
593.796	474.38
594.006	464.38
594.215	454.38
594.424	456.38
594.634	465.38
594.843	482.38
595.053	471.38
595.262	438.38
595.472	459.38
595.681	438.38
595.89	442.38
596.1	437.38
596.309	404.38
596.518	412.38
596.727	456.38
596.937	425.38
597.146	432.38
597.355	388.38
597.564	419.38
597.774	408.38
597.983	393.38
598.192	384.38
598.401	383.38
598.61	395.38
598.819	382.38
599.028	402.38
599.237	399.38
599.446	385.38
599.655	379.38
599.864	371.38
600.073	383.38
600.282	382.38
600.491	380.38
600.7	380.38
600.909	405.38
601.118	412.38
601.327	405.38
601.536	406.38
601.745	411.38
601.953	413.38
602.162	428.38
602.371	420.38
602.58	413.38
602.789	411.38
602.997	398.38
603.206	412.38
603.415	407.38
603.623	409.38
603.832	391.38
604.041	394.38
604.249	366.38
604.458	379.38
604.666	376.38
604.875	367.38
605.084	390.38
605.292	404.38
605.501	419.38
605.709	404.38
605.918	403.38
606.126	423.38
606.334	402.38
606.543	401.38
606.751	402.38
606.96	409.38
607.168	394.38
607.376	399.38
607.585	402.38
607.793	391.38
608.001	396.38
608.21	403.38
608.418	399.38
608.626	418.38
608.834	384.38
609.043	412.38
609.251	389.38
609.459	386.38
609.667	408.38
609.875	406.38
610.083	418.38
610.291	406.38
610.499	407.38
610.707	403.38
610.916	385.38
611.124	401.38
611.332	393.38
611.54	381.38
611.748	401.38
611.955	391.38
612.163	374.38
612.371	391.38
612.579	384.38
612.787	380.38
612.995	381.38
613.203	388.38
613.411	384.38
613.618	394.38
613.826	386.38
614.034	380.38
614.242	381.38
614.449	393.38
614.657	386.38
614.865	394.38
615.072	397.38
615.28	395.38
615.488	396.38
615.695	391.38
615.903	382.38
616.111	392.38
616.318	389.38
616.526	387.38
616.733	392.38
616.941	406.38
617.148	400.38
617.356	380.38
617.563	386.38
617.771	373.38
617.978	371.38
618.185	374.38
618.393	356.38
618.6	362.38
618.807	376.38
619.015	372.38
619.222	388.38
619.429	354.38
619.637	362.38
619.844	323.38
620.051	347.38
620.258	353.38
620.466	373.38
620.673	342.38
620.88	343.38
621.087	338.38
621.294	353.38
621.501	326.38
621.708	333.38
621.915	356.38
622.122	356.38
622.329	357.38
622.536	368.38
622.743	344.38
622.95	348.38
623.157	351.38
623.364	344.38
623.571	341.38
623.778	366.38
623.985	338.38
624.192	350.38
624.399	343.38
624.606	346.38
624.812	337.38
625.019	328.38
625.226	337.38
625.433	318.38
625.639	330.38
625.846	298.38
626.053	307.38
626.259	305.38
626.466	297.38
626.673	288.38
626.879	279.38
627.086	299.38
627.293	306.38
627.499	324.38
627.706	308.38
627.912	322.38
628.119	318.38
628.325	344.38
628.532	322.38
628.738	307.38
628.945	319.38
629.151	312.38
629.357	297.38
629.564	304.38
629.77	324.38
629.976	304.38
630.183	289.38
630.389	304.38
630.595	310.38
630.802	316.38
631.008	299.38
631.214	303.38
631.42	289.38
631.627	304.38
631.833	278.38
632.039	295.38
632.245	304.38
632.451	311.38
632.657	302.38
632.863	304.38
633.069	299.38
633.275	290.38
633.481	284.38
633.688	295.38
633.893	283.38
634.099	289.38
634.305	302.38
634.511	282.38
634.717	274.38
634.923	268.38
635.129	279.38
635.335	277.38
635.541	248.38
635.747	261.38
635.952	296.38
636.158	288.38
636.364	280.38
636.57	288.38
636.775	272.38
636.981	275.38
637.187	286.38
637.392	296.38
637.598	313.38
637.804	290.38
638.009	279.38
638.215	268.38
638.421	271.38
638.626	267.38
638.832	271.38
639.037	282.38
639.243	272.38
639.448	259.38
639.654	296.38
639.859	271.38
640.065	258.38
640.27	264.38
640.475	290.38
640.681	257.38
640.886	274.38
641.091	280.38
641.297	261.38
641.502	266.38
641.707	279.38
641.913	272.38
642.118	261.38
642.323	268.38
642.528	258.38
642.733	270.38
642.939	277.38
643.144	262.38
643.349	250.38
643.554	253.38
643.759	263.38
643.964	264.38
644.169	255.38
644.374	262.38
644.579	261.38
644.784	264.38
644.989	254.38
645.194	258.38
645.399	249.38
645.604	249.38
645.809	263.38
646.014	258.38
646.219	259.38
646.423	254.38
646.628	270.38
646.833	258.38
647.038	246.38
647.243	256.38
647.447	262.38
647.652	251.38
647.857	262.38
648.062	252.38
648.266	260.38
648.471	272.38
648.676	262.38
648.88	270.38
649.085	260.38
649.289	240.38
649.494	258.38
649.698	255.38
649.903	258.38
650.107	242.38
650.312	238.38
650.516	245.38
650.721	246.38
650.925	231.38
651.13	251.38
651.334	232.38
651.539	244.38
651.743	234.38
651.947	236.38
652.152	247.38
652.356	236.38
652.56	219.38
652.764	232.38
652.969	231.38
653.173	224.38
653.377	214.38
653.581	230.38
653.785	223.38
653.99	228.38
654.194	190.38
654.398	215.38
654.602	219.38
654.806	227.38
655.01	206.38
655.214	211.38
655.418	213.38
655.622	242.38
655.826	232.38
656.03	247.38
656.234	254.38
656.438	254.38
656.642	243.38
656.846	247.38
657.049	238.38
657.253	238.38
657.457	204.38
657.661	184.38
657.865	186.38
658.068	168.38
658.272	169.38
658.476	163.38
658.68	154.38
658.883	162.38
659.087	153.38
659.291	138.38
659.494	136.38
659.698	139.38
659.901	132.38
660.105	134.38
660.309	115.38
660.512	125.38
660.716	124.38
660.919	120.38
661.123	116.38
661.326	98.38
661.53	117.38
661.733	107.38
661.936	115.38
662.14	115.38
662.343	111.38
662.546	93.38
662.75	86.38
662.953	89.38
663.156	96.38
663.36	98.38
663.563	95.38
663.766	82.38
663.969	98.38
664.173	87.38
664.376	70.38
664.579	88.38
664.782	87.38
664.985	85.38
665.188	74.38
665.391	79.38
665.594	79.38
665.797	76.38
666	75.38
666.203	84.38
666.406	76.38
666.609	78.38
666.812	70.38
667.015	83.38
667.218	86.38
667.421	79.38
667.624	83.38
667.827	85.38
668.03	91.38
668.232	93.38
668.435	97.38
668.638	69.38
668.841	100.38
669.043	79.38
669.246	76.38
669.449	96.38
669.651	83.38
669.854	82.38
670.057	80.38
670.259	85.38
670.462	72.38
670.665	62.38
670.867	73.38
671.07	86.38
671.272	72.38
671.475	75.38
671.677	75.38
671.88	82.38
672.082	76.38
672.284	84.38
672.487	67.38
672.689	85.38
672.892	69.38
