Data from WStandard_LampEnergy8_LIBS07252019.E.O._I.C._HRD10591_16-00-57-930.txt Node
Date: Thu Jul 25 16:00:57 EDT 2019
User: cochatt
Spectrometer: HR+D1059
Trigger mode: 1
Integration Time (sec): 1.000000E-1
Scans to average: 1
Electric dark correction enabled: true
Nonlinearity correction enabled: false
Boxcar width: 0
XAxis mode: Wavelengths
Number of Pixels in Spectrum: 2048
>>>>>Begin Spectral Data<<<<<
223.165	-24.56
223.4	-24.56
223.635	-24.56
223.869	-18.56
224.104	-24.56
224.338	-15.56
224.573	-13.56
224.808	-0.56
225.042	-9.56
225.277	-1.56
225.511	-11.56
225.746	11.44
225.98	-2.56
226.215	-0.56
226.449	30.44
226.683	27.44
226.918	35.44
227.152	18.44
227.387	34.44
227.621	25.44
227.856	33.44
228.09	39.44
228.324	44.44
228.559	44.44
228.793	102.44
229.027	179.44
229.262	187.44
229.496	201.44
229.73	225.44
229.964	244.44
230.199	267.44
230.433	248.44
230.667	263.44
230.901	268.44
231.136	258.44
231.37	240.44
231.604	251.44
231.838	249.44
232.072	256.44
232.306	244.44
232.541	248.44
232.775	292.44
233.009	328.44
233.243	291.44
233.477	267.44
233.711	288.44
233.945	301.44
234.179	303.44
234.413	312.44
234.647	338.44
234.881	316.44
235.115	299.44
235.349	294.44
235.583	276.44
235.817	312.44
236.051	304.44
236.285	298.44
236.519	309.44
236.753	325.44
236.987	357.44
237.221	341.44
237.455	361.44
237.689	353.44
237.922	334.44
238.156	331.44
238.39	338.44
238.624	355.44
238.858	378.44
239.091	389.44
239.325	411.44
239.559	464.44
239.793	460.44
240.027	479.44
240.26	486.44
240.494	378.44
240.728	376.44
240.961	384.44
241.195	384.44
241.429	400.44
241.662	379.44
241.896	377.44
242.13	398.44
242.363	416.44
242.597	452.44
242.83	434.44
243.064	452.44
243.298	457.44
243.531	454.44
243.765	447.44
243.998	442.44
244.232	401.44
244.465	370.44
244.699	405.44
244.932	448.44
245.166	500.44
245.399	480.44
245.633	447.44
245.866	407.44
246.099	457.44
246.333	450.44
246.566	491.44
246.8	516.44
247.033	549.44
247.266	519.44
247.5	501.44
247.733	509.44
247.966	540.44
248.2	585.44
248.433	565.44
248.666	581.44
248.899	636.44
249.133	707.44
249.366	783.44
249.599	667.44
249.832	567.44
250.066	591.44
250.299	596.44
250.532	565.44
250.765	530.44
250.998	565.44
251.231	549.44
251.465	579.44
251.698	549.44
251.931	557.44
252.164	557.44
252.397	588.44
252.63	587.44
252.863	541.44
253.096	506.44
253.329	527.44
253.562	561.44
253.795	592.44
254.028	587.44
254.261	556.44
254.494	561.44
254.727	533.44
254.96	552.44
255.193	617.44
255.426	666.44
255.659	720.44
255.892	771.44
256.124	645.44
256.357	617.44
256.59	667.44
256.823	660.44
257.056	665.44
257.289	791.44
257.521	851.44
257.754	797.44
257.987	744.44
258.22	792.44
258.452	782.44
258.685	643.44
258.918	663.44
259.151	646.44
259.383	619.44
259.616	563.44
259.849	603.44
260.081	663.44
260.314	723.44
260.547	783.44
260.779	793.44
261.012	729.44
261.244	674.44
261.477	641.44
261.71	681.44
261.942	679.44
262.175	653.44
262.407	673.44
262.64	610.44
262.872	625.44
263.105	571.44
263.337	614.44
263.57	620.44
263.802	596.44
264.035	562.44
264.267	554.44
264.499	529.44
264.732	589.44
264.964	616.44
265.197	665.44
265.429	689.44
265.661	749.44
265.894	814.44
266.126	855.44
266.358	730.44
266.591	760.44
266.823	834.44
267.055	765.44
267.287	754.44
267.52	720.44
267.752	734.44
267.984	748.44
268.216	754.44
268.448	761.44
268.681	754.44
268.913	707.44
269.145	653.44
269.377	665.44
269.609	742.44
269.841	845.44
270.073	959.44
270.306	1048.44
270.538	1057.44
270.77	910.44
271.002	813.44
271.234	783.44
271.466	795.44
271.698	879.44
271.93	1012.44
272.162	988.44
272.394	913.44
272.626	872.44
272.858	773.44
273.09	687.44
273.322	674.44
273.553	638.44
273.785	663.44
274.017	683.44
274.249	751.44
274.481	751.44
274.713	689.44
274.945	669.44
275.176	691.44
275.408	660.44
275.64	659.44
275.872	657.44
276.104	725.44
276.335	810.44
276.567	909.44
276.799	896.44
277.031	806.44
277.262	777.44
277.494	794.44
277.726	871.44
277.957	893.44
278.189	789.44
278.421	725.44
278.652	720.44
278.884	709.44
279.115	704.44
279.347	722.44
279.579	703.44
279.81	724.44
280.042	790.44
280.273	829.44
280.505	803.44
280.736	847.44
280.968	801.44
281.199	709.44
281.431	700.44
281.662	663.44
281.894	708.44
282.125	714.44
282.356	730.44
282.588	754.44
282.819	763.44
283.051	807.44
283.282	855.44
283.513	819.44
283.745	727.44
283.976	694.44
284.207	697.44
284.439	716.44
284.67	718.44
284.901	745.44
285.132	743.44
285.364	755.44
285.595	748.44
285.826	753.44
286.057	723.44
286.288	739.44
286.52	760.44
286.751	821.44
286.982	804.44
287.213	783.44
287.444	727.44
287.675	709.44
287.906	774.44
288.138	802.44
288.369	767.44
288.6	740.44
288.831	723.44
289.062	703.44
289.293	723.44
289.524	731.44
289.755	752.44
289.986	737.44
290.217	716.44
290.448	723.44
290.679	756.44
290.91	755.44
291.141	759.44
291.371	810.44
291.602	812.44
291.833	779.44
292.064	807.44
292.295	780.44
292.526	813.44
292.757	811.44
292.987	823.44
293.218	769.44
293.449	862.44
293.68	944.44
293.91	995.44
294.141	881.44
294.372	891.44
294.603	920.44
294.833	964.44
295.064	869.44
295.295	803.44
295.525	761.44
295.756	727.44
295.987	729.44
296.217	721.44
296.448	754.44
296.679	763.44
296.909	755.44
297.14	753.44
297.37	775.44
297.601	828.44
297.831	879.44
298.062	835.44
298.292	771.44
298.523	796.44
298.753	751.44
298.984	766.44
299.214	777.44
299.445	820.44
299.675	795.44
299.905	834.44
300.136	780.44
300.366	760.44
300.597	725.44
300.827	750.44
301.057	805.44
301.288	811.44
301.518	842.44
301.748	856.44
301.979	892.44
302.209	908.44
302.439	951.44
302.669	970.44
302.9	881.44
303.13	822.44
303.36	825.44
303.59	841.44
303.82	845.44
304.051	866.44
304.281	828.44
304.511	844.44
304.741	927.44
304.971	972.44
305.201	1041.44
305.431	935.44
305.661	793.44
305.891	752.44
306.121	739.44
306.352	769.44
306.582	809.44
306.812	890.44
307.042	929.44
307.272	928.44
307.502	979.44
307.731	1034.44
307.961	1053.44
308.191	964.44
308.421	851.44
308.651	821.44
308.881	794.44
309.111	794.44
309.341	806.44
309.571	819.44
309.8	815.44
310.03	810.44
310.26	785.44
310.49	815.44
310.72	845.44
310.949	850.44
311.179	855.44
311.409	843.44
311.639	788.44
311.868	821.44
312.098	818.44
312.328	841.44
312.557	827.44
312.787	833.44
313.017	831.44
313.246	869.44
313.476	841.44
313.706	861.44
313.935	842.44
314.165	907.44
314.394	911.44
314.624	928.44
314.853	960.44
315.083	1009.44
315.312	1019.44
315.542	947.44
315.771	876.44
316.001	871.44
316.23	912.44
316.46	920.44
316.689	906.44
316.919	857.44
317.148	827.44
317.377	858.44
317.607	938.44
317.836	1003.44
318.065	1041.44
318.295	1013.44
318.524	947.44
318.753	916.44
318.983	923.44
319.212	922.44
319.441	880.44
319.67	909.44
319.9	915.44
320.129	950.44
320.358	1004.44
320.587	1004.44
320.816	993.44
321.046	956.44
321.275	932.44
321.504	948.44
321.733	994.44
321.962	965.44
322.191	901.44
322.42	901.44
322.649	860.44
322.878	918.44
323.108	887.44
323.337	920.44
323.566	938.44
323.795	903.44
324.024	927.44
324.253	889.44
324.482	915.44
324.71	891.44
324.939	856.44
325.168	901.44
325.397	870.44
325.626	909.44
325.855	937.44
326.084	895.44
326.313	924.44
326.542	899.44
326.77	940.44
326.999	933.44
327.228	897.44
327.457	850.44
327.686	860.44
327.914	876.44
328.143	915.44
328.372	908.44
328.6	899.44
328.829	891.44
329.058	891.44
329.287	903.44
329.515	927.44
329.744	920.44
329.972	973.44
330.201	1001.44
330.43	978.44
330.658	940.44
330.887	968.44
331.115	960.44
331.344	989.44
331.572	950.44
331.801	947.44
332.03	914.44
332.258	969.44
332.486	982.44
332.715	971.44
332.943	963.44
333.172	943.44
333.4	970.44
333.629	1023.44
333.857	1075.44
334.085	1170.44
334.314	1307.44
334.542	1371.44
334.771	1247.44
334.999	1121.44
335.227	1083.44
335.455	1035.44
335.684	1009.44
335.912	1042.44
336.14	1045.44
336.369	1028.44
336.597	974.44
336.825	949.44
337.053	1021.44
337.281	1061.44
337.51	1108.44
337.738	1141.44
337.966	1067.44
338.194	984.44
338.422	986.44
338.65	968.44
338.878	948.44
339.106	941.44
339.334	893.44
339.562	912.44
339.79	912.44
340.018	1004.44
340.246	1009.44
340.474	997.44
340.702	988.44
340.93	970.44
341.158	964.44
341.386	952.44
341.614	961.44
341.842	976.44
342.07	976.44
342.298	968.44
342.526	958.44
342.754	952.44
342.981	953.44
343.209	955.44
343.437	946.44
343.665	964.44
343.893	980.44
344.12	1001.44
344.348	1025.44
344.576	954.44
344.804	945.44
345.031	965.44
345.259	941.44
345.487	933.44
345.714	881.44
345.942	882.44
346.17	899.44
346.397	882.44
346.625	901.44
346.853	889.44
347.08	870.44
347.308	874.44
347.535	909.44
347.763	913.44
347.99	921.44
348.218	880.44
348.445	865.44
348.673	931.44
348.9	941.44
349.128	949.44
349.355	978.44
349.583	972.44
349.81	915.44
350.037	846.44
350.265	847.44
350.492	894.44
350.72	887.44
350.947	899.44
351.174	913.44
351.402	876.44
351.629	858.44
351.856	851.44
352.083	857.44
352.311	867.44
352.538	892.44
352.765	895.44
352.992	917.44
353.22	867.44
353.447	867.44
353.674	895.44
353.901	869.44
354.128	875.44
354.355	889.44
354.583	936.44
354.81	916.44
355.037	920.44
355.264	912.44
355.491	902.44
355.718	883.44
355.945	913.44
356.172	850.44
356.399	871.44
356.626	867.44
356.853	931.44
357.08	1000.44
357.307	1082.44
357.534	1033.44
357.761	909.44
357.988	901.44
358.215	864.44
358.441	867.44
358.668	884.44
358.895	881.44
359.122	971.44
359.349	1000.44
359.576	997.44
359.802	898.44
360.029	852.44
360.256	879.44
360.483	897.44
360.709	913.44
360.936	947.44
361.163	1001.44
361.39	1097.44
361.616	1138.44
361.843	1124.44
362.07	1041.44
362.296	905.44
362.523	870.44
362.749	941.44
362.976	935.44
363.203	952.44
363.429	882.44
363.656	871.44
363.882	937.44
364.109	1001.44
364.335	1088.44
364.562	992.44
364.788	945.44
365.015	931.44
365.241	871.44
365.468	920.44
365.694	940.44
365.92	984.44
366.147	918.44
366.373	866.44
366.599	865.44
366.826	888.44
367.052	883.44
367.278	913.44
367.505	929.44
367.731	932.44
367.957	935.44
368.184	947.44
368.41	1002.44
368.636	1036.44
368.862	1036.44
369.089	1042.44
369.315	970.44
369.541	921.44
369.767	905.44
369.993	901.44
370.219	869.44
370.445	918.44
370.672	996.44
370.898	1065.44
371.124	985.44
371.35	989.44
371.576	987.44
371.802	998.44
372.028	939.44
372.254	929.44
372.48	929.44
372.706	907.44
372.932	916.44
373.158	924.44
373.384	955.44
373.61	984.44
373.835	1007.44
374.061	966.44
374.287	964.44
374.513	991.44
374.739	969.44
374.965	974.44
375.191	975.44
375.416	986.44
375.642	997.44
375.868	1079.44
376.094	1120.44
376.319	1016.44
376.545	955.44
376.771	1015.44
376.997	1047.44
377.222	1026.44
377.448	1001.44
377.674	1011.44
377.899	1025.44
378.125	1066.44
378.35	1053.44
378.576	960.44
378.802	921.44
379.027	948.44
379.253	993.44
379.478	943.44
379.704	975.44
379.929	932.44
380.155	944.44
380.38	986.44
380.606	983.44
380.831	996.44
381.057	1037.44
381.282	1028.44
381.507	1045.44
381.733	1092.44
381.958	1097.44
382.184	1028.44
382.409	1010.44
382.634	1031.44
382.86	1003.44
383.085	1009.44
383.31	1037.44
383.535	1132.44
383.761	1171.44
383.986	1108.44
384.211	1073.44
384.436	1073.44
384.662	1125.44
384.887	1145.44
385.112	1106.44
385.337	1121.44
385.562	1127.44
385.787	1141.44
386.013	1109.44
386.238	1116.44
386.463	1128.44
386.688	1201.44
386.913	1277.44
387.138	1207.44
387.363	1136.44
387.588	1138.44
387.813	1137.44
388.038	1152.44
388.263	1166.44
388.488	1159.44
388.713	1067.44
388.938	1078.44
389.163	1065.44
389.387	1092.44
389.612	1121.44
389.837	1130.44
390.062	1123.44
390.287	1114.44
390.512	1084.44
390.736	1101.44
390.961	1081.44
391.186	1051.44
391.411	1064.44
391.636	1075.44
391.86	1092.44
392.085	1106.44
392.31	1084.44
392.534	1098.44
392.759	1111.44
392.984	1109.44
393.208	1132.44
393.433	1153.44
393.658	1181.44
393.882	1184.44
394.107	1130.44
394.331	1120.44
394.556	1085.44
394.78	1143.44
395.005	1145.44
395.229	1211.44
395.454	1288.44
395.678	1290.44
395.903	1187.44
396.127	1173.44
396.352	1163.44
396.576	1241.44
396.801	1231.44
397.025	1216.44
397.249	1205.44
397.474	1185.44
397.698	1183.44
397.922	1214.44
398.147	1258.44
398.371	1343.44
398.595	1325.44
398.82	1256.44
399.044	1292.44
399.268	1339.44
399.492	1413.44
399.717	1445.44
399.941	1461.44
400.165	1417.44
400.389	1418.44
400.613	1436.44
400.837	1652.44
401.062	1772.44
401.286	1509.44
401.51	1384.44
401.734	1421.44
401.958	1363.44
402.182	1307.44
402.406	1253.44
402.63	1279.44
402.854	1252.44
403.078	1237.44
403.302	1316.44
403.526	1311.44
403.75	1295.44
403.974	1344.44
404.198	1321.44
404.422	1385.44
404.645	1418.44
404.869	1397.44
405.093	1294.44
405.317	1283.44
405.541	1327.44
405.765	1329.44
405.988	1316.44
406.212	1346.44
406.436	1373.44
406.66	1423.44
406.883	1422.44
407.107	1660.44
407.331	1727.44
407.555	1855.44
407.778	1668.44
408.002	1403.44
408.226	1347.44
408.449	1372.44
408.673	1317.44
408.896	1339.44
409.12	1372.44
409.344	1380.44
409.567	1293.44
409.791	1338.44
410.014	1363.44
410.238	1443.44
410.461	1501.44
410.685	1324.44
410.908	1299.44
411.132	1312.44
411.355	1303.44
411.578	1311.44
411.802	1308.44
412.025	1303.44
412.249	1285.44
412.472	1259.44
412.695	1303.44
412.919	1271.44
413.142	1248.44
413.365	1266.44
413.589	1348.44
413.812	1385.44
414.035	1395.44
414.258	1320.44
414.482	1258.44
414.705	1283.44
414.928	1256.44
415.151	1271.44
415.374	1264.44
415.597	1293.44
415.821	1307.44
416.044	1337.44
416.267	1332.44
416.49	1205.44
416.713	1226.44
416.936	1312.44
417.159	1350.44
417.382	1335.44
417.605	1275.44
417.828	1314.44
418.051	1301.44
418.274	1258.44
418.497	1228.44
418.72	1237.44
418.943	1211.44
419.166	1276.44
419.389	1345.44
419.611	1316.44
419.834	1279.44
420.057	1257.44
420.28	1258.44
420.503	1263.44
420.726	1302.44
420.948	1267.44
421.171	1285.44
421.394	1258.44
421.617	1290.44
421.839	1301.44
422.062	1311.44
422.285	1247.44
422.507	1240.44
422.73	1203.44
422.953	1168.44
423.175	1183.44
423.398	1261.44
423.621	1254.44
423.843	1293.44
424.066	1295.44
424.288	1349.44
424.511	1400.44
424.733	1335.44
424.956	1217.44
425.178	1216.44
425.401	1214.44
425.623	1244.44
425.846	1249.44
426.068	1336.44
426.291	1287.44
426.513	1291.44
426.735	1296.44
426.958	1370.44
427.18	1422.44
427.402	1356.44
427.625	1365.44
427.847	1350.44
428.069	1265.44
428.292	1195.44
428.514	1199.44
428.736	1194.44
428.958	1207.44
429.181	1223.44
429.403	1458.44
429.625	1743.44
429.847	1451.44
430.069	1275.44
430.292	1436.44
430.514	1407.44
430.736	1314.44
430.958	1336.44
431.18	1272.44
431.402	1222.44
431.624	1165.44
431.846	1162.44
432.068	1095.44
432.29	1115.44
432.512	1160.44
432.734	1240.44
432.956	1227.44
433.178	1321.44
433.4	1285.44
433.622	1278.44
433.844	1217.44
434.066	1201.44
434.287	1162.44
434.509	1163.44
434.731	1235.44
434.953	1304.44
435.175	1317.44
435.397	1263.44
435.618	1255.44
435.84	1241.44
436.062	1229.44
436.284	1237.44
436.505	1237.44
436.727	1304.44
436.949	1211.44
437.17	1213.44
437.392	1199.44
437.614	1180.44
437.835	1120.44
438.057	1167.44
438.278	1212.44
438.5	1199.44
438.721	1193.44
438.943	1195.44
439.165	1182.44
439.386	1201.44
439.608	1233.44
439.829	1216.44
440.05	1189.44
440.272	1232.44
440.493	1227.44
440.715	1226.44
440.936	1343.44
441.158	1387.44
441.379	1367.44
441.6	1331.44
441.822	1303.44
442.043	1289.44
442.264	1285.44
442.486	1239.44
442.707	1230.44
442.928	1231.44
443.149	1243.44
443.371	1308.44
443.592	1331.44
443.813	1312.44
444.034	1297.44
444.255	1331.44
444.476	1384.44
444.698	1370.44
444.919	1373.44
445.14	1420.44
445.361	1409.44
445.582	1377.44
445.803	1359.44
446.024	1350.44
446.245	1385.44
446.466	1360.44
446.687	1288.44
446.908	1287.44
447.129	1303.44
447.35	1266.44
447.571	1233.44
447.792	1207.44
448.013	1238.44
448.234	1246.44
448.455	1285.44
448.675	1283.44
448.896	1213.44
449.117	1157.44
449.338	1161.44
449.559	1235.44
449.779	1313.44
450	1403.44
450.221	1393.44
450.442	1400.44
450.662	1222.44
450.883	1138.44
451.104	1164.44
451.324	1166.44
451.545	1187.44
451.766	1172.44
451.986	1120.44
452.207	1111.44
452.428	1060.44
452.648	1054.44
452.869	1056.44
453.089	1109.44
453.31	1095.44
453.53	1139.44
453.751	1062.44
453.971	1007.44
454.192	1078.44
454.412	1120.44
454.633	1123.44
454.853	1098.44
455.073	1013.44
455.294	1059.44
455.514	1028.44
455.734	1055.44
455.955	1065.44
456.175	1010.44
456.395	1020.44
456.616	1088.44
456.836	1069.44
457.056	1101.44
457.276	1079.44
457.497	1004.44
457.717	1001.44
457.937	1027.44
458.157	1039.44
458.377	1026.44
458.598	980.44
458.818	1013.44
459.038	1084.44
459.258	1105.44
459.478	1095.44
459.698	1047.44
459.918	1120.44
460.138	1178.44
460.358	1211.44
460.578	1211.44
460.798	1268.44
461.018	1293.44
461.238	1274.44
461.458	1223.44
461.678	1222.44
461.898	1206.44
462.118	1178.44
462.338	1247.44
462.558	1215.44
462.777	1215.44
462.997	1281.44
463.217	1330.44
463.437	1267.44
463.657	1212.44
463.876	1193.44
464.096	1201.44
464.316	1263.44
464.536	1286.44
464.755	1300.44
464.975	1259.44
465.195	1238.44
465.414	1300.44
465.634	1289.44
465.854	1242.44
466.073	1341.44
466.293	1308.44
466.512	1212.44
466.732	1164.44
466.951	1202.44
467.171	1201.44
467.391	1152.44
467.61	1173.44
467.829	1186.44
468.049	1336.44
468.268	1425.44
468.488	1265.44
468.707	1244.44
468.927	1217.44
469.146	1190.44
469.365	1204.44
469.585	1207.44
469.804	1179.44
470.023	1198.44
470.243	1226.44
470.462	1223.44
470.681	1200.44
470.901	1243.44
471.12	1197.44
471.339	1213.44
471.558	1174.44
471.777	1175.44
471.997	1173.44
472.216	1163.44
472.435	1106.44
472.654	1108.44
472.873	1124.44
473.092	1197.44
473.311	1152.44
473.53	1098.44
473.749	1114.44
473.968	1173.44
474.187	1207.44
474.406	1219.44
474.625	1156.44
474.844	1146.44
475.063	1148.44
475.282	1175.44
475.501	1172.44
475.72	1175.44
475.939	1245.44
476.158	1194.44
476.377	1195.44
476.596	1184.44
476.814	1219.44
477.033	1158.44
477.252	1236.44
477.471	1279.44
477.69	1258.44
477.908	1256.44
478.127	1329.44
478.346	1370.44
478.564	1351.44
478.783	1395.44
479.002	1393.44
479.22	1356.44
479.439	1413.44
479.658	1535.44
479.876	1497.44
480.095	1333.44
480.313	1307.44
480.532	1262.44
480.751	1259.44
480.969	1297.44
481.188	1232.44
481.406	1210.44
481.624	1213.44
481.843	1242.44
482.061	1270.44
482.28	1303.44
482.498	1309.44
482.717	1251.44
482.935	1266.44
483.153	1345.44
483.372	1348.44
483.59	1337.44
483.808	1311.44
484.027	1345.44
484.245	1433.44
484.463	1713.44
484.681	1839.44
484.9	1442.44
485.118	1356.44
485.336	1296.44
485.554	1335.44
485.772	1380.44
485.99	1316.44
486.209	1332.44
486.427	1341.44
486.645	1356.44
486.863	1415.44
487.081	1451.44
487.299	1433.44
487.517	1430.44
487.735	1411.44
487.953	1456.44
488.171	1426.44
488.389	1447.44
488.607	1403.44
488.825	1563.44
489.043	1518.44
489.261	1380.44
489.479	1447.44
489.696	1464.44
489.914	1428.44
490.132	1409.44
490.35	1441.44
490.568	1487.44
490.786	1499.44
491.003	1481.44
491.221	1502.44
491.439	1575.44
491.657	1548.44
491.874	1596.44
492.092	1629.44
492.31	1661.44
492.527	1631.44
492.745	1578.44
492.963	1543.44
493.18	1588.44
493.398	1608.44
493.615	1673.44
493.833	1527.44
494.05	1539.44
494.268	1501.44
494.485	1541.44
494.703	1546.44
494.92	1494.44
495.138	1536.44
495.355	1539.44
495.573	1511.44
495.79	1639.44
496.008	1648.44
496.225	1549.44
496.442	1560.44
496.66	1606.44
496.877	1568.44
497.094	1602.44
497.312	1620.44
497.529	1604.44
497.746	1639.44
497.963	1799.44
498.181	1906.44
498.398	1847.44
498.615	1799.44
498.832	1682.44
499.049	1714.44
499.267	1730.44
499.484	1820.44
499.701	1990.44
499.918	2022.44
500.135	2146.44
500.352	2245.44
500.569	2267.44
500.786	2413.44
501.003	2238.44
501.22	2103.44
501.437	1999.44
501.654	2003.44
501.871	1942.44
502.088	1724.44
502.305	1708.44
502.522	1643.44
502.739	1559.44
502.956	1521.44
503.172	1541.44
503.389	1470.44
503.606	1459.44
503.823	1439.44
504.04	1455.44
504.256	1438.44
504.473	1447.44
504.69	1482.44
504.907	1411.44
505.123	1383.44
505.34	1518.44
505.557	1890.44
505.773	1558.44
505.99	1361.44
506.207	1290.44
506.423	1237.44
506.64	1250.44
506.856	1295.44
507.073	1476.44
507.289	1517.44
507.506	1441.44
507.722	1266.44
507.939	1180.44
508.155	1209.44
508.372	1233.44
508.588	1182.44
508.805	1142.44
509.021	1113.44
509.238	1119.44
509.454	1126.44
509.67	1111.44
509.887	1098.44
510.103	1105.44
510.319	1125.44
510.536	1171.44
510.752	1218.44
510.968	1195.44
511.184	1286.44
511.401	1213.44
511.617	1088.44
511.833	1044.44
512.049	1025.44
512.265	1073.44
512.481	1056.44
512.698	1119.44
512.914	1156.44
513.13	1152.44
513.346	1098.44
513.562	1063.44
513.778	1100.44
513.994	1150.44
514.21	1139.44
514.426	1220.44
514.642	1299.44
514.858	1194.44
515.074	1137.44
515.29	1087.44
515.506	1130.44
515.721	1171.44
515.937	1150.44
516.153	1259.44
516.369	1201.44
516.585	1109.44
516.801	1125.44
517.016	1156.44
517.232	1145.44
517.448	1183.44
517.664	1175.44
517.879	1194.44
518.095	1236.44
518.311	1213.44
518.527	1159.44
518.742	1131.44
518.958	1134.44
519.173	1111.44
519.389	1139.44
519.605	1146.44
519.82	1149.44
520.036	1155.44
520.251	1139.44
520.467	1121.44
520.682	1205.44
520.898	1231.44
521.113	1115.44
521.329	1071.44
521.544	1140.44
521.76	1103.44
521.975	1083.44
522.19	1044.44
522.406	1065.44
522.621	1329.44
522.836	1253.44
523.052	1063.44
523.267	1101.44
523.482	1092.44
523.698	1040.44
523.913	1017.44
524.128	1061.44
524.343	1101.44
524.559	1114.44
524.774	1068.44
524.989	1071.44
525.204	1039.44
525.419	998.44
525.634	1036.44
525.849	1059.44
526.064	1048.44
526.28	1053.44
526.495	985.44
526.71	956.44
526.925	977.44
527.14	970.44
527.355	969.44
527.57	939.44
527.785	1002.44
527.999	964.44
528.214	953.44
528.429	960.44
528.644	1001.44
528.859	1023.44
529.074	1068.44
529.289	1067.44
529.503	1093.44
529.718	1052.44
529.933	1023.44
530.148	956.44
530.363	935.44
530.577	967.44
530.792	960.44
531.007	956.44
531.221	967.44
531.436	971.44
531.651	971.44
531.865	1044.44
532.08	962.44
532.295	949.44
532.509	919.44
532.724	962.44
532.938	988.44
533.153	1029.44
533.367	1023.44
533.582	993.44
533.796	994.44
534.011	1010.44
534.225	965.44
534.44	974.44
534.654	962.44
534.868	948.44
535.083	1008.44
535.297	1035.44
535.511	981.44
535.726	989.44
535.94	971.44
536.154	952.44
536.369	946.44
536.583	893.44
536.797	909.44
537.011	936.44
537.225	897.44
537.44	910.44
537.654	939.44
537.868	907.44
538.082	883.44
538.296	864.44
538.51	898.44
538.724	921.44
538.938	935.44
539.153	965.44
539.367	974.44
539.581	952.44
539.795	957.44
540.009	947.44
540.222	941.44
540.436	947.44
540.65	1011.44
540.864	1033.44
541.078	1024.44
541.292	1024.44
541.506	1048.44
541.72	1066.44
541.934	1093.44
542.147	1163.44
542.361	1111.44
542.575	1061.44
542.789	1007.44
543.002	961.44
543.216	935.44
543.43	986.44
543.644	1011.44
543.857	1107.44
544.071	1073.44
544.285	1061.44
544.498	1024.44
544.712	1043.44
544.925	1111.44
545.139	1099.44
545.352	1063.44
545.566	1041.44
545.779	1037.44
545.993	1044.44
546.206	1089.44
546.42	1045.44
546.633	1075.44
546.847	1021.44
547.06	1014.44
547.274	1035.44
547.487	1048.44
547.7	1062.44
547.914	1087.44
548.127	1062.44
548.34	1061.44
548.554	1002.44
548.767	1022.44
548.98	1035.44
549.193	1056.44
549.407	1097.44
549.62	1085.44
549.833	1056.44
550.046	1040.44
550.259	1040.44
550.473	994.44
550.686	995.44
550.899	969.44
551.112	968.44
551.325	960.44
551.538	996.44
551.751	1111.44
551.964	883.44
552.177	891.44
552.39	933.44
552.603	996.44
552.816	976.44
553.029	1050.44
553.242	1027.44
553.455	1063.44
553.667	1004.44
553.88	1032.44
554.093	1013.44
554.306	963.44
554.519	940.44
554.732	974.44
554.944	943.44
555.157	986.44
555.37	934.44
555.583	925.44
555.795	921.44
556.008	869.44
556.221	856.44
556.433	852.44
556.646	838.44
556.859	839.44
557.071	833.44
557.284	853.44
557.496	859.44
557.709	852.44
557.921	818.44
558.134	841.44
558.346	848.44
558.559	848.44
558.771	830.44
558.984	823.44
559.196	762.44
559.409	783.44
559.621	820.44
559.833	795.44
560.046	827.44
560.258	832.44
560.47	803.44
560.683	817.44
560.895	793.44
561.107	789.44
561.32	819.44
561.532	828.44
561.744	794.44
561.956	818.44
562.168	772.44
562.381	765.44
562.593	788.44
562.805	785.44
563.017	757.44
563.229	773.44
563.441	797.44
563.653	781.44
563.865	769.44
564.077	767.44
564.289	756.44
564.501	771.44
564.713	790.44
564.925	791.44
565.137	852.44
565.349	809.44
565.561	792.44
565.773	781.44
565.985	791.44
566.197	835.44
566.408	909.44
566.62	909.44
566.832	901.44
567.044	906.44
567.255	888.44
567.467	889.44
567.679	893.44
567.891	923.44
568.102	880.44
568.314	840.44
568.526	804.44
568.737	731.44
568.949	729.44
569.161	705.44
569.372	677.44
569.584	668.44
569.795	661.44
570.007	653.44
570.218	638.44
570.43	624.44
570.641	640.44
570.853	654.44
571.064	663.44
571.276	651.44
571.487	631.44
571.698	636.44
571.91	633.44
572.121	629.44
572.333	612.44
572.544	583.44
572.755	569.44
572.966	600.44
573.178	581.44
573.389	555.44
573.6	586.44
573.811	598.44
574.023	567.44
574.234	556.44
574.445	549.44
574.656	527.44
574.867	555.44
575.078	532.44
575.289	549.44
575.501	537.44
575.712	559.44
575.923	540.44
576.134	548.44
576.345	544.44
576.556	547.44
576.767	544.44
576.978	535.44
577.188	549.44
577.399	523.44
577.61	518.44
577.821	507.44
578.032	497.44
578.243	513.44
578.454	497.44
578.665	506.44
578.875	478.44
579.086	483.44
579.297	499.44
579.508	502.44
579.718	477.44
579.929	505.44
580.14	482.44
580.35	470.44
580.561	496.44
580.772	554.44
580.982	522.44
581.193	487.44
581.403	479.44
581.614	459.44
581.825	467.44
582.035	447.44
582.246	471.44
582.456	462.44
582.667	492.44
582.877	484.44
583.087	480.44
583.298	475.44
583.508	466.44
583.719	465.44
583.929	466.44
584.139	459.44
584.35	431.44
584.56	416.44
584.77	446.44
584.981	443.44
585.191	453.44
585.401	490.44
585.611	450.44
585.821	452.44
586.032	431.44
586.242	440.44
586.452	457.44
586.662	457.44
586.872	447.44
587.082	403.44
587.292	446.44
587.502	461.44
587.713	461.44
587.923	448.44
588.133	433.44
588.343	445.44
588.553	438.44
588.762	441.44
588.972	429.44
589.182	437.44
589.392	451.44
589.602	449.44
589.812	430.44
590.022	438.44
590.232	433.44
590.441	436.44
590.651	441.44
590.861	435.44
591.071	428.44
591.281	417.44
591.49	424.44
591.7	424.44
591.91	440.44
592.119	425.44
592.329	449.44
592.539	449.44
592.748	455.44
592.958	449.44
593.167	465.44
593.377	469.44
593.587	463.44
593.796	464.44
594.006	458.44
594.215	446.44
594.424	452.44
594.634	454.44
594.843	459.44
595.053	459.44
595.262	446.44
595.472	438.44
595.681	437.44
595.89	433.44
596.1	418.44
596.309	445.44
596.518	437.44
596.727	432.44
596.937	420.44
597.146	428.44
597.355	417.44
597.564	399.44
597.774	393.44
597.983	389.44
598.192	391.44
598.401	388.44
598.61	385.44
598.819	379.44
599.028	379.44
599.237	401.44
599.446	383.44
599.655	373.44
599.864	383.44
600.073	369.44
600.282	359.44
600.491	387.44
600.7	378.44
600.909	373.44
601.118	387.44
601.327	401.44
601.536	383.44
601.745	389.44
601.953	394.44
602.162	413.44
602.371	423.44
602.58	419.44
602.789	405.44
602.997	395.44
603.206	388.44
603.415	382.44
603.623	396.44
603.832	389.44
604.041	384.44
604.249	397.44
604.458	373.44
604.666	372.44
604.875	362.44
605.084	383.44
605.292	396.44
605.501	395.44
605.709	404.44
605.918	415.44
606.126	411.44
606.334	390.44
606.543	376.44
606.751	378.44
606.96	423.44
607.168	410.44
607.376	371.44
607.585	379.44
607.793	383.44
608.001	380.44
608.21	413.44
608.418	403.44
608.626	386.44
608.834	381.44
609.043	408.44
609.251	391.44
609.459	386.44
609.667	387.44
609.875	412.44
610.083	399.44
610.291	382.44
610.499	387.44
610.707	394.44
610.916	377.44
611.124	393.44
611.332	388.44
611.54	370.44
611.748	385.44
611.955	381.44
612.163	391.44
612.371	373.44
612.579	375.44
612.787	368.44
612.995	396.44
613.203	414.44
613.411	384.44
613.618	373.44
613.826	389.44
614.034	373.44
614.242	369.44
614.449	376.44
614.657	376.44
614.865	353.44
615.072	375.44
615.28	401.44
615.488	381.44
615.695	391.44
615.903	395.44
616.111	365.44
616.318	381.44
616.526	387.44
616.733	385.44
616.941	378.44
617.148	372.44
617.356	386.44
617.563	379.44
617.771	363.44
617.978	351.44
618.185	348.44
618.393	376.44
618.6	358.44
618.807	381.44
619.015	375.44
619.222	333.44
619.429	343.44
619.637	361.44
619.844	354.44
620.051	358.44
620.258	355.44
620.466	359.44
620.673	356.44
620.88	332.44
621.087	334.44
621.294	316.44
621.501	328.44
621.708	333.44
621.915	354.44
622.122	330.44
622.329	369.44
622.536	353.44
622.743	349.44
622.95	345.44
623.157	340.44
623.364	339.44
623.571	339.44
623.778	365.44
623.985	344.44
624.192	350.44
624.399	329.44
624.606	329.44
624.812	314.44
625.019	322.44
625.226	335.44
625.433	319.44
625.639	313.44
625.846	294.44
626.053	303.44
626.259	285.44
626.466	296.44
626.673	281.44
626.879	275.44
627.086	296.44
627.293	303.44
627.499	325.44
627.706	311.44
627.912	327.44
628.119	330.44
628.325	327.44
628.532	310.44
628.738	329.44
628.945	322.44
629.151	303.44
629.357	297.44
629.564	300.44
629.77	295.44
629.976	283.44
630.183	280.44
630.389	303.44
630.595	305.44
630.802	300.44
631.008	286.44
631.214	288.44
631.42	297.44
631.627	289.44
631.833	277.44
632.039	289.44
632.245	299.44
632.451	288.44
632.657	279.44
632.863	273.44
633.069	272.44
633.275	286.44
633.481	287.44
633.688	269.44
633.893	274.44
634.099	256.44
634.305	278.44
634.511	264.44
634.717	269.44
634.923	264.44
635.129	264.44
635.335	260.44
635.541	254.44
635.747	275.44
635.952	267.44
636.158	272.44
636.364	281.44
636.57	253.44
636.775	273.44
636.981	289.44
637.187	276.44
637.392	275.44
637.598	283.44
637.804	267.44
638.009	268.44
638.215	281.44
638.421	266.44
638.626	267.44
638.832	250.44
639.037	256.44
639.243	246.44
639.448	265.44
639.654	275.44
639.859	265.44
640.065	279.44
640.27	274.44
640.475	278.44
640.681	262.44
640.886	282.44
641.091	253.44
641.297	262.44
641.502	258.44
641.707	258.44
641.913	271.44
642.118	261.44
642.323	253.44
642.528	248.44
642.733	259.44
642.939	266.44
643.144	264.44
643.349	259.44
643.554	239.44
643.759	236.44
643.964	249.44
644.169	252.44
644.374	253.44
644.579	269.44
644.784	253.44
644.989	276.44
645.194	261.44
645.399	240.44
645.604	250.44
645.809	263.44
646.014	251.44
646.219	258.44
646.423	258.44
646.628	245.44
646.833	262.44
647.038	232.44
647.243	263.44
647.447	253.44
647.652	250.44
647.857	248.44
648.062	228.44
648.266	255.44
648.471	270.44
648.676	236.44
648.88	255.44
649.085	265.44
649.289	252.44
649.494	240.44
649.698	263.44
649.903	239.44
650.107	251.44
650.312	249.44
650.516	259.44
650.721	230.44
650.925	248.44
651.13	240.44
651.334	244.44
651.539	226.44
651.743	228.44
651.947	224.44
652.152	228.44
652.356	223.44
652.56	218.44
652.764	228.44
652.969	227.44
653.173	208.44
653.377	211.44
653.581	227.44
653.785	217.44
653.99	205.44
654.194	223.44
654.398	199.44
654.602	210.44
654.806	226.44
655.01	216.44
655.214	220.44
655.418	231.44
655.622	202.44
655.826	240.44
656.03	226.44
656.234	231.44
656.438	258.44
656.642	249.44
656.846	247.44
657.049	225.44
657.253	211.44
657.457	214.44
657.661	200.44
657.865	175.44
658.068	155.44
658.272	177.44
658.476	163.44
658.68	151.44
658.883	154.44
659.087	153.44
659.291	141.44
659.494	149.44
659.698	126.44
659.901	138.44
660.105	129.44
660.309	126.44
660.512	130.44
660.716	132.44
660.919	119.44
661.123	119.44
661.326	108.44
661.53	106.44
661.733	98.44
661.936	105.44
662.14	112.44
662.343	105.44
662.546	85.44
662.75	104.44
662.953	98.44
663.156	84.44
663.36	89.44
663.563	84.44
663.766	85.44
663.969	100.44
664.173	84.44
664.376	90.44
664.579	88.44
664.782	70.44
664.985	76.44
665.188	87.44
665.391	93.44
665.594	72.44
665.797	81.44
666	77.44
666.203	85.44
666.406	77.44
666.609	81.44
666.812	88.44
667.015	87.44
667.218	80.44
667.421	89.44
667.624	86.44
667.827	75.44
668.03	91.44
668.232	73.44
668.435	82.44
668.638	79.44
668.841	84.44
669.043	87.44
669.246	76.44
669.449	84.44
669.651	76.44
669.854	71.44
670.057	89.44
670.259	86.44
670.462	89.44
670.665	69.44
670.867	95.44
671.07	85.44
671.272	77.44
671.475	88.44
671.677	65.44
671.88	81.44
672.082	92.44
672.284	91.44
672.487	97.44
672.689	89.44
672.892	81.44
