Data from WStandard_LampEnergy10_LIBS07252019.E.O._I.C._HRD10591_15-54-47-928.txt Node
Date: Thu Jul 25 15:54:47 EDT 2019
User: cochatt
Spectrometer: HR+D1059
Trigger mode: 1
Integration Time (sec): 1.000000E-1
Scans to average: 1
Electric dark correction enabled: true
Nonlinearity correction enabled: false
Boxcar width: 0
XAxis mode: Wavelengths
Number of Pixels in Spectrum: 2048
>>>>>Begin Spectral Data<<<<<
223.165	-19.75
223.4	-19.75
223.635	-19.75
223.869	-15.75
224.104	-12.75
224.338	-19.75
224.573	-10.75
224.808	-5.75
225.042	-12.75
225.277	-8.75
225.511	-0.75
225.746	5.25
225.98	1.25
226.215	9.25
226.449	8.25
226.683	24.25
226.918	31.25
227.152	27.25
227.387	29.25
227.621	42.25
227.856	35.25
228.09	34.25
228.324	44.25
228.559	67.25
228.793	75.25
229.027	121.25
229.262	133.25
229.496	140.25
229.73	157.25
229.964	167.25
230.199	161.25
230.433	166.25
230.667	179.25
230.901	187.25
231.136	172.25
231.37	185.25
231.604	171.25
231.838	168.25
232.072	194.25
232.306	175.25
232.541	177.25
232.775	206.25
233.009	197.25
233.243	189.25
233.477	192.25
233.711	188.25
233.945	202.25
234.179	204.25
234.413	211.25
234.647	217.25
234.881	215.25
235.115	215.25
235.349	188.25
235.583	198.25
235.817	186.25
236.051	203.25
236.285	203.25
236.519	212.25
236.753	239.25
236.987	227.25
237.221	220.25
237.455	243.25
237.689	239.25
237.922	231.25
238.156	214.25
238.39	219.25
238.624	238.25
238.858	241.25
239.091	249.25
239.325	261.25
239.559	292.25
239.793	299.25
240.027	313.25
240.26	287.25
240.494	230.25
240.728	221.25
240.961	240.25
241.195	223.25
241.429	248.25
241.662	255.25
241.896	248.25
242.13	261.25
242.363	271.25
242.597	275.25
242.83	259.25
243.064	285.25
243.298	288.25
243.531	306.25
243.765	275.25
243.998	270.25
244.232	257.25
244.465	260.25
244.699	260.25
244.932	290.25
245.166	310.25
245.399	296.25
245.633	269.25
245.866	291.25
246.099	291.25
246.333	294.25
246.566	315.25
246.8	310.25
247.033	340.25
247.266	325.25
247.5	315.25
247.733	334.25
247.966	333.25
248.2	356.25
248.433	355.25
248.666	359.25
248.899	390.25
249.133	428.25
249.366	463.25
249.599	398.25
249.832	373.25
250.066	368.25
250.299	362.25
250.532	355.25
250.765	323.25
250.998	340.25
251.231	344.25
251.465	341.25
251.698	332.25
251.931	344.25
252.164	338.25
252.397	377.25
252.63	363.25
252.863	327.25
253.096	326.25
253.329	333.25
253.562	341.25
253.795	376.25
254.028	360.25
254.261	334.25
254.494	348.25
254.727	335.25
254.96	353.25
255.193	388.25
255.426	411.25
255.659	444.25
255.892	434.25
256.124	387.25
256.357	391.25
256.59	400.25
256.823	412.25
257.056	414.25
257.289	490.25
257.521	497.25
257.754	457.25
257.987	462.25
258.22	483.25
258.452	439.25
258.685	399.25
258.918	403.25
259.151	404.25
259.383	370.25
259.616	340.25
259.849	367.25
260.081	417.25
260.314	456.25
260.547	472.25
260.779	490.25
261.012	447.25
261.244	381.25
261.477	398.25
261.71	404.25
261.942	395.25
262.175	396.25
262.407	404.25
262.64	389.25
262.872	376.25
263.105	349.25
263.337	363.25
263.57	375.25
263.802	362.25
264.035	359.25
264.267	357.25
264.499	338.25
264.732	352.25
264.964	385.25
265.197	412.25
265.429	421.25
265.661	441.25
265.894	482.25
266.126	481.25
266.358	449.25
266.591	466.25
266.823	485.25
267.055	447.25
267.287	459.25
267.52	433.25
267.752	436.25
267.984	439.25
268.216	460.25
268.448	466.25
268.681	455.25
268.913	413.25
269.145	405.25
269.377	405.25
269.609	448.25
269.841	505.25
270.073	552.25
270.306	617.25
270.538	598.25
270.77	517.25
271.002	487.25
271.234	486.25
271.466	495.25
271.698	522.25
271.93	605.25
272.162	610.25
272.394	531.25
272.626	509.25
272.858	481.25
273.09	403.25
273.322	413.25
273.553	392.25
273.785	422.25
274.017	406.25
274.249	425.25
274.481	448.25
274.713	400.25
274.945	410.25
275.176	415.25
275.408	400.25
275.64	388.25
275.872	409.25
276.104	419.25
276.335	486.25
276.567	534.25
276.799	537.25
277.031	489.25
277.262	475.25
277.494	486.25
277.726	523.25
277.957	482.25
278.189	469.25
278.421	437.25
278.652	424.25
278.884	436.25
279.115	435.25
279.347	426.25
279.579	423.25
279.81	442.25
280.042	483.25
280.273	510.25
280.505	523.25
280.736	510.25
280.968	483.25
281.199	425.25
281.431	451.25
281.662	432.25
281.894	445.25
282.125	444.25
282.356	437.25
282.588	454.25
282.819	460.25
283.051	492.25
283.282	512.25
283.513	509.25
283.745	474.25
283.976	431.25
284.207	432.25
284.439	450.25
284.67	447.25
284.901	439.25
285.132	443.25
285.364	419.25
285.595	452.25
285.826	455.25
286.057	449.25
286.288	457.25
286.52	468.25
286.751	489.25
286.982	492.25
287.213	477.25
287.444	436.25
287.675	444.25
287.906	473.25
288.138	478.25
288.369	468.25
288.6	440.25
288.831	443.25
289.062	444.25
289.293	454.25
289.524	456.25
289.755	454.25
289.986	437.25
290.217	432.25
290.448	460.25
290.679	474.25
290.91	457.25
291.141	469.25
291.371	490.25
291.602	468.25
291.833	485.25
292.064	484.25
292.295	488.25
292.526	503.25
292.757	505.25
292.987	478.25
293.218	476.25
293.449	543.25
293.68	573.25
293.91	581.25
294.141	583.25
294.372	542.25
294.603	530.25
294.833	554.25
295.064	528.25
295.295	471.25
295.525	452.25
295.756	441.25
295.987	443.25
296.217	450.25
296.448	459.25
296.679	454.25
296.909	461.25
297.14	487.25
297.37	473.25
297.601	516.25
297.831	533.25
298.062	541.25
298.292	466.25
298.523	456.25
298.753	469.25
298.984	473.25
299.214	482.25
299.445	479.25
299.675	511.25
299.905	492.25
300.136	482.25
300.366	475.25
300.597	467.25
300.827	459.25
301.057	490.25
301.288	518.25
301.518	521.25
301.748	533.25
301.979	529.25
302.209	560.25
302.439	563.25
302.669	603.25
302.9	554.25
303.13	504.25
303.36	506.25
303.59	511.25
303.82	519.25
304.051	524.25
304.281	523.25
304.511	515.25
304.741	564.25
304.971	605.25
305.201	619.25
305.431	562.25
305.661	480.25
305.891	451.25
306.121	461.25
306.352	505.25
306.582	530.25
306.812	565.25
307.042	547.25
307.272	567.25
307.502	614.25
307.731	627.25
307.961	634.25
308.191	584.25
308.421	524.25
308.651	512.25
308.881	491.25
309.111	486.25
309.341	485.25
309.571	473.25
309.8	492.25
310.03	487.25
310.26	499.25
310.49	507.25
310.72	518.25
310.949	516.25
311.179	531.25
311.409	531.25
311.639	499.25
311.868	505.25
312.098	511.25
312.328	517.25
312.557	509.25
312.787	505.25
313.017	531.25
313.246	541.25
313.476	526.25
313.706	527.25
313.935	532.25
314.165	533.25
314.394	557.25
314.624	596.25
314.853	613.25
315.083	620.25
315.312	609.25
315.542	568.25
315.771	555.25
316.001	554.25
316.23	561.25
316.46	555.25
316.689	551.25
316.919	536.25
317.148	517.25
317.377	565.25
317.607	585.25
317.836	640.25
318.065	644.25
318.295	576.25
318.524	578.25
318.753	567.25
318.983	550.25
319.212	565.25
319.441	557.25
319.67	559.25
319.9	579.25
320.129	596.25
320.358	613.25
320.587	612.25
320.816	607.25
321.046	609.25
321.275	581.25
321.504	602.25
321.733	604.25
321.962	596.25
322.191	562.25
322.42	559.25
322.649	566.25
322.878	543.25
323.108	578.25
323.337	553.25
323.566	599.25
323.795	575.25
324.024	578.25
324.253	568.25
324.482	538.25
324.71	519.25
324.939	516.25
325.168	548.25
325.397	540.25
325.626	561.25
325.855	572.25
326.084	551.25
326.313	553.25
326.542	565.25
326.77	592.25
326.999	567.25
327.228	554.25
327.457	517.25
327.686	514.25
327.914	568.25
328.143	571.25
328.372	549.25
328.6	581.25
328.829	570.25
329.058	559.25
329.287	543.25
329.515	577.25
329.744	586.25
329.972	601.25
330.201	615.25
330.43	617.25
330.658	591.25
330.887	577.25
331.115	602.25
331.344	591.25
331.572	586.25
331.801	604.25
332.03	577.25
332.258	602.25
332.486	622.25
332.715	616.25
332.943	613.25
333.172	602.25
333.4	595.25
333.629	632.25
333.857	655.25
334.085	754.25
334.314	836.25
334.542	816.25
334.771	760.25
334.999	676.25
335.227	641.25
335.455	635.25
335.684	651.25
335.912	675.25
336.14	629.25
336.369	621.25
336.597	609.25
336.825	583.25
337.053	631.25
337.281	669.25
337.51	691.25
337.738	708.25
337.966	649.25
338.194	632.25
338.422	594.25
338.65	588.25
338.878	571.25
339.106	572.25
339.334	564.25
339.562	552.25
339.79	618.25
340.018	612.25
340.246	632.25
340.474	641.25
340.702	624.25
340.93	617.25
341.158	623.25
341.386	610.25
341.614	611.25
341.842	614.25
342.07	611.25
342.298	605.25
342.526	596.25
342.754	590.25
342.981	600.25
343.209	595.25
343.437	568.25
343.665	566.25
343.893	619.25
344.12	649.25
344.348	633.25
344.576	603.25
344.804	595.25
345.031	589.25
345.259	598.25
345.487	559.25
345.714	565.25
345.942	547.25
346.17	568.25
346.397	571.25
346.625	557.25
346.853	543.25
347.08	543.25
347.308	543.25
347.535	553.25
347.763	596.25
347.99	546.25
348.218	544.25
348.445	572.25
348.673	585.25
348.9	588.25
349.128	593.25
349.355	622.25
349.583	608.25
349.81	549.25
350.037	522.25
350.265	533.25
350.492	533.25
350.72	555.25
350.947	578.25
351.174	557.25
351.402	552.25
351.629	542.25
351.856	503.25
352.083	513.25
352.311	517.25
352.538	541.25
352.765	585.25
352.992	580.25
353.22	560.25
353.447	557.25
353.674	572.25
353.901	572.25
354.128	555.25
354.355	568.25
354.583	569.25
354.81	582.25
355.037	590.25
355.264	552.25
355.491	589.25
355.718	575.25
355.945	572.25
356.172	530.25
356.399	560.25
356.626	553.25
356.853	603.25
357.08	644.25
357.307	684.25
357.534	641.25
357.761	577.25
357.988	553.25
358.215	542.25
358.441	566.25
358.668	548.25
358.895	557.25
359.122	619.25
359.349	636.25
359.576	607.25
359.802	536.25
360.029	562.25
360.256	549.25
360.483	561.25
360.709	580.25
360.936	604.25
361.163	621.25
361.39	675.25
361.616	715.25
361.843	698.25
362.07	623.25
362.296	565.25
362.523	525.25
362.749	565.25
362.976	587.25
363.203	588.25
363.429	555.25
363.656	561.25
363.882	608.25
364.109	675.25
364.335	645.25
364.562	621.25
364.788	617.25
365.015	576.25
365.241	563.25
365.468	605.25
365.694	610.25
365.92	609.25
366.147	585.25
366.373	555.25
366.599	549.25
366.826	561.25
367.052	582.25
367.278	578.25
367.505	598.25
367.731	616.25
367.957	635.25
368.184	623.25
368.41	648.25
368.636	655.25
368.862	661.25
369.089	651.25
369.315	629.25
369.541	616.25
369.767	588.25
369.993	609.25
370.219	609.25
370.445	633.25
370.672	636.25
370.898	682.25
371.124	648.25
371.35	631.25
371.576	623.25
371.802	661.25
372.028	621.25
372.254	626.25
372.48	618.25
372.706	601.25
372.932	607.25
373.158	610.25
373.384	632.25
373.61	643.25
373.835	647.25
374.061	638.25
374.287	658.25
374.513	637.25
374.739	610.25
374.965	615.25
375.191	639.25
375.416	671.25
375.642	655.25
375.868	717.25
376.094	724.25
376.319	665.25
376.545	640.25
376.771	695.25
376.997	700.25
377.222	646.25
377.448	671.25
377.674	673.25
377.899	681.25
378.125	732.25
378.35	676.25
378.576	638.25
378.802	629.25
379.027	611.25
379.253	630.25
379.478	620.25
379.704	637.25
379.929	624.25
380.155	635.25
380.38	653.25
380.606	667.25
380.831	667.25
381.057	692.25
381.282	691.25
381.507	697.25
381.733	723.25
381.958	716.25
382.184	676.25
382.409	669.25
382.634	663.25
382.86	693.25
383.085	681.25
383.31	707.25
383.535	787.25
383.761	780.25
383.986	758.25
384.211	729.25
384.436	743.25
384.662	728.25
384.887	752.25
385.112	738.25
385.337	722.25
385.562	706.25
385.787	761.25
386.013	754.25
386.238	762.25
386.463	736.25
386.688	817.25
386.913	842.25
387.138	836.25
387.363	743.25
387.588	772.25
387.813	780.25
388.038	778.25
388.263	795.25
388.488	771.25
388.713	727.25
388.938	740.25
389.163	743.25
389.387	745.25
389.612	748.25
389.837	736.25
390.062	773.25
390.287	757.25
390.512	748.25
390.736	732.25
390.961	733.25
391.186	726.25
391.411	725.25
391.636	767.25
391.86	757.25
392.085	775.25
392.31	738.25
392.534	749.25
392.759	771.25
392.984	748.25
393.208	780.25
393.433	784.25
393.658	816.25
393.882	820.25
394.107	783.25
394.331	748.25
394.556	780.25
394.78	774.25
395.005	805.25
395.229	848.25
395.454	878.25
395.678	887.25
395.903	828.25
396.127	806.25
396.352	833.25
396.576	885.25
396.801	836.25
397.025	846.25
397.249	851.25
397.474	839.25
397.698	807.25
397.922	840.25
398.147	865.25
398.371	883.25
398.595	895.25
398.82	858.25
399.044	883.25
399.268	941.25
399.492	978.25
399.717	957.25
399.941	972.25
400.165	963.25
400.389	943.25
400.613	993.25
400.837	1116.25
401.062	1184.25
401.286	1008.25
401.51	964.25
401.734	976.25
401.958	937.25
402.182	899.25
402.406	894.25
402.63	860.25
402.854	885.25
403.078	905.25
403.302	901.25
403.526	934.25
403.75	897.25
403.974	919.25
404.198	933.25
404.422	972.25
404.645	997.25
404.869	951.25
405.093	909.25
405.317	928.25
405.541	881.25
405.765	928.25
405.988	933.25
406.212	958.25
406.436	949.25
406.66	982.25
406.883	1039.25
407.107	1138.25
407.331	1207.25
407.555	1233.25
407.778	1110.25
408.002	990.25
408.226	961.25
408.449	989.25
408.673	950.25
408.896	921.25
409.12	956.25
409.344	927.25
409.567	919.25
409.791	930.25
410.014	968.25
410.238	1004.25
410.461	1067.25
410.685	952.25
410.908	964.25
411.132	956.25
411.355	907.25
411.578	936.25
411.802	926.25
412.025	946.25
412.249	941.25
412.472	925.25
412.695	921.25
412.919	909.25
413.142	907.25
413.365	936.25
413.589	939.25
413.812	1017.25
414.035	992.25
414.258	949.25
414.482	963.25
414.705	901.25
414.928	909.25
415.151	912.25
415.374	911.25
415.597	929.25
415.821	933.25
416.044	977.25
416.267	928.25
416.49	899.25
416.713	915.25
416.936	954.25
417.159	964.25
417.382	987.25
417.605	940.25
417.828	957.25
418.051	948.25
418.274	956.25
418.497	928.25
418.72	928.25
418.943	919.25
419.166	954.25
419.389	993.25
419.611	954.25
419.834	937.25
420.057	951.25
420.28	969.25
420.503	944.25
420.726	943.25
420.948	938.25
421.171	945.25
421.394	947.25
421.617	981.25
421.839	997.25
422.062	950.25
422.285	923.25
422.507	923.25
422.73	909.25
422.953	871.25
423.175	865.25
423.398	893.25
423.621	917.25
423.843	929.25
424.066	964.25
424.288	1053.25
424.511	1026.25
424.733	968.25
424.956	925.25
425.178	908.25
425.401	923.25
425.623	925.25
425.846	928.25
426.068	970.25
426.291	941.25
426.513	955.25
426.735	970.25
426.958	1048.25
427.18	1074.25
427.402	1011.25
427.625	1016.25
427.847	973.25
428.069	922.25
428.292	927.25
428.514	887.25
428.736	887.25
428.958	914.25
429.181	904.25
429.403	1064.25
429.625	1205.25
429.847	1033.25
430.069	947.25
430.292	1029.25
430.514	1025.25
430.736	959.25
430.958	982.25
431.18	913.25
431.402	883.25
431.624	870.25
431.846	796.25
432.068	744.25
432.29	736.25
432.512	796.25
432.734	859.25
432.956	914.25
433.178	947.25
433.4	961.25
433.622	960.25
433.844	910.25
434.066	841.25
434.287	799.25
434.509	788.25
434.731	828.25
434.953	912.25
435.175	929.25
435.397	896.25
435.618	854.25
435.84	823.25
436.062	847.25
436.284	908.25
436.505	911.25
436.727	944.25
436.949	913.25
437.17	918.25
437.392	869.25
437.614	850.25
437.835	795.25
438.057	807.25
438.278	845.25
438.5	868.25
438.721	910.25
438.943	952.25
439.165	924.25
439.386	904.25
439.608	955.25
439.829	934.25
440.05	936.25
440.272	948.25
440.493	957.25
440.715	976.25
440.936	1002.25
441.158	1054.25
441.379	1070.25
441.6	1043.25
441.822	1019.25
442.043	991.25
442.264	1002.25
442.486	933.25
442.707	958.25
442.928	965.25
443.149	973.25
443.371	989.25
443.592	1012.25
443.813	1006.25
444.034	999.25
444.255	1036.25
444.476	1018.25
444.698	1046.25
444.919	1038.25
445.14	1172.25
445.361	1113.25
445.582	1082.25
445.803	1040.25
446.024	1028.25
446.245	1032.25
446.466	1093.25
446.687	1053.25
446.908	1028.25
447.129	1008.25
447.35	1029.25
447.571	1003.25
447.792	957.25
448.013	965.25
448.234	953.25
448.455	979.25
448.675	970.25
448.896	909.25
449.117	900.25
449.338	926.25
449.559	941.25
449.779	985.25
450	1012.25
450.221	1053.25
450.442	1027.25
450.662	929.25
450.883	869.25
451.104	841.25
451.324	881.25
451.545	889.25
451.766	873.25
451.986	845.25
452.207	829.25
452.428	807.25
452.648	777.25
452.869	793.25
453.089	801.25
453.31	796.25
453.53	755.25
453.751	715.25
453.971	721.25
454.192	745.25
454.412	778.25
454.633	775.25
454.853	794.25
455.073	771.25
455.294	764.25
455.514	755.25
455.734	769.25
455.955	778.25
456.175	760.25
456.395	713.25
456.616	706.25
456.836	717.25
457.056	723.25
457.276	735.25
457.497	709.25
457.717	682.25
457.937	693.25
458.157	691.25
458.377	681.25
458.598	689.25
458.818	691.25
459.038	705.25
459.258	727.25
459.478	709.25
459.698	723.25
459.918	736.25
460.138	834.25
460.358	829.25
460.578	828.25
460.798	862.25
461.018	891.25
461.238	871.25
461.458	847.25
461.678	855.25
461.898	805.25
462.118	828.25
462.338	863.25
462.558	835.25
462.777	828.25
462.997	861.25
463.217	907.25
463.437	888.25
463.657	849.25
463.876	864.25
464.096	800.25
464.316	819.25
464.536	908.25
464.755	887.25
464.975	873.25
465.195	857.25
465.414	900.25
465.634	871.25
465.854	899.25
466.073	945.25
466.293	951.25
466.512	861.25
466.732	881.25
466.951	913.25
467.171	899.25
467.391	883.25
467.61	867.25
467.829	905.25
468.049	979.25
468.268	1049.25
468.488	950.25
468.707	905.25
468.927	915.25
469.146	895.25
469.365	909.25
469.585	922.25
469.804	916.25
470.023	906.25
470.243	968.25
470.462	946.25
470.681	912.25
470.901	912.25
471.12	939.25
471.339	942.25
471.558	895.25
471.777	892.25
471.997	895.25
472.216	855.25
472.435	785.25
472.654	757.25
472.873	782.25
473.092	812.25
473.311	838.25
473.53	807.25
473.749	819.25
473.968	853.25
474.187	841.25
474.406	837.25
474.625	849.25
474.844	897.25
475.063	882.25
475.282	881.25
475.501	832.25
475.72	829.25
475.939	903.25
476.158	895.25
476.377	885.25
476.596	864.25
476.814	826.25
477.033	841.25
477.252	874.25
477.471	896.25
477.69	933.25
477.908	936.25
478.127	964.25
478.346	1021.25
478.564	1004.25
478.783	1018.25
479.002	1004.25
479.22	1034.25
479.439	1028.25
479.658	1049.25
479.876	988.25
480.095	895.25
480.313	913.25
480.532	877.25
480.751	895.25
480.969	823.25
481.188	781.25
481.406	796.25
481.624	753.25
481.843	777.25
482.061	825.25
482.28	872.25
482.498	908.25
482.717	825.25
482.935	897.25
483.153	981.25
483.372	1017.25
483.59	987.25
483.808	947.25
484.027	930.25
484.245	970.25
484.463	1220.25
484.681	1317.25
484.9	1037.25
485.118	969.25
485.336	909.25
485.554	902.25
485.772	890.25
485.99	864.25
486.209	887.25
486.427	917.25
486.645	941.25
486.863	990.25
487.081	1033.25
487.299	1031.25
487.517	1000.25
487.735	1103.25
487.953	1178.25
488.171	1167.25
488.389	1141.25
488.607	1071.25
488.825	1165.25
489.043	1057.25
489.261	982.25
489.479	1021.25
489.696	1050.25
489.914	1014.25
490.132	1023.25
490.35	1104.25
490.568	1128.25
490.786	1155.25
491.003	1160.25
491.221	1221.25
491.439	1285.25
491.657	1295.25
491.874	1376.25
492.092	1463.25
492.31	1495.25
492.527	1460.25
492.745	1402.25
492.963	1300.25
493.18	1331.25
493.398	1351.25
493.615	1331.25
493.833	1289.25
494.05	1239.25
494.268	1215.25
494.485	1202.25
494.703	1201.25
494.92	1227.25
495.138	1229.25
495.355	1227.25
495.573	1242.25
495.79	1267.25
496.008	1273.25
496.225	1229.25
496.442	1222.25
496.66	1219.25
496.877	1203.25
497.094	1245.25
497.312	1213.25
497.529	1176.25
497.746	1178.25
497.963	1291.25
498.181	1327.25
498.398	1255.25
498.615	1220.25
498.832	1138.25
499.049	1137.25
499.267	1171.25
499.484	1255.25
499.701	1359.25
499.918	1358.25
500.135	1492.25
500.352	1564.25
500.569	1583.25
500.786	1688.25
501.003	1550.25
501.22	1407.25
501.437	1411.25
501.654	1394.25
501.871	1356.25
502.088	1212.25
502.305	1147.25
502.522	1119.25
502.739	1081.25
502.956	1091.25
503.172	1051.25
503.389	1009.25
503.606	981.25
503.823	985.25
504.04	1007.25
504.256	983.25
504.473	991.25
504.69	1012.25
504.907	984.25
505.123	955.25
505.34	1052.25
505.557	1347.25
505.773	1118.25
505.99	969.25
506.207	917.25
506.423	895.25
506.64	898.25
506.856	902.25
507.073	1044.25
507.289	1069.25
507.506	1021.25
507.722	913.25
507.939	873.25
508.155	865.25
508.372	837.25
508.588	794.25
508.805	792.25
509.021	735.25
509.238	815.25
509.454	771.25
509.67	753.25
509.887	725.25
510.103	744.25
510.319	731.25
510.536	746.25
510.752	765.25
510.968	786.25
511.184	799.25
511.401	746.25
511.617	697.25
511.833	691.25
512.049	724.25
512.265	723.25
512.481	729.25
512.698	732.25
512.914	760.25
513.13	745.25
513.346	705.25
513.562	695.25
513.778	699.25
513.994	732.25
514.21	753.25
514.426	780.25
514.642	805.25
514.858	771.25
515.074	712.25
515.29	711.25
515.506	743.25
515.721	741.25
515.937	730.25
516.153	786.25
516.369	806.25
516.585	770.25
516.801	727.25
517.016	732.25
517.232	761.25
517.448	785.25
517.664	778.25
517.879	807.25
518.095	799.25
518.311	793.25
518.527	759.25
518.742	699.25
518.958	741.25
519.173	745.25
519.389	807.25
519.605	799.25
519.82	767.25
520.036	758.25
520.251	765.25
520.467	775.25
520.682	804.25
520.898	791.25
521.113	709.25
521.329	707.25
521.544	751.25
521.76	735.25
521.975	746.25
522.19	701.25
522.406	727.25
522.621	921.25
522.836	829.25
523.052	738.25
523.267	753.25
523.482	737.25
523.698	738.25
523.913	738.25
524.128	760.25
524.343	807.25
524.559	820.25
524.774	794.25
524.989	759.25
525.204	773.25
525.419	723.25
525.634	729.25
525.849	737.25
526.064	731.25
526.28	701.25
526.495	665.25
526.71	635.25
526.925	636.25
527.14	625.25
527.355	627.25
527.57	629.25
527.785	674.25
527.999	658.25
528.214	674.25
528.429	699.25
528.644	715.25
528.859	785.25
529.074	811.25
529.289	880.25
529.503	851.25
529.718	779.25
529.933	706.25
530.148	698.25
530.363	651.25
530.577	620.25
530.792	632.25
531.007	638.25
531.221	642.25
531.436	644.25
531.651	648.25
531.865	653.25
532.08	662.25
532.295	641.25
532.509	593.25
532.724	619.25
532.938	645.25
533.153	695.25
533.367	725.25
533.582	730.25
533.796	727.25
534.011	700.25
534.225	653.25
534.44	627.25
534.654	653.25
534.868	634.25
535.083	678.25
535.297	681.25
535.511	683.25
535.726	677.25
535.94	674.25
536.154	661.25
536.369	642.25
536.583	633.25
536.797	613.25
537.011	627.25
537.225	604.25
537.44	594.25
537.654	657.25
537.868	623.25
538.082	601.25
538.296	601.25
538.51	642.25
538.724	669.25
538.938	721.25
539.153	756.25
539.367	755.25
539.581	699.25
539.795	710.25
540.009	659.25
540.222	623.25
540.436	679.25
540.65	749.25
540.864	793.25
541.078	826.25
541.292	836.25
541.506	894.25
541.72	982.25
541.934	1010.25
542.147	1098.25
542.361	1021.25
542.575	893.25
542.789	830.25
543.002	766.25
543.216	741.25
543.43	745.25
543.644	822.25
543.857	890.25
544.071	911.25
544.285	927.25
544.498	915.25
544.712	902.25
544.925	939.25
545.139	968.25
545.352	947.25
545.566	903.25
545.779	928.25
545.993	926.25
546.206	944.25
546.42	972.25
546.633	923.25
546.847	935.25
547.06	946.25
547.274	949.25
547.487	972.25
547.7	998.25
547.914	984.25
548.127	965.25
548.34	946.25
548.554	922.25
548.767	925.25
548.98	931.25
549.193	938.25
549.407	944.25
549.62	937.25
549.833	921.25
550.046	905.25
550.259	915.25
550.473	864.25
550.686	884.25
550.899	872.25
551.112	835.25
551.325	817.25
551.538	827.25
551.751	839.25
551.964	689.25
552.177	727.25
552.39	782.25
552.603	830.25
552.816	837.25
553.029	890.25
553.242	891.25
553.455	912.25
553.667	901.25
553.88	907.25
554.093	869.25
554.306	843.25
554.519	848.25
554.732	828.25
554.944	842.25
555.157	841.25
555.37	801.25
555.583	798.25
555.795	784.25
556.008	729.25
556.221	722.25
556.433	711.25
556.646	737.25
556.859	701.25
557.071	749.25
557.284	749.25
557.496	763.25
557.709	731.25
557.921	745.25
558.134	752.25
558.346	720.25
558.559	719.25
558.771	727.25
558.984	709.25
559.196	665.25
559.409	671.25
559.621	669.25
559.833	649.25
560.046	675.25
560.258	678.25
560.47	702.25
560.683	689.25
560.895	668.25
561.107	663.25
561.32	664.25
561.532	687.25
561.744	676.25
561.956	655.25
562.168	631.25
562.381	651.25
562.593	645.25
562.805	642.25
563.017	643.25
563.229	632.25
563.441	632.25
563.653	642.25
563.865	615.25
564.077	609.25
564.289	593.25
564.501	631.25
564.713	614.25
564.925	625.25
565.137	695.25
565.349	627.25
565.561	609.25
565.773	619.25
565.985	616.25
566.197	663.25
566.408	700.25
566.62	683.25
566.832	674.25
567.044	689.25
567.255	669.25
567.467	643.25
567.679	659.25
567.891	653.25
568.102	612.25
568.314	571.25
568.526	543.25
568.737	527.25
568.949	472.25
569.161	470.25
569.372	449.25
569.584	463.25
569.795	458.25
570.007	431.25
570.218	444.25
570.43	441.25
570.641	451.25
570.853	457.25
571.064	489.25
571.276	476.25
571.487	486.25
571.698	477.25
571.91	465.25
572.121	450.25
572.333	460.25
572.544	434.25
572.755	402.25
572.966	395.25
573.178	379.25
573.389	395.25
573.6	407.25
573.811	429.25
574.023	401.25
574.234	387.25
574.445	386.25
574.656	369.25
574.867	383.25
575.078	408.25
575.289	395.25
575.501	414.25
575.712	400.25
575.923	395.25
576.134	407.25
576.345	408.25
576.556	416.25
576.767	412.25
576.978	415.25
577.188	383.25
577.399	367.25
577.61	373.25
577.821	377.25
578.032	378.25
578.243	380.25
578.454	347.25
578.665	331.25
578.875	352.25
579.086	355.25
579.297	338.25
579.508	346.25
579.718	359.25
579.929	341.25
580.14	324.25
580.35	309.25
580.561	368.25
580.772	402.25
580.982	372.25
581.193	342.25
581.403	352.25
581.614	363.25
581.825	351.25
582.035	344.25
582.246	335.25
582.456	353.25
582.667	358.25
582.877	349.25
583.087	350.25
583.298	317.25
583.508	341.25
583.719	343.25
583.929	355.25
584.139	312.25
584.35	326.25
584.56	332.25
584.77	329.25
584.981	340.25
585.191	322.25
585.401	346.25
585.611	322.25
585.821	316.25
586.032	311.25
586.242	312.25
586.452	306.25
586.662	306.25
586.872	310.25
587.082	311.25
587.292	314.25
587.502	315.25
587.713	319.25
587.923	303.25
588.133	308.25
588.343	311.25
588.553	316.25
588.762	296.25
588.972	301.25
589.182	294.25
589.392	327.25
589.602	317.25
589.812	295.25
590.022	295.25
590.232	292.25
590.441	316.25
590.651	303.25
590.861	309.25
591.071	319.25
591.281	290.25
591.49	327.25
591.7	305.25
591.91	296.25
592.119	316.25
592.329	335.25
592.539	319.25
592.748	322.25
592.958	331.25
593.167	309.25
593.377	323.25
593.587	331.25
593.796	307.25
594.006	309.25
594.215	315.25
594.424	349.25
594.634	335.25
594.843	332.25
595.053	360.25
595.262	323.25
595.472	327.25
595.681	323.25
595.89	313.25
596.1	305.25
596.309	328.25
596.518	320.25
596.727	339.25
596.937	317.25
597.146	310.25
597.355	311.25
597.564	287.25
597.774	290.25
597.983	290.25
598.192	272.25
598.401	284.25
598.61	277.25
598.819	280.25
599.028	285.25
599.237	322.25
599.446	305.25
599.655	301.25
599.864	293.25
600.073	295.25
600.282	288.25
600.491	282.25
600.7	303.25
600.909	297.25
601.118	308.25
601.327	337.25
601.536	341.25
601.745	344.25
601.953	356.25
602.162	340.25
602.371	361.25
602.58	335.25
602.789	327.25
602.997	347.25
603.206	373.25
603.415	367.25
603.623	372.25
603.832	341.25
604.041	339.25
604.249	319.25
604.458	317.25
604.666	323.25
604.875	291.25
605.084	326.25
605.292	346.25
605.501	342.25
605.709	355.25
605.918	361.25
606.126	345.25
606.334	366.25
606.543	351.25
606.751	362.25
606.96	356.25
607.168	340.25
607.376	346.25
607.585	365.25
607.793	360.25
608.001	361.25
608.21	360.25
608.418	373.25
608.626	378.25
608.834	370.25
609.043	364.25
609.251	359.25
609.459	343.25
609.667	366.25
609.875	367.25
610.083	377.25
610.291	387.25
610.499	377.25
610.707	331.25
610.916	362.25
611.124	368.25
611.332	378.25
611.54	378.25
611.748	356.25
611.955	348.25
612.163	356.25
612.371	372.25
612.579	363.25
612.787	365.25
612.995	371.25
613.203	372.25
613.411	365.25
613.618	369.25
613.826	371.25
614.034	376.25
614.242	356.25
614.449	327.25
614.657	354.25
614.865	352.25
615.072	352.25
615.28	354.25
615.488	337.25
615.695	354.25
615.903	355.25
616.111	358.25
616.318	364.25
616.526	368.25
616.733	343.25
616.941	355.25
617.148	359.25
617.356	337.25
617.563	339.25
617.771	342.25
617.978	345.25
618.185	329.25
618.393	354.25
618.6	359.25
618.807	343.25
619.015	374.25
619.222	318.25
619.429	299.25
619.637	309.25
619.844	297.25
620.051	298.25
620.258	313.25
620.466	331.25
620.673	305.25
620.88	325.25
621.087	314.25
621.294	319.25
621.501	285.25
621.708	305.25
621.915	312.25
622.122	336.25
622.329	349.25
622.536	331.25
622.743	333.25
622.95	329.25
623.157	305.25
623.364	337.25
623.571	333.25
623.778	305.25
623.985	320.25
624.192	316.25
624.399	304.25
624.606	332.25
624.812	307.25
625.019	296.25
625.226	289.25
625.433	272.25
625.639	293.25
625.846	264.25
626.053	255.25
626.259	250.25
626.466	239.25
626.673	219.25
626.879	234.25
627.086	232.25
627.293	273.25
627.499	273.25
627.706	282.25
627.912	312.25
628.119	318.25
628.325	292.25
628.532	285.25
628.738	272.25
628.945	281.25
629.151	281.25
629.357	287.25
629.564	285.25
629.77	275.25
629.976	284.25
630.183	258.25
630.389	261.25
630.595	283.25
630.802	272.25
631.008	269.25
631.214	262.25
631.42	270.25
631.627	272.25
631.833	264.25
632.039	264.25
632.245	258.25
632.451	278.25
632.657	267.25
632.863	248.25
633.069	269.25
633.275	269.25
633.481	265.25
633.688	249.25
633.893	262.25
634.099	258.25
634.305	249.25
634.511	241.25
634.717	242.25
634.923	232.25
635.129	224.25
635.335	229.25
635.541	223.25
635.747	244.25
635.952	243.25
636.158	254.25
636.364	262.25
636.57	267.25
636.775	270.25
636.981	274.25
637.187	264.25
637.392	262.25
637.598	251.25
637.804	255.25
638.009	250.25
638.215	244.25
638.421	266.25
638.626	259.25
638.832	247.25
639.037	244.25
639.243	242.25
639.448	253.25
639.654	254.25
639.859	247.25
640.065	244.25
640.27	256.25
640.475	258.25
640.681	241.25
640.886	243.25
641.091	256.25
641.297	248.25
641.502	243.25
641.707	234.25
641.913	248.25
642.118	240.25
642.323	256.25
642.528	258.25
642.733	238.25
642.939	240.25
643.144	243.25
643.349	240.25
643.554	220.25
643.759	245.25
643.964	255.25
644.169	209.25
644.374	233.25
644.579	236.25
644.784	252.25
644.989	244.25
645.194	221.25
645.399	233.25
645.604	247.25
645.809	248.25
646.014	260.25
646.219	263.25
646.423	249.25
646.628	238.25
646.833	245.25
647.038	257.25
647.243	240.25
647.447	241.25
647.652	247.25
647.857	243.25
648.062	244.25
648.266	244.25
648.471	236.25
648.676	252.25
648.88	239.25
649.085	235.25
649.289	223.25
649.494	252.25
649.698	231.25
649.903	214.25
650.107	229.25
650.312	229.25
650.516	229.25
650.721	215.25
650.925	225.25
651.13	221.25
651.334	226.25
651.539	215.25
651.743	213.25
651.947	218.25
652.152	208.25
652.356	202.25
652.56	216.25
652.764	217.25
652.969	205.25
653.173	202.25
653.377	198.25
653.581	199.25
653.785	205.25
653.99	201.25
654.194	200.25
654.398	223.25
654.602	197.25
654.806	196.25
655.01	220.25
655.214	194.25
655.418	204.25
655.622	193.25
655.826	205.25
656.03	206.25
656.234	219.25
656.438	229.25
656.642	236.25
656.846	228.25
657.049	198.25
657.253	196.25
657.457	203.25
657.661	179.25
657.865	172.25
658.068	171.25
658.272	159.25
658.476	142.25
658.68	156.25
658.883	135.25
659.087	139.25
659.291	148.25
659.494	132.25
659.698	137.25
659.901	119.25
660.105	118.25
660.309	134.25
660.512	111.25
660.716	114.25
660.919	106.25
661.123	99.25
661.326	113.25
661.53	111.25
661.733	103.25
661.936	105.25
662.14	103.25
662.343	93.25
662.546	101.25
662.75	97.25
662.953	80.25
663.156	90.25
663.36	100.25
663.563	72.25
663.766	81.25
663.969	88.25
664.173	99.25
664.376	83.25
664.579	85.25
664.782	77.25
664.985	97.25
665.188	96.25
665.391	80.25
665.594	89.25
665.797	85.25
666	75.25
666.203	71.25
666.406	83.25
666.609	76.25
666.812	79.25
667.015	78.25
667.218	89.25
667.421	65.25
667.624	74.25
667.827	95.25
668.03	98.25
668.232	77.25
668.435	87.25
668.638	70.25
668.841	82.25
669.043	73.25
669.246	87.25
669.449	83.25
669.651	79.25
669.854	85.25
670.057	99.25
670.259	90.25
670.462	81.25
670.665	92.25
670.867	92.25
671.07	69.25
671.272	84.25
671.475	82.25
671.677	91.25
671.88	90.25
672.082	83.25
672.284	90.25
672.487	82.25
672.689	92.25
672.892	80.25
