Data from WStandard_LampEnergy8_LIBS07252019.E.O._I.C._HRD10591_15-57-57-929.txt Node
Date: Thu Jul 25 15:57:57 EDT 2019
User: cochatt
Spectrometer: HR+D1059
Trigger mode: 1
Integration Time (sec): 1.000000E-1
Scans to average: 1
Electric dark correction enabled: true
Nonlinearity correction enabled: false
Boxcar width: 0
XAxis mode: Wavelengths
Number of Pixels in Spectrum: 2048
>>>>>Begin Spectral Data<<<<<
223.165	-25.94
223.4	-25.94
223.635	-25.94
223.869	-26.94
224.104	-19.94
224.338	-22.94
224.573	3.06
224.808	-9.94
225.042	-4.94
225.277	-3.94
225.511	9.06
225.746	11.06
225.98	-3.94
226.215	20.06
226.449	6.06
226.683	14.06
226.918	24.06
227.152	31.06
227.387	44.06
227.621	51.06
227.856	49.06
228.09	45.06
228.324	43.06
228.559	48.06
228.793	90.06
229.027	200.06
229.262	214.06
229.496	218.06
229.73	218.06
229.964	228.06
230.199	267.06
230.433	287.06
230.667	283.06
230.901	285.06
231.136	278.06
231.37	278.06
231.604	265.06
231.838	247.06
232.072	257.06
232.306	254.06
232.541	253.06
232.775	298.06
233.009	334.06
233.243	332.06
233.477	307.06
233.711	317.06
233.945	301.06
234.179	305.06
234.413	316.06
234.647	336.06
234.881	330.06
235.115	296.06
235.349	299.06
235.583	320.06
235.817	310.06
236.051	293.06
236.285	305.06
236.519	308.06
236.753	337.06
236.987	380.06
237.221	358.06
237.455	392.06
237.689	380.06
237.922	354.06
238.156	344.06
238.39	348.06
238.624	351.06
238.858	381.06
239.091	424.06
239.325	417.06
239.559	484.06
239.793	501.06
240.027	527.06
240.26	505.06
240.494	404.06
240.728	383.06
240.961	388.06
241.195	402.06
241.429	416.06
241.662	432.06
241.896	394.06
242.13	401.06
242.363	452.06
242.597	480.06
242.83	439.06
243.064	439.06
243.298	485.06
243.531	465.06
243.765	472.06
243.998	477.06
244.232	430.06
244.465	410.06
244.699	440.06
244.932	488.06
245.166	514.06
245.399	505.06
245.633	462.06
245.866	450.06
246.099	456.06
246.333	495.06
246.566	508.06
246.8	524.06
247.033	590.06
247.266	516.06
247.5	540.06
247.733	527.06
247.966	564.06
248.2	627.06
248.433	589.06
248.666	630.06
248.899	674.06
249.133	749.06
249.366	827.06
249.599	680.06
249.832	618.06
250.066	636.06
250.299	621.06
250.532	594.06
250.765	570.06
250.998	577.06
251.231	606.06
251.465	635.06
251.698	593.06
251.931	592.06
252.164	607.06
252.397	635.06
252.63	605.06
252.863	566.06
253.096	567.06
253.329	596.06
253.562	609.06
253.795	632.06
254.028	608.06
254.261	602.06
254.494	587.06
254.727	570.06
254.96	603.06
255.193	628.06
255.426	712.06
255.659	791.06
255.892	832.06
256.124	700.06
256.357	668.06
256.59	715.06
256.823	712.06
257.056	721.06
257.289	841.06
257.521	913.06
257.754	816.06
257.987	780.06
258.22	825.06
258.452	826.06
258.685	699.06
258.918	684.06
259.151	680.06
259.383	648.06
259.616	594.06
259.849	635.06
260.081	682.06
260.314	733.06
260.547	827.06
260.779	839.06
261.012	756.06
261.244	703.06
261.477	679.06
261.71	712.06
261.942	706.06
262.175	682.06
262.407	694.06
262.64	690.06
262.872	648.06
263.105	634.06
263.337	637.06
263.57	637.06
263.802	652.06
264.035	611.06
264.267	590.06
264.499	580.06
264.732	634.06
264.964	679.06
265.197	696.06
265.429	719.06
265.661	817.06
265.894	861.06
266.126	877.06
266.358	802.06
266.591	832.06
266.823	884.06
267.055	802.06
267.287	792.06
267.52	770.06
267.752	762.06
267.984	785.06
268.216	829.06
268.448	829.06
268.681	805.06
268.913	738.06
269.145	715.06
269.377	704.06
269.609	784.06
269.841	907.06
270.073	1024.06
270.306	1095.06
270.538	1119.06
270.77	971.06
271.002	821.06
271.234	835.06
271.466	845.06
271.698	950.06
271.93	1086.06
272.162	1053.06
272.394	972.06
272.626	909.06
272.858	799.06
273.09	711.06
273.322	725.06
273.553	677.06
273.785	679.06
274.017	733.06
274.249	774.06
274.481	768.06
274.713	724.06
274.945	688.06
275.176	712.06
275.408	693.06
275.64	690.06
275.872	695.06
276.104	746.06
276.335	872.06
276.567	927.06
276.799	919.06
277.031	831.06
277.262	838.06
277.494	860.06
277.726	918.06
277.957	854.06
278.189	819.06
278.421	776.06
278.652	743.06
278.884	736.06
279.115	754.06
279.347	766.06
279.579	760.06
279.81	769.06
280.042	815.06
280.273	862.06
280.505	902.06
280.736	875.06
280.968	827.06
281.199	755.06
281.431	717.06
281.662	714.06
281.894	745.06
282.125	772.06
282.356	776.06
282.588	787.06
282.819	796.06
283.051	846.06
283.282	916.06
283.513	874.06
283.745	788.06
283.976	726.06
284.207	739.06
284.439	756.06
284.67	761.06
284.901	784.06
285.132	792.06
285.364	776.06
285.595	780.06
285.826	786.06
286.057	774.06
286.288	776.06
286.52	811.06
286.751	855.06
286.982	887.06
287.213	827.06
287.444	753.06
287.675	756.06
287.906	785.06
288.138	856.06
288.369	823.06
288.6	759.06
288.831	719.06
289.062	772.06
289.293	776.06
289.524	791.06
289.755	817.06
289.986	774.06
290.217	746.06
290.448	761.06
290.679	782.06
290.91	825.06
291.141	828.06
291.371	845.06
291.602	830.06
291.833	826.06
292.064	868.06
292.295	833.06
292.526	846.06
292.757	884.06
292.987	824.06
293.218	804.06
293.449	878.06
293.68	1003.06
293.91	1044.06
294.141	955.06
294.372	926.06
294.603	978.06
294.833	998.06
295.064	905.06
295.295	837.06
295.525	824.06
295.756	762.06
295.987	744.06
296.217	777.06
296.448	763.06
296.679	776.06
296.909	768.06
297.14	788.06
297.37	824.06
297.601	872.06
297.831	893.06
298.062	875.06
298.292	818.06
298.523	786.06
298.753	799.06
298.984	807.06
299.214	809.06
299.445	857.06
299.675	858.06
299.905	853.06
300.136	831.06
300.366	822.06
300.597	767.06
300.827	793.06
301.057	846.06
301.288	859.06
301.518	869.06
301.748	893.06
301.979	912.06
302.209	946.06
302.439	1005.06
302.669	1038.06
302.9	946.06
303.13	862.06
303.36	889.06
303.59	920.06
303.82	856.06
304.051	847.06
304.281	902.06
304.511	880.06
304.741	944.06
304.971	1067.06
305.201	1092.06
305.431	974.06
305.661	818.06
305.891	780.06
306.121	803.06
306.352	824.06
306.582	864.06
306.812	914.06
307.042	965.06
307.272	984.06
307.502	1034.06
307.731	1098.06
307.961	1115.06
308.191	993.06
308.421	902.06
308.651	857.06
308.881	849.06
309.111	852.06
309.341	811.06
309.571	830.06
309.8	846.06
310.03	829.06
310.26	834.06
310.49	828.06
310.72	867.06
310.949	887.06
311.179	898.06
311.409	867.06
311.639	863.06
311.868	855.06
312.098	906.06
312.328	874.06
312.557	828.06
312.787	883.06
313.017	880.06
313.246	870.06
313.476	882.06
313.706	896.06
313.935	900.06
314.165	902.06
314.394	970.06
314.624	997.06
314.853	1057.06
315.083	1078.06
315.312	1102.06
315.542	1017.06
315.771	944.06
316.001	923.06
316.23	992.06
316.46	985.06
316.689	943.06
316.919	900.06
317.148	883.06
317.377	908.06
317.607	985.06
317.836	1106.06
318.065	1081.06
318.295	1047.06
318.524	1013.06
318.753	962.06
318.983	937.06
319.212	941.06
319.441	905.06
319.67	956.06
319.9	970.06
320.129	1005.06
320.358	1057.06
320.587	1052.06
320.816	1028.06
321.046	1032.06
321.275	977.06
321.504	1005.06
321.733	1072.06
321.962	1020.06
322.191	929.06
322.42	922.06
322.649	921.06
322.878	941.06
323.108	945.06
323.337	981.06
323.566	984.06
323.795	992.06
324.024	968.06
324.253	949.06
324.482	944.06
324.71	900.06
324.939	878.06
325.168	899.06
325.397	956.06
325.626	967.06
325.855	980.06
326.084	920.06
326.313	931.06
326.542	947.06
326.77	1008.06
326.999	1005.06
327.228	929.06
327.457	910.06
327.686	898.06
327.914	944.06
328.143	953.06
328.372	944.06
328.6	958.06
328.829	920.06
329.058	919.06
329.287	931.06
329.515	1003.06
329.744	986.06
329.972	1039.06
330.201	1065.06
330.43	1033.06
330.658	997.06
330.887	1000.06
331.115	1032.06
331.344	1015.06
331.572	1008.06
331.801	989.06
332.03	1014.06
332.258	1034.06
332.486	1020.06
332.715	1039.06
332.943	1033.06
333.172	1037.06
333.4	1048.06
333.629	1032.06
333.857	1094.06
334.085	1241.06
334.314	1352.06
334.542	1426.06
334.771	1312.06
334.999	1186.06
335.227	1110.06
335.455	1065.06
335.684	1098.06
335.912	1105.06
336.14	1119.06
336.369	1059.06
336.597	1028.06
336.825	1008.06
337.053	1057.06
337.281	1112.06
337.51	1177.06
337.738	1195.06
337.966	1136.06
338.194	1026.06
338.422	1010.06
338.65	1001.06
338.878	986.06
339.106	977.06
339.334	945.06
339.562	961.06
339.79	986.06
340.018	1037.06
340.246	1051.06
340.474	1046.06
340.702	1045.06
340.93	1049.06
341.158	1040.06
341.386	1021.06
341.614	1024.06
341.842	994.06
342.07	981.06
342.298	1021.06
342.526	997.06
342.754	1006.06
342.981	1003.06
343.209	1004.06
343.437	959.06
343.665	982.06
343.893	1046.06
344.12	1068.06
344.348	1057.06
344.576	1023.06
344.804	999.06
345.031	987.06
345.259	997.06
345.487	964.06
345.714	948.06
345.942	908.06
346.17	953.06
346.397	966.06
346.625	974.06
346.853	906.06
347.08	922.06
347.308	928.06
347.535	925.06
347.763	954.06
347.99	938.06
348.218	923.06
348.445	908.06
348.673	947.06
348.9	967.06
349.128	1022.06
349.355	1033.06
349.583	987.06
349.81	957.06
350.037	889.06
350.265	875.06
350.492	878.06
350.72	884.06
350.947	964.06
351.174	986.06
351.402	922.06
351.629	869.06
351.856	865.06
352.083	867.06
352.311	903.06
352.538	936.06
352.765	931.06
352.992	933.06
353.22	910.06
353.447	920.06
353.674	935.06
353.901	911.06
354.128	895.06
354.355	928.06
354.583	937.06
354.81	977.06
355.037	994.06
355.264	955.06
355.491	963.06
355.718	922.06
355.945	922.06
356.172	925.06
356.399	917.06
356.626	895.06
356.853	960.06
357.08	1022.06
357.307	1123.06
357.534	1082.06
357.761	978.06
357.988	888.06
358.215	888.06
358.441	889.06
358.668	900.06
358.895	930.06
359.122	1002.06
359.349	1051.06
359.576	1000.06
359.802	950.06
360.029	916.06
360.256	918.06
360.483	934.06
360.709	954.06
360.936	993.06
361.163	1020.06
361.39	1116.06
361.616	1159.06
361.843	1160.06
362.07	1034.06
362.296	941.06
362.523	939.06
362.749	961.06
362.976	955.06
363.203	968.06
363.429	924.06
363.656	948.06
363.882	1001.06
364.109	1097.06
364.335	1123.06
364.562	1036.06
364.788	1012.06
365.015	927.06
365.241	906.06
365.468	961.06
365.694	985.06
365.92	1025.06
366.147	978.06
366.373	929.06
366.599	892.06
366.826	946.06
367.052	931.06
367.278	914.06
367.505	944.06
367.731	976.06
367.957	995.06
368.184	1041.06
368.41	1094.06
368.636	1065.06
368.862	1079.06
369.089	1072.06
369.315	1004.06
369.541	989.06
369.767	965.06
369.993	924.06
370.219	939.06
370.445	984.06
370.672	1032.06
370.898	1108.06
371.124	1074.06
371.35	1004.06
371.576	1078.06
371.802	1082.06
372.028	1015.06
372.254	982.06
372.48	938.06
372.706	976.06
372.932	974.06
373.158	958.06
373.384	972.06
373.61	1009.06
373.835	1059.06
374.061	1001.06
374.287	993.06
374.513	1001.06
374.739	1028.06
374.965	1015.06
375.191	988.06
375.416	1018.06
375.642	1039.06
375.868	1133.06
376.094	1115.06
376.319	1074.06
376.545	1003.06
376.771	1052.06
376.997	1110.06
377.222	1081.06
377.448	1079.06
377.674	1045.06
377.899	1054.06
378.125	1121.06
378.35	1114.06
378.576	1004.06
378.802	949.06
379.027	992.06
379.253	993.06
379.478	997.06
379.704	1000.06
379.929	995.06
380.155	1003.06
380.38	1010.06
380.606	1010.06
380.831	1031.06
381.057	1085.06
381.282	1086.06
381.507	1041.06
381.733	1116.06
381.958	1170.06
382.184	1066.06
382.409	1044.06
382.634	1070.06
382.86	1066.06
383.085	1065.06
383.31	1102.06
383.535	1188.06
383.761	1238.06
383.986	1191.06
384.211	1132.06
384.436	1142.06
384.662	1188.06
384.887	1238.06
385.112	1169.06
385.337	1183.06
385.562	1147.06
385.787	1133.06
386.013	1174.06
386.238	1186.06
386.463	1178.06
386.688	1254.06
386.913	1336.06
387.138	1285.06
387.363	1215.06
387.588	1158.06
387.813	1191.06
388.038	1173.06
388.263	1269.06
388.488	1162.06
388.713	1105.06
388.938	1098.06
389.163	1114.06
389.387	1138.06
389.612	1130.06
389.837	1157.06
390.062	1146.06
390.287	1174.06
390.512	1147.06
390.736	1108.06
390.961	1110.06
391.186	1124.06
391.411	1119.06
391.636	1124.06
391.86	1132.06
392.085	1157.06
392.31	1143.06
392.534	1161.06
392.759	1166.06
392.984	1139.06
393.208	1150.06
393.433	1194.06
393.658	1252.06
393.882	1246.06
394.107	1174.06
394.331	1154.06
394.556	1160.06
394.78	1173.06
395.005	1211.06
395.229	1264.06
395.454	1281.06
395.678	1313.06
395.903	1238.06
396.127	1234.06
396.352	1254.06
396.576	1287.06
396.801	1244.06
397.025	1287.06
397.249	1281.06
397.474	1237.06
397.698	1264.06
397.922	1309.06
398.147	1352.06
398.371	1387.06
398.595	1373.06
398.82	1317.06
399.044	1365.06
399.268	1368.06
399.492	1472.06
399.717	1516.06
399.941	1521.06
400.165	1513.06
400.389	1450.06
400.613	1474.06
400.837	1656.06
401.062	1832.06
401.286	1524.06
401.51	1456.06
401.734	1493.06
401.958	1443.06
402.182	1352.06
402.406	1328.06
402.63	1321.06
402.854	1270.06
403.078	1325.06
403.302	1349.06
403.526	1365.06
403.75	1378.06
403.974	1354.06
404.198	1379.06
404.422	1451.06
404.645	1527.06
404.869	1451.06
405.093	1329.06
405.317	1340.06
405.541	1349.06
405.765	1372.06
405.988	1383.06
406.212	1395.06
406.436	1405.06
406.66	1472.06
406.883	1500.06
407.107	1672.06
407.331	1812.06
407.555	1971.06
407.778	1715.06
408.002	1459.06
408.226	1445.06
408.449	1418.06
408.673	1408.06
408.896	1415.06
409.12	1433.06
409.344	1395.06
409.567	1341.06
409.791	1389.06
410.014	1448.06
410.238	1500.06
410.461	1547.06
410.685	1400.06
410.908	1368.06
411.132	1378.06
411.355	1349.06
411.578	1320.06
411.802	1323.06
412.025	1378.06
412.249	1335.06
412.472	1284.06
412.695	1353.06
412.919	1309.06
413.142	1289.06
413.365	1330.06
413.589	1409.06
413.812	1434.06
414.035	1460.06
414.258	1337.06
414.482	1342.06
414.705	1335.06
414.928	1337.06
415.151	1287.06
415.374	1318.06
415.597	1345.06
415.821	1344.06
416.044	1366.06
416.267	1354.06
416.49	1298.06
416.713	1291.06
416.936	1332.06
417.159	1394.06
417.382	1400.06
417.605	1336.06
417.828	1388.06
418.051	1332.06
418.274	1330.06
418.497	1290.06
418.72	1301.06
418.943	1254.06
419.166	1331.06
419.389	1400.06
419.611	1329.06
419.834	1319.06
420.057	1325.06
420.28	1306.06
420.503	1294.06
420.726	1347.06
420.948	1306.06
421.171	1302.06
421.394	1312.06
421.617	1371.06
421.839	1349.06
422.062	1372.06
422.285	1295.06
422.507	1288.06
422.73	1288.06
422.953	1240.06
423.175	1232.06
423.398	1276.06
423.621	1290.06
423.843	1305.06
424.066	1314.06
424.288	1385.06
424.511	1440.06
424.733	1434.06
424.956	1303.06
425.178	1243.06
425.401	1288.06
425.623	1290.06
425.846	1278.06
426.068	1358.06
426.291	1377.06
426.513	1359.06
426.735	1325.06
426.958	1460.06
427.18	1544.06
427.402	1382.06
427.625	1455.06
427.847	1396.06
428.069	1308.06
428.292	1280.06
428.514	1264.06
428.736	1223.06
428.958	1271.06
429.181	1292.06
429.403	1522.06
429.625	1821.06
429.847	1485.06
430.069	1331.06
430.292	1480.06
430.514	1467.06
430.736	1371.06
430.958	1394.06
431.18	1318.06
431.402	1230.06
431.624	1194.06
431.846	1160.06
432.068	1142.06
432.29	1153.06
432.512	1212.06
432.734	1239.06
432.956	1305.06
433.178	1357.06
433.4	1312.06
433.622	1332.06
433.844	1267.06
434.066	1229.06
434.287	1186.06
434.509	1218.06
434.731	1296.06
434.953	1396.06
435.175	1348.06
435.397	1281.06
435.618	1265.06
435.84	1261.06
436.062	1244.06
436.284	1270.06
436.505	1322.06
436.727	1313.06
436.949	1272.06
437.17	1239.06
437.392	1250.06
437.614	1206.06
437.835	1201.06
438.057	1252.06
438.278	1264.06
438.5	1229.06
438.721	1254.06
438.943	1270.06
439.165	1261.06
439.386	1251.06
439.608	1259.06
439.829	1248.06
440.05	1292.06
440.272	1262.06
440.493	1251.06
440.715	1295.06
440.936	1375.06
441.158	1458.06
441.379	1406.06
441.6	1377.06
441.822	1373.06
442.043	1353.06
442.264	1313.06
442.486	1263.06
442.707	1269.06
442.928	1262.06
443.149	1336.06
443.371	1362.06
443.592	1404.06
443.813	1399.06
444.034	1365.06
444.255	1368.06
444.476	1416.06
444.698	1443.06
444.919	1432.06
445.14	1542.06
445.361	1436.06
445.582	1457.06
445.803	1434.06
446.024	1379.06
446.245	1419.06
446.466	1364.06
446.687	1334.06
446.908	1372.06
447.129	1294.06
447.35	1312.06
447.571	1366.06
447.792	1290.06
448.013	1253.06
448.234	1266.06
448.455	1353.06
448.675	1330.06
448.896	1275.06
449.117	1240.06
449.338	1254.06
449.559	1298.06
449.779	1357.06
450	1429.06
450.221	1501.06
450.442	1411.06
450.662	1309.06
450.883	1227.06
451.104	1177.06
451.324	1209.06
451.545	1257.06
451.766	1178.06
451.986	1148.06
452.207	1148.06
452.428	1108.06
452.648	1106.06
452.869	1138.06
453.089	1152.06
453.31	1183.06
453.53	1155.06
453.751	1110.06
453.971	1072.06
454.192	1084.06
454.412	1169.06
454.633	1145.06
454.853	1122.06
455.073	1084.06
455.294	1088.06
455.514	1105.06
455.734	1105.06
455.955	1085.06
456.175	1070.06
456.395	1078.06
456.616	1117.06
456.836	1064.06
457.056	1110.06
457.276	1068.06
457.497	1059.06
457.717	1034.06
457.937	1059.06
458.157	1057.06
458.377	1048.06
458.598	1045.06
458.818	1086.06
459.038	1111.06
459.258	1174.06
459.478	1154.06
459.698	1132.06
459.918	1180.06
460.138	1253.06
460.358	1277.06
460.578	1266.06
460.798	1291.06
461.018	1382.06
461.238	1308.06
461.458	1306.06
461.678	1277.06
461.898	1262.06
462.118	1227.06
462.338	1288.06
462.558	1232.06
462.777	1284.06
462.997	1344.06
463.217	1399.06
463.437	1359.06
463.657	1293.06
463.876	1247.06
464.096	1275.06
464.316	1301.06
464.536	1331.06
464.755	1304.06
464.975	1330.06
465.195	1280.06
465.414	1348.06
465.634	1326.06
465.854	1314.06
466.073	1402.06
466.293	1398.06
466.512	1225.06
466.732	1217.06
466.951	1277.06
467.171	1244.06
467.391	1176.06
467.61	1165.06
467.829	1228.06
468.049	1333.06
468.268	1458.06
468.488	1356.06
468.707	1293.06
468.927	1250.06
469.146	1232.06
469.365	1227.06
469.585	1270.06
469.804	1227.06
470.023	1242.06
470.243	1270.06
470.462	1247.06
470.681	1188.06
470.901	1228.06
471.12	1222.06
471.339	1233.06
471.558	1233.06
471.777	1207.06
471.997	1205.06
472.216	1172.06
472.435	1144.06
472.654	1140.06
472.873	1164.06
473.092	1299.06
473.311	1191.06
473.53	1125.06
473.749	1149.06
473.968	1188.06
474.187	1252.06
474.406	1301.06
474.625	1233.06
474.844	1202.06
475.063	1246.06
475.282	1252.06
475.501	1197.06
475.72	1250.06
475.939	1346.06
476.158	1276.06
476.377	1233.06
476.596	1222.06
476.814	1231.06
477.033	1266.06
477.252	1260.06
477.471	1316.06
477.69	1290.06
477.908	1313.06
478.127	1364.06
478.346	1443.06
478.564	1439.06
478.783	1406.06
479.002	1440.06
479.22	1437.06
479.439	1504.06
479.658	1566.06
479.876	1494.06
480.095	1414.06
480.313	1371.06
480.532	1323.06
480.751	1344.06
480.969	1341.06
481.188	1276.06
481.406	1264.06
481.624	1244.06
481.843	1298.06
482.061	1274.06
482.28	1371.06
482.498	1358.06
482.717	1312.06
482.935	1300.06
483.153	1338.06
483.372	1402.06
483.59	1371.06
483.808	1376.06
484.027	1388.06
484.245	1483.06
484.463	1750.06
484.681	1902.06
484.9	1490.06
485.118	1412.06
485.336	1369.06
485.554	1402.06
485.772	1428.06
485.99	1404.06
486.209	1376.06
486.427	1370.06
486.645	1395.06
486.863	1456.06
487.081	1500.06
487.299	1459.06
487.517	1439.06
487.735	1494.06
487.953	1549.06
488.171	1505.06
488.389	1475.06
488.607	1460.06
488.825	1664.06
489.043	1584.06
489.261	1443.06
489.479	1486.06
489.696	1479.06
489.914	1465.06
490.132	1447.06
490.35	1458.06
490.568	1541.06
490.786	1501.06
491.003	1499.06
491.221	1545.06
491.439	1615.06
491.657	1615.06
491.874	1661.06
492.092	1691.06
492.31	1725.06
492.527	1714.06
492.745	1660.06
492.963	1636.06
493.18	1628.06
493.398	1713.06
493.615	1712.06
493.833	1639.06
494.05	1584.06
494.268	1603.06
494.485	1604.06
494.703	1617.06
494.92	1613.06
495.138	1560.06
495.355	1586.06
495.573	1645.06
495.79	1712.06
496.008	1700.06
496.225	1614.06
496.442	1607.06
496.66	1625.06
496.877	1576.06
497.094	1652.06
497.312	1674.06
497.529	1618.06
497.746	1662.06
497.963	1846.06
498.181	2006.06
498.398	1899.06
498.615	1907.06
498.832	1784.06
499.049	1794.06
499.267	1813.06
499.484	1882.06
499.701	2032.06
499.918	2071.06
500.135	2237.06
500.352	2356.06
500.569	2373.06
500.786	2593.06
501.003	2345.06
501.22	2173.06
501.437	2052.06
501.654	2117.06
501.871	2026.06
502.088	1796.06
502.305	1774.06
502.522	1700.06
502.739	1646.06
502.956	1599.06
503.172	1569.06
503.389	1522.06
503.606	1521.06
503.823	1498.06
504.04	1513.06
504.256	1522.06
504.473	1498.06
504.69	1563.06
504.907	1435.06
505.123	1413.06
505.34	1562.06
505.557	2024.06
505.773	1659.06
505.99	1393.06
506.207	1315.06
506.423	1312.06
506.64	1321.06
506.856	1326.06
507.073	1538.06
507.289	1650.06
507.506	1531.06
507.722	1353.06
507.939	1292.06
508.155	1288.06
508.372	1269.06
508.588	1213.06
508.805	1217.06
509.021	1194.06
509.238	1200.06
509.454	1164.06
509.67	1160.06
509.887	1150.06
510.103	1146.06
510.319	1139.06
510.536	1232.06
510.752	1267.06
510.968	1244.06
511.184	1296.06
511.401	1249.06
511.617	1137.06
511.833	1133.06
512.049	1120.06
512.265	1112.06
512.481	1108.06
512.698	1173.06
512.914	1208.06
513.13	1183.06
513.346	1164.06
513.562	1105.06
513.778	1104.06
513.994	1208.06
514.21	1190.06
514.426	1226.06
514.642	1322.06
514.858	1245.06
515.074	1161.06
515.29	1144.06
515.506	1189.06
515.721	1204.06
515.937	1210.06
516.153	1318.06
516.369	1227.06
516.585	1182.06
516.801	1160.06
517.016	1173.06
517.232	1178.06
517.448	1239.06
517.664	1248.06
517.879	1254.06
518.095	1276.06
518.311	1232.06
518.527	1202.06
518.742	1168.06
518.958	1148.06
519.173	1177.06
519.389	1202.06
519.605	1194.06
519.82	1210.06
520.036	1174.06
520.251	1150.06
520.467	1173.06
520.682	1260.06
520.898	1275.06
521.113	1138.06
521.329	1139.06
521.544	1189.06
521.76	1146.06
521.975	1122.06
522.19	1084.06
522.406	1118.06
522.621	1439.06
522.836	1332.06
523.052	1099.06
523.267	1084.06
523.482	1095.06
523.698	1075.06
523.913	1069.06
524.128	1108.06
524.343	1150.06
524.559	1198.06
524.774	1082.06
524.989	1090.06
525.204	1108.06
525.419	1060.06
525.634	1095.06
525.849	1067.06
526.064	1061.06
526.28	1084.06
526.495	1004.06
526.71	1028.06
526.925	1013.06
527.14	988.06
527.355	976.06
527.57	970.06
527.785	1042.06
527.999	991.06
528.214	1022.06
528.429	1004.06
528.644	1019.06
528.859	1096.06
529.074	1107.06
529.289	1120.06
529.503	1137.06
529.718	1084.06
529.933	1048.06
530.148	994.06
530.363	1003.06
530.577	988.06
530.792	985.06
531.007	985.06
531.221	981.06
531.436	971.06
531.651	1026.06
531.865	1039.06
532.08	1028.06
532.295	982.06
532.509	943.06
532.724	955.06
532.938	1024.06
533.153	1086.06
533.367	1037.06
533.582	1059.06
533.796	1026.06
534.011	1028.06
534.225	1017.06
534.44	966.06
534.654	930.06
534.868	973.06
535.083	1052.06
535.297	1050.06
535.511	999.06
535.726	1036.06
535.94	1028.06
536.154	986.06
536.369	984.06
536.583	932.06
536.797	955.06
537.011	995.06
537.225	946.06
537.44	946.06
537.654	995.06
537.868	963.06
538.082	917.06
538.296	948.06
538.51	935.06
538.724	945.06
538.938	934.06
539.153	1028.06
539.367	999.06
539.581	976.06
539.795	1005.06
540.009	987.06
540.222	989.06
540.436	1001.06
540.65	1083.06
540.864	1100.06
541.078	1086.06
541.292	1085.06
541.506	1090.06
541.72	1099.06
541.934	1137.06
542.147	1189.06
542.361	1148.06
542.575	1080.06
542.789	1029.06
543.002	980.06
543.216	999.06
543.43	1025.06
543.644	1080.06
543.857	1134.06
544.071	1113.06
544.285	1121.06
544.498	1098.06
544.712	1114.06
544.925	1118.06
545.139	1151.06
545.352	1068.06
545.566	1084.06
545.779	1086.06
545.993	1109.06
546.206	1113.06
546.42	1099.06
546.633	1070.06
546.847	1097.06
547.06	1096.06
547.274	1082.06
547.487	1102.06
547.7	1118.06
547.914	1109.06
548.127	1080.06
548.34	1090.06
548.554	1066.06
548.767	1066.06
548.98	1056.06
549.193	1086.06
549.407	1116.06
549.62	1112.06
549.833	1070.06
550.046	1064.06
550.259	1072.06
550.473	1009.06
550.686	1057.06
550.899	1040.06
551.112	995.06
551.325	1010.06
551.538	1046.06
551.751	1167.06
551.964	942.06
552.177	923.06
552.39	977.06
552.603	1025.06
552.816	997.06
553.029	1051.06
553.242	1063.06
553.455	1084.06
553.667	1009.06
553.88	1022.06
554.093	1044.06
554.306	1010.06
554.519	966.06
554.732	951.06
554.944	970.06
555.157	976.06
555.37	956.06
555.583	969.06
555.795	949.06
556.008	925.06
556.221	874.06
556.433	871.06
556.646	902.06
556.859	878.06
557.071	869.06
557.284	900.06
557.496	874.06
557.709	872.06
557.921	867.06
558.134	868.06
558.346	871.06
558.559	861.06
558.771	865.06
558.984	828.06
559.196	846.06
559.409	833.06
559.621	831.06
559.833	819.06
560.046	853.06
560.258	832.06
560.47	822.06
560.683	838.06
560.895	822.06
561.107	820.06
561.32	838.06
561.532	871.06
561.744	853.06
561.956	824.06
562.168	814.06
562.381	797.06
562.593	790.06
562.805	789.06
563.017	769.06
563.229	816.06
563.441	809.06
563.653	778.06
563.865	791.06
564.077	781.06
564.289	793.06
564.501	776.06
564.713	807.06
564.925	820.06
565.137	903.06
565.349	820.06
565.561	814.06
565.773	819.06
565.985	825.06
566.197	881.06
566.408	902.06
566.62	910.06
566.832	913.06
567.044	863.06
567.255	856.06
567.467	865.06
567.679	938.06
567.891	925.06
568.102	902.06
568.314	862.06
568.526	803.06
568.737	771.06
568.949	742.06
569.161	684.06
569.372	692.06
569.584	707.06
569.795	684.06
570.007	681.06
570.218	646.06
570.43	675.06
570.641	646.06
570.853	660.06
571.064	686.06
571.276	668.06
571.487	654.06
571.698	662.06
571.91	637.06
572.121	646.06
572.333	620.06
572.544	602.06
572.755	597.06
572.966	598.06
573.178	586.06
573.389	581.06
573.6	610.06
573.811	637.06
574.023	601.06
574.234	587.06
574.445	582.06
574.656	562.06
574.867	553.06
575.078	557.06
575.289	585.06
575.501	558.06
575.712	542.06
575.923	563.06
576.134	574.06
576.345	567.06
576.556	565.06
576.767	560.06
576.978	558.06
577.188	565.06
577.399	521.06
577.61	523.06
577.821	533.06
578.032	518.06
578.243	514.06
578.454	513.06
578.665	499.06
578.875	526.06
579.086	509.06
579.297	478.06
579.508	537.06
579.718	517.06
579.929	521.06
580.14	475.06
580.35	487.06
580.561	515.06
580.772	566.06
580.982	536.06
581.193	482.06
581.403	488.06
581.614	493.06
581.825	476.06
582.035	487.06
582.246	501.06
582.456	499.06
582.667	514.06
582.877	486.06
583.087	473.06
583.298	476.06
583.508	474.06
583.719	488.06
583.929	487.06
584.139	476.06
584.35	463.06
584.56	482.06
584.77	478.06
584.981	468.06
585.191	471.06
585.401	472.06
585.611	474.06
585.821	453.06
586.032	451.06
586.242	465.06
586.452	454.06
586.662	452.06
586.872	465.06
587.082	441.06
587.292	474.06
587.502	467.06
587.713	455.06
587.923	444.06
588.133	450.06
588.343	453.06
588.553	436.06
588.762	456.06
588.972	441.06
589.182	468.06
589.392	452.06
589.602	470.06
589.812	461.06
590.022	451.06
590.232	442.06
590.441	466.06
590.651	460.06
590.861	461.06
591.071	440.06
591.281	449.06
591.49	442.06
591.7	441.06
591.91	462.06
592.119	436.06
592.329	451.06
592.539	469.06
592.748	467.06
592.958	454.06
593.167	468.06
593.377	470.06
593.587	500.06
593.796	461.06
594.006	472.06
594.215	468.06
594.424	451.06
594.634	463.06
594.843	460.06
595.053	487.06
595.262	462.06
595.472	445.06
595.681	437.06
595.89	432.06
596.1	421.06
596.309	422.06
596.518	428.06
596.727	426.06
596.937	425.06
597.146	416.06
597.355	418.06
597.564	424.06
597.774	412.06
597.983	401.06
598.192	417.06
598.401	403.06
598.61	405.06
598.819	409.06
599.028	409.06
599.237	399.06
599.446	398.06
599.655	399.06
599.864	399.06
600.073	381.06
600.282	381.06
600.491	386.06
600.7	388.06
600.909	384.06
601.118	411.06
601.327	408.06
601.536	436.06
601.745	408.06
601.953	434.06
602.162	425.06
602.371	431.06
602.58	438.06
602.789	425.06
602.997	412.06
603.206	412.06
603.415	405.06
603.623	430.06
603.832	403.06
604.041	405.06
604.249	383.06
604.458	379.06
604.666	381.06
604.875	387.06
605.084	396.06
605.292	410.06
605.501	401.06
605.709	417.06
605.918	418.06
606.126	420.06
606.334	408.06
606.543	406.06
606.751	417.06
606.96	426.06
607.168	413.06
607.376	376.06
607.585	420.06
607.793	381.06
608.001	403.06
608.21	404.06
608.418	404.06
608.626	398.06
608.834	398.06
609.043	391.06
609.251	390.06
609.459	392.06
609.667	406.06
609.875	398.06
610.083	418.06
610.291	415.06
610.499	402.06
610.707	410.06
610.916	399.06
611.124	401.06
611.332	414.06
611.54	402.06
611.748	403.06
611.955	400.06
612.163	381.06
612.371	392.06
612.579	406.06
612.787	406.06
612.995	430.06
613.203	434.06
613.411	401.06
613.618	388.06
613.826	394.06
614.034	402.06
614.242	390.06
614.449	380.06
614.657	409.06
614.865	390.06
615.072	397.06
615.28	387.06
615.488	384.06
615.695	402.06
615.903	403.06
616.111	398.06
616.318	409.06
616.526	395.06
616.733	388.06
616.941	390.06
617.148	399.06
617.356	376.06
617.563	384.06
617.771	370.06
617.978	381.06
618.185	377.06
618.393	371.06
618.6	392.06
618.807	371.06
619.015	372.06
619.222	365.06
619.429	352.06
619.637	361.06
619.844	345.06
620.051	356.06
620.258	373.06
620.466	361.06
620.673	338.06
620.88	349.06
621.087	345.06
621.294	345.06
621.501	344.06
621.708	353.06
621.915	363.06
622.122	359.06
622.329	363.06
622.536	337.06
622.743	356.06
622.95	350.06
623.157	350.06
623.364	362.06
623.571	361.06
623.778	372.06
623.985	346.06
624.192	382.06
624.399	346.06
624.606	338.06
624.812	339.06
625.019	363.06
625.226	344.06
625.433	326.06
625.639	334.06
625.846	299.06
626.053	294.06
626.259	313.06
626.466	296.06
626.673	300.06
626.879	304.06
627.086	307.06
627.293	312.06
627.499	314.06
627.706	320.06
627.912	328.06
628.119	307.06
628.325	321.06
628.532	296.06
628.738	331.06
628.945	312.06
629.151	321.06
629.357	280.06
629.564	322.06
629.77	292.06
629.976	325.06
630.183	300.06
630.389	301.06
630.595	315.06
630.802	308.06
631.008	311.06
631.214	301.06
631.42	290.06
631.627	291.06
631.833	298.06
632.039	280.06
632.245	301.06
632.451	311.06
632.657	304.06
632.863	295.06
633.069	314.06
633.275	292.06
633.481	292.06
633.688	290.06
633.893	270.06
634.099	270.06
634.305	292.06
634.511	276.06
634.717	277.06
634.923	268.06
635.129	278.06
635.335	277.06
635.541	275.06
635.747	282.06
635.952	295.06
636.158	283.06
636.364	292.06
636.57	298.06
636.775	280.06
636.981	275.06
637.187	298.06
637.392	292.06
637.598	278.06
637.804	286.06
638.009	282.06
638.215	282.06
638.421	284.06
638.626	285.06
638.832	293.06
639.037	278.06
639.243	269.06
639.448	281.06
639.654	263.06
639.859	266.06
640.065	262.06
640.27	270.06
640.475	292.06
640.681	270.06
640.886	252.06
641.091	274.06
641.297	276.06
641.502	269.06
641.707	265.06
641.913	287.06
642.118	277.06
642.323	268.06
642.528	289.06
642.733	276.06
642.939	268.06
643.144	246.06
643.349	261.06
643.554	266.06
643.759	264.06
643.964	256.06
644.169	258.06
644.374	276.06
644.579	256.06
644.784	262.06
644.989	264.06
645.194	268.06
645.399	267.06
645.604	257.06
645.809	274.06
646.014	249.06
646.219	257.06
646.423	256.06
646.628	274.06
646.833	254.06
647.038	260.06
647.243	271.06
647.447	252.06
647.652	251.06
647.857	274.06
648.062	265.06
648.266	274.06
648.471	268.06
648.676	270.06
648.88	266.06
649.085	262.06
649.289	259.06
649.494	245.06
649.698	232.06
649.903	240.06
650.107	258.06
650.312	247.06
650.516	236.06
650.721	255.06
650.925	246.06
651.13	253.06
651.334	243.06
651.539	229.06
651.743	248.06
651.947	248.06
652.152	242.06
652.356	250.06
652.56	236.06
652.764	211.06
652.969	228.06
653.173	220.06
653.377	222.06
653.581	218.06
653.785	229.06
653.99	202.06
654.194	226.06
654.398	213.06
654.602	210.06
654.806	211.06
655.01	208.06
655.214	230.06
655.418	224.06
655.622	234.06
655.826	248.06
656.03	238.06
656.234	241.06
656.438	262.06
656.642	228.06
656.846	253.06
657.049	222.06
657.253	213.06
657.457	206.06
657.661	197.06
657.865	180.06
658.068	170.06
658.272	176.06
658.476	161.06
658.68	153.06
658.883	153.06
659.087	155.06
659.291	162.06
659.494	148.06
659.698	132.06
659.901	138.06
660.105	130.06
660.309	131.06
660.512	127.06
660.716	120.06
660.919	128.06
661.123	124.06
661.326	108.06
661.53	88.06
661.733	118.06
661.936	104.06
662.14	104.06
662.343	88.06
662.546	101.06
662.75	98.06
662.953	108.06
663.156	105.06
663.36	100.06
663.563	86.06
663.766	81.06
663.969	91.06
664.173	94.06
664.376	82.06
664.579	93.06
664.782	95.06
664.985	91.06
665.188	89.06
665.391	91.06
665.594	85.06
665.797	99.06
666	90.06
666.203	86.06
666.406	74.06
666.609	76.06
666.812	79.06
667.015	86.06
667.218	77.06
667.421	88.06
667.624	68.06
667.827	82.06
668.03	95.06
668.232	80.06
668.435	81.06
668.638	92.06
668.841	72.06
669.043	92.06
669.246	69.06
669.449	81.06
669.651	84.06
669.854	81.06
670.057	78.06
670.259	71.06
670.462	97.06
670.665	74.06
670.867	85.06
671.07	96.06
671.272	74.06
671.475	93.06
671.677	83.06
671.88	91.06
672.082	84.06
672.284	91.06
672.487	75.06
672.689	89.06
672.892	87.06
