Data from WStandard_LampEnergy10_LIBS07252019.E.O._I.C._HRD10591_15-54-52-928.txt Node
Date: Thu Jul 25 15:54:52 EDT 2019
User: cochatt
Spectrometer: HR+D1059
Trigger mode: 1
Integration Time (sec): 1.000000E-1
Scans to average: 1
Electric dark correction enabled: true
Nonlinearity correction enabled: false
Boxcar width: 0
XAxis mode: Wavelengths
Number of Pixels in Spectrum: 2048
>>>>>Begin Spectral Data<<<<<
223.165	-9.06
223.4	-9.06
223.635	-9.06
223.869	-31.06
224.104	-28.06
224.338	-25.06
224.573	-30.06
224.808	2.94
225.042	-11.06
225.277	-6.06
225.511	-7.06
225.746	11.94
225.98	19.94
226.215	16.94
226.449	8.94
226.683	27.94
226.918	23.94
227.152	34.94
227.387	47.94
227.621	35.94
227.856	47.94
228.09	50.94
228.324	54.94
228.559	61.94
228.793	88.94
229.027	140.94
229.262	136.94
229.496	152.94
229.73	159.94
229.964	152.94
230.199	172.94
230.433	175.94
230.667	176.94
230.901	187.94
231.136	173.94
231.37	168.94
231.604	181.94
231.838	181.94
232.072	158.94
232.306	159.94
232.541	189.94
232.775	199.94
233.009	213.94
233.243	204.94
233.477	208.94
233.711	200.94
233.945	188.94
234.179	177.94
234.413	210.94
234.647	213.94
234.881	209.94
235.115	176.94
235.349	205.94
235.583	176.94
235.817	187.94
236.051	186.94
236.285	187.94
236.519	181.94
236.753	220.94
236.987	218.94
237.221	213.94
237.455	243.94
237.689	224.94
237.922	225.94
238.156	225.94
238.39	205.94
238.624	230.94
238.858	233.94
239.091	237.94
239.325	263.94
239.559	272.94
239.793	277.94
240.027	290.94
240.26	279.94
240.494	247.94
240.728	219.94
240.961	240.94
241.195	247.94
241.429	247.94
241.662	255.94
241.896	237.94
242.13	239.94
242.363	270.94
242.597	261.94
242.83	266.94
243.064	284.94
243.298	279.94
243.531	297.94
243.765	281.94
243.998	261.94
244.232	246.94
244.465	253.94
244.699	259.94
244.932	289.94
245.166	298.94
245.399	296.94
245.633	279.94
245.866	266.94
246.099	291.94
246.333	293.94
246.566	314.94
246.8	321.94
247.033	335.94
247.266	319.94
247.5	311.94
247.733	310.94
247.966	337.94
248.2	362.94
248.433	340.94
248.666	348.94
248.899	408.94
249.133	433.94
249.366	462.94
249.599	387.94
249.832	363.94
250.066	365.94
250.299	374.94
250.532	333.94
250.765	309.94
250.998	339.94
251.231	354.94
251.465	339.94
251.698	351.94
251.931	358.94
252.164	341.94
252.397	364.94
252.63	361.94
252.863	327.94
253.096	326.94
253.329	341.94
253.562	350.94
253.795	355.94
254.028	349.94
254.261	341.94
254.494	345.94
254.727	330.94
254.96	332.94
255.193	381.94
255.426	411.94
255.659	440.94
255.892	439.94
256.124	393.94
256.357	391.94
256.59	412.94
256.823	416.94
257.056	418.94
257.289	471.94
257.521	497.94
257.754	427.94
257.987	459.94
258.22	481.94
258.452	433.94
258.685	391.94
258.918	389.94
259.151	390.94
259.383	393.94
259.616	338.94
259.849	363.94
260.081	411.94
260.314	437.94
260.547	443.94
260.779	454.94
261.012	427.94
261.244	410.94
261.477	404.94
261.71	405.94
261.942	403.94
262.175	392.94
262.407	402.94
262.64	393.94
262.872	373.94
263.105	375.94
263.337	373.94
263.57	387.94
263.802	367.94
264.035	367.94
264.267	351.94
264.499	352.94
264.732	370.94
264.964	377.94
265.197	400.94
265.429	402.94
265.661	427.94
265.894	477.94
266.126	496.94
266.358	445.94
266.591	457.94
266.823	489.94
267.055	449.94
267.287	451.94
267.52	451.94
267.752	440.94
267.984	459.94
268.216	451.94
268.448	464.94
268.681	463.94
268.913	408.94
269.145	407.94
269.377	404.94
269.609	461.94
269.841	519.94
270.073	581.94
270.306	623.94
270.538	610.94
270.77	537.94
271.002	488.94
271.234	457.94
271.466	462.94
271.698	543.94
271.93	586.94
272.162	590.94
272.394	527.94
272.626	523.94
272.858	461.94
273.09	421.94
273.322	402.94
273.553	376.94
273.785	406.94
274.017	420.94
274.249	432.94
274.481	456.94
274.713	423.94
274.945	411.94
275.176	415.94
275.408	407.94
275.64	412.94
275.872	403.94
276.104	433.94
276.335	491.94
276.567	535.94
276.799	521.94
277.031	490.94
277.262	477.94
277.494	490.94
277.726	506.94
277.957	501.94
278.189	457.94
278.421	431.94
278.652	421.94
278.884	410.94
279.115	448.94
279.347	455.94
279.579	444.94
279.81	463.94
280.042	449.94
280.273	509.94
280.505	523.94
280.736	492.94
280.968	476.94
281.199	432.94
281.431	423.94
281.662	441.94
281.894	441.94
282.125	447.94
282.356	448.94
282.588	438.94
282.819	460.94
283.051	507.94
283.282	512.94
283.513	488.94
283.745	433.94
283.976	416.94
284.207	435.94
284.439	433.94
284.67	435.94
284.901	449.94
285.132	450.94
285.364	456.94
285.595	453.94
285.826	445.94
286.057	466.94
286.288	464.94
286.52	468.94
286.751	491.94
286.982	491.94
287.213	459.94
287.444	462.94
287.675	473.94
287.906	479.94
288.138	487.94
288.369	471.94
288.6	442.94
288.831	445.94
289.062	421.94
289.293	442.94
289.524	480.94
289.755	464.94
289.986	442.94
290.217	431.94
290.448	425.94
290.679	471.94
290.91	452.94
291.141	455.94
291.371	490.94
291.602	475.94
291.833	478.94
292.064	490.94
292.295	495.94
292.526	481.94
292.757	521.94
292.987	479.94
293.218	471.94
293.449	500.94
293.68	567.94
293.91	575.94
294.141	548.94
294.372	532.94
294.603	574.94
294.833	566.94
295.064	549.94
295.295	497.94
295.525	455.94
295.756	451.94
295.987	429.94
296.217	439.94
296.448	447.94
296.679	469.94
296.909	447.94
297.14	447.94
297.37	451.94
297.601	510.94
297.831	519.94
298.062	523.94
298.292	473.94
298.523	455.94
298.753	461.94
298.984	458.94
299.214	507.94
299.445	490.94
299.675	485.94
299.905	524.94
300.136	507.94
300.366	457.94
300.597	479.94
300.827	455.94
301.057	483.94
301.288	506.94
301.518	505.94
301.748	529.94
301.979	551.94
302.209	557.94
302.439	568.94
302.669	580.94
302.9	533.94
303.13	510.94
303.36	530.94
303.59	541.94
303.82	520.94
304.051	529.94
304.281	519.94
304.511	541.94
304.741	562.94
304.971	595.94
305.201	609.94
305.431	553.94
305.661	488.94
305.891	458.94
306.121	454.94
306.352	476.94
306.582	496.94
306.812	543.94
307.042	556.94
307.272	574.94
307.502	583.94
307.731	631.94
307.961	636.94
308.191	549.94
308.421	539.94
308.651	511.94
308.881	509.94
309.111	487.94
309.341	502.94
309.571	492.94
309.8	501.94
310.03	471.94
310.26	479.94
310.49	481.94
310.72	516.94
310.949	554.94
311.179	532.94
311.409	507.94
311.639	529.94
311.868	466.94
312.098	525.94
312.328	515.94
312.557	504.94
312.787	515.94
313.017	524.94
313.246	537.94
313.476	519.94
313.706	517.94
313.935	521.94
314.165	553.94
314.394	559.94
314.624	566.94
314.853	599.94
315.083	633.94
315.312	623.94
315.542	571.94
315.771	541.94
316.001	555.94
316.23	581.94
316.46	567.94
316.689	551.94
316.919	527.94
317.148	534.94
317.377	554.94
317.607	579.94
317.836	643.94
318.065	614.94
318.295	591.94
318.524	573.94
318.753	567.94
318.983	574.94
319.212	546.94
319.441	555.94
319.67	562.94
319.9	546.94
320.129	596.94
320.358	595.94
320.587	623.94
320.816	600.94
321.046	605.94
321.275	586.94
321.504	596.94
321.733	624.94
321.962	595.94
322.191	569.94
322.42	567.94
322.649	546.94
322.878	566.94
323.108	560.94
323.337	575.94
323.566	564.94
323.795	572.94
324.024	557.94
324.253	574.94
324.482	561.94
324.71	565.94
324.939	567.94
325.168	547.94
325.397	558.94
325.626	587.94
325.855	572.94
326.084	553.94
326.313	574.94
326.542	567.94
326.77	550.94
326.999	572.94
327.228	555.94
327.457	529.94
327.686	540.94
327.914	537.94
328.143	581.94
328.372	565.94
328.6	562.94
328.829	547.94
329.058	550.94
329.287	531.94
329.515	583.94
329.744	561.94
329.972	583.94
330.201	625.94
330.43	600.94
330.658	571.94
330.887	618.94
331.115	600.94
331.344	599.94
331.572	603.94
331.801	562.94
332.03	564.94
332.258	612.94
332.486	599.94
332.715	590.94
332.943	601.94
333.172	596.94
333.4	604.94
333.629	621.94
333.857	672.94
334.085	731.94
334.314	823.94
334.542	841.94
334.771	735.94
334.999	698.94
335.227	647.94
335.455	653.94
335.684	634.94
335.912	643.94
336.14	659.94
336.369	630.94
336.597	588.94
336.825	584.94
337.053	613.94
337.281	651.94
337.51	673.94
337.738	695.94
337.966	628.94
338.194	619.94
338.422	590.94
338.65	577.94
338.878	592.94
339.106	589.94
339.334	592.94
339.562	565.94
339.79	596.94
340.018	613.94
340.246	633.94
340.474	624.94
340.702	635.94
340.93	632.94
341.158	589.94
341.386	613.94
341.614	610.94
341.842	607.94
342.07	581.94
342.298	596.94
342.526	600.94
342.754	594.94
342.981	597.94
343.209	598.94
343.437	597.94
343.665	584.94
343.893	610.94
344.12	632.94
344.348	639.94
344.576	624.94
344.804	589.94
345.031	618.94
345.259	612.94
345.487	575.94
345.714	551.94
345.942	541.94
346.17	545.94
346.397	562.94
346.625	563.94
346.853	549.94
347.08	532.94
347.308	545.94
347.535	527.94
347.763	565.94
347.99	561.94
348.218	574.94
348.445	576.94
348.673	579.94
348.9	573.94
349.128	595.94
349.355	635.94
349.583	596.94
349.81	576.94
350.037	549.94
350.265	541.94
350.492	524.94
350.72	562.94
350.947	551.94
351.174	589.94
351.402	545.94
351.629	522.94
351.856	517.94
352.083	538.94
352.311	573.94
352.538	560.94
352.765	564.94
352.992	568.94
353.22	532.94
353.447	555.94
353.674	575.94
353.901	553.94
354.128	551.94
354.355	576.94
354.583	566.94
354.81	598.94
355.037	579.94
355.264	569.94
355.491	563.94
355.718	552.94
355.945	548.94
356.172	552.94
356.399	558.94
356.626	538.94
356.853	590.94
357.08	629.94
357.307	676.94
357.534	629.94
357.761	553.94
357.988	531.94
358.215	554.94
358.441	546.94
358.668	538.94
358.895	551.94
359.122	606.94
359.349	637.94
359.576	611.94
359.802	577.94
360.029	553.94
360.256	513.94
360.483	583.94
360.709	593.94
360.936	620.94
361.163	640.94
361.39	675.94
361.616	716.94
361.843	698.94
362.07	643.94
362.296	589.94
362.523	549.94
362.749	562.94
362.976	582.94
363.203	608.94
363.429	566.94
363.656	575.94
363.882	608.94
364.109	648.94
364.335	667.94
364.562	618.94
364.788	601.94
365.015	593.94
365.241	601.94
365.468	582.94
365.694	612.94
365.92	610.94
366.147	616.94
366.373	589.94
366.599	548.94
366.826	570.94
367.052	563.94
367.278	584.94
367.505	601.94
367.731	604.94
367.957	607.94
368.184	630.94
368.41	664.94
368.636	672.94
368.862	674.94
369.089	659.94
369.315	645.94
369.541	602.94
369.767	593.94
369.993	593.94
370.219	609.94
370.445	619.94
370.672	674.94
370.898	681.94
371.124	635.94
371.35	618.94
371.576	665.94
371.802	659.94
372.028	645.94
372.254	633.94
372.48	618.94
372.706	607.94
372.932	632.94
373.158	618.94
373.384	629.94
373.61	641.94
373.835	660.94
374.061	641.94
374.287	641.94
374.513	637.94
374.739	623.94
374.965	637.94
375.191	648.94
375.416	672.94
375.642	650.94
375.868	699.94
376.094	729.94
376.319	675.94
376.545	649.94
376.771	674.94
376.997	698.94
377.222	702.94
377.448	666.94
377.674	644.94
377.899	709.94
378.125	707.94
378.35	681.94
378.576	634.94
378.802	634.94
379.027	616.94
379.253	637.94
379.478	653.94
379.704	634.94
379.929	620.94
380.155	660.94
380.38	663.94
380.606	668.94
380.831	675.94
381.057	722.94
381.282	689.94
381.507	678.94
381.733	737.94
381.958	740.94
382.184	694.94
382.409	684.94
382.634	684.94
382.86	677.94
383.085	685.94
383.31	712.94
383.535	773.94
383.761	783.94
383.986	747.94
384.211	719.94
384.436	731.94
384.662	763.94
384.887	759.94
385.112	716.94
385.337	733.94
385.562	761.94
385.787	710.94
386.013	768.94
386.238	792.94
386.463	759.94
386.688	828.94
386.913	845.94
387.138	810.94
387.363	775.94
387.588	775.94
387.813	763.94
388.038	772.94
388.263	795.94
388.488	770.94
388.713	716.94
388.938	707.94
389.163	747.94
389.387	724.94
389.612	727.94
389.837	732.94
390.062	763.94
390.287	761.94
390.512	740.94
390.736	754.94
390.961	739.94
391.186	732.94
391.411	722.94
391.636	761.94
391.86	751.94
392.085	744.94
392.31	731.94
392.534	745.94
392.759	742.94
392.984	746.94
393.208	760.94
393.433	793.94
393.658	808.94
393.882	858.94
394.107	758.94
394.331	768.94
394.556	771.94
394.78	782.94
395.005	813.94
395.229	860.94
395.454	867.94
395.678	875.94
395.903	840.94
396.127	810.94
396.352	802.94
396.576	840.94
396.801	863.94
397.025	852.94
397.249	821.94
397.474	817.94
397.698	832.94
397.922	849.94
398.147	912.94
398.371	889.94
398.595	907.94
398.82	858.94
399.044	899.94
399.268	921.94
399.492	963.94
399.717	999.94
399.941	983.94
400.165	954.94
400.389	974.94
400.613	982.94
400.837	1111.94
401.062	1194.94
401.286	1004.94
401.51	992.94
401.734	968.94
401.958	954.94
402.182	911.94
402.406	893.94
402.63	858.94
402.854	852.94
403.078	902.94
403.302	900.94
403.526	895.94
403.75	923.94
403.974	952.94
404.198	945.94
404.422	977.94
404.645	1029.94
404.869	973.94
405.093	909.94
405.317	911.94
405.541	929.94
405.765	937.94
405.988	937.94
406.212	937.94
406.436	980.94
406.66	985.94
406.883	1020.94
407.107	1125.94
407.331	1245.94
407.555	1293.94
407.778	1128.94
408.002	985.94
408.226	972.94
408.449	986.94
408.673	968.94
408.896	967.94
409.12	961.94
409.344	951.94
409.567	949.94
409.791	961.94
410.014	964.94
410.238	1040.94
410.461	1075.94
410.685	950.94
410.908	925.94
411.132	932.94
411.355	913.94
411.578	934.94
411.802	938.94
412.025	921.94
412.249	907.94
412.472	892.94
412.695	941.94
412.919	929.94
413.142	910.94
413.365	933.94
413.589	979.94
413.812	970.94
414.035	975.94
414.258	931.94
414.482	932.94
414.705	944.94
414.928	927.94
415.151	913.94
415.374	913.94
415.597	946.94
415.821	953.94
416.044	946.94
416.267	929.94
416.49	900.94
416.713	935.94
416.936	987.94
417.159	986.94
417.382	982.94
417.605	920.94
417.828	936.94
418.051	939.94
418.274	933.94
418.497	928.94
418.72	924.94
418.943	929.94
419.166	957.94
419.389	1002.94
419.611	951.94
419.834	914.94
420.057	940.94
420.28	958.94
420.503	951.94
420.726	947.94
420.948	941.94
421.171	907.94
421.394	919.94
421.617	996.94
421.839	991.94
422.062	956.94
422.285	935.94
422.507	948.94
422.73	911.94
422.953	883.94
423.175	877.94
423.398	940.94
423.621	927.94
423.843	948.94
424.066	993.94
424.288	1014.94
424.511	1056.94
424.733	1032.94
424.956	929.94
425.178	928.94
425.401	918.94
425.623	948.94
425.846	919.94
426.068	944.94
426.291	958.94
426.513	957.94
426.735	956.94
426.958	1062.94
427.18	1062.94
427.402	987.94
427.625	1037.94
427.847	974.94
428.069	924.94
428.292	906.94
428.514	897.94
428.736	891.94
428.958	909.94
429.181	933.94
429.403	1065.94
429.625	1241.94
429.847	1048.94
430.069	972.94
430.292	1045.94
430.514	1037.94
430.736	955.94
430.958	956.94
431.18	930.94
431.402	893.94
431.624	840.94
431.846	800.94
432.068	735.94
432.29	737.94
432.512	805.94
432.734	902.94
432.956	903.94
433.178	935.94
433.4	960.94
433.622	967.94
433.844	914.94
434.066	859.94
434.287	769.94
434.509	754.94
434.731	810.94
434.953	900.94
435.175	932.94
435.397	920.94
435.618	876.94
435.84	819.94
436.062	833.94
436.284	881.94
436.505	933.94
436.727	936.94
436.949	922.94
437.17	893.94
437.392	884.94
437.614	866.94
437.835	807.94
438.057	795.94
438.278	859.94
438.5	872.94
438.721	879.94
438.943	925.94
439.165	931.94
439.386	930.94
439.608	954.94
439.829	961.94
440.05	971.94
440.272	959.94
440.493	935.94
440.715	974.94
440.936	997.94
441.158	1077.94
441.379	1072.94
441.6	1065.94
441.822	1033.94
442.043	1036.94
442.264	1019.94
442.486	966.94
442.707	940.94
442.928	972.94
443.149	983.94
443.371	1017.94
443.592	1016.94
443.813	998.94
444.034	1028.94
444.255	1015.94
444.476	1041.94
444.698	1049.94
444.919	1049.94
445.14	1156.94
445.361	1060.94
445.582	1086.94
445.803	1043.94
446.024	1008.94
446.245	1076.94
446.466	1072.94
446.687	1030.94
446.908	1035.94
447.129	1028.94
447.35	1017.94
447.571	1011.94
447.792	974.94
448.013	957.94
448.234	949.94
448.455	973.94
448.675	983.94
448.896	921.94
449.117	919.94
449.338	923.94
449.559	938.94
449.779	963.94
450	1021.94
450.221	1064.94
450.442	1044.94
450.662	937.94
450.883	877.94
451.104	856.94
451.324	887.94
451.545	885.94
451.766	872.94
451.986	850.94
452.207	820.94
452.428	802.94
452.648	787.94
452.869	808.94
453.089	785.94
453.31	780.94
453.53	791.94
453.751	753.94
453.971	716.94
454.192	767.94
454.412	783.94
454.633	810.94
454.853	753.94
455.073	745.94
455.294	745.94
455.514	741.94
455.734	784.94
455.955	742.94
456.175	773.94
456.395	733.94
456.616	737.94
456.836	745.94
457.056	737.94
457.276	724.94
457.497	710.94
457.717	723.94
457.937	713.94
458.157	706.94
458.377	719.94
458.598	671.94
458.818	671.94
459.038	688.94
459.258	728.94
459.478	715.94
459.698	700.94
459.918	749.94
460.138	791.94
460.358	834.94
460.578	844.94
460.798	857.94
461.018	898.94
461.238	883.94
461.458	881.94
461.678	847.94
461.898	802.94
462.118	815.94
462.338	845.94
462.558	840.94
462.777	859.94
462.997	879.94
463.217	895.94
463.437	873.94
463.657	838.94
463.876	841.94
464.096	823.94
464.316	831.94
464.536	873.94
464.755	901.94
464.975	873.94
465.195	858.94
465.414	894.94
465.634	864.94
465.854	885.94
466.073	961.94
466.293	923.94
466.512	872.94
466.732	874.94
466.951	903.94
467.171	914.94
467.391	892.94
467.61	900.94
467.829	910.94
468.049	992.94
468.268	1075.94
468.488	957.94
468.707	946.94
468.927	894.94
469.146	930.94
469.365	895.94
469.585	912.94
469.804	914.94
470.023	941.94
470.243	948.94
470.462	930.94
470.681	922.94
470.901	930.94
471.12	927.94
471.339	929.94
471.558	913.94
471.777	935.94
471.997	886.94
472.216	858.94
472.435	760.94
472.654	757.94
472.873	785.94
473.092	829.94
473.311	815.94
473.53	814.94
473.749	800.94
473.968	829.94
474.187	852.94
474.406	853.94
474.625	852.94
474.844	873.94
475.063	872.94
475.282	870.94
475.501	851.94
475.72	833.94
475.939	901.94
476.158	892.94
476.377	855.94
476.596	854.94
476.814	843.94
477.033	817.94
477.252	859.94
477.471	914.94
477.69	929.94
477.908	925.94
478.127	957.94
478.346	1029.94
478.564	1005.94
478.783	975.94
479.002	1016.94
479.22	1007.94
479.439	1009.94
479.658	1061.94
479.876	1004.94
480.095	906.94
480.313	895.94
480.532	901.94
480.751	871.94
480.969	828.94
481.188	799.94
481.406	769.94
481.624	779.94
481.843	798.94
482.061	812.94
482.28	891.94
482.498	905.94
482.717	890.94
482.935	890.94
483.153	964.94
483.372	1024.94
483.59	997.94
483.808	965.94
484.027	948.94
484.245	995.94
484.463	1204.94
484.681	1305.94
484.9	1026.94
485.118	966.94
485.336	965.94
485.554	915.94
485.772	893.94
485.99	899.94
486.209	887.94
486.427	915.94
486.645	939.94
486.863	1015.94
487.081	1048.94
487.299	1027.94
487.517	1029.94
487.735	1128.94
487.953	1198.94
488.171	1201.94
488.389	1132.94
488.607	1127.94
488.825	1151.94
489.043	1096.94
489.261	967.94
489.479	1057.94
489.696	1052.94
489.914	1021.94
490.132	1015.94
490.35	1076.94
490.568	1163.94
490.786	1169.94
491.003	1161.94
491.221	1238.94
491.439	1289.94
491.657	1291.94
491.874	1345.94
492.092	1429.94
492.31	1493.94
492.527	1474.94
492.745	1354.94
492.963	1339.94
493.18	1315.94
493.398	1320.94
493.615	1324.94
493.833	1267.94
494.05	1233.94
494.268	1238.94
494.485	1221.94
494.703	1241.94
494.92	1219.94
495.138	1237.94
495.355	1247.94
495.573	1251.94
495.79	1260.94
496.008	1287.94
496.225	1252.94
496.442	1227.94
496.66	1236.94
496.877	1219.94
497.094	1218.94
497.312	1237.94
497.529	1180.94
497.746	1203.94
497.963	1303.94
498.181	1303.94
498.398	1272.94
498.615	1221.94
498.832	1167.94
499.049	1184.94
499.267	1169.94
499.484	1264.94
499.701	1357.94
499.918	1366.94
500.135	1440.94
500.352	1572.94
500.569	1621.94
500.786	1673.94
501.003	1572.94
501.22	1423.94
501.437	1395.94
501.654	1444.94
501.871	1328.94
502.088	1203.94
502.305	1211.94
502.522	1158.94
502.739	1084.94
502.956	1061.94
503.172	1048.94
503.389	1013.94
503.606	993.94
503.823	988.94
504.04	1013.94
504.256	1001.94
504.473	1027.94
504.69	1021.94
504.907	994.94
505.123	938.94
505.34	1064.94
505.557	1386.94
505.773	1076.94
505.99	938.94
506.207	913.94
506.423	899.94
506.64	907.94
506.856	928.94
507.073	1031.94
507.289	1080.94
507.506	1003.94
507.722	893.94
507.939	853.94
508.155	846.94
508.372	846.94
508.588	802.94
508.805	801.94
509.021	778.94
509.238	782.94
509.454	785.94
509.67	777.94
509.887	738.94
510.103	739.94
510.319	758.94
510.536	788.94
510.752	757.94
510.968	764.94
511.184	773.94
511.401	763.94
511.617	717.94
511.833	695.94
512.049	693.94
512.265	709.94
512.481	682.94
512.698	752.94
512.914	772.94
513.13	767.94
513.346	741.94
513.562	698.94
513.778	710.94
513.994	739.94
514.21	745.94
514.426	749.94
514.642	830.94
514.858	774.94
515.074	751.94
515.29	724.94
515.506	713.94
515.721	732.94
515.937	732.94
516.153	801.94
516.369	764.94
516.585	736.94
516.801	752.94
517.016	745.94
517.232	740.94
517.448	800.94
517.664	793.94
517.879	802.94
518.095	831.94
518.311	794.94
518.527	765.94
518.742	763.94
518.958	759.94
519.173	776.94
519.389	787.94
519.605	810.94
519.82	811.94
520.036	804.94
520.251	772.94
520.467	749.94
520.682	841.94
520.898	802.94
521.113	724.94
521.329	709.94
521.544	777.94
521.76	716.94
521.975	714.94
522.19	719.94
522.406	740.94
522.621	952.94
522.836	897.94
523.052	736.94
523.267	732.94
523.482	714.94
523.698	731.94
523.913	734.94
524.128	786.94
524.343	799.94
524.559	837.94
524.774	769.94
524.989	772.94
525.204	735.94
525.419	742.94
525.634	738.94
525.849	735.94
526.064	732.94
526.28	694.94
526.495	681.94
526.71	654.94
526.925	643.94
527.14	635.94
527.355	605.94
527.57	665.94
527.785	653.94
527.999	639.94
528.214	683.94
528.429	707.94
528.644	765.94
528.859	786.94
529.074	834.94
529.289	879.94
529.503	883.94
529.718	798.94
529.933	734.94
530.148	684.94
530.363	629.94
530.577	643.94
530.792	628.94
531.007	629.94
531.221	653.94
531.436	658.94
531.651	659.94
531.865	689.94
532.08	654.94
532.295	615.94
532.509	624.94
532.724	617.94
532.938	659.94
533.153	701.94
533.367	722.94
533.582	730.94
533.796	736.94
534.011	717.94
534.225	658.94
534.44	626.94
534.654	637.94
534.868	654.94
535.083	693.94
535.297	689.94
535.511	669.94
535.726	669.94
535.94	684.94
536.154	638.94
536.369	617.94
536.583	604.94
536.797	605.94
537.011	607.94
537.225	611.94
537.44	608.94
537.654	657.94
537.868	627.94
538.082	595.94
538.296	613.94
538.51	658.94
538.724	663.94
538.938	713.94
539.153	761.94
539.367	740.94
539.581	697.94
539.795	667.94
540.009	654.94
540.222	636.94
540.436	673.94
540.65	735.94
540.864	827.94
541.078	792.94
541.292	840.94
541.506	891.94
541.72	957.94
541.934	1041.94
542.147	1065.94
542.361	1027.94
542.575	906.94
542.789	824.94
543.002	767.94
543.216	737.94
543.43	739.94
543.644	828.94
543.857	889.94
544.071	900.94
544.285	915.94
544.498	943.94
544.712	970.94
544.925	932.94
545.139	997.94
545.352	928.94
545.566	932.94
545.779	941.94
545.993	973.94
546.206	946.94
546.42	964.94
546.633	931.94
546.847	936.94
547.06	944.94
547.274	958.94
547.487	964.94
547.7	1021.94
547.914	968.94
548.127	970.94
548.34	970.94
548.554	919.94
548.767	940.94
548.98	941.94
549.193	940.94
549.407	933.94
549.62	943.94
549.833	926.94
550.046	912.94
550.259	910.94
550.473	867.94
550.686	891.94
550.899	844.94
551.112	853.94
551.325	820.94
551.538	854.94
551.751	863.94
551.964	714.94
552.177	739.94
552.39	798.94
552.603	822.94
552.816	874.94
553.029	917.94
553.242	914.94
553.455	925.94
553.667	922.94
553.88	883.94
554.093	866.94
554.306	865.94
554.519	831.94
554.732	820.94
554.944	825.94
555.157	852.94
555.37	811.94
555.583	811.94
555.795	780.94
556.008	745.94
556.221	733.94
556.433	726.94
556.646	738.94
556.859	729.94
557.071	723.94
557.284	766.94
557.496	770.94
557.709	753.94
557.921	736.94
558.134	771.94
558.346	749.94
558.559	751.94
558.771	722.94
558.984	702.94
559.196	705.94
559.409	705.94
559.621	669.94
559.833	683.94
560.046	675.94
560.258	683.94
560.47	669.94
560.683	689.94
560.895	687.94
561.107	688.94
561.32	689.94
561.532	681.94
561.744	690.94
561.956	673.94
562.168	665.94
562.381	640.94
562.593	651.94
562.805	638.94
563.017	625.94
563.229	654.94
563.441	645.94
563.653	645.94
563.865	620.94
564.077	625.94
564.289	623.94
564.501	617.94
564.713	636.94
564.925	643.94
565.137	671.94
565.349	637.94
565.561	642.94
565.773	623.94
565.985	633.94
566.197	651.94
566.408	683.94
566.62	658.94
566.832	678.94
567.044	684.94
567.255	642.94
567.467	666.94
567.679	685.94
567.891	635.94
568.102	638.94
568.314	583.94
568.526	563.94
568.737	501.94
568.949	468.94
569.161	490.94
569.372	463.94
569.584	450.94
569.795	466.94
570.007	464.94
570.218	436.94
570.43	453.94
570.641	445.94
570.853	461.94
571.064	491.94
571.276	494.94
571.487	515.94
571.698	479.94
571.91	479.94
572.121	451.94
572.333	438.94
572.544	428.94
572.755	419.94
572.966	423.94
573.178	417.94
573.389	415.94
573.6	415.94
573.811	428.94
574.023	404.94
574.234	391.94
574.445	389.94
574.656	388.94
574.867	371.94
575.078	407.94
575.289	419.94
575.501	408.94
575.712	394.94
575.923	405.94
576.134	397.94
576.345	389.94
576.556	396.94
576.767	380.94
576.978	386.94
577.188	375.94
577.399	385.94
577.61	381.94
577.821	376.94
578.032	352.94
578.243	376.94
578.454	395.94
578.665	369.94
578.875	332.94
579.086	345.94
579.297	334.94
579.508	336.94
579.718	368.94
579.929	347.94
580.14	359.94
580.35	346.94
580.561	343.94
580.772	404.94
580.982	375.94
581.193	372.94
581.403	367.94
581.614	337.94
581.825	346.94
582.035	343.94
582.246	358.94
582.456	348.94
582.667	353.94
582.877	344.94
583.087	328.94
583.298	331.94
583.508	335.94
583.719	315.94
583.929	321.94
584.139	345.94
584.35	330.94
584.56	321.94
584.77	315.94
584.981	345.94
585.191	343.94
585.401	348.94
585.611	327.94
585.821	324.94
586.032	320.94
586.242	324.94
586.452	313.94
586.662	317.94
586.872	303.94
587.082	297.94
587.292	314.94
587.502	327.94
587.713	322.94
587.923	315.94
588.133	317.94
588.343	330.94
588.553	320.94
588.762	332.94
588.972	319.94
589.182	316.94
589.392	312.94
589.602	326.94
589.812	322.94
590.022	316.94
590.232	308.94
590.441	303.94
590.651	319.94
590.861	315.94
591.071	329.94
591.281	311.94
591.49	313.94
591.7	318.94
591.91	311.94
592.119	306.94
592.329	311.94
592.539	344.94
592.748	330.94
592.958	319.94
593.167	318.94
593.377	340.94
593.587	327.94
593.796	325.94
594.006	319.94
594.215	325.94
594.424	337.94
594.634	335.94
594.843	354.94
595.053	340.94
595.262	343.94
595.472	327.94
595.681	333.94
595.89	318.94
596.1	295.94
596.309	319.94
596.518	329.94
596.727	326.94
596.937	327.94
597.146	335.94
597.355	316.94
597.564	298.94
597.774	297.94
597.983	281.94
598.192	292.94
598.401	309.94
598.61	304.94
598.819	288.94
599.028	322.94
599.237	309.94
599.446	296.94
599.655	283.94
599.864	289.94
600.073	292.94
600.282	298.94
600.491	280.94
600.7	295.94
600.909	285.94
601.118	305.94
601.327	311.94
601.536	341.94
601.745	329.94
601.953	357.94
602.162	364.94
602.371	380.94
602.58	359.94
602.789	371.94
602.997	339.94
603.206	348.94
603.415	360.94
603.623	371.94
603.832	323.94
604.041	356.94
604.249	330.94
604.458	288.94
604.666	279.94
604.875	287.94
605.084	282.94
605.292	330.94
605.501	339.94
605.709	351.94
605.918	364.94
606.126	356.94
606.334	347.94
606.543	383.94
606.751	367.94
606.96	368.94
607.168	337.94
607.376	341.94
607.585	379.94
607.793	351.94
608.001	367.94
608.21	380.94
608.418	357.94
608.626	385.94
608.834	376.94
609.043	367.94
609.251	370.94
609.459	349.94
609.667	379.94
609.875	377.94
610.083	386.94
610.291	386.94
610.499	390.94
610.707	369.94
610.916	374.94
611.124	365.94
611.332	354.94
611.54	376.94
611.748	359.94
611.955	371.94
612.163	357.94
612.371	363.94
612.579	335.94
612.787	352.94
612.995	354.94
613.203	359.94
613.411	373.94
613.618	363.94
613.826	348.94
614.034	331.94
614.242	371.94
614.449	379.94
614.657	360.94
614.865	369.94
615.072	349.94
615.28	369.94
615.488	349.94
615.695	363.94
615.903	374.94
616.111	363.94
616.318	357.94
616.526	353.94
616.733	333.94
616.941	373.94
617.148	360.94
617.356	343.94
617.563	351.94
617.771	349.94
617.978	343.94
618.185	356.94
618.393	357.94
618.6	350.94
618.807	339.94
619.015	341.94
619.222	333.94
619.429	328.94
619.637	308.94
619.844	291.94
620.051	308.94
620.258	324.94
620.466	320.94
620.673	328.94
620.88	297.94
621.087	315.94
621.294	321.94
621.501	303.94
621.708	290.94
621.915	314.94
622.122	327.94
622.329	321.94
622.536	332.94
622.743	325.94
622.95	309.94
623.157	315.94
623.364	333.94
623.571	321.94
623.778	328.94
623.985	332.94
624.192	324.94
624.399	327.94
624.606	312.94
624.812	328.94
625.019	316.94
625.226	296.94
625.433	287.94
625.639	284.94
625.846	277.94
626.053	264.94
626.259	241.94
626.466	247.94
626.673	259.94
626.879	257.94
627.086	259.94
627.293	275.94
627.499	287.94
627.706	312.94
627.912	308.94
628.119	285.94
628.325	307.94
628.532	303.94
628.738	306.94
628.945	292.94
629.151	285.94
629.357	277.94
629.564	299.94
629.77	285.94
629.976	268.94
630.183	273.94
630.389	274.94
630.595	270.94
630.802	290.94
631.008	295.94
631.214	283.94
631.42	285.94
631.627	261.94
631.833	231.94
632.039	258.94
632.245	269.94
632.451	257.94
632.657	277.94
632.863	262.94
633.069	271.94
633.275	282.94
633.481	244.94
633.688	264.94
633.893	262.94
634.099	240.94
634.305	245.94
634.511	244.94
634.717	235.94
634.923	246.94
635.129	223.94
635.335	235.94
635.541	240.94
635.747	236.94
635.952	263.94
636.158	262.94
636.364	259.94
636.57	255.94
636.775	264.94
636.981	257.94
637.187	257.94
637.392	256.94
637.598	275.94
637.804	270.94
638.009	265.94
638.215	279.94
638.421	240.94
638.626	247.94
638.832	241.94
639.037	252.94
639.243	241.94
639.448	232.94
639.654	245.94
639.859	242.94
640.065	239.94
640.27	239.94
640.475	239.94
640.681	229.94
640.886	249.94
641.091	255.94
641.297	255.94
641.502	252.94
641.707	265.94
641.913	264.94
642.118	259.94
642.323	252.94
642.528	254.94
642.733	251.94
642.939	255.94
643.144	236.94
643.349	249.94
643.554	239.94
643.759	247.94
643.964	238.94
644.169	246.94
644.374	243.94
644.579	239.94
644.784	236.94
644.989	267.94
645.194	243.94
645.399	241.94
645.604	227.94
645.809	240.94
646.014	244.94
646.219	241.94
646.423	251.94
646.628	248.94
646.833	227.94
647.038	239.94
647.243	236.94
647.447	219.94
647.652	232.94
647.857	259.94
648.062	223.94
648.266	256.94
648.471	246.94
648.676	243.94
648.88	245.94
649.085	262.94
649.289	240.94
649.494	233.94
649.698	247.94
649.903	234.94
650.107	227.94
650.312	253.94
650.516	229.94
650.721	219.94
650.925	221.94
651.13	237.94
651.334	231.94
651.539	227.94
651.743	228.94
651.947	211.94
652.152	219.94
652.356	237.94
652.56	216.94
652.764	215.94
652.969	220.94
653.173	213.94
653.377	211.94
653.581	201.94
653.785	192.94
653.99	204.94
654.194	210.94
654.398	199.94
654.602	201.94
654.806	198.94
655.01	198.94
655.214	203.94
655.418	223.94
655.622	206.94
655.826	235.94
656.03	205.94
656.234	209.94
656.438	233.94
656.642	219.94
656.846	203.94
657.049	192.94
657.253	203.94
657.457	187.94
657.661	177.94
657.865	176.94
658.068	158.94
658.272	146.94
658.476	166.94
658.68	142.94
658.883	138.94
659.087	157.94
659.291	145.94
659.494	141.94
659.698	139.94
659.901	126.94
660.105	124.94
660.309	121.94
660.512	121.94
660.716	121.94
660.919	127.94
661.123	123.94
661.326	108.94
661.53	109.94
661.733	101.94
661.936	94.94
662.14	99.94
662.343	95.94
662.546	104.94
662.75	107.94
662.953	109.94
663.156	88.94
663.36	108.94
663.563	91.94
663.766	87.94
663.969	97.94
664.173	98.94
664.376	90.94
664.579	81.94
664.782	97.94
664.985	80.94
665.188	73.94
665.391	73.94
665.594	76.94
665.797	85.94
666	98.94
666.203	80.94
666.406	88.94
666.609	85.94
666.812	77.94
667.015	76.94
667.218	84.94
667.421	89.94
667.624	77.94
667.827	96.94
668.03	86.94
668.232	81.94
668.435	82.94
668.638	91.94
668.841	86.94
669.043	77.94
669.246	98.94
669.449	83.94
669.651	80.94
669.854	88.94
670.057	78.94
670.259	89.94
670.462	91.94
670.665	62.94
670.867	83.94
671.07	86.94
671.272	84.94
671.475	80.94
671.677	76.94
671.88	78.94
672.082	69.94
672.284	84.94
672.487	100.94
672.689	87.94
672.892	79.94
