Data from Zn(NO3)2Standard.Agarose3%.GreenCap.LampEnergy5.5.E.O_HRD10591_15-01-58-767.txt Node
Date: Mon Jul 22 15:01:58 EDT 2019
User: cochatt
Spectrometer: HR+D1059
Trigger mode: 1
Integration Time (sec): 1.000000E-1
Scans to average: 1
Electric dark correction enabled: true
Nonlinearity correction enabled: false
Boxcar width: 0
XAxis mode: Wavelengths
Number of Pixels in Spectrum: 2048
>>>>>Begin Spectral Data<<<<<
223.165	-17.25
223.4	-17.25
223.635	-17.25
223.869	-11.25
224.104	-17.25
224.338	-23.25
224.573	-21.25
224.808	-6.25
225.042	4.75
225.277	-16.25
225.511	-5.25
225.746	6.75
225.98	7.75
226.215	4.75
226.449	14.75
226.683	30.75
226.918	19.75
227.152	28.75
227.387	30.75
227.621	23.75
227.856	30.75
228.09	39.75
228.324	54.75
228.559	42.75
228.793	55.75
229.027	66.75
229.262	70.75
229.496	72.75
229.73	69.75
229.964	58.75
230.199	82.75
230.433	83.75
230.667	75.75
230.901	64.75
231.136	93.75
231.37	89.75
231.604	86.75
231.838	90.75
232.072	79.75
232.306	88.75
232.541	84.75
232.775	75.75
233.009	84.75
233.243	74.75
233.477	81.75
233.711	76.75
233.945	78.75
234.179	76.75
234.413	64.75
234.647	74.75
234.881	80.75
235.115	71.75
235.349	84.75
235.583	70.75
235.817	78.75
236.051	62.75
236.285	67.75
236.519	73.75
236.753	89.75
236.987	78.75
237.221	81.75
237.455	80.75
237.689	79.75
237.922	77.75
238.156	72.75
238.39	83.75
238.624	74.75
238.858	64.75
239.091	66.75
239.325	81.75
239.559	78.75
239.793	70.75
240.027	79.75
240.26	70.75
240.494	83.75
240.728	73.75
240.961	67.75
241.195	79.75
241.429	72.75
241.662	78.75
241.896	54.75
242.13	65.75
242.363	71.75
242.597	70.75
242.83	71.75
243.064	72.75
243.298	73.75
243.531	77.75
243.765	79.75
243.998	75.75
244.232	81.75
244.465	75.75
244.699	71.75
244.932	80.75
245.166	84.75
245.399	75.75
245.633	87.75
245.866	68.75
246.099	81.75
246.333	81.75
246.566	74.75
246.8	87.75
247.033	79.75
247.266	73.75
247.5	85.75
247.733	68.75
247.966	78.75
248.2	88.75
248.433	72.75
248.666	76.75
248.899	77.75
249.133	68.75
249.366	96.75
249.599	82.75
249.832	78.75
250.066	76.75
250.299	85.75
250.532	84.75
250.765	90.75
250.998	73.75
251.231	89.75
251.465	68.75
251.698	81.75
251.931	91.75
252.164	94.75
252.397	82.75
252.63	75.75
252.863	85.75
253.096	89.75
253.329	76.75
253.562	73.75
253.795	92.75
254.028	81.75
254.261	91.75
254.494	80.75
254.727	83.75
254.96	81.75
255.193	70.75
255.426	74.75
255.659	73.75
255.892	80.75
256.124	79.75
256.357	80.75
256.59	83.75
256.823	87.75
257.056	75.75
257.289	58.75
257.521	88.75
257.754	84.75
257.987	89.75
258.22	73.75
258.452	73.75
258.685	73.75
258.918	91.75
259.151	75.75
259.383	88.75
259.616	68.75
259.849	86.75
260.081	77.75
260.314	71.75
260.547	73.75
260.779	80.75
261.012	65.75
261.244	87.75
261.477	90.75
261.71	75.75
261.942	73.75
262.175	82.75
262.407	74.75
262.64	75.75
262.872	69.75
263.105	80.75
263.337	88.75
263.57	84.75
263.802	71.75
264.035	67.75
264.267	81.75
264.499	76.75
264.732	96.75
264.964	89.75
265.197	87.75
265.429	78.75
265.661	81.75
265.894	90.75
266.126	76.75
266.358	83.75
266.591	75.75
266.823	94.75
267.055	103.75
267.287	72.75
267.52	80.75
267.752	86.75
267.984	77.75
268.216	73.75
268.448	82.75
268.681	95.75
268.913	92.75
269.145	79.75
269.377	93.75
269.609	71.75
269.841	91.75
270.073	82.75
270.306	73.75
270.538	81.75
270.77	81.75
271.002	81.75
271.234	84.75
271.466	86.75
271.698	80.75
271.93	84.75
272.162	92.75
272.394	85.75
272.626	80.75
272.858	84.75
273.09	80.75
273.322	98.75
273.553	69.75
273.785	75.75
274.017	73.75
274.249	73.75
274.481	88.75
274.713	82.75
274.945	86.75
275.176	81.75
275.408	94.75
275.64	87.75
275.872	87.75
276.104	89.75
276.335	66.75
276.567	82.75
276.799	67.75
277.031	84.75
277.262	94.75
277.494	82.75
277.726	79.75
277.957	79.75
278.189	73.75
278.421	69.75
278.652	80.75
278.884	82.75
279.115	88.75
279.347	70.75
279.579	84.75
279.81	77.75
280.042	84.75
280.273	95.75
280.505	87.75
280.736	84.75
280.968	84.75
281.199	80.75
281.431	83.75
281.662	82.75
281.894	72.75
282.125	75.75
282.356	94.75
282.588	80.75
282.819	71.75
283.051	87.75
283.282	83.75
283.513	92.75
283.745	93.75
283.976	89.75
284.207	81.75
284.439	92.75
284.67	98.75
284.901	76.75
285.132	76.75
285.364	83.75
285.595	84.75
285.826	89.75
286.057	98.75
286.288	66.75
286.52	89.75
286.751	82.75
286.982	77.75
287.213	74.75
287.444	87.75
287.675	84.75
287.906	66.75
288.138	75.75
288.369	90.75
288.6	79.75
288.831	84.75
289.062	97.75
289.293	82.75
289.524	91.75
289.755	90.75
289.986	74.75
290.217	83.75
290.448	75.75
290.679	86.75
290.91	90.75
291.141	82.75
291.371	75.75
291.602	102.75
291.833	71.75
292.064	84.75
292.295	86.75
292.526	91.75
292.757	88.75
292.987	75.75
293.218	73.75
293.449	71.75
293.68	77.75
293.91	94.75
294.141	81.75
294.372	88.75
294.603	60.75
294.833	72.75
295.064	73.75
295.295	82.75
295.525	85.75
295.756	83.75
295.987	98.75
296.217	89.75
296.448	90.75
296.679	81.75
296.909	84.75
297.14	94.75
297.37	89.75
297.601	84.75
297.831	88.75
298.062	73.75
298.292	80.75
298.523	85.75
298.753	81.75
298.984	87.75
299.214	74.75
299.445	74.75
299.675	85.75
299.905	76.75
300.136	67.75
300.366	96.75
300.597	94.75
300.827	81.75
301.057	86.75
301.288	74.75
301.518	76.75
301.748	71.75
301.979	81.75
302.209	88.75
302.439	83.75
302.669	91.75
302.9	88.75
303.13	95.75
303.36	78.75
303.59	85.75
303.82	89.75
304.051	86.75
304.281	83.75
304.511	86.75
304.741	84.75
304.971	80.75
305.201	94.75
305.431	89.75
305.661	79.75
305.891	80.75
306.121	85.75
306.352	89.75
306.582	86.75
306.812	88.75
307.042	94.75
307.272	94.75
307.502	90.75
307.731	87.75
307.961	75.75
308.191	91.75
308.421	83.75
308.651	79.75
308.881	78.75
309.111	66.75
309.341	76.75
309.571	82.75
309.8	83.75
310.03	72.75
310.26	89.75
310.49	67.75
310.72	83.75
310.949	74.75
311.179	76.75
311.409	82.75
311.639	82.75
311.868	82.75
312.098	84.75
312.328	96.75
312.557	102.75
312.787	80.75
313.017	76.75
313.246	91.75
313.476	100.75
313.706	88.75
313.935	80.75
314.165	81.75
314.394	91.75
314.624	100.75
314.853	91.75
315.083	88.75
315.312	88.75
315.542	83.75
315.771	82.75
316.001	79.75
316.23	83.75
316.46	85.75
316.689	95.75
316.919	88.75
317.148	95.75
317.377	85.75
317.607	82.75
317.836	80.75
318.065	84.75
318.295	85.75
318.524	79.75
318.753	86.75
318.983	95.75
319.212	87.75
319.441	62.75
319.67	88.75
319.9	86.75
320.129	84.75
320.358	80.75
320.587	92.75
320.816	87.75
321.046	79.75
321.275	81.75
321.504	90.75
321.733	86.75
321.962	79.75
322.191	87.75
322.42	78.75
322.649	95.75
322.878	83.75
323.108	86.75
323.337	84.75
323.566	75.75
323.795	86.75
324.024	94.75
324.253	98.75
324.482	95.75
324.71	78.75
324.939	80.75
325.168	76.75
325.397	74.75
325.626	80.75
325.855	86.75
326.084	86.75
326.313	92.75
326.542	84.75
326.77	79.75
326.999	75.75
327.228	81.75
327.457	95.75
327.686	89.75
327.914	89.75
328.143	77.75
328.372	83.75
328.6	84.75
328.829	83.75
329.058	90.75
329.287	73.75
329.515	98.75
329.744	98.75
329.972	78.75
330.201	79.75
330.43	92.75
330.658	84.75
330.887	85.75
331.115	78.75
331.344	73.75
331.572	78.75
331.801	71.75
332.03	85.75
332.258	88.75
332.486	82.75
332.715	74.75
332.943	77.75
333.172	99.75
333.4	80.75
333.629	86.75
333.857	84.75
334.085	77.75
334.314	89.75
334.542	87.75
334.771	70.75
334.999	81.75
335.227	79.75
335.455	81.75
335.684	98.75
335.912	75.75
336.14	92.75
336.369	83.75
336.597	98.75
336.825	84.75
337.053	94.75
337.281	81.75
337.51	85.75
337.738	93.75
337.966	76.75
338.194	83.75
338.422	83.75
338.65	87.75
338.878	81.75
339.106	70.75
339.334	82.75
339.562	84.75
339.79	88.75
340.018	82.75
340.246	97.75
340.474	91.75
340.702	82.75
340.93	95.75
341.158	83.75
341.386	82.75
341.614	79.75
341.842	74.75
342.07	87.75
342.298	89.75
342.526	81.75
342.754	79.75
342.981	85.75
343.209	92.75
343.437	86.75
343.665	80.75
343.893	78.75
344.12	80.75
344.348	87.75
344.576	76.75
344.804	74.75
345.031	80.75
345.259	97.75
345.487	94.75
345.714	82.75
345.942	86.75
346.17	82.75
346.397	78.75
346.625	79.75
346.853	88.75
347.08	88.75
347.308	84.75
347.535	82.75
347.763	74.75
347.99	77.75
348.218	98.75
348.445	79.75
348.673	80.75
348.9	90.75
349.128	95.75
349.355	88.75
349.583	78.75
349.81	88.75
350.037	67.75
350.265	90.75
350.492	79.75
350.72	75.75
350.947	72.75
351.174	88.75
351.402	88.75
351.629	72.75
351.856	87.75
352.083	94.75
352.311	99.75
352.538	98.75
352.765	76.75
352.992	80.75
353.22	89.75
353.447	85.75
353.674	94.75
353.901	81.75
354.128	76.75
354.355	88.75
354.583	82.75
354.81	81.75
355.037	69.75
355.264	79.75
355.491	93.75
355.718	81.75
355.945	78.75
356.172	90.75
356.399	75.75
356.626	84.75
356.853	86.75
357.08	86.75
357.307	78.75
357.534	86.75
357.761	68.75
357.988	87.75
358.215	91.75
358.441	89.75
358.668	93.75
358.895	79.75
359.122	82.75
359.349	83.75
359.576	95.75
359.802	86.75
360.029	58.75
360.256	79.75
360.483	90.75
360.709	78.75
360.936	82.75
361.163	79.75
361.39	78.75
361.616	86.75
361.843	74.75
362.07	81.75
362.296	75.75
362.523	89.75
362.749	78.75
362.976	79.75
363.203	88.75
363.429	92.75
363.656	72.75
363.882	96.75
364.109	85.75
364.335	90.75
364.562	71.75
364.788	86.75
365.015	81.75
365.241	86.75
365.468	90.75
365.694	68.75
365.92	80.75
366.147	81.75
366.373	80.75
366.599	88.75
366.826	85.75
367.052	85.75
367.278	71.75
367.505	77.75
367.731	86.75
367.957	92.75
368.184	85.75
368.41	89.75
368.636	79.75
368.862	97.75
369.089	85.75
369.315	76.75
369.541	82.75
369.767	76.75
369.993	76.75
370.219	85.75
370.445	79.75
370.672	83.75
370.898	85.75
371.124	84.75
371.35	79.75
371.576	75.75
371.802	83.75
372.028	73.75
372.254	77.75
372.48	79.75
372.706	82.75
372.932	68.75
373.158	84.75
373.384	80.75
373.61	79.75
373.835	88.75
374.061	76.75
374.287	96.75
374.513	88.75
374.739	79.75
374.965	90.75
375.191	80.75
375.416	79.75
375.642	71.75
375.868	88.75
376.094	82.75
376.319	81.75
376.545	70.75
376.771	76.75
376.997	77.75
377.222	80.75
377.448	93.75
377.674	80.75
377.899	76.75
378.125	80.75
378.35	91.75
378.576	75.75
378.802	71.75
379.027	80.75
379.253	79.75
379.478	90.75
379.704	87.75
379.929	74.75
380.155	68.75
380.38	79.75
380.606	74.75
380.831	78.75
381.057	90.75
381.282	71.75
381.507	78.75
381.733	73.75
381.958	87.75
382.184	68.75
382.409	86.75
382.634	86.75
382.86	75.75
383.085	82.75
383.31	90.75
383.535	71.75
383.761	88.75
383.986	78.75
384.211	77.75
384.436	78.75
384.662	77.75
384.887	95.75
385.112	82.75
385.337	81.75
385.562	76.75
385.787	74.75
386.013	74.75
386.238	86.75
386.463	81.75
386.688	76.75
386.913	74.75
387.138	98.75
387.363	87.75
387.588	82.75
387.813	81.75
388.038	82.75
388.263	78.75
388.488	82.75
388.713	87.75
388.938	95.75
389.163	73.75
389.387	74.75
389.612	85.75
389.837	77.75
390.062	77.75
390.287	95.75
390.512	85.75
390.736	94.75
390.961	89.75
391.186	80.75
391.411	86.75
391.636	83.75
391.86	89.75
392.085	87.75
392.31	74.75
392.534	84.75
392.759	86.75
392.984	88.75
393.208	93.75
393.433	75.75
393.658	70.75
393.882	86.75
394.107	87.75
394.331	80.75
394.556	88.75
394.78	82.75
395.005	83.75
395.229	77.75
395.454	84.75
395.678	68.75
395.903	83.75
396.127	90.75
396.352	94.75
396.576	90.75
396.801	68.75
397.025	96.75
397.249	89.75
397.474	92.75
397.698	79.75
397.922	74.75
398.147	75.75
398.371	86.75
398.595	82.75
398.82	69.75
399.044	76.75
399.268	83.75
399.492	82.75
399.717	85.75
399.941	72.75
400.165	78.75
400.389	89.75
400.613	68.75
400.837	78.75
401.062	94.75
401.286	77.75
401.51	86.75
401.734	79.75
401.958	94.75
402.182	82.75
402.406	84.75
402.63	79.75
402.854	100.75
403.078	93.75
403.302	83.75
403.526	81.75
403.75	90.75
403.974	94.75
404.198	80.75
404.422	90.75
404.645	83.75
404.869	71.75
405.093	84.75
405.317	79.75
405.541	89.75
405.765	80.75
405.988	75.75
406.212	91.75
406.436	88.75
406.66	70.75
406.883	83.75
407.107	88.75
407.331	74.75
407.555	86.75
407.778	74.75
408.002	90.75
408.226	79.75
408.449	98.75
408.673	74.75
408.896	83.75
409.12	82.75
409.344	78.75
409.567	83.75
409.791	74.75
410.014	79.75
410.238	79.75
410.461	89.75
410.685	83.75
410.908	79.75
411.132	83.75
411.355	62.75
411.578	97.75
411.802	67.75
412.025	70.75
412.249	86.75
412.472	82.75
412.695	76.75
412.919	86.75
413.142	83.75
413.365	83.75
413.589	93.75
413.812	103.75
414.035	94.75
414.258	96.75
414.482	86.75
414.705	80.75
414.928	93.75
415.151	80.75
415.374	93.75
415.597	88.75
415.821	95.75
416.044	79.75
416.267	93.75
416.49	97.75
416.713	83.75
416.936	100.75
417.159	97.75
417.382	71.75
417.605	87.75
417.828	86.75
418.051	73.75
418.274	90.75
418.497	75.75
418.72	95.75
418.943	97.75
419.166	88.75
419.389	76.75
419.611	77.75
419.834	79.75
420.057	84.75
420.28	88.75
420.503	83.75
420.726	78.75
420.948	86.75
421.171	99.75
421.394	89.75
421.617	73.75
421.839	84.75
422.062	97.75
422.285	86.75
422.507	82.75
422.73	79.75
422.953	92.75
423.175	90.75
423.398	102.75
423.621	82.75
423.843	70.75
424.066	87.75
424.288	91.75
424.511	91.75
424.733	89.75
424.956	73.75
425.178	91.75
425.401	70.75
425.623	92.75
425.846	81.75
426.068	89.75
426.291	99.75
426.513	87.75
426.735	93.75
426.958	77.75
427.18	108.75
427.402	85.75
427.625	97.75
427.847	99.75
428.069	85.75
428.292	90.75
428.514	91.75
428.736	84.75
428.958	84.75
429.181	89.75
429.403	96.75
429.625	90.75
429.847	98.75
430.069	88.75
430.292	99.75
430.514	83.75
430.736	80.75
430.958	94.75
431.18	99.75
431.402	75.75
431.624	92.75
431.846	78.75
432.068	78.75
432.29	74.75
432.512	71.75
432.734	81.75
432.956	94.75
433.178	80.75
433.4	87.75
433.622	99.75
433.844	78.75
434.066	77.75
434.287	83.75
434.509	74.75
434.731	81.75
434.953	76.75
435.175	80.75
435.397	96.75
435.618	76.75
435.84	87.75
436.062	94.75
436.284	87.75
436.505	82.75
436.727	80.75
436.949	88.75
437.17	82.75
437.392	95.75
437.614	95.75
437.835	76.75
438.057	83.75
438.278	78.75
438.5	73.75
438.721	90.75
438.943	93.75
439.165	89.75
439.386	89.75
439.608	91.75
439.829	88.75
440.05	95.75
440.272	70.75
440.493	83.75
440.715	94.75
440.936	86.75
441.158	91.75
441.379	80.75
441.6	83.75
441.822	87.75
442.043	79.75
442.264	77.75
442.486	87.75
442.707	91.75
442.928	93.75
443.149	103.75
443.371	100.75
443.592	101.75
443.813	98.75
444.034	89.75
444.255	108.75
444.476	88.75
444.698	96.75
444.919	94.75
445.14	224.75
445.361	144.75
445.582	102.75
445.803	96.75
446.024	105.75
446.245	89.75
446.466	87.75
446.687	84.75
446.908	100.75
447.129	89.75
447.35	102.75
447.571	90.75
447.792	79.75
448.013	76.75
448.234	89.75
448.455	79.75
448.675	85.75
448.896	87.75
449.117	92.75
449.338	95.75
449.559	93.75
449.779	90.75
450	77.75
450.221	83.75
450.442	101.75
450.662	88.75
450.883	76.75
451.104	92.75
451.324	89.75
451.545	78.75
451.766	105.75
451.986	88.75
452.207	88.75
452.428	95.75
452.648	99.75
452.869	84.75
453.089	86.75
453.31	80.75
453.53	86.75
453.751	72.75
453.971	94.75
454.192	82.75
454.412	71.75
454.633	87.75
454.853	78.75
455.073	84.75
455.294	90.75
455.514	91.75
455.734	95.75
455.955	78.75
456.175	98.75
456.395	95.75
456.616	76.75
456.836	75.75
457.056	86.75
457.276	78.75
457.497	79.75
457.717	79.75
457.937	87.75
458.157	95.75
458.377	95.75
458.598	88.75
458.818	76.75
459.038	96.75
459.258	100.75
459.478	90.75
459.698	79.75
459.918	84.75
460.138	73.75
460.358	94.75
460.578	84.75
460.798	90.75
461.018	85.75
461.238	80.75
461.458	64.75
461.678	86.75
461.898	90.75
462.118	75.75
462.338	77.75
462.558	88.75
462.777	85.75
462.997	83.75
463.217	80.75
463.437	73.75
463.657	82.75
463.876	89.75
464.096	88.75
464.316	79.75
464.536	74.75
464.755	80.75
464.975	90.75
465.195	84.75
465.414	80.75
465.634	81.75
465.854	94.75
466.073	86.75
466.293	77.75
466.512	85.75
466.732	91.75
466.951	91.75
467.171	75.75
467.391	78.75
467.61	81.75
467.829	82.75
468.049	90.75
468.268	91.75
468.488	90.75
468.707	86.75
468.927	97.75
469.146	104.75
469.365	88.75
469.585	96.75
469.804	105.75
470.023	99.75
470.243	82.75
470.462	75.75
470.681	80.75
470.901	89.75
471.12	99.75
471.339	87.75
471.558	84.75
471.777	94.75
471.997	92.75
472.216	93.75
472.435	89.75
472.654	100.75
472.873	86.75
473.092	90.75
473.311	87.75
473.53	88.75
473.749	68.75
473.968	91.75
474.187	82.75
474.406	83.75
474.625	90.75
474.844	80.75
475.063	81.75
475.282	83.75
475.501	78.75
475.72	100.75
475.939	82.75
476.158	87.75
476.377	72.75
476.596	75.75
476.814	70.75
477.033	83.75
477.252	88.75
477.471	80.75
477.69	91.75
477.908	99.75
478.127	85.75
478.346	82.75
478.564	80.75
478.783	89.75
479.002	99.75
479.22	104.75
479.439	94.75
479.658	89.75
479.876	84.75
480.095	95.75
480.313	85.75
480.532	85.75
480.751	79.75
480.969	76.75
481.188	84.75
481.406	89.75
481.624	99.75
481.843	78.75
482.061	67.75
482.28	81.75
482.498	91.75
482.717	78.75
482.935	78.75
483.153	98.75
483.372	96.75
483.59	95.75
483.808	97.75
484.027	83.75
484.245	82.75
484.463	86.75
484.681	87.75
484.9	94.75
485.118	86.75
485.336	98.75
485.554	89.75
485.772	77.75
485.99	71.75
486.209	83.75
486.427	83.75
486.645	91.75
486.863	102.75
487.081	80.75
487.299	87.75
487.517	90.75
487.735	96.75
487.953	98.75
488.171	100.75
488.389	92.75
488.607	99.75
488.825	83.75
489.043	94.75
489.261	99.75
489.479	91.75
489.696	85.75
489.914	80.75
490.132	80.75
490.35	75.75
490.568	91.75
490.786	85.75
491.003	95.75
491.221	88.75
491.439	92.75
491.657	91.75
491.874	94.75
492.092	118.75
492.31	104.75
492.527	117.75
492.745	95.75
492.963	107.75
493.18	90.75
493.398	109.75
493.615	97.75
493.833	89.75
494.05	102.75
494.268	92.75
494.485	100.75
494.703	83.75
494.92	99.75
495.138	90.75
495.355	97.75
495.573	92.75
495.79	111.75
496.008	102.75
496.225	101.75
496.442	85.75
496.66	88.75
496.877	81.75
497.094	100.75
497.312	87.75
497.529	102.75
497.746	86.75
497.963	91.75
498.181	89.75
498.398	92.75
498.615	85.75
498.832	83.75
499.049	83.75
499.267	79.75
499.484	100.75
499.701	96.75
499.918	89.75
500.135	80.75
500.352	104.75
500.569	88.75
500.786	100.75
501.003	110.75
501.22	88.75
501.437	89.75
501.654	89.75
501.871	78.75
502.088	81.75
502.305	84.75
502.522	98.75
502.739	88.75
502.956	97.75
503.172	86.75
503.389	79.75
503.606	91.75
503.823	95.75
504.04	87.75
504.256	83.75
504.473	79.75
504.69	97.75
504.907	94.75
505.123	82.75
505.34	84.75
505.557	84.75
505.773	84.75
505.99	95.75
506.207	89.75
506.423	88.75
506.64	70.75
506.856	88.75
507.073	70.75
507.289	96.75
507.506	87.75
507.722	96.75
507.939	95.75
508.155	80.75
508.372	85.75
508.588	82.75
508.805	82.75
509.021	91.75
509.238	85.75
509.454	97.75
509.67	68.75
509.887	82.75
510.103	94.75
510.319	70.75
510.536	99.75
510.752	84.75
510.968	69.75
511.184	78.75
511.401	66.75
511.617	83.75
511.833	71.75
512.049	90.75
512.265	72.75
512.481	93.75
512.698	82.75
512.914	89.75
513.13	86.75
513.346	91.75
513.562	81.75
513.778	91.75
513.994	75.75
514.21	73.75
514.426	83.75
514.642	65.75
514.858	69.75
515.074	64.75
515.29	75.75
515.506	91.75
515.721	84.75
515.937	86.75
516.153	88.75
516.369	79.75
516.585	79.75
516.801	70.75
517.016	73.75
517.232	75.75
517.448	72.75
517.664	80.75
517.879	86.75
518.095	84.75
518.311	90.75
518.527	79.75
518.742	59.75
518.958	78.75
519.173	74.75
519.389	92.75
519.605	90.75
519.82	91.75
520.036	91.75
520.251	79.75
520.467	80.75
520.682	74.75
520.898	94.75
521.113	102.75
521.329	88.75
521.544	72.75
521.76	87.75
521.975	85.75
522.19	80.75
522.406	87.75
522.621	85.75
522.836	86.75
523.052	76.75
523.267	85.75
523.482	86.75
523.698	96.75
523.913	83.75
524.128	103.75
524.343	102.75
524.559	81.75
524.774	97.75
524.989	96.75
525.204	86.75
525.419	84.75
525.634	91.75
525.849	86.75
526.064	94.75
526.28	81.75
526.495	90.75
526.71	80.75
526.925	76.75
527.14	66.75
527.355	95.75
527.57	87.75
527.785	95.75
527.999	76.75
528.214	99.75
528.429	94.75
528.644	93.75
528.859	101.75
529.074	92.75
529.289	98.75
529.503	113.75
529.718	91.75
529.933	82.75
530.148	96.75
530.363	86.75
530.577	99.75
530.792	80.75
531.007	85.75
531.221	84.75
531.436	85.75
531.651	72.75
531.865	97.75
532.08	92.75
532.295	83.75
532.509	80.75
532.724	90.75
532.938	83.75
533.153	85.75
533.367	92.75
533.582	88.75
533.796	91.75
534.011	98.75
534.225	83.75
534.44	103.75
534.654	96.75
534.868	91.75
535.083	92.75
535.297	89.75
535.511	86.75
535.726	78.75
535.94	96.75
536.154	82.75
536.369	91.75
536.583	90.75
536.797	87.75
537.011	83.75
537.225	85.75
537.44	91.75
537.654	79.75
537.868	91.75
538.082	74.75
538.296	100.75
538.51	75.75
538.724	73.75
538.938	98.75
539.153	91.75
539.367	90.75
539.581	73.75
539.795	85.75
540.009	82.75
540.222	80.75
540.436	91.75
540.65	81.75
540.864	92.75
541.078	81.75
541.292	101.75
541.506	76.75
541.72	106.75
541.934	98.75
542.147	108.75
542.361	87.75
542.575	93.75
542.789	85.75
543.002	88.75
543.216	100.75
543.43	95.75
543.644	90.75
543.857	102.75
544.071	94.75
544.285	99.75
544.498	104.75
544.712	91.75
544.925	95.75
545.139	96.75
545.352	103.75
545.566	93.75
545.779	90.75
545.993	92.75
546.206	102.75
546.42	100.75
546.633	89.75
546.847	107.75
547.06	93.75
547.274	91.75
547.487	96.75
547.7	91.75
547.914	111.75
548.127	93.75
548.34	94.75
548.554	94.75
548.767	99.75
548.98	96.75
549.193	96.75
549.407	96.75
549.62	95.75
549.833	83.75
550.046	99.75
550.259	111.75
550.473	99.75
550.686	102.75
550.899	72.75
551.112	97.75
551.325	94.75
551.538	88.75
551.751	91.75
551.964	103.75
552.177	95.75
552.39	91.75
552.603	102.75
552.816	87.75
553.029	106.75
553.242	91.75
553.455	88.75
553.667	93.75
553.88	82.75
554.093	91.75
554.306	105.75
554.519	101.75
554.732	95.75
554.944	100.75
555.157	110.75
555.37	90.75
555.583	84.75
555.795	100.75
556.008	100.75
556.221	89.75
556.433	94.75
556.646	87.75
556.859	82.75
557.071	98.75
557.284	84.75
557.496	96.75
557.709	88.75
557.921	105.75
558.134	105.75
558.346	85.75
558.559	98.75
558.771	88.75
558.984	88.75
559.196	100.75
559.409	83.75
559.621	106.75
559.833	92.75
560.046	93.75
560.258	86.75
560.47	84.75
560.683	82.75
560.895	96.75
561.107	94.75
561.32	86.75
561.532	84.75
561.744	81.75
561.956	92.75
562.168	96.75
562.381	89.75
562.593	93.75
562.805	92.75
563.017	89.75
563.229	89.75
563.441	86.75
563.653	91.75
563.865	87.75
564.077	94.75
564.289	90.75
564.501	83.75
564.713	96.75
564.925	102.75
565.137	92.75
565.349	84.75
565.561	77.75
565.773	99.75
565.985	92.75
566.197	83.75
566.408	90.75
566.62	86.75
566.832	89.75
567.044	89.75
567.255	92.75
567.467	90.75
567.679	74.75
567.891	86.75
568.102	93.75
568.314	80.75
568.526	83.75
568.737	79.75
568.949	80.75
569.161	84.75
569.372	82.75
569.584	81.75
569.795	91.75
570.007	87.75
570.218	89.75
570.43	88.75
570.641	76.75
570.853	87.75
571.064	88.75
571.276	91.75
571.487	84.75
571.698	90.75
571.91	76.75
572.121	72.75
572.333	66.75
572.544	95.75
572.755	93.75
572.966	82.75
573.178	94.75
573.389	82.75
573.6	73.75
573.811	97.75
574.023	88.75
574.234	79.75
574.445	91.75
574.656	80.75
574.867	86.75
575.078	87.75
575.289	83.75
575.501	83.75
575.712	71.75
575.923	87.75
576.134	97.75
576.345	96.75
576.556	97.75
576.767	74.75
576.978	91.75
577.188	88.75
577.399	88.75
577.61	85.75
577.821	90.75
578.032	81.75
578.243	80.75
578.454	86.75
578.665	98.75
578.875	99.75
579.086	80.75
579.297	82.75
579.508	99.75
579.718	95.75
579.929	76.75
580.14	87.75
580.35	59.75
580.561	80.75
580.772	98.75
580.982	73.75
581.193	77.75
581.403	84.75
581.614	85.75
581.825	72.75
582.035	78.75
582.246	91.75
582.456	84.75
582.667	79.75
582.877	86.75
583.087	66.75
583.298	83.75
583.508	77.75
583.719	91.75
583.929	85.75
584.139	84.75
584.35	77.75
584.56	78.75
584.77	98.75
584.981	79.75
585.191	78.75
585.401	74.75
585.611	83.75
585.821	75.75
586.032	82.75
586.242	70.75
586.452	74.75
586.662	70.75
586.872	88.75
587.082	92.75
587.292	78.75
587.502	75.75
587.713	87.75
587.923	101.75
588.133	99.75
588.343	74.75
588.553	94.75
588.762	75.75
588.972	86.75
589.182	92.75
589.392	81.75
589.602	85.75
589.812	86.75
590.022	82.75
590.232	75.75
590.441	89.75
590.651	85.75
590.861	76.75
591.071	93.75
591.281	81.75
591.49	70.75
591.7	82.75
591.91	87.75
592.119	78.75
592.329	78.75
592.539	95.75
592.748	92.75
592.958	86.75
593.167	79.75
593.377	76.75
593.587	83.75
593.796	82.75
594.006	82.75
594.215	80.75
594.424	78.75
594.634	76.75
594.843	94.75
595.053	73.75
595.262	83.75
595.472	83.75
595.681	88.75
595.89	91.75
596.1	74.75
596.309	83.75
596.518	91.75
596.727	90.75
596.937	84.75
597.146	83.75
597.355	106.75
597.564	83.75
597.774	80.75
597.983	91.75
598.192	83.75
598.401	74.75
598.61	76.75
598.819	92.75
599.028	74.75
599.237	99.75
599.446	86.75
599.655	80.75
599.864	75.75
600.073	78.75
600.282	96.75
600.491	80.75
600.7	92.75
600.909	89.75
601.118	92.75
601.327	78.75
601.536	82.75
601.745	85.75
601.953	76.75
602.162	84.75
602.371	82.75
602.58	89.75
602.789	83.75
602.997	100.75
603.206	97.75
603.415	91.75
603.623	100.75
603.832	92.75
604.041	81.75
604.249	96.75
604.458	85.75
604.666	74.75
604.875	89.75
605.084	88.75
605.292	98.75
605.501	87.75
605.709	84.75
605.918	94.75
606.126	74.75
606.334	80.75
606.543	92.75
606.751	95.75
606.96	91.75
607.168	97.75
607.376	80.75
607.585	99.75
607.793	82.75
608.001	96.75
608.21	81.75
608.418	87.75
608.626	79.75
608.834	84.75
609.043	87.75
609.251	94.75
609.459	91.75
609.667	85.75
609.875	92.75
610.083	80.75
610.291	85.75
610.499	88.75
610.707	82.75
610.916	88.75
611.124	89.75
611.332	78.75
611.54	98.75
611.748	96.75
611.955	100.75
612.163	78.75
612.371	102.75
612.579	100.75
612.787	92.75
612.995	75.75
613.203	98.75
613.411	75.75
613.618	95.75
613.826	92.75
614.034	85.75
614.242	84.75
614.449	84.75
614.657	81.75
614.865	105.75
615.072	85.75
615.28	83.75
615.488	73.75
615.695	87.75
615.903	98.75
616.111	82.75
616.318	89.75
616.526	87.75
616.733	88.75
616.941	82.75
617.148	74.75
617.356	85.75
617.563	98.75
617.771	97.75
617.978	80.75
618.185	83.75
618.393	74.75
618.6	85.75
618.807	94.75
619.015	101.75
619.222	84.75
619.429	87.75
619.637	84.75
619.844	79.75
620.051	97.75
620.258	77.75
620.466	89.75
620.673	90.75
620.88	75.75
621.087	97.75
621.294	96.75
621.501	98.75
621.708	104.75
621.915	86.75
622.122	89.75
622.329	77.75
622.536	96.75
622.743	99.75
622.95	82.75
623.157	86.75
623.364	101.75
623.571	76.75
623.778	92.75
623.985	90.75
624.192	85.75
624.399	89.75
624.606	82.75
624.812	79.75
625.019	89.75
625.226	95.75
625.433	94.75
625.639	72.75
625.846	74.75
626.053	84.75
626.259	86.75
626.466	95.75
626.673	97.75
626.879	93.75
627.086	87.75
627.293	68.75
627.499	75.75
627.706	82.75
627.912	90.75
628.119	85.75
628.325	99.75
628.532	86.75
628.738	89.75
628.945	80.75
629.151	92.75
629.357	93.75
629.564	98.75
629.77	89.75
629.976	89.75
630.183	76.75
630.389	92.75
630.595	91.75
630.802	96.75
631.008	90.75
631.214	93.75
631.42	79.75
631.627	81.75
631.833	95.75
632.039	88.75
632.245	97.75
632.451	81.75
632.657	91.75
632.863	93.75
633.069	96.75
633.275	74.75
633.481	89.75
633.688	79.75
633.893	85.75
634.099	80.75
634.305	97.75
634.511	70.75
634.717	66.75
634.923	74.75
635.129	74.75
635.335	87.75
635.541	88.75
635.747	87.75
635.952	94.75
636.158	103.75
636.364	88.75
636.57	82.75
636.775	87.75
636.981	82.75
637.187	99.75
637.392	85.75
637.598	82.75
637.804	84.75
638.009	89.75
638.215	76.75
638.421	84.75
638.626	95.75
638.832	84.75
639.037	77.75
639.243	89.75
639.448	81.75
639.654	90.75
639.859	92.75
640.065	94.75
640.27	88.75
640.475	92.75
640.681	86.75
640.886	78.75
641.091	90.75
641.297	82.75
641.502	95.75
641.707	77.75
641.913	81.75
642.118	87.75
642.323	81.75
642.528	93.75
642.733	93.75
642.939	94.75
643.144	71.75
643.349	91.75
643.554	84.75
643.759	86.75
643.964	87.75
644.169	96.75
644.374	95.75
644.579	87.75
644.784	82.75
644.989	89.75
645.194	89.75
645.399	77.75
645.604	74.75
645.809	90.75
646.014	76.75
646.219	88.75
646.423	96.75
646.628	77.75
646.833	94.75
647.038	81.75
647.243	83.75
647.447	84.75
647.652	70.75
647.857	85.75
648.062	78.75
648.266	83.75
648.471	78.75
648.676	97.75
648.88	88.75
649.085	69.75
649.289	81.75
649.494	82.75
649.698	86.75
649.903	93.75
650.107	75.75
650.312	94.75
650.516	86.75
650.721	96.75
650.925	90.75
651.13	86.75
651.334	83.75
651.539	90.75
651.743	76.75
651.947	103.75
652.152	89.75
652.356	76.75
652.56	75.75
652.764	83.75
652.969	86.75
653.173	75.75
653.377	72.75
653.581	96.75
653.785	84.75
653.99	90.75
654.194	79.75
654.398	78.75
654.602	93.75
654.806	70.75
655.01	83.75
655.214	93.75
655.418	91.75
655.622	88.75
655.826	83.75
656.03	94.75
656.234	75.75
656.438	75.75
656.642	82.75
656.846	84.75
657.049	73.75
657.253	82.75
657.457	82.75
657.661	96.75
657.865	94.75
658.068	95.75
658.272	86.75
658.476	86.75
658.68	92.75
658.883	90.75
659.087	84.75
659.291	91.75
659.494	82.75
659.698	82.75
659.901	77.75
660.105	78.75
660.309	87.75
660.512	81.75
660.716	87.75
660.919	91.75
661.123	78.75
661.326	74.75
661.53	84.75
661.733	83.75
661.936	76.75
662.14	87.75
662.343	85.75
662.546	71.75
662.75	80.75
662.953	76.75
663.156	71.75
663.36	79.75
663.563	77.75
663.766	76.75
663.969	92.75
664.173	76.75
664.376	72.75
664.579	87.75
664.782	94.75
664.985	88.75
665.188	84.75
665.391	85.75
665.594	75.75
665.797	82.75
666	68.75
666.203	82.75
666.406	78.75
666.609	71.75
666.812	94.75
667.015	84.75
667.218	76.75
667.421	82.75
667.624	85.75
667.827	76.75
668.03	69.75
668.232	76.75
668.435	73.75
668.638	74.75
668.841	76.75
669.043	86.75
669.246	79.75
669.449	79.75
669.651	74.75
669.854	83.75
670.057	89.75
670.259	95.75
670.462	84.75
670.665	84.75
670.867	74.75
671.07	89.75
671.272	79.75
671.475	79.75
671.677	72.75
671.88	71.75
672.082	72.75
672.284	83.75
672.487	82.75
672.689	77.75
672.892	57.75
