Data from Zn(NO3)2Standard.Agarose3%.GreenCap.LampEnergy10E.O_HRD10591_15-06-16-942.txt Node
Date: Mon Jul 22 15:06:16 EDT 2019
User: cochatt
Spectrometer: HR+D1059
Trigger mode: 1
Integration Time (sec): 1.000000E-1
Scans to average: 1
Electric dark correction enabled: true
Nonlinearity correction enabled: false
Boxcar width: 0
XAxis mode: Wavelengths
Number of Pixels in Spectrum: 2048
>>>>>Begin Spectral Data<<<<<
223.165	-4.12
223.4	-4.12
223.635	-4.12
223.869	-18.12
224.104	-27.12
224.338	-23.12
224.573	-20.12
224.808	-10.12
225.042	0.88
225.277	-15.12
225.511	2.88
225.746	12.88
225.98	6.88
226.215	10.88
226.449	13.88
226.683	24.88
226.918	28.88
227.152	15.88
227.387	37.88
227.621	44.88
227.856	33.88
228.09	36.88
228.324	46.88
228.559	67.88
228.793	69.88
229.027	70.88
229.262	60.88
229.496	73.88
229.73	66.88
229.964	82.88
230.199	78.88
230.433	62.88
230.667	65.88
230.901	72.88
231.136	75.88
231.37	86.88
231.604	75.88
231.838	88.88
232.072	73.88
232.306	83.88
232.541	73.88
232.775	66.88
233.009	79.88
233.243	80.88
233.477	77.88
233.711	94.88
233.945	81.88
234.179	83.88
234.413	78.88
234.647	87.88
234.881	88.88
235.115	88.88
235.349	68.88
235.583	74.88
235.817	77.88
236.051	85.88
236.285	76.88
236.519	80.88
236.753	80.88
236.987	80.88
237.221	88.88
237.455	74.88
237.689	76.88
237.922	80.88
238.156	79.88
238.39	69.88
238.624	77.88
238.858	74.88
239.091	76.88
239.325	81.88
239.559	80.88
239.793	79.88
240.027	75.88
240.26	82.88
240.494	79.88
240.728	79.88
240.961	70.88
241.195	84.88
241.429	65.88
241.662	66.88
241.896	87.88
242.13	80.88
242.363	73.88
242.597	77.88
242.83	81.88
243.064	76.88
243.298	78.88
243.531	88.88
243.765	77.88
243.998	75.88
244.232	75.88
244.465	99.88
244.699	84.88
244.932	84.88
245.166	80.88
245.399	68.88
245.633	80.88
245.866	81.88
246.099	83.88
246.333	71.88
246.566	82.88
246.8	63.88
247.033	74.88
247.266	74.88
247.5	76.88
247.733	80.88
247.966	71.88
248.2	79.88
248.433	77.88
248.666	77.88
248.899	72.88
249.133	78.88
249.366	87.88
249.599	84.88
249.832	74.88
250.066	91.88
250.299	80.88
250.532	77.88
250.765	75.88
250.998	73.88
251.231	88.88
251.465	65.88
251.698	76.88
251.931	73.88
252.164	73.88
252.397	67.88
252.63	79.88
252.863	82.88
253.096	85.88
253.329	73.88
253.562	77.88
253.795	69.88
254.028	92.88
254.261	84.88
254.494	78.88
254.727	65.88
254.96	67.88
255.193	72.88
255.426	80.88
255.659	84.88
255.892	83.88
256.124	78.88
256.357	90.88
256.59	80.88
256.823	78.88
257.056	75.88
257.289	78.88
257.521	84.88
257.754	77.88
257.987	72.88
258.22	77.88
258.452	82.88
258.685	68.88
258.918	74.88
259.151	82.88
259.383	98.88
259.616	73.88
259.849	83.88
260.081	72.88
260.314	72.88
260.547	81.88
260.779	75.88
261.012	76.88
261.244	85.88
261.477	80.88
261.71	98.88
261.942	86.88
262.175	84.88
262.407	83.88
262.64	91.88
262.872	77.88
263.105	73.88
263.337	81.88
263.57	76.88
263.802	82.88
264.035	78.88
264.267	89.88
264.499	89.88
264.732	75.88
264.964	93.88
265.197	75.88
265.429	85.88
265.661	76.88
265.894	71.88
266.126	82.88
266.358	79.88
266.591	83.88
266.823	74.88
267.055	74.88
267.287	83.88
267.52	85.88
267.752	76.88
267.984	71.88
268.216	81.88
268.448	82.88
268.681	80.88
268.913	94.88
269.145	85.88
269.377	89.88
269.609	73.88
269.841	74.88
270.073	88.88
270.306	72.88
270.538	80.88
270.77	76.88
271.002	86.88
271.234	60.88
271.466	84.88
271.698	86.88
271.93	68.88
272.162	72.88
272.394	71.88
272.626	97.88
272.858	89.88
273.09	86.88
273.322	77.88
273.553	86.88
273.785	81.88
274.017	73.88
274.249	93.88
274.481	88.88
274.713	73.88
274.945	85.88
275.176	100.88
275.408	93.88
275.64	82.88
275.872	84.88
276.104	80.88
276.335	69.88
276.567	72.88
276.799	78.88
277.031	74.88
277.262	76.88
277.494	86.88
277.726	83.88
277.957	85.88
278.189	60.88
278.421	67.88
278.652	71.88
278.884	69.88
279.115	80.88
279.347	77.88
279.579	94.88
279.81	79.88
280.042	90.88
280.273	99.88
280.505	86.88
280.736	78.88
280.968	92.88
281.199	81.88
281.431	76.88
281.662	82.88
281.894	73.88
282.125	79.88
282.356	80.88
282.588	84.88
282.819	81.88
283.051	81.88
283.282	83.88
283.513	96.88
283.745	97.88
283.976	100.88
284.207	82.88
284.439	68.88
284.67	88.88
284.901	70.88
285.132	87.88
285.364	90.88
285.595	64.88
285.826	84.88
286.057	70.88
286.288	74.88
286.52	83.88
286.751	95.88
286.982	86.88
287.213	76.88
287.444	84.88
287.675	87.88
287.906	99.88
288.138	90.88
288.369	94.88
288.6	80.88
288.831	93.88
289.062	88.88
289.293	86.88
289.524	66.88
289.755	88.88
289.986	77.88
290.217	102.88
290.448	76.88
290.679	85.88
290.91	80.88
291.141	88.88
291.371	74.88
291.602	82.88
291.833	89.88
292.064	84.88
292.295	90.88
292.526	81.88
292.757	98.88
292.987	79.88
293.218	93.88
293.449	88.88
293.68	93.88
293.91	96.88
294.141	94.88
294.372	71.88
294.603	85.88
294.833	87.88
295.064	85.88
295.295	93.88
295.525	82.88
295.756	76.88
295.987	88.88
296.217	82.88
296.448	90.88
296.679	84.88
296.909	89.88
297.14	85.88
297.37	99.88
297.601	84.88
297.831	92.88
298.062	86.88
298.292	89.88
298.523	78.88
298.753	85.88
298.984	81.88
299.214	83.88
299.445	74.88
299.675	88.88
299.905	93.88
300.136	86.88
300.366	72.88
300.597	78.88
300.827	85.88
301.057	78.88
301.288	75.88
301.518	85.88
301.748	87.88
301.979	78.88
302.209	79.88
302.439	80.88
302.669	74.88
302.9	84.88
303.13	85.88
303.36	71.88
303.59	87.88
303.82	91.88
304.051	76.88
304.281	78.88
304.511	76.88
304.741	74.88
304.971	72.88
305.201	86.88
305.431	77.88
305.661	82.88
305.891	89.88
306.121	90.88
306.352	85.88
306.582	77.88
306.812	90.88
307.042	93.88
307.272	90.88
307.502	75.88
307.731	78.88
307.961	92.88
308.191	84.88
308.421	97.88
308.651	90.88
308.881	92.88
309.111	85.88
309.341	82.88
309.571	84.88
309.8	78.88
310.03	81.88
310.26	87.88
310.49	83.88
310.72	89.88
310.949	88.88
311.179	84.88
311.409	78.88
311.639	81.88
311.868	88.88
312.098	95.88
312.328	84.88
312.557	83.88
312.787	76.88
313.017	75.88
313.246	102.88
313.476	93.88
313.706	96.88
313.935	70.88
314.165	89.88
314.394	77.88
314.624	75.88
314.853	85.88
315.083	72.88
315.312	73.88
315.542	86.88
315.771	78.88
316.001	82.88
316.23	93.88
316.46	85.88
316.689	90.88
316.919	85.88
317.148	88.88
317.377	90.88
317.607	84.88
317.836	82.88
318.065	77.88
318.295	93.88
318.524	89.88
318.753	77.88
318.983	85.88
319.212	89.88
319.441	85.88
319.67	80.88
319.9	80.88
320.129	84.88
320.358	83.88
320.587	82.88
320.816	89.88
321.046	84.88
321.275	76.88
321.504	93.88
321.733	88.88
321.962	83.88
322.191	80.88
322.42	81.88
322.649	84.88
322.878	88.88
323.108	84.88
323.337	81.88
323.566	82.88
323.795	86.88
324.024	83.88
324.253	71.88
324.482	71.88
324.71	77.88
324.939	86.88
325.168	83.88
325.397	82.88
325.626	106.88
325.855	72.88
326.084	85.88
326.313	77.88
326.542	90.88
326.77	86.88
326.999	85.88
327.228	88.88
327.457	87.88
327.686	90.88
327.914	87.88
328.143	88.88
328.372	90.88
328.6	84.88
328.829	87.88
329.058	78.88
329.287	94.88
329.515	84.88
329.744	75.88
329.972	90.88
330.201	85.88
330.43	78.88
330.658	87.88
330.887	81.88
331.115	82.88
331.344	109.88
331.572	84.88
331.801	74.88
332.03	93.88
332.258	88.88
332.486	85.88
332.715	88.88
332.943	86.88
333.172	93.88
333.4	68.88
333.629	88.88
333.857	72.88
334.085	84.88
334.314	95.88
334.542	83.88
334.771	98.88
334.999	88.88
335.227	85.88
335.455	82.88
335.684	85.88
335.912	76.88
336.14	90.88
336.369	95.88
336.597	101.88
336.825	71.88
337.053	84.88
337.281	61.88
337.51	82.88
337.738	72.88
337.966	93.88
338.194	82.88
338.422	76.88
338.65	80.88
338.878	108.88
339.106	73.88
339.334	85.88
339.562	84.88
339.79	69.88
340.018	84.88
340.246	90.88
340.474	87.88
340.702	107.88
340.93	72.88
341.158	98.88
341.386	80.88
341.614	66.88
341.842	90.88
342.07	88.88
342.298	85.88
342.526	86.88
342.754	74.88
342.981	92.88
343.209	74.88
343.437	85.88
343.665	86.88
343.893	85.88
344.12	77.88
344.348	89.88
344.576	97.88
344.804	78.88
345.031	92.88
345.259	85.88
345.487	76.88
345.714	88.88
345.942	100.88
346.17	85.88
346.397	88.88
346.625	78.88
346.853	84.88
347.08	73.88
347.308	74.88
347.535	83.88
347.763	86.88
347.99	86.88
348.218	80.88
348.445	77.88
348.673	83.88
348.9	99.88
349.128	91.88
349.355	101.88
349.583	71.88
349.81	70.88
350.037	80.88
350.265	83.88
350.492	78.88
350.72	89.88
350.947	88.88
351.174	80.88
351.402	74.88
351.629	83.88
351.856	89.88
352.083	75.88
352.311	75.88
352.538	81.88
352.765	79.88
352.992	86.88
353.22	83.88
353.447	98.88
353.674	93.88
353.901	84.88
354.128	86.88
354.355	78.88
354.583	75.88
354.81	82.88
355.037	73.88
355.264	87.88
355.491	70.88
355.718	72.88
355.945	84.88
356.172	81.88
356.399	91.88
356.626	85.88
356.853	90.88
357.08	91.88
357.307	85.88
357.534	78.88
357.761	80.88
357.988	88.88
358.215	86.88
358.441	78.88
358.668	74.88
358.895	89.88
359.122	83.88
359.349	92.88
359.576	81.88
359.802	85.88
360.029	83.88
360.256	84.88
360.483	78.88
360.709	68.88
360.936	76.88
361.163	75.88
361.39	83.88
361.616	80.88
361.843	78.88
362.07	87.88
362.296	82.88
362.523	94.88
362.749	93.88
362.976	89.88
363.203	73.88
363.429	86.88
363.656	88.88
363.882	84.88
364.109	72.88
364.335	88.88
364.562	83.88
364.788	75.88
365.015	88.88
365.241	82.88
365.468	89.88
365.694	85.88
365.92	86.88
366.147	84.88
366.373	76.88
366.599	83.88
366.826	88.88
367.052	88.88
367.278	85.88
367.505	83.88
367.731	87.88
367.957	81.88
368.184	80.88
368.41	82.88
368.636	90.88
368.862	93.88
369.089	78.88
369.315	81.88
369.541	76.88
369.767	93.88
369.993	96.88
370.219	85.88
370.445	105.88
370.672	81.88
370.898	76.88
371.124	80.88
371.35	102.88
371.576	80.88
371.802	83.88
372.028	92.88
372.254	93.88
372.48	77.88
372.706	88.88
372.932	77.88
373.158	83.88
373.384	91.88
373.61	86.88
373.835	83.88
374.061	71.88
374.287	84.88
374.513	96.88
374.739	91.88
374.965	86.88
375.191	82.88
375.416	71.88
375.642	67.88
375.868	86.88
376.094	76.88
376.319	88.88
376.545	78.88
376.771	80.88
376.997	88.88
377.222	97.88
377.448	96.88
377.674	93.88
377.899	110.88
378.125	96.88
378.35	94.88
378.576	78.88
378.802	85.88
379.027	96.88
379.253	94.88
379.478	78.88
379.704	83.88
379.929	83.88
380.155	91.88
380.38	85.88
380.606	84.88
380.831	92.88
381.057	98.88
381.282	81.88
381.507	93.88
381.733	88.88
381.958	94.88
382.184	93.88
382.409	93.88
382.634	91.88
382.86	100.88
383.085	87.88
383.31	94.88
383.535	101.88
383.761	90.88
383.986	87.88
384.211	93.88
384.436	83.88
384.662	85.88
384.887	99.88
385.112	77.88
385.337	82.88
385.562	82.88
385.787	84.88
386.013	89.88
386.238	87.88
386.463	90.88
386.688	84.88
386.913	82.88
387.138	78.88
387.363	98.88
387.588	91.88
387.813	100.88
388.038	86.88
388.263	94.88
388.488	92.88
388.713	85.88
388.938	101.88
389.163	83.88
389.387	82.88
389.612	78.88
389.837	89.88
390.062	85.88
390.287	87.88
390.512	84.88
390.736	94.88
390.961	92.88
391.186	82.88
391.411	97.88
391.636	103.88
391.86	89.88
392.085	84.88
392.31	89.88
392.534	98.88
392.759	99.88
392.984	103.88
393.208	94.88
393.433	91.88
393.658	82.88
393.882	94.88
394.107	91.88
394.331	91.88
394.556	98.88
394.78	79.88
395.005	97.88
395.229	89.88
395.454	82.88
395.678	87.88
395.903	89.88
396.127	73.88
396.352	93.88
396.576	90.88
396.801	90.88
397.025	93.88
397.249	83.88
397.474	89.88
397.698	72.88
397.922	83.88
398.147	89.88
398.371	90.88
398.595	87.88
398.82	92.88
399.044	100.88
399.268	86.88
399.492	85.88
399.717	98.88
399.941	77.88
400.165	86.88
400.389	88.88
400.613	102.88
400.837	97.88
401.062	100.88
401.286	97.88
401.51	84.88
401.734	91.88
401.958	77.88
402.182	90.88
402.406	86.88
402.63	96.88
402.854	88.88
403.078	92.88
403.302	99.88
403.526	108.88
403.75	105.88
403.974	98.88
404.198	83.88
404.422	101.88
404.645	87.88
404.869	101.88
405.093	98.88
405.317	96.88
405.541	91.88
405.765	88.88
405.988	100.88
406.212	95.88
406.436	93.88
406.66	102.88
406.883	101.88
407.107	99.88
407.331	98.88
407.555	102.88
407.778	88.88
408.002	95.88
408.226	93.88
408.449	99.88
408.673	87.88
408.896	96.88
409.12	112.88
409.344	108.88
409.567	83.88
409.791	87.88
410.014	95.88
410.238	100.88
410.461	89.88
410.685	96.88
410.908	100.88
411.132	105.88
411.355	105.88
411.578	85.88
411.802	98.88
412.025	89.88
412.249	94.88
412.472	102.88
412.695	93.88
412.919	108.88
413.142	103.88
413.365	105.88
413.589	88.88
413.812	93.88
414.035	94.88
414.258	105.88
414.482	121.88
414.705	103.88
414.928	100.88
415.151	98.88
415.374	119.88
415.597	89.88
415.821	101.88
416.044	98.88
416.267	105.88
416.49	110.88
416.713	114.88
416.936	104.88
417.159	104.88
417.382	102.88
417.605	107.88
417.828	101.88
418.051	83.88
418.274	105.88
418.497	102.88
418.72	99.88
418.943	98.88
419.166	86.88
419.389	109.88
419.611	92.88
419.834	96.88
420.057	106.88
420.28	99.88
420.503	106.88
420.726	113.88
420.948	89.88
421.171	107.88
421.394	104.88
421.617	110.88
421.839	105.88
422.062	106.88
422.285	100.88
422.507	97.88
422.73	102.88
422.953	105.88
423.175	98.88
423.398	102.88
423.621	99.88
423.843	99.88
424.066	101.88
424.288	103.88
424.511	120.88
424.733	98.88
424.956	105.88
425.178	93.88
425.401	93.88
425.623	101.88
425.846	100.88
426.068	93.88
426.291	99.88
426.513	99.88
426.735	84.88
426.958	110.88
427.18	99.88
427.402	103.88
427.625	103.88
427.847	109.88
428.069	103.88
428.292	106.88
428.514	110.88
428.736	104.88
428.958	99.88
429.181	106.88
429.403	111.88
429.625	92.88
429.847	101.88
430.069	102.88
430.292	119.88
430.514	115.88
430.736	98.88
430.958	102.88
431.18	77.88
431.402	89.88
431.624	105.88
431.846	92.88
432.068	89.88
432.29	100.88
432.512	95.88
432.734	101.88
432.956	94.88
433.178	113.88
433.4	108.88
433.622	99.88
433.844	101.88
434.066	94.88
434.287	100.88
434.509	78.88
434.731	110.88
434.953	103.88
435.175	109.88
435.397	112.88
435.618	92.88
435.84	87.88
436.062	108.88
436.284	104.88
436.505	102.88
436.727	101.88
436.949	99.88
437.17	99.88
437.392	104.88
437.614	99.88
437.835	97.88
438.057	89.88
438.278	99.88
438.5	99.88
438.721	112.88
438.943	101.88
439.165	102.88
439.386	104.88
439.608	104.88
439.829	114.88
440.05	112.88
440.272	114.88
440.493	117.88
440.715	101.88
440.936	110.88
441.158	95.88
441.379	110.88
441.6	106.88
441.822	89.88
442.043	122.88
442.264	115.88
442.486	120.88
442.707	115.88
442.928	91.88
443.149	98.88
443.371	109.88
443.592	97.88
443.813	100.88
444.034	107.88
444.255	123.88
444.476	116.88
444.698	100.88
444.919	94.88
445.14	225.88
445.361	156.88
445.582	123.88
445.803	121.88
446.024	103.88
446.245	119.88
446.466	120.88
446.687	121.88
446.908	101.88
447.129	108.88
447.35	113.88
447.571	114.88
447.792	101.88
448.013	109.88
448.234	107.88
448.455	119.88
448.675	106.88
448.896	92.88
449.117	109.88
449.338	118.88
449.559	102.88
449.779	114.88
450	112.88
450.221	105.88
450.442	98.88
450.662	99.88
450.883	110.88
451.104	99.88
451.324	108.88
451.545	112.88
451.766	113.88
451.986	100.88
452.207	100.88
452.428	101.88
452.648	80.88
452.869	104.88
453.089	102.88
453.31	91.88
453.53	98.88
453.751	84.88
453.971	86.88
454.192	101.88
454.412	88.88
454.633	98.88
454.853	101.88
455.073	106.88
455.294	96.88
455.514	97.88
455.734	104.88
455.955	84.88
456.175	95.88
456.395	91.88
456.616	104.88
456.836	84.88
457.056	87.88
457.276	100.88
457.497	107.88
457.717	82.88
457.937	87.88
458.157	69.88
458.377	96.88
458.598	85.88
458.818	98.88
459.038	84.88
459.258	84.88
459.478	90.88
459.698	83.88
459.918	84.88
460.138	96.88
460.358	100.88
460.578	94.88
460.798	97.88
461.018	93.88
461.238	102.88
461.458	94.88
461.678	104.88
461.898	108.88
462.118	106.88
462.338	90.88
462.558	93.88
462.777	105.88
462.997	102.88
463.217	90.88
463.437	101.88
463.657	100.88
463.876	94.88
464.096	102.88
464.316	99.88
464.536	105.88
464.755	102.88
464.975	89.88
465.195	116.88
465.414	89.88
465.634	78.88
465.854	87.88
466.073	97.88
466.293	110.88
466.512	101.88
466.732	104.88
466.951	98.88
467.171	108.88
467.391	104.88
467.61	103.88
467.829	112.88
468.049	116.88
468.268	105.88
468.488	105.88
468.707	113.88
468.927	113.88
469.146	109.88
469.365	104.88
469.585	104.88
469.804	86.88
470.023	104.88
470.243	124.88
470.462	108.88
470.681	103.88
470.901	103.88
471.12	105.88
471.339	99.88
471.558	107.88
471.777	114.88
471.997	108.88
472.216	118.88
472.435	102.88
472.654	86.88
472.873	92.88
473.092	106.88
473.311	110.88
473.53	107.88
473.749	99.88
473.968	122.88
474.187	99.88
474.406	104.88
474.625	112.88
474.844	97.88
475.063	99.88
475.282	107.88
475.501	87.88
475.72	105.88
475.939	100.88
476.158	104.88
476.377	102.88
476.596	99.88
476.814	82.88
477.033	105.88
477.252	104.88
477.471	105.88
477.69	107.88
477.908	104.88
478.127	92.88
478.346	104.88
478.564	100.88
478.783	100.88
479.002	95.88
479.22	104.88
479.439	104.88
479.658	106.88
479.876	92.88
480.095	104.88
480.313	98.88
480.532	99.88
480.751	77.88
480.969	79.88
481.188	94.88
481.406	87.88
481.624	79.88
481.843	88.88
482.061	80.88
482.28	93.88
482.498	106.88
482.717	92.88
482.935	100.88
483.153	113.88
483.372	112.88
483.59	114.88
483.808	121.88
484.027	114.88
484.245	98.88
484.463	115.88
484.681	111.88
484.9	107.88
485.118	114.88
485.336	104.88
485.554	103.88
485.772	82.88
485.99	89.88
486.209	102.88
486.427	95.88
486.645	98.88
486.863	104.88
487.081	106.88
487.299	96.88
487.517	107.88
487.735	124.88
487.953	150.88
488.171	132.88
488.389	116.88
488.607	142.88
488.825	115.88
489.043	115.88
489.261	116.88
489.479	108.88
489.696	105.88
489.914	110.88
490.132	103.88
490.35	114.88
490.568	128.88
490.786	140.88
491.003	125.88
491.221	114.88
491.439	134.88
491.657	121.88
491.874	141.88
492.092	153.88
492.31	130.88
492.527	134.88
492.745	133.88
492.963	143.88
493.18	139.88
493.398	124.88
493.615	134.88
493.833	121.88
494.05	125.88
494.268	128.88
494.485	124.88
494.703	120.88
494.92	118.88
495.138	117.88
495.355	123.88
495.573	133.88
495.79	126.88
496.008	132.88
496.225	122.88
496.442	125.88
496.66	116.88
496.877	120.88
497.094	123.88
497.312	119.88
497.529	124.88
497.746	110.88
497.963	109.88
498.181	120.88
498.398	100.88
498.615	106.88
498.832	110.88
499.049	118.88
499.267	84.88
499.484	97.88
499.701	96.88
499.918	122.88
500.135	121.88
500.352	112.88
500.569	106.88
500.786	115.88
501.003	105.88
501.22	124.88
501.437	114.88
501.654	107.88
501.871	114.88
502.088	105.88
502.305	116.88
502.522	110.88
502.739	99.88
502.956	94.88
503.172	97.88
503.389	105.88
503.606	99.88
503.823	94.88
504.04	109.88
504.256	112.88
504.473	99.88
504.69	83.88
504.907	117.88
505.123	106.88
505.34	99.88
505.557	101.88
505.773	108.88
505.99	103.88
506.207	103.88
506.423	109.88
506.64	110.88
506.856	113.88
507.073	102.88
507.289	102.88
507.506	106.88
507.722	102.88
507.939	102.88
508.155	93.88
508.372	103.88
508.588	113.88
508.805	100.88
509.021	89.88
509.238	86.88
509.454	101.88
509.67	102.88
509.887	93.88
510.103	91.88
510.319	94.88
510.536	82.88
510.752	87.88
510.968	93.88
511.184	78.88
511.401	72.88
511.617	83.88
511.833	83.88
512.049	82.88
512.265	95.88
512.481	97.88
512.698	85.88
512.914	88.88
513.13	77.88
513.346	90.88
513.562	81.88
513.778	89.88
513.994	83.88
514.21	82.88
514.426	78.88
514.642	75.88
514.858	85.88
515.074	96.88
515.29	96.88
515.506	90.88
515.721	78.88
515.937	81.88
516.153	82.88
516.369	72.88
516.585	78.88
516.801	88.88
517.016	66.88
517.232	78.88
517.448	97.88
517.664	83.88
517.879	88.88
518.095	95.88
518.311	95.88
518.527	88.88
518.742	98.88
518.958	87.88
519.173	100.88
519.389	101.88
519.605	89.88
519.82	91.88
520.036	100.88
520.251	90.88
520.467	92.88
520.682	91.88
520.898	101.88
521.113	85.88
521.329	80.88
521.544	76.88
521.76	94.88
521.975	98.88
522.19	95.88
522.406	94.88
522.621	92.88
522.836	107.88
523.052	85.88
523.267	85.88
523.482	96.88
523.698	97.88
523.913	94.88
524.128	94.88
524.343	97.88
524.559	106.88
524.774	102.88
524.989	103.88
525.204	94.88
525.419	88.88
525.634	99.88
525.849	88.88
526.064	101.88
526.28	94.88
526.495	94.88
526.71	91.88
526.925	81.88
527.14	86.88
527.355	69.88
527.57	85.88
527.785	76.88
527.999	79.88
528.214	102.88
528.429	86.88
528.644	104.88
528.859	100.88
529.074	108.88
529.289	126.88
529.503	122.88
529.718	121.88
529.933	99.88
530.148	92.88
530.363	79.88
530.577	76.88
530.792	101.88
531.007	81.88
531.221	94.88
531.436	73.88
531.651	87.88
531.865	80.88
532.08	93.88
532.295	93.88
532.509	83.88
532.724	82.88
532.938	80.88
533.153	93.88
533.367	92.88
533.582	100.88
533.796	108.88
534.011	89.88
534.225	94.88
534.44	96.88
534.654	93.88
534.868	83.88
535.083	98.88
535.297	88.88
535.511	107.88
535.726	102.88
535.94	92.88
536.154	102.88
536.369	88.88
536.583	82.88
536.797	82.88
537.011	79.88
537.225	87.88
537.44	84.88
537.654	75.88
537.868	85.88
538.082	77.88
538.296	79.88
538.51	101.88
538.724	101.88
538.938	101.88
539.153	87.88
539.367	94.88
539.581	113.88
539.795	99.88
540.009	68.88
540.222	90.88
540.436	97.88
540.65	87.88
540.864	102.88
541.078	99.88
541.292	109.88
541.506	120.88
541.72	125.88
541.934	126.88
542.147	144.88
542.361	138.88
542.575	134.88
542.789	121.88
543.002	118.88
543.216	103.88
543.43	105.88
543.644	97.88
543.857	122.88
544.071	128.88
544.285	126.88
544.498	110.88
544.712	126.88
544.925	118.88
545.139	116.88
545.352	108.88
545.566	102.88
545.779	118.88
545.993	117.88
546.206	119.88
546.42	124.88
546.633	119.88
546.847	115.88
547.06	124.88
547.274	123.88
547.487	133.88
547.7	129.88
547.914	127.88
548.127	112.88
548.34	121.88
548.554	127.88
548.767	115.88
548.98	127.88
549.193	109.88
549.407	122.88
549.62	117.88
549.833	120.88
550.046	113.88
550.259	118.88
550.473	120.88
550.686	111.88
550.899	114.88
551.112	115.88
551.325	129.88
551.538	108.88
551.751	114.88
551.964	103.88
552.177	107.88
552.39	107.88
552.603	124.88
552.816	118.88
553.029	109.88
553.242	120.88
553.455	119.88
553.667	122.88
553.88	129.88
554.093	110.88
554.306	120.88
554.519	127.88
554.732	120.88
554.944	128.88
555.157	120.88
555.37	119.88
555.583	96.88
555.795	108.88
556.008	113.88
556.221	107.88
556.433	114.88
556.646	110.88
556.859	106.88
557.071	109.88
557.284	112.88
557.496	109.88
557.709	105.88
557.921	117.88
558.134	106.88
558.346	112.88
558.559	116.88
558.771	105.88
558.984	113.88
559.196	99.88
559.409	93.88
559.621	94.88
559.833	107.88
560.046	108.88
560.258	103.88
560.47	103.88
560.683	95.88
560.895	85.88
561.107	103.88
561.32	104.88
561.532	102.88
561.744	112.88
561.956	112.88
562.168	105.88
562.381	118.88
562.593	100.88
562.805	112.88
563.017	101.88
563.229	117.88
563.441	92.88
563.653	101.88
563.865	106.88
564.077	86.88
564.289	87.88
564.501	111.88
564.713	115.88
564.925	101.88
565.137	109.88
565.349	104.88
565.561	103.88
565.773	107.88
565.985	93.88
566.197	91.88
566.408	92.88
566.62	91.88
566.832	107.88
567.044	98.88
567.255	107.88
567.467	100.88
567.679	82.88
567.891	97.88
568.102	89.88
568.314	92.88
568.526	82.88
568.737	89.88
568.949	91.88
569.161	70.88
569.372	82.88
569.584	96.88
569.795	83.88
570.007	93.88
570.218	95.88
570.43	76.88
570.641	71.88
570.853	89.88
571.064	91.88
571.276	97.88
571.487	89.88
571.698	108.88
571.91	89.88
572.121	90.88
572.333	89.88
572.544	87.88
572.755	96.88
572.966	74.88
573.178	93.88
573.389	71.88
573.6	80.88
573.811	66.88
574.023	89.88
574.234	76.88
574.445	97.88
574.656	90.88
574.867	93.88
575.078	88.88
575.289	97.88
575.501	93.88
575.712	94.88
575.923	75.88
576.134	91.88
576.345	84.88
576.556	109.88
576.767	88.88
576.978	97.88
577.188	101.88
577.399	96.88
577.61	79.88
577.821	94.88
578.032	92.88
578.243	85.88
578.454	98.88
578.665	76.88
578.875	90.88
579.086	75.88
579.297	97.88
579.508	82.88
579.718	73.88
579.929	76.88
580.14	75.88
580.35	89.88
580.561	86.88
580.772	79.88
580.982	85.88
581.193	82.88
581.403	84.88
581.614	70.88
581.825	83.88
582.035	99.88
582.246	95.88
582.456	93.88
582.667	80.88
582.877	86.88
583.087	84.88
583.298	82.88
583.508	82.88
583.719	83.88
583.929	73.88
584.139	79.88
584.35	86.88
584.56	99.88
584.77	78.88
584.981	83.88
585.191	66.88
585.401	78.88
585.611	82.88
585.821	89.88
586.032	91.88
586.242	90.88
586.452	83.88
586.662	78.88
586.872	81.88
587.082	72.88
587.292	79.88
587.502	84.88
587.713	89.88
587.923	76.88
588.133	82.88
588.343	92.88
588.553	84.88
588.762	93.88
588.972	73.88
589.182	82.88
589.392	84.88
589.602	88.88
589.812	88.88
590.022	98.88
590.232	73.88
590.441	88.88
590.651	78.88
590.861	77.88
591.071	73.88
591.281	86.88
591.49	98.88
591.7	92.88
591.91	87.88
592.119	88.88
592.329	78.88
592.539	89.88
592.748	71.88
592.958	90.88
593.167	108.88
593.377	88.88
593.587	99.88
593.796	87.88
594.006	94.88
594.215	81.88
594.424	80.88
594.634	90.88
594.843	84.88
595.053	77.88
595.262	86.88
595.472	82.88
595.681	89.88
595.89	92.88
596.1	67.88
596.309	84.88
596.518	82.88
596.727	90.88
596.937	84.88
597.146	96.88
597.355	100.88
597.564	88.88
597.774	91.88
597.983	83.88
598.192	85.88
598.401	82.88
598.61	78.88
598.819	95.88
599.028	89.88
599.237	76.88
599.446	91.88
599.655	91.88
599.864	99.88
600.073	93.88
600.282	85.88
600.491	92.88
600.7	98.88
600.909	92.88
601.118	84.88
601.327	89.88
601.536	110.88
601.745	99.88
601.953	96.88
602.162	98.88
602.371	90.88
602.58	100.88
602.789	90.88
602.997	98.88
603.206	100.88
603.415	94.88
603.623	94.88
603.832	98.88
604.041	100.88
604.249	104.88
604.458	95.88
604.666	88.88
604.875	82.88
605.084	95.88
605.292	88.88
605.501	98.88
605.709	98.88
605.918	103.88
606.126	87.88
606.334	102.88
606.543	94.88
606.751	102.88
606.96	99.88
607.168	91.88
607.376	113.88
607.585	104.88
607.793	98.88
608.001	91.88
608.21	91.88
608.418	97.88
608.626	91.88
608.834	98.88
609.043	85.88
609.251	99.88
609.459	106.88
609.667	100.88
609.875	107.88
610.083	90.88
610.291	98.88
610.499	104.88
610.707	114.88
610.916	103.88
611.124	85.88
611.332	91.88
611.54	113.88
611.748	95.88
611.955	97.88
612.163	91.88
612.371	102.88
612.579	91.88
612.787	88.88
612.995	100.88
613.203	109.88
613.411	99.88
613.618	100.88
613.826	97.88
614.034	93.88
614.242	86.88
614.449	90.88
614.657	94.88
614.865	100.88
615.072	92.88
615.28	112.88
615.488	95.88
615.695	104.88
615.903	95.88
616.111	84.88
616.318	116.88
616.526	97.88
616.733	75.88
616.941	94.88
617.148	97.88
617.356	96.88
617.563	102.88
617.771	78.88
617.978	79.88
618.185	97.88
618.393	84.88
618.6	95.88
618.807	90.88
619.015	93.88
619.222	88.88
619.429	82.88
619.637	92.88
619.844	90.88
620.051	89.88
620.258	93.88
620.466	84.88
620.673	91.88
620.88	108.88
621.087	97.88
621.294	110.88
621.501	78.88
621.708	92.88
621.915	92.88
622.122	102.88
622.329	90.88
622.536	100.88
622.743	102.88
622.95	99.88
623.157	91.88
623.364	94.88
623.571	85.88
623.778	88.88
623.985	88.88
624.192	109.88
624.399	101.88
624.606	102.88
624.812	97.88
625.019	92.88
625.226	88.88
625.433	91.88
625.639	76.88
625.846	92.88
626.053	85.88
626.259	87.88
626.466	88.88
626.673	78.88
626.879	104.88
627.086	107.88
627.293	90.88
627.499	93.88
627.706	94.88
627.912	99.88
628.119	91.88
628.325	115.88
628.532	85.88
628.738	97.88
628.945	87.88
629.151	81.88
629.357	98.88
629.564	93.88
629.77	104.88
629.976	83.88
630.183	93.88
630.389	101.88
630.595	90.88
630.802	96.88
631.008	114.88
631.214	101.88
631.42	94.88
631.627	83.88
631.833	90.88
632.039	86.88
632.245	91.88
632.451	81.88
632.657	88.88
632.863	86.88
633.069	93.88
633.275	91.88
633.481	85.88
633.688	96.88
633.893	82.88
634.099	84.88
634.305	98.88
634.511	83.88
634.717	93.88
634.923	84.88
635.129	97.88
635.335	86.88
635.541	91.88
635.747	87.88
635.952	91.88
636.158	99.88
636.364	107.88
636.57	93.88
636.775	89.88
636.981	102.88
637.187	85.88
637.392	96.88
637.598	95.88
637.804	93.88
638.009	98.88
638.215	92.88
638.421	86.88
638.626	88.88
638.832	110.88
639.037	99.88
639.243	84.88
639.448	91.88
639.654	104.88
639.859	97.88
640.065	87.88
640.27	87.88
640.475	76.88
640.681	100.88
640.886	83.88
641.091	75.88
641.297	94.88
641.502	84.88
641.707	93.88
641.913	93.88
642.118	83.88
642.323	106.88
642.528	99.88
642.733	95.88
642.939	85.88
643.144	90.88
643.349	90.88
643.554	97.88
643.759	88.88
643.964	100.88
644.169	89.88
644.374	84.88
644.579	91.88
644.784	87.88
644.989	98.88
645.194	88.88
645.399	85.88
645.604	74.88
645.809	90.88
646.014	104.88
646.219	89.88
646.423	93.88
646.628	83.88
646.833	100.88
647.038	74.88
647.243	101.88
647.447	90.88
647.652	103.88
647.857	65.88
648.062	89.88
648.266	78.88
648.471	96.88
648.676	107.88
648.88	90.88
649.085	92.88
649.289	92.88
649.494	89.88
649.698	85.88
649.903	89.88
650.107	104.88
650.312	95.88
650.516	92.88
650.721	91.88
650.925	96.88
651.13	90.88
651.334	86.88
651.539	86.88
651.743	95.88
651.947	81.88
652.152	82.88
652.356	82.88
652.56	82.88
652.764	93.88
652.969	84.88
653.173	83.88
653.377	74.88
653.581	82.88
653.785	82.88
653.99	80.88
654.194	100.88
654.398	100.88
654.602	93.88
654.806	97.88
655.01	107.88
655.214	77.88
655.418	86.88
655.622	83.88
655.826	89.88
656.03	99.88
656.234	110.88
656.438	85.88
656.642	89.88
656.846	94.88
657.049	81.88
657.253	90.88
657.457	86.88
657.661	84.88
657.865	88.88
658.068	75.88
658.272	90.88
658.476	101.88
658.68	81.88
658.883	73.88
659.087	85.88
659.291	70.88
659.494	87.88
659.698	82.88
659.901	68.88
660.105	84.88
660.309	82.88
660.512	79.88
660.716	91.88
660.919	81.88
661.123	73.88
661.326	84.88
661.53	77.88
661.733	75.88
661.936	75.88
662.14	84.88
662.343	89.88
662.546	97.88
662.75	82.88
662.953	77.88
663.156	84.88
663.36	91.88
663.563	72.88
663.766	89.88
663.969	66.88
664.173	89.88
664.376	92.88
664.579	89.88
664.782	90.88
664.985	88.88
665.188	80.88
665.391	97.88
665.594	74.88
665.797	92.88
666	77.88
666.203	79.88
666.406	84.88
666.609	82.88
666.812	100.88
667.015	84.88
667.218	85.88
667.421	86.88
667.624	81.88
667.827	99.88
668.03	81.88
668.232	85.88
668.435	91.88
668.638	77.88
668.841	88.88
669.043	79.88
669.246	70.88
669.449	81.88
669.651	91.88
669.854	85.88
670.057	83.88
670.259	89.88
670.462	89.88
670.665	88.88
670.867	77.88
671.07	78.88
671.272	88.88
671.475	88.88
671.677	85.88
671.88	76.88
672.082	96.88
672.284	86.88
672.487	76.88
672.689	93.88
672.892	84.88
