Data from Zn(NO3)2Standard.Agarose3%.GreenCap.LampEnergy10E.O_HRD10591_15-06-56-942.txt Node
Date: Mon Jul 22 15:06:56 EDT 2019
User: cochatt
Spectrometer: HR+D1059
Trigger mode: 1
Integration Time (sec): 1.000000E-1
Scans to average: 1
Electric dark correction enabled: true
Nonlinearity correction enabled: false
Boxcar width: 0
XAxis mode: Wavelengths
Number of Pixels in Spectrum: 2048
>>>>>Begin Spectral Data<<<<<
223.165	-11.62
223.4	-11.62
223.635	-11.62
223.869	-13.62
224.104	-9.62
224.338	-18.62
224.573	-10.62
224.808	-19.62
225.042	2.38
225.277	-16.62
225.511	4.38
225.746	-7.62
225.98	-2.62
226.215	16.38
226.449	14.38
226.683	20.38
226.918	20.38
227.152	32.38
227.387	30.38
227.621	42.38
227.856	52.38
228.09	57.38
228.324	42.38
228.559	61.38
228.793	71.38
229.027	61.38
229.262	68.38
229.496	74.38
229.73	75.38
229.964	82.38
230.199	88.38
230.433	75.38
230.667	78.38
230.901	80.38
231.136	78.38
231.37	70.38
231.604	77.38
231.838	78.38
232.072	90.38
232.306	87.38
232.541	83.38
232.775	101.38
233.009	80.38
233.243	79.38
233.477	74.38
233.711	74.38
233.945	79.38
234.179	80.38
234.413	95.38
234.647	84.38
234.881	91.38
235.115	84.38
235.349	83.38
235.583	91.38
235.817	78.38
236.051	67.38
236.285	95.38
236.519	76.38
236.753	75.38
236.987	86.38
237.221	86.38
237.455	97.38
237.689	85.38
237.922	70.38
238.156	70.38
238.39	83.38
238.624	86.38
238.858	79.38
239.091	70.38
239.325	81.38
239.559	68.38
239.793	73.38
240.027	80.38
240.26	70.38
240.494	82.38
240.728	82.38
240.961	79.38
241.195	78.38
241.429	86.38
241.662	71.38
241.896	80.38
242.13	78.38
242.363	83.38
242.597	77.38
242.83	80.38
243.064	89.38
243.298	74.38
243.531	71.38
243.765	78.38
243.998	79.38
244.232	82.38
244.465	88.38
244.699	89.38
244.932	91.38
245.166	74.38
245.399	83.38
245.633	87.38
245.866	74.38
246.099	80.38
246.333	81.38
246.566	64.38
246.8	80.38
247.033	76.38
247.266	75.38
247.5	72.38
247.733	72.38
247.966	89.38
248.2	66.38
248.433	71.38
248.666	80.38
248.899	70.38
249.133	75.38
249.366	78.38
249.599	69.38
249.832	66.38
250.066	90.38
250.299	73.38
250.532	89.38
250.765	80.38
250.998	79.38
251.231	85.38
251.465	80.38
251.698	70.38
251.931	75.38
252.164	80.38
252.397	87.38
252.63	95.38
252.863	64.38
253.096	77.38
253.329	86.38
253.562	90.38
253.795	74.38
254.028	84.38
254.261	85.38
254.494	78.38
254.727	97.38
254.96	81.38
255.193	78.38
255.426	72.38
255.659	78.38
255.892	84.38
256.124	83.38
256.357	86.38
256.59	85.38
256.823	85.38
257.056	81.38
257.289	88.38
257.521	93.38
257.754	74.38
257.987	77.38
258.22	80.38
258.452	89.38
258.685	81.38
258.918	87.38
259.151	75.38
259.383	95.38
259.616	89.38
259.849	82.38
260.081	92.38
260.314	78.38
260.547	83.38
260.779	85.38
261.012	76.38
261.244	76.38
261.477	91.38
261.71	90.38
261.942	92.38
262.175	91.38
262.407	87.38
262.64	83.38
262.872	68.38
263.105	72.38
263.337	90.38
263.57	86.38
263.802	78.38
264.035	76.38
264.267	80.38
264.499	86.38
264.732	85.38
264.964	89.38
265.197	73.38
265.429	92.38
265.661	93.38
265.894	80.38
266.126	90.38
266.358	88.38
266.591	90.38
266.823	79.38
267.055	80.38
267.287	72.38
267.52	85.38
267.752	89.38
267.984	86.38
268.216	92.38
268.448	93.38
268.681	77.38
268.913	97.38
269.145	105.38
269.377	85.38
269.609	94.38
269.841	91.38
270.073	75.38
270.306	84.38
270.538	79.38
270.77	86.38
271.002	98.38
271.234	84.38
271.466	77.38
271.698	82.38
271.93	92.38
272.162	86.38
272.394	85.38
272.626	90.38
272.858	90.38
273.09	80.38
273.322	73.38
273.553	82.38
273.785	84.38
274.017	88.38
274.249	80.38
274.481	76.38
274.713	82.38
274.945	82.38
275.176	95.38
275.408	73.38
275.64	90.38
275.872	106.38
276.104	99.38
276.335	96.38
276.567	87.38
276.799	72.38
277.031	84.38
277.262	87.38
277.494	97.38
277.726	86.38
277.957	92.38
278.189	87.38
278.421	92.38
278.652	93.38
278.884	75.38
279.115	84.38
279.347	85.38
279.579	86.38
279.81	90.38
280.042	91.38
280.273	86.38
280.505	90.38
280.736	86.38
280.968	92.38
281.199	80.38
281.431	95.38
281.662	87.38
281.894	92.38
282.125	90.38
282.356	83.38
282.588	69.38
282.819	70.38
283.051	88.38
283.282	88.38
283.513	90.38
283.745	93.38
283.976	91.38
284.207	95.38
284.439	79.38
284.67	75.38
284.901	90.38
285.132	91.38
285.364	91.38
285.595	76.38
285.826	90.38
286.057	70.38
286.288	86.38
286.52	99.38
286.751	93.38
286.982	74.38
287.213	76.38
287.444	100.38
287.675	94.38
287.906	91.38
288.138	88.38
288.369	96.38
288.6	90.38
288.831	87.38
289.062	90.38
289.293	79.38
289.524	82.38
289.755	84.38
289.986	93.38
290.217	84.38
290.448	95.38
290.679	108.38
290.91	84.38
291.141	95.38
291.371	91.38
291.602	87.38
291.833	93.38
292.064	101.38
292.295	86.38
292.526	90.38
292.757	79.38
292.987	91.38
293.218	92.38
293.449	105.38
293.68	96.38
293.91	83.38
294.141	95.38
294.372	95.38
294.603	95.38
294.833	76.38
295.064	89.38
295.295	77.38
295.525	79.38
295.756	79.38
295.987	75.38
296.217	74.38
296.448	103.38
296.679	102.38
296.909	99.38
297.14	86.38
297.37	87.38
297.601	72.38
297.831	85.38
298.062	80.38
298.292	82.38
298.523	92.38
298.753	95.38
298.984	84.38
299.214	77.38
299.445	94.38
299.675	95.38
299.905	92.38
300.136	79.38
300.366	93.38
300.597	87.38
300.827	96.38
301.057	100.38
301.288	87.38
301.518	86.38
301.748	75.38
301.979	84.38
302.209	88.38
302.439	81.38
302.669	88.38
302.9	83.38
303.13	86.38
303.36	77.38
303.59	96.38
303.82	95.38
304.051	89.38
304.281	91.38
304.511	100.38
304.741	93.38
304.971	80.38
305.201	90.38
305.431	85.38
305.661	82.38
305.891	86.38
306.121	84.38
306.352	87.38
306.582	88.38
306.812	97.38
307.042	88.38
307.272	74.38
307.502	87.38
307.731	91.38
307.961	87.38
308.191	82.38
308.421	85.38
308.651	80.38
308.881	83.38
309.111	98.38
309.341	78.38
309.571	100.38
309.8	79.38
310.03	79.38
310.26	80.38
310.49	75.38
310.72	81.38
310.949	88.38
311.179	93.38
311.409	92.38
311.639	87.38
311.868	89.38
312.098	114.38
312.328	102.38
312.557	87.38
312.787	72.38
313.017	97.38
313.246	95.38
313.476	98.38
313.706	102.38
313.935	67.38
314.165	95.38
314.394	91.38
314.624	93.38
314.853	90.38
315.083	74.38
315.312	81.38
315.542	73.38
315.771	89.38
316.001	107.38
316.23	103.38
316.46	82.38
316.689	82.38
316.919	96.38
317.148	94.38
317.377	86.38
317.607	93.38
317.836	91.38
318.065	72.38
318.295	82.38
318.524	84.38
318.753	88.38
318.983	80.38
319.212	88.38
319.441	85.38
319.67	99.38
319.9	89.38
320.129	74.38
320.358	86.38
320.587	89.38
320.816	87.38
321.046	86.38
321.275	99.38
321.504	91.38
321.733	83.38
321.962	92.38
322.191	87.38
322.42	82.38
322.649	96.38
322.878	93.38
323.108	89.38
323.337	92.38
323.566	85.38
323.795	87.38
324.024	87.38
324.253	81.38
324.482	80.38
324.71	79.38
324.939	93.38
325.168	76.38
325.397	79.38
325.626	86.38
325.855	86.38
326.084	86.38
326.313	66.38
326.542	76.38
326.77	79.38
326.999	86.38
327.228	85.38
327.457	83.38
327.686	82.38
327.914	76.38
328.143	87.38
328.372	82.38
328.6	97.38
328.829	92.38
329.058	99.38
329.287	77.38
329.515	92.38
329.744	82.38
329.972	87.38
330.201	106.38
330.43	77.38
330.658	84.38
330.887	74.38
331.115	94.38
331.344	92.38
331.572	86.38
331.801	100.38
332.03	84.38
332.258	90.38
332.486	79.38
332.715	76.38
332.943	74.38
333.172	87.38
333.4	92.38
333.629	87.38
333.857	74.38
334.085	83.38
334.314	82.38
334.542	84.38
334.771	86.38
334.999	91.38
335.227	86.38
335.455	88.38
335.684	90.38
335.912	87.38
336.14	63.38
336.369	90.38
336.597	89.38
336.825	77.38
337.053	87.38
337.281	97.38
337.51	95.38
337.738	84.38
337.966	87.38
338.194	90.38
338.422	86.38
338.65	95.38
338.878	76.38
339.106	103.38
339.334	97.38
339.562	82.38
339.79	95.38
340.018	84.38
340.246	67.38
340.474	83.38
340.702	63.38
340.93	90.38
341.158	67.38
341.386	78.38
341.614	93.38
341.842	80.38
342.07	81.38
342.298	83.38
342.526	91.38
342.754	88.38
342.981	98.38
343.209	76.38
343.437	96.38
343.665	77.38
343.893	83.38
344.12	77.38
344.348	78.38
344.576	91.38
344.804	85.38
345.031	80.38
345.259	80.38
345.487	79.38
345.714	82.38
345.942	91.38
346.17	106.38
346.397	94.38
346.625	80.38
346.853	82.38
347.08	80.38
347.308	73.38
347.535	78.38
347.763	80.38
347.99	95.38
348.218	94.38
348.445	91.38
348.673	88.38
348.9	88.38
349.128	94.38
349.355	85.38
349.583	91.38
349.81	89.38
350.037	95.38
350.265	98.38
350.492	83.38
350.72	88.38
350.947	94.38
351.174	92.38
351.402	76.38
351.629	86.38
351.856	78.38
352.083	84.38
352.311	102.38
352.538	78.38
352.765	73.38
352.992	88.38
353.22	100.38
353.447	89.38
353.674	86.38
353.901	86.38
354.128	80.38
354.355	87.38
354.583	72.38
354.81	82.38
355.037	77.38
355.264	86.38
355.491	91.38
355.718	84.38
355.945	88.38
356.172	80.38
356.399	89.38
356.626	77.38
356.853	80.38
357.08	74.38
357.307	98.38
357.534	79.38
357.761	91.38
357.988	84.38
358.215	87.38
358.441	92.38
358.668	87.38
358.895	91.38
359.122	77.38
359.349	81.38
359.576	80.38
359.802	92.38
360.029	93.38
360.256	83.38
360.483	94.38
360.709	90.38
360.936	93.38
361.163	78.38
361.39	88.38
361.616	79.38
361.843	80.38
362.07	90.38
362.296	79.38
362.523	84.38
362.749	86.38
362.976	83.38
363.203	92.38
363.429	96.38
363.656	95.38
363.882	77.38
364.109	82.38
364.335	75.38
364.562	86.38
364.788	89.38
365.015	85.38
365.241	72.38
365.468	93.38
365.694	88.38
365.92	94.38
366.147	87.38
366.373	85.38
366.599	89.38
366.826	81.38
367.052	92.38
367.278	87.38
367.505	89.38
367.731	93.38
367.957	88.38
368.184	79.38
368.41	80.38
368.636	83.38
368.862	94.38
369.089	86.38
369.315	75.38
369.541	90.38
369.767	86.38
369.993	87.38
370.219	86.38
370.445	82.38
370.672	81.38
370.898	78.38
371.124	103.38
371.35	97.38
371.576	91.38
371.802	73.38
372.028	88.38
372.254	75.38
372.48	83.38
372.706	85.38
372.932	84.38
373.158	100.38
373.384	97.38
373.61	93.38
373.835	85.38
374.061	82.38
374.287	97.38
374.513	88.38
374.739	86.38
374.965	88.38
375.191	97.38
375.416	93.38
375.642	101.38
375.868	83.38
376.094	85.38
376.319	95.38
376.545	87.38
376.771	91.38
376.997	89.38
377.222	95.38
377.448	97.38
377.674	100.38
377.899	88.38
378.125	80.38
378.35	90.38
378.576	66.38
378.802	80.38
379.027	83.38
379.253	99.38
379.478	82.38
379.704	85.38
379.929	96.38
380.155	98.38
380.38	81.38
380.606	83.38
380.831	95.38
381.057	95.38
381.282	91.38
381.507	92.38
381.733	86.38
381.958	82.38
382.184	92.38
382.409	87.38
382.634	88.38
382.86	79.38
383.085	101.38
383.31	94.38
383.535	90.38
383.761	84.38
383.986	89.38
384.211	84.38
384.436	102.38
384.662	94.38
384.887	100.38
385.112	90.38
385.337	96.38
385.562	94.38
385.787	87.38
386.013	88.38
386.238	82.38
386.463	86.38
386.688	91.38
386.913	85.38
387.138	91.38
387.363	100.38
387.588	87.38
387.813	102.38
388.038	94.38
388.263	105.38
388.488	93.38
388.713	90.38
388.938	94.38
389.163	78.38
389.387	87.38
389.612	90.38
389.837	89.38
390.062	97.38
390.287	86.38
390.512	101.38
390.736	70.38
390.961	88.38
391.186	83.38
391.411	77.38
391.636	94.38
391.86	98.38
392.085	78.38
392.31	107.38
392.534	91.38
392.759	79.38
392.984	94.38
393.208	104.38
393.433	98.38
393.658	84.38
393.882	94.38
394.107	82.38
394.331	94.38
394.556	76.38
394.78	95.38
395.005	96.38
395.229	91.38
395.454	102.38
395.678	95.38
395.903	83.38
396.127	95.38
396.352	95.38
396.576	92.38
396.801	90.38
397.025	100.38
397.249	104.38
397.474	91.38
397.698	85.38
397.922	103.38
398.147	101.38
398.371	94.38
398.595	101.38
398.82	95.38
399.044	99.38
399.268	90.38
399.492	90.38
399.717	102.38
399.941	92.38
400.165	100.38
400.389	100.38
400.613	94.38
400.837	92.38
401.062	102.38
401.286	95.38
401.51	93.38
401.734	100.38
401.958	98.38
402.182	101.38
402.406	93.38
402.63	104.38
402.854	99.38
403.078	87.38
403.302	88.38
403.526	91.38
403.75	88.38
403.974	107.38
404.198	82.38
404.422	86.38
404.645	84.38
404.869	92.38
405.093	94.38
405.317	94.38
405.541	93.38
405.765	98.38
405.988	119.38
406.212	102.38
406.436	102.38
406.66	82.38
406.883	108.38
407.107	108.38
407.331	98.38
407.555	100.38
407.778	118.38
408.002	102.38
408.226	108.38
408.449	90.38
408.673	101.38
408.896	102.38
409.12	99.38
409.344	90.38
409.567	104.38
409.791	99.38
410.014	93.38
410.238	94.38
410.461	93.38
410.685	100.38
410.908	91.38
411.132	119.38
411.355	90.38
411.578	104.38
411.802	100.38
412.025	107.38
412.249	99.38
412.472	89.38
412.695	98.38
412.919	104.38
413.142	93.38
413.365	104.38
413.589	104.38
413.812	99.38
414.035	117.38
414.258	107.38
414.482	99.38
414.705	95.38
414.928	102.38
415.151	95.38
415.374	105.38
415.597	102.38
415.821	123.38
416.044	108.38
416.267	111.38
416.49	114.38
416.713	103.38
416.936	96.38
417.159	103.38
417.382	119.38
417.605	93.38
417.828	119.38
418.051	103.38
418.274	103.38
418.497	101.38
418.72	104.38
418.943	111.38
419.166	103.38
419.389	117.38
419.611	96.38
419.834	104.38
420.057	102.38
420.28	101.38
420.503	99.38
420.726	103.38
420.948	105.38
421.171	107.38
421.394	107.38
421.617	100.38
421.839	100.38
422.062	116.38
422.285	107.38
422.507	118.38
422.73	103.38
422.953	103.38
423.175	101.38
423.398	99.38
423.621	103.38
423.843	119.38
424.066	106.38
424.288	111.38
424.511	103.38
424.733	112.38
424.956	110.38
425.178	124.38
425.401	115.38
425.623	102.38
425.846	96.38
426.068	112.38
426.291	102.38
426.513	102.38
426.735	91.38
426.958	110.38
427.18	91.38
427.402	108.38
427.625	114.38
427.847	99.38
428.069	101.38
428.292	88.38
428.514	95.38
428.736	107.38
428.958	112.38
429.181	92.38
429.403	105.38
429.625	104.38
429.847	101.38
430.069	110.38
430.292	115.38
430.514	97.38
430.736	106.38
430.958	100.38
431.18	106.38
431.402	107.38
431.624	98.38
431.846	87.38
432.068	90.38
432.29	77.38
432.512	96.38
432.734	99.38
432.956	94.38
433.178	123.38
433.4	112.38
433.622	117.38
433.844	106.38
434.066	109.38
434.287	98.38
434.509	94.38
434.731	97.38
434.953	103.38
435.175	102.38
435.397	97.38
435.618	103.38
435.84	100.38
436.062	91.38
436.284	84.38
436.505	97.38
436.727	97.38
436.949	104.38
437.17	100.38
437.392	103.38
437.614	95.38
437.835	94.38
438.057	99.38
438.278	89.38
438.5	97.38
438.721	103.38
438.943	100.38
439.165	115.38
439.386	101.38
439.608	111.38
439.829	114.38
440.05	101.38
440.272	119.38
440.493	95.38
440.715	103.38
440.936	123.38
441.158	110.38
441.379	112.38
441.6	114.38
441.822	118.38
442.043	117.38
442.264	101.38
442.486	102.38
442.707	127.38
442.928	127.38
443.149	111.38
443.371	125.38
443.592	124.38
443.813	118.38
444.034	116.38
444.255	103.38
444.476	100.38
444.698	111.38
444.919	117.38
445.14	228.38
445.361	159.38
445.582	120.38
445.803	118.38
446.024	99.38
446.245	112.38
446.466	113.38
446.687	114.38
446.908	121.38
447.129	126.38
447.35	113.38
447.571	111.38
447.792	108.38
448.013	111.38
448.234	112.38
448.455	112.38
448.675	105.38
448.896	120.38
449.117	91.38
449.338	105.38
449.559	91.38
449.779	107.38
450	116.38
450.221	102.38
450.442	103.38
450.662	117.38
450.883	95.38
451.104	108.38
451.324	113.38
451.545	114.38
451.766	120.38
451.986	103.38
452.207	108.38
452.428	105.38
452.648	110.38
452.869	103.38
453.089	96.38
453.31	97.38
453.53	94.38
453.751	93.38
453.971	87.38
454.192	93.38
454.412	93.38
454.633	112.38
454.853	94.38
455.073	108.38
455.294	90.38
455.514	107.38
455.734	97.38
455.955	88.38
456.175	98.38
456.395	99.38
456.616	86.38
456.836	88.38
457.056	100.38
457.276	103.38
457.497	86.38
457.717	93.38
457.937	91.38
458.157	82.38
458.377	74.38
458.598	94.38
458.818	91.38
459.038	82.38
459.258	85.38
459.478	104.38
459.698	85.38
459.918	92.38
460.138	103.38
460.358	94.38
460.578	112.38
460.798	89.38
461.018	106.38
461.238	104.38
461.458	93.38
461.678	90.38
461.898	105.38
462.118	96.38
462.338	100.38
462.558	101.38
462.777	102.38
462.997	106.38
463.217	88.38
463.437	102.38
463.657	106.38
463.876	102.38
464.096	98.38
464.316	87.38
464.536	90.38
464.755	95.38
464.975	99.38
465.195	104.38
465.414	97.38
465.634	98.38
465.854	101.38
466.073	115.38
466.293	103.38
466.512	102.38
466.732	103.38
466.951	109.38
467.171	110.38
467.391	98.38
467.61	105.38
467.829	116.38
468.049	113.38
468.268	102.38
468.488	102.38
468.707	96.38
468.927	106.38
469.146	107.38
469.365	117.38
469.585	102.38
469.804	116.38
470.023	107.38
470.243	114.38
470.462	98.38
470.681	117.38
470.901	110.38
471.12	110.38
471.339	107.38
471.558	114.38
471.777	115.38
471.997	113.38
472.216	108.38
472.435	99.38
472.654	91.38
472.873	102.38
473.092	111.38
473.311	106.38
473.53	115.38
473.749	108.38
473.968	103.38
474.187	109.38
474.406	97.38
474.625	109.38
474.844	112.38
475.063	100.38
475.282	96.38
475.501	106.38
475.72	109.38
475.939	103.38
476.158	101.38
476.377	100.38
476.596	121.38
476.814	95.38
477.033	87.38
477.252	89.38
477.471	102.38
477.69	111.38
477.908	112.38
478.127	111.38
478.346	104.38
478.564	115.38
478.783	120.38
479.002	100.38
479.22	110.38
479.439	127.38
479.658	107.38
479.876	106.38
480.095	100.38
480.313	115.38
480.532	88.38
480.751	100.38
480.969	104.38
481.188	96.38
481.406	76.38
481.624	80.38
481.843	82.38
482.061	106.38
482.28	102.38
482.498	83.38
482.717	93.38
482.935	89.38
483.153	105.38
483.372	117.38
483.59	109.38
483.808	107.38
484.027	109.38
484.245	107.38
484.463	117.38
484.681	135.38
484.9	121.38
485.118	114.38
485.336	106.38
485.554	107.38
485.772	84.38
485.99	92.38
486.209	96.38
486.427	100.38
486.645	104.38
486.863	110.38
487.081	117.38
487.299	104.38
487.517	119.38
487.735	127.38
487.953	132.38
488.171	136.38
488.389	138.38
488.607	125.38
488.825	118.38
489.043	114.38
489.261	106.38
489.479	108.38
489.696	112.38
489.914	100.38
490.132	111.38
490.35	126.38
490.568	109.38
490.786	136.38
491.003	136.38
491.221	133.38
491.439	130.38
491.657	149.38
491.874	138.38
492.092	140.38
492.31	161.38
492.527	150.38
492.745	143.38
492.963	146.38
493.18	138.38
493.398	130.38
493.615	138.38
493.833	122.38
494.05	127.38
494.268	132.38
494.485	126.38
494.703	125.38
494.92	118.38
495.138	122.38
495.355	123.38
495.573	119.38
495.79	121.38
496.008	129.38
496.225	124.38
496.442	117.38
496.66	127.38
496.877	112.38
497.094	127.38
497.312	125.38
497.529	107.38
497.746	118.38
497.963	121.38
498.181	109.38
498.398	103.38
498.615	119.38
498.832	95.38
499.049	93.38
499.267	103.38
499.484	111.38
499.701	111.38
499.918	110.38
500.135	114.38
500.352	102.38
500.569	101.38
500.786	115.38
501.003	120.38
501.22	117.38
501.437	113.38
501.654	103.38
501.871	116.38
502.088	113.38
502.305	111.38
502.522	116.38
502.739	111.38
502.956	111.38
503.172	121.38
503.389	114.38
503.606	101.38
503.823	107.38
504.04	108.38
504.256	115.38
504.473	98.38
504.69	111.38
504.907	105.38
505.123	116.38
505.34	104.38
505.557	98.38
505.773	93.38
505.99	101.38
506.207	109.38
506.423	91.38
506.64	99.38
506.856	97.38
507.073	102.38
507.289	101.38
507.506	107.38
507.722	107.38
507.939	108.38
508.155	99.38
508.372	103.38
508.588	92.38
508.805	96.38
509.021	111.38
509.238	119.38
509.454	96.38
509.67	87.38
509.887	84.38
510.103	100.38
510.319	100.38
510.536	96.38
510.752	98.38
510.968	93.38
511.184	76.38
511.401	84.38
511.617	73.38
511.833	92.38
512.049	93.38
512.265	92.38
512.481	94.38
512.698	91.38
512.914	102.38
513.13	92.38
513.346	93.38
513.562	106.38
513.778	93.38
513.994	90.38
514.21	94.38
514.426	72.38
514.642	75.38
514.858	91.38
515.074	95.38
515.29	93.38
515.506	107.38
515.721	93.38
515.937	81.38
516.153	90.38
516.369	99.38
516.585	86.38
516.801	79.38
517.016	90.38
517.232	89.38
517.448	94.38
517.664	96.38
517.879	80.38
518.095	102.38
518.311	95.38
518.527	76.38
518.742	93.38
518.958	98.38
519.173	90.38
519.389	97.38
519.605	95.38
519.82	78.38
520.036	98.38
520.251	95.38
520.467	118.38
520.682	109.38
520.898	87.38
521.113	96.38
521.329	88.38
521.544	93.38
521.76	101.38
521.975	92.38
522.19	98.38
522.406	90.38
522.621	100.38
522.836	94.38
523.052	84.38
523.267	100.38
523.482	93.38
523.698	90.38
523.913	97.38
524.128	100.38
524.343	107.38
524.559	92.38
524.774	108.38
524.989	101.38
525.204	101.38
525.419	98.38
525.634	86.38
525.849	107.38
526.064	96.38
526.28	95.38
526.495	94.38
526.71	102.38
526.925	86.38
527.14	74.38
527.355	82.38
527.57	88.38
527.785	83.38
527.999	88.38
528.214	94.38
528.429	114.38
528.644	94.38
528.859	103.38
529.074	118.38
529.289	128.38
529.503	127.38
529.718	111.38
529.933	110.38
530.148	93.38
530.363	93.38
530.577	100.38
530.792	102.38
531.007	90.38
531.221	99.38
531.436	90.38
531.651	82.38
531.865	79.38
532.08	84.38
532.295	82.38
532.509	84.38
532.724	86.38
532.938	89.38
533.153	85.38
533.367	101.38
533.582	110.38
533.796	102.38
534.011	107.38
534.225	89.38
534.44	86.38
534.654	104.38
534.868	84.38
535.083	105.38
535.297	96.38
535.511	103.38
535.726	109.38
535.94	98.38
536.154	85.38
536.369	91.38
536.583	84.38
536.797	96.38
537.011	86.38
537.225	94.38
537.44	90.38
537.654	91.38
537.868	84.38
538.082	89.38
538.296	84.38
538.51	102.38
538.724	101.38
538.938	103.38
539.153	116.38
539.367	109.38
539.581	102.38
539.795	108.38
540.009	105.38
540.222	98.38
540.436	101.38
540.65	110.38
540.864	102.38
541.078	114.38
541.292	121.38
541.506	126.38
541.72	130.38
541.934	136.38
542.147	141.38
542.361	134.38
542.575	109.38
542.789	103.38
543.002	114.38
543.216	108.38
543.43	122.38
543.644	122.38
543.857	108.38
544.071	137.38
544.285	121.38
544.498	119.38
544.712	131.38
544.925	114.38
545.139	112.38
545.352	114.38
545.566	123.38
545.779	116.38
545.993	126.38
546.206	132.38
546.42	124.38
546.633	120.38
546.847	121.38
547.06	128.38
547.274	130.38
547.487	144.38
547.7	127.38
547.914	140.38
548.127	114.38
548.34	118.38
548.554	128.38
548.767	130.38
548.98	114.38
549.193	128.38
549.407	126.38
549.62	103.38
549.833	125.38
550.046	126.38
550.259	117.38
550.473	109.38
550.686	126.38
550.899	108.38
551.112	114.38
551.325	108.38
551.538	120.38
551.751	110.38
551.964	116.38
552.177	106.38
552.39	119.38
552.603	117.38
552.816	111.38
553.029	124.38
553.242	126.38
553.455	127.38
553.667	120.38
553.88	116.38
554.093	118.38
554.306	129.38
554.519	134.38
554.732	126.38
554.944	116.38
555.157	128.38
555.37	118.38
555.583	109.38
555.795	118.38
556.008	102.38
556.221	115.38
556.433	109.38
556.646	133.38
556.859	114.38
557.071	125.38
557.284	118.38
557.496	108.38
557.709	122.38
557.921	106.38
558.134	107.38
558.346	115.38
558.559	108.38
558.771	105.38
558.984	119.38
559.196	109.38
559.409	108.38
559.621	117.38
559.833	100.38
560.046	112.38
560.258	114.38
560.47	105.38
560.683	108.38
560.895	117.38
561.107	116.38
561.32	111.38
561.532	106.38
561.744	108.38
561.956	119.38
562.168	109.38
562.381	114.38
562.593	120.38
562.805	118.38
563.017	108.38
563.229	93.38
563.441	98.38
563.653	107.38
563.865	89.38
564.077	104.38
564.289	116.38
564.501	114.38
564.713	112.38
564.925	105.38
565.137	108.38
565.349	102.38
565.561	94.38
565.773	110.38
565.985	96.38
566.197	101.38
566.408	106.38
566.62	102.38
566.832	116.38
567.044	107.38
567.255	103.38
567.467	100.38
567.679	103.38
567.891	100.38
568.102	102.38
568.314	109.38
568.526	95.38
568.737	95.38
568.949	86.38
569.161	95.38
569.372	91.38
569.584	85.38
569.795	91.38
570.007	88.38
570.218	84.38
570.43	97.38
570.641	100.38
570.853	87.38
571.064	89.38
571.276	77.38
571.487	108.38
571.698	98.38
571.91	101.38
572.121	114.38
572.333	107.38
572.544	105.38
572.755	75.38
572.966	86.38
573.178	93.38
573.389	97.38
573.6	84.38
573.811	98.38
574.023	83.38
574.234	90.38
574.445	89.38
574.656	85.38
574.867	103.38
575.078	80.38
575.289	93.38
575.501	91.38
575.712	91.38
575.923	98.38
576.134	112.38
576.345	101.38
576.556	91.38
576.767	98.38
576.978	89.38
577.188	92.38
577.399	107.38
577.61	95.38
577.821	87.38
578.032	100.38
578.243	97.38
578.454	105.38
578.665	101.38
578.875	95.38
579.086	80.38
579.297	86.38
579.508	86.38
579.718	93.38
579.929	95.38
580.14	89.38
580.35	77.38
580.561	101.38
580.772	72.38
580.982	83.38
581.193	109.38
581.403	92.38
581.614	90.38
581.825	77.38
582.035	101.38
582.246	106.38
582.456	89.38
582.667	93.38
582.877	93.38
583.087	95.38
583.298	105.38
583.508	85.38
583.719	93.38
583.929	71.38
584.139	68.38
584.35	99.38
584.56	85.38
584.77	86.38
584.981	91.38
585.191	95.38
585.401	81.38
585.611	95.38
585.821	93.38
586.032	86.38
586.242	93.38
586.452	97.38
586.662	89.38
586.872	82.38
587.082	109.38
587.292	88.38
587.502	88.38
587.713	89.38
587.923	66.38
588.133	74.38
588.343	92.38
588.553	73.38
588.762	89.38
588.972	89.38
589.182	77.38
589.392	87.38
589.602	94.38
589.812	75.38
590.022	89.38
590.232	85.38
590.441	88.38
590.651	90.38
590.861	95.38
591.071	73.38
591.281	90.38
591.49	77.38
591.7	74.38
591.91	91.38
592.119	84.38
592.329	95.38
592.539	99.38
592.748	92.38
592.958	85.38
593.167	86.38
593.377	91.38
593.587	79.38
593.796	101.38
594.006	89.38
594.215	89.38
594.424	95.38
594.634	96.38
594.843	83.38
595.053	103.38
595.262	90.38
595.472	92.38
595.681	80.38
595.89	88.38
596.1	100.38
596.309	93.38
596.518	90.38
596.727	91.38
596.937	93.38
597.146	91.38
597.355	88.38
597.564	95.38
597.774	86.38
597.983	85.38
598.192	78.38
598.401	79.38
598.61	75.38
598.819	98.38
599.028	100.38
599.237	86.38
599.446	84.38
599.655	77.38
599.864	94.38
600.073	97.38
600.282	91.38
600.491	87.38
600.7	96.38
600.909	85.38
601.118	100.38
601.327	94.38
601.536	93.38
601.745	99.38
601.953	94.38
602.162	89.38
602.371	98.38
602.58	109.38
602.789	90.38
602.997	91.38
603.206	98.38
603.415	81.38
603.623	87.38
603.832	101.38
604.041	101.38
604.249	99.38
604.458	85.38
604.666	74.38
604.875	84.38
605.084	105.38
605.292	96.38
605.501	116.38
605.709	83.38
605.918	101.38
606.126	102.38
606.334	107.38
606.543	116.38
606.751	94.38
606.96	102.38
607.168	92.38
607.376	99.38
607.585	92.38
607.793	101.38
608.001	98.38
608.21	107.38
608.418	97.38
608.626	86.38
608.834	101.38
609.043	96.38
609.251	107.38
609.459	94.38
609.667	104.38
609.875	101.38
610.083	117.38
610.291	109.38
610.499	108.38
610.707	99.38
610.916	96.38
611.124	96.38
611.332	99.38
611.54	86.38
611.748	106.38
611.955	107.38
612.163	112.38
612.371	104.38
612.579	94.38
612.787	112.38
612.995	100.38
613.203	90.38
613.411	100.38
613.618	123.38
613.826	95.38
614.034	94.38
614.242	110.38
614.449	95.38
614.657	103.38
614.865	106.38
615.072	98.38
615.28	106.38
615.488	105.38
615.695	91.38
615.903	85.38
616.111	87.38
616.318	107.38
616.526	100.38
616.733	105.38
616.941	99.38
617.148	98.38
617.356	89.38
617.563	106.38
617.771	94.38
617.978	96.38
618.185	101.38
618.393	97.38
618.6	95.38
618.807	109.38
619.015	88.38
619.222	82.38
619.429	78.38
619.637	95.38
619.844	105.38
620.051	98.38
620.258	100.38
620.466	93.38
620.673	86.38
620.88	93.38
621.087	104.38
621.294	91.38
621.501	85.38
621.708	87.38
621.915	90.38
622.122	100.38
622.329	110.38
622.536	103.38
622.743	107.38
622.95	105.38
623.157	90.38
623.364	112.38
623.571	100.38
623.778	121.38
623.985	90.38
624.192	108.38
624.399	104.38
624.606	111.38
624.812	106.38
625.019	91.38
625.226	78.38
625.433	90.38
625.639	101.38
625.846	96.38
626.053	83.38
626.259	79.38
626.466	87.38
626.673	77.38
626.879	88.38
627.086	98.38
627.293	94.38
627.499	85.38
627.706	92.38
627.912	98.38
628.119	109.38
628.325	87.38
628.532	97.38
628.738	105.38
628.945	110.38
629.151	94.38
629.357	95.38
629.564	95.38
629.77	100.38
629.976	91.38
630.183	94.38
630.389	100.38
630.595	92.38
630.802	90.38
631.008	92.38
631.214	105.38
631.42	98.38
631.627	102.38
631.833	94.38
632.039	101.38
632.245	85.38
632.451	93.38
632.657	91.38
632.863	89.38
633.069	86.38
633.275	101.38
633.481	91.38
633.688	99.38
633.893	94.38
634.099	93.38
634.305	95.38
634.511	84.38
634.717	72.38
634.923	96.38
635.129	89.38
635.335	78.38
635.541	84.38
635.747	95.38
635.952	100.38
636.158	100.38
636.364	92.38
636.57	90.38
636.775	93.38
636.981	99.38
637.187	96.38
637.392	93.38
637.598	100.38
637.804	99.38
638.009	103.38
638.215	97.38
638.421	101.38
638.626	91.38
638.832	88.38
639.037	81.38
639.243	95.38
639.448	99.38
639.654	91.38
639.859	82.38
640.065	90.38
640.27	95.38
640.475	98.38
640.681	88.38
640.886	92.38
641.091	95.38
641.297	114.38
641.502	89.38
641.707	95.38
641.913	101.38
642.118	99.38
642.323	95.38
642.528	106.38
642.733	95.38
642.939	101.38
643.144	101.38
643.349	92.38
643.554	89.38
643.759	88.38
643.964	99.38
644.169	85.38
644.374	84.38
644.579	95.38
644.784	96.38
644.989	93.38
645.194	89.38
645.399	101.38
645.604	99.38
645.809	100.38
646.014	92.38
646.219	93.38
646.423	94.38
646.628	103.38
646.833	94.38
647.038	96.38
647.243	103.38
647.447	88.38
647.652	108.38
647.857	103.38
648.062	90.38
648.266	95.38
648.471	78.38
648.676	91.38
648.88	85.38
649.085	85.38
649.289	102.38
649.494	89.38
649.698	102.38
649.903	95.38
650.107	98.38
650.312	84.38
650.516	80.38
650.721	95.38
650.925	101.38
651.13	92.38
651.334	84.38
651.539	103.38
651.743	86.38
651.947	100.38
652.152	87.38
652.356	84.38
652.56	96.38
652.764	87.38
652.969	85.38
653.173	94.38
653.377	93.38
653.581	86.38
653.785	95.38
653.99	95.38
654.194	75.38
654.398	88.38
654.602	94.38
654.806	89.38
655.01	79.38
655.214	90.38
655.418	86.38
655.622	85.38
655.826	87.38
656.03	94.38
656.234	79.38
656.438	91.38
656.642	92.38
656.846	98.38
657.049	87.38
657.253	101.38
657.457	87.38
657.661	90.38
657.865	88.38
658.068	85.38
658.272	82.38
658.476	83.38
658.68	90.38
658.883	83.38
659.087	83.38
659.291	92.38
659.494	105.38
659.698	85.38
659.901	78.38
660.105	68.38
660.309	99.38
660.512	86.38
660.716	91.38
660.919	90.38
661.123	86.38
661.326	85.38
661.53	77.38
661.733	97.38
661.936	95.38
662.14	86.38
662.343	89.38
662.546	92.38
662.75	77.38
662.953	89.38
663.156	78.38
663.36	82.38
663.563	81.38
663.766	94.38
663.969	86.38
664.173	80.38
664.376	80.38
664.579	86.38
664.782	99.38
664.985	87.38
665.188	83.38
665.391	87.38
665.594	92.38
665.797	91.38
666	78.38
666.203	80.38
666.406	88.38
666.609	92.38
666.812	93.38
667.015	93.38
667.218	81.38
667.421	87.38
667.624	79.38
667.827	84.38
668.03	88.38
668.232	98.38
668.435	76.38
668.638	71.38
668.841	94.38
669.043	80.38
669.246	93.38
669.449	86.38
669.651	83.38
669.854	79.38
670.057	80.38
670.259	73.38
670.462	73.38
670.665	76.38
670.867	75.38
671.07	85.38
671.272	102.38
671.475	91.38
671.677	83.38
671.88	78.38
672.082	90.38
672.284	90.38
672.487	87.38
672.689	83.38
672.892	73.38
