Data from Zn(NO3)2Standard.Agarose3%.GreenCap.LampEnergy10E.O_HRD10591_15-06-41-942.txt Node
Date: Mon Jul 22 15:06:41 EDT 2019
User: cochatt
Spectrometer: HR+D1059
Trigger mode: 1
Integration Time (sec): 1.000000E-1
Scans to average: 1
Electric dark correction enabled: true
Nonlinearity correction enabled: false
Boxcar width: 0
XAxis mode: Wavelengths
Number of Pixels in Spectrum: 2048
>>>>>Begin Spectral Data<<<<<
223.165	-10.62
223.4	-10.62
223.635	-10.62
223.869	-7.62
224.104	-4.62
224.338	-16.62
224.573	-21.62
224.808	-9.62
225.042	-10.62
225.277	-11.62
225.511	-7.62
225.746	-1.62
225.98	1.38
226.215	11.38
226.449	13.38
226.683	16.38
226.918	30.38
227.152	29.38
227.387	43.38
227.621	44.38
227.856	43.38
228.09	36.38
228.324	51.38
228.559	60.38
228.793	50.38
229.027	56.38
229.262	73.38
229.496	53.38
229.73	69.38
229.964	74.38
230.199	51.38
230.433	74.38
230.667	70.38
230.901	64.38
231.136	71.38
231.37	71.38
231.604	85.38
231.838	82.38
232.072	84.38
232.306	76.38
232.541	75.38
232.775	74.38
233.009	80.38
233.243	72.38
233.477	76.38
233.711	90.38
233.945	82.38
234.179	82.38
234.413	90.38
234.647	75.38
234.881	72.38
235.115	82.38
235.349	79.38
235.583	74.38
235.817	85.38
236.051	70.38
236.285	85.38
236.519	76.38
236.753	93.38
236.987	86.38
237.221	84.38
237.455	71.38
237.689	65.38
237.922	81.38
238.156	98.38
238.39	88.38
238.624	74.38
238.858	76.38
239.091	78.38
239.325	67.38
239.559	71.38
239.793	77.38
240.027	80.38
240.26	68.38
240.494	68.38
240.728	68.38
240.961	70.38
241.195	68.38
241.429	69.38
241.662	77.38
241.896	77.38
242.13	78.38
242.363	72.38
242.597	82.38
242.83	69.38
243.064	76.38
243.298	76.38
243.531	71.38
243.765	87.38
243.998	93.38
244.232	86.38
244.465	74.38
244.699	88.38
244.932	54.38
245.166	70.38
245.399	77.38
245.633	63.38
245.866	67.38
246.099	77.38
246.333	60.38
246.566	89.38
246.8	89.38
247.033	85.38
247.266	76.38
247.5	76.38
247.733	79.38
247.966	70.38
248.2	81.38
248.433	74.38
248.666	59.38
248.899	65.38
249.133	76.38
249.366	81.38
249.599	77.38
249.832	86.38
250.066	82.38
250.299	93.38
250.532	66.38
250.765	89.38
250.998	69.38
251.231	81.38
251.465	81.38
251.698	69.38
251.931	68.38
252.164	87.38
252.397	77.38
252.63	83.38
252.863	71.38
253.096	78.38
253.329	85.38
253.562	77.38
253.795	70.38
254.028	69.38
254.261	71.38
254.494	72.38
254.727	85.38
254.96	83.38
255.193	84.38
255.426	79.38
255.659	72.38
255.892	84.38
256.124	75.38
256.357	76.38
256.59	74.38
256.823	73.38
257.056	72.38
257.289	76.38
257.521	73.38
257.754	75.38
257.987	76.38
258.22	74.38
258.452	82.38
258.685	81.38
258.918	90.38
259.151	72.38
259.383	87.38
259.616	58.38
259.849	74.38
260.081	84.38
260.314	70.38
260.547	81.38
260.779	90.38
261.012	74.38
261.244	82.38
261.477	76.38
261.71	82.38
261.942	79.38
262.175	73.38
262.407	71.38
262.64	74.38
262.872	85.38
263.105	75.38
263.337	81.38
263.57	97.38
263.802	80.38
264.035	74.38
264.267	89.38
264.499	83.38
264.732	75.38
264.964	74.38
265.197	73.38
265.429	83.38
265.661	75.38
265.894	83.38
266.126	86.38
266.358	72.38
266.591	88.38
266.823	80.38
267.055	67.38
267.287	71.38
267.52	87.38
267.752	74.38
267.984	81.38
268.216	83.38
268.448	85.38
268.681	77.38
268.913	74.38
269.145	85.38
269.377	80.38
269.609	87.38
269.841	78.38
270.073	82.38
270.306	81.38
270.538	89.38
270.77	84.38
271.002	88.38
271.234	85.38
271.466	86.38
271.698	88.38
271.93	82.38
272.162	77.38
272.394	86.38
272.626	83.38
272.858	95.38
273.09	75.38
273.322	73.38
273.553	68.38
273.785	92.38
274.017	87.38
274.249	64.38
274.481	78.38
274.713	86.38
274.945	75.38
275.176	74.38
275.408	77.38
275.64	61.38
275.872	71.38
276.104	81.38
276.335	84.38
276.567	83.38
276.799	77.38
277.031	80.38
277.262	81.38
277.494	96.38
277.726	71.38
277.957	82.38
278.189	86.38
278.421	90.38
278.652	80.38
278.884	81.38
279.115	92.38
279.347	88.38
279.579	84.38
279.81	75.38
280.042	71.38
280.273	68.38
280.505	86.38
280.736	73.38
280.968	96.38
281.199	82.38
281.431	77.38
281.662	90.38
281.894	91.38
282.125	64.38
282.356	95.38
282.588	69.38
282.819	74.38
283.051	77.38
283.282	86.38
283.513	97.38
283.745	79.38
283.976	74.38
284.207	83.38
284.439	74.38
284.67	78.38
284.901	95.38
285.132	95.38
285.364	84.38
285.595	82.38
285.826	82.38
286.057	82.38
286.288	83.38
286.52	76.38
286.751	67.38
286.982	80.38
287.213	78.38
287.444	95.38
287.675	84.38
287.906	98.38
288.138	74.38
288.369	82.38
288.6	88.38
288.831	81.38
289.062	86.38
289.293	87.38
289.524	90.38
289.755	87.38
289.986	80.38
290.217	79.38
290.448	72.38
290.679	87.38
290.91	77.38
291.141	98.38
291.371	86.38
291.602	82.38
291.833	81.38
292.064	84.38
292.295	80.38
292.526	84.38
292.757	77.38
292.987	92.38
293.218	91.38
293.449	85.38
293.68	93.38
293.91	77.38
294.141	74.38
294.372	76.38
294.603	74.38
294.833	84.38
295.064	97.38
295.295	76.38
295.525	87.38
295.756	85.38
295.987	94.38
296.217	89.38
296.448	78.38
296.679	80.38
296.909	84.38
297.14	75.38
297.37	79.38
297.601	89.38
297.831	80.38
298.062	85.38
298.292	91.38
298.523	84.38
298.753	70.38
298.984	76.38
299.214	90.38
299.445	84.38
299.675	79.38
299.905	89.38
300.136	84.38
300.366	83.38
300.597	71.38
300.827	87.38
301.057	74.38
301.288	90.38
301.518	89.38
301.748	95.38
301.979	87.38
302.209	80.38
302.439	75.38
302.669	73.38
302.9	60.38
303.13	76.38
303.36	95.38
303.59	84.38
303.82	85.38
304.051	84.38
304.281	96.38
304.511	100.38
304.741	84.38
304.971	84.38
305.201	92.38
305.431	85.38
305.661	76.38
305.891	78.38
306.121	78.38
306.352	72.38
306.582	90.38
306.812	78.38
307.042	74.38
307.272	82.38
307.502	87.38
307.731	87.38
307.961	86.38
308.191	91.38
308.421	66.38
308.651	92.38
308.881	80.38
309.111	94.38
309.341	90.38
309.571	79.38
309.8	82.38
310.03	89.38
310.26	82.38
310.49	81.38
310.72	68.38
310.949	87.38
311.179	77.38
311.409	86.38
311.639	85.38
311.868	74.38
312.098	84.38
312.328	94.38
312.557	83.38
312.787	82.38
313.017	90.38
313.246	84.38
313.476	93.38
313.706	105.38
313.935	102.38
314.165	84.38
314.394	92.38
314.624	93.38
314.853	81.38
315.083	86.38
315.312	83.38
315.542	77.38
315.771	79.38
316.001	75.38
316.23	94.38
316.46	91.38
316.689	89.38
316.919	91.38
317.148	72.38
317.377	84.38
317.607	82.38
317.836	85.38
318.065	80.38
318.295	91.38
318.524	89.38
318.753	79.38
318.983	85.38
319.212	85.38
319.441	84.38
319.67	98.38
319.9	84.38
320.129	77.38
320.358	76.38
320.587	77.38
320.816	75.38
321.046	76.38
321.275	89.38
321.504	83.38
321.733	78.38
321.962	85.38
322.191	77.38
322.42	97.38
322.649	87.38
322.878	94.38
323.108	79.38
323.337	77.38
323.566	68.38
323.795	71.38
324.024	83.38
324.253	76.38
324.482	95.38
324.71	79.38
324.939	89.38
325.168	84.38
325.397	91.38
325.626	91.38
325.855	82.38
326.084	80.38
326.313	92.38
326.542	76.38
326.77	85.38
326.999	98.38
327.228	87.38
327.457	83.38
327.686	82.38
327.914	72.38
328.143	90.38
328.372	81.38
328.6	81.38
328.829	88.38
329.058	77.38
329.287	81.38
329.515	81.38
329.744	82.38
329.972	92.38
330.201	85.38
330.43	79.38
330.658	77.38
330.887	71.38
331.115	75.38
331.344	76.38
331.572	89.38
331.801	83.38
332.03	83.38
332.258	76.38
332.486	93.38
332.715	91.38
332.943	80.38
333.172	86.38
333.4	82.38
333.629	90.38
333.857	80.38
334.085	75.38
334.314	87.38
334.542	73.38
334.771	81.38
334.999	68.38
335.227	81.38
335.455	81.38
335.684	79.38
335.912	95.38
336.14	103.38
336.369	89.38
336.597	72.38
336.825	78.38
337.053	77.38
337.281	90.38
337.51	65.38
337.738	82.38
337.966	80.38
338.194	89.38
338.422	91.38
338.65	76.38
338.878	99.38
339.106	93.38
339.334	89.38
339.562	78.38
339.79	80.38
340.018	81.38
340.246	81.38
340.474	84.38
340.702	77.38
340.93	81.38
341.158	86.38
341.386	80.38
341.614	97.38
341.842	85.38
342.07	84.38
342.298	87.38
342.526	76.38
342.754	72.38
342.981	85.38
343.209	81.38
343.437	92.38
343.665	70.38
343.893	79.38
344.12	97.38
344.348	70.38
344.576	83.38
344.804	85.38
345.031	93.38
345.259	93.38
345.487	98.38
345.714	98.38
345.942	91.38
346.17	79.38
346.397	79.38
346.625	83.38
346.853	86.38
347.08	80.38
347.308	86.38
347.535	82.38
347.763	78.38
347.99	71.38
348.218	78.38
348.445	90.38
348.673	98.38
348.9	83.38
349.128	89.38
349.355	78.38
349.583	69.38
349.81	79.38
350.037	99.38
350.265	91.38
350.492	82.38
350.72	91.38
350.947	85.38
351.174	91.38
351.402	81.38
351.629	86.38
351.856	92.38
352.083	88.38
352.311	79.38
352.538	94.38
352.765	82.38
352.992	83.38
353.22	79.38
353.447	78.38
353.674	86.38
353.901	80.38
354.128	96.38
354.355	90.38
354.583	72.38
354.81	84.38
355.037	85.38
355.264	89.38
355.491	87.38
355.718	82.38
355.945	91.38
356.172	67.38
356.399	91.38
356.626	95.38
356.853	79.38
357.08	90.38
357.307	88.38
357.534	71.38
357.761	87.38
357.988	89.38
358.215	78.38
358.441	83.38
358.668	88.38
358.895	71.38
359.122	88.38
359.349	77.38
359.576	72.38
359.802	80.38
360.029	87.38
360.256	78.38
360.483	75.38
360.709	77.38
360.936	86.38
361.163	89.38
361.39	80.38
361.616	85.38
361.843	82.38
362.07	78.38
362.296	88.38
362.523	74.38
362.749	86.38
362.976	79.38
363.203	81.38
363.429	75.38
363.656	75.38
363.882	80.38
364.109	86.38
364.335	97.38
364.562	75.38
364.788	77.38
365.015	87.38
365.241	77.38
365.468	74.38
365.694	80.38
365.92	79.38
366.147	80.38
366.373	89.38
366.599	80.38
366.826	94.38
367.052	88.38
367.278	83.38
367.505	81.38
367.731	103.38
367.957	97.38
368.184	81.38
368.41	77.38
368.636	80.38
368.862	81.38
369.089	90.38
369.315	84.38
369.541	89.38
369.767	95.38
369.993	79.38
370.219	84.38
370.445	77.38
370.672	86.38
370.898	65.38
371.124	89.38
371.35	82.38
371.576	84.38
371.802	88.38
372.028	79.38
372.254	87.38
372.48	79.38
372.706	83.38
372.932	78.38
373.158	80.38
373.384	94.38
373.61	91.38
373.835	82.38
374.061	76.38
374.287	85.38
374.513	100.38
374.739	84.38
374.965	91.38
375.191	82.38
375.416	83.38
375.642	90.38
375.868	85.38
376.094	75.38
376.319	76.38
376.545	95.38
376.771	93.38
376.997	79.38
377.222	90.38
377.448	79.38
377.674	84.38
377.899	83.38
378.125	93.38
378.35	91.38
378.576	84.38
378.802	75.38
379.027	83.38
379.253	92.38
379.478	91.38
379.704	87.38
379.929	92.38
380.155	84.38
380.38	98.38
380.606	83.38
380.831	76.38
381.057	96.38
381.282	70.38
381.507	83.38
381.733	96.38
381.958	80.38
382.184	82.38
382.409	96.38
382.634	84.38
382.86	86.38
383.085	89.38
383.31	87.38
383.535	82.38
383.761	86.38
383.986	80.38
384.211	96.38
384.436	84.38
384.662	84.38
384.887	85.38
385.112	92.38
385.337	89.38
385.562	77.38
385.787	80.38
386.013	90.38
386.238	91.38
386.463	85.38
386.688	83.38
386.913	88.38
387.138	86.38
387.363	89.38
387.588	78.38
387.813	84.38
388.038	85.38
388.263	93.38
388.488	87.38
388.713	75.38
388.938	91.38
389.163	91.38
389.387	83.38
389.612	92.38
389.837	89.38
390.062	87.38
390.287	99.38
390.512	95.38
390.736	100.38
390.961	98.38
391.186	101.38
391.411	97.38
391.636	108.38
391.86	79.38
392.085	92.38
392.31	79.38
392.534	77.38
392.759	93.38
392.984	94.38
393.208	98.38
393.433	92.38
393.658	99.38
393.882	81.38
394.107	88.38
394.331	92.38
394.556	88.38
394.78	105.38
395.005	93.38
395.229	93.38
395.454	109.38
395.678	67.38
395.903	113.38
396.127	111.38
396.352	95.38
396.576	92.38
396.801	73.38
397.025	91.38
397.249	93.38
397.474	94.38
397.698	85.38
397.922	98.38
398.147	79.38
398.371	75.38
398.595	84.38
398.82	80.38
399.044	90.38
399.268	82.38
399.492	93.38
399.717	83.38
399.941	95.38
400.165	107.38
400.389	83.38
400.613	98.38
400.837	96.38
401.062	85.38
401.286	95.38
401.51	73.38
401.734	83.38
401.958	91.38
402.182	91.38
402.406	84.38
402.63	88.38
402.854	99.38
403.078	101.38
403.302	85.38
403.526	97.38
403.75	90.38
403.974	88.38
404.198	99.38
404.422	88.38
404.645	99.38
404.869	109.38
405.093	77.38
405.317	88.38
405.541	97.38
405.765	95.38
405.988	103.38
406.212	106.38
406.436	84.38
406.66	104.38
406.883	114.38
407.107	100.38
407.331	92.38
407.555	96.38
407.778	83.38
408.002	95.38
408.226	93.38
408.449	88.38
408.673	104.38
408.896	112.38
409.12	89.38
409.344	95.38
409.567	100.38
409.791	76.38
410.014	95.38
410.238	91.38
410.461	89.38
410.685	90.38
410.908	93.38
411.132	98.38
411.355	85.38
411.578	97.38
411.802	106.38
412.025	103.38
412.249	112.38
412.472	94.38
412.695	93.38
412.919	102.38
413.142	108.38
413.365	110.38
413.589	91.38
413.812	94.38
414.035	101.38
414.258	89.38
414.482	95.38
414.705	100.38
414.928	103.38
415.151	108.38
415.374	100.38
415.597	103.38
415.821	84.38
416.044	103.38
416.267	95.38
416.49	102.38
416.713	93.38
416.936	96.38
417.159	103.38
417.382	111.38
417.605	94.38
417.828	90.38
418.051	96.38
418.274	97.38
418.497	109.38
418.72	95.38
418.943	104.38
419.166	105.38
419.389	96.38
419.611	101.38
419.834	101.38
420.057	108.38
420.28	111.38
420.503	91.38
420.726	88.38
420.948	107.38
421.171	101.38
421.394	113.38
421.617	115.38
421.839	112.38
422.062	100.38
422.285	96.38
422.507	107.38
422.73	101.38
422.953	101.38
423.175	103.38
423.398	93.38
423.621	102.38
423.843	99.38
424.066	107.38
424.288	95.38
424.511	112.38
424.733	115.38
424.956	99.38
425.178	113.38
425.401	97.38
425.623	108.38
425.846	108.38
426.068	113.38
426.291	113.38
426.513	106.38
426.735	120.38
426.958	104.38
427.18	99.38
427.402	99.38
427.625	103.38
427.847	96.38
428.069	92.38
428.292	97.38
428.514	91.38
428.736	111.38
428.958	102.38
429.181	104.38
429.403	76.38
429.625	92.38
429.847	101.38
430.069	104.38
430.292	105.38
430.514	96.38
430.736	95.38
430.958	111.38
431.18	119.38
431.402	99.38
431.624	97.38
431.846	86.38
432.068	91.38
432.29	90.38
432.512	88.38
432.734	99.38
432.956	104.38
433.178	91.38
433.4	107.38
433.622	100.38
433.844	107.38
434.066	91.38
434.287	99.38
434.509	95.38
434.731	93.38
434.953	91.38
435.175	78.38
435.397	97.38
435.618	100.38
435.84	95.38
436.062	81.38
436.284	92.38
436.505	108.38
436.727	102.38
436.949	115.38
437.17	106.38
437.392	95.38
437.614	111.38
437.835	100.38
438.057	97.38
438.278	92.38
438.5	106.38
438.721	96.38
438.943	81.38
439.165	115.38
439.386	99.38
439.608	95.38
439.829	104.38
440.05	114.38
440.272	119.38
440.493	115.38
440.715	110.38
440.936	97.38
441.158	99.38
441.379	106.38
441.6	112.38
441.822	106.38
442.043	112.38
442.264	116.38
442.486	126.38
442.707	103.38
442.928	100.38
443.149	112.38
443.371	91.38
443.592	94.38
443.813	111.38
444.034	100.38
444.255	110.38
444.476	113.38
444.698	112.38
444.919	91.38
445.14	253.38
445.361	173.38
445.582	100.38
445.803	104.38
446.024	114.38
446.245	123.38
446.466	114.38
446.687	115.38
446.908	112.38
447.129	115.38
447.35	116.38
447.571	103.38
447.792	129.38
448.013	127.38
448.234	106.38
448.455	109.38
448.675	103.38
448.896	96.38
449.117	101.38
449.338	101.38
449.559	102.38
449.779	104.38
450	98.38
450.221	111.38
450.442	93.38
450.662	90.38
450.883	93.38
451.104	107.38
451.324	97.38
451.545	104.38
451.766	100.38
451.986	104.38
452.207	105.38
452.428	104.38
452.648	98.38
452.869	102.38
453.089	88.38
453.31	100.38
453.53	97.38
453.751	94.38
453.971	87.38
454.192	106.38
454.412	103.38
454.633	83.38
454.853	102.38
455.073	96.38
455.294	99.38
455.514	80.38
455.734	83.38
455.955	102.38
456.175	93.38
456.395	96.38
456.616	96.38
456.836	93.38
457.056	98.38
457.276	95.38
457.497	81.38
457.717	91.38
457.937	96.38
458.157	96.38
458.377	93.38
458.598	96.38
458.818	85.38
459.038	84.38
459.258	97.38
459.478	99.38
459.698	89.38
459.918	92.38
460.138	84.38
460.358	90.38
460.578	100.38
460.798	89.38
461.018	98.38
461.238	98.38
461.458	92.38
461.678	90.38
461.898	103.38
462.118	111.38
462.338	106.38
462.558	94.38
462.777	102.38
462.997	94.38
463.217	84.38
463.437	108.38
463.657	96.38
463.876	81.38
464.096	100.38
464.316	88.38
464.536	99.38
464.755	92.38
464.975	95.38
465.195	90.38
465.414	94.38
465.634	106.38
465.854	108.38
466.073	108.38
466.293	88.38
466.512	95.38
466.732	84.38
466.951	96.38
467.171	90.38
467.391	90.38
467.61	99.38
467.829	101.38
468.049	105.38
468.268	102.38
468.488	115.38
468.707	102.38
468.927	83.38
469.146	114.38
469.365	107.38
469.585	98.38
469.804	107.38
470.023	104.38
470.243	115.38
470.462	116.38
470.681	104.38
470.901	97.38
471.12	101.38
471.339	113.38
471.558	117.38
471.777	98.38
471.997	102.38
472.216	103.38
472.435	109.38
472.654	83.38
472.873	91.38
473.092	90.38
473.311	92.38
473.53	101.38
473.749	97.38
473.968	100.38
474.187	112.38
474.406	95.38
474.625	93.38
474.844	106.38
475.063	106.38
475.282	103.38
475.501	97.38
475.72	96.38
475.939	84.38
476.158	113.38
476.377	104.38
476.596	93.38
476.814	103.38
477.033	97.38
477.252	89.38
477.471	88.38
477.69	106.38
477.908	96.38
478.127	92.38
478.346	103.38
478.564	99.38
478.783	118.38
479.002	108.38
479.22	111.38
479.439	113.38
479.658	104.38
479.876	89.38
480.095	87.38
480.313	104.38
480.532	97.38
480.751	94.38
480.969	77.38
481.188	70.38
481.406	89.38
481.624	87.38
481.843	68.38
482.061	83.38
482.28	109.38
482.498	98.38
482.717	87.38
482.935	102.38
483.153	99.38
483.372	105.38
483.59	100.38
483.808	101.38
484.027	107.38
484.245	114.38
484.463	112.38
484.681	117.38
484.9	109.38
485.118	111.38
485.336	115.38
485.554	73.38
485.772	92.38
485.99	83.38
486.209	98.38
486.427	83.38
486.645	93.38
486.863	95.38
487.081	106.38
487.299	110.38
487.517	105.38
487.735	118.38
487.953	123.38
488.171	126.38
488.389	134.38
488.607	128.38
488.825	101.38
489.043	121.38
489.261	107.38
489.479	103.38
489.696	110.38
489.914	121.38
490.132	97.38
490.35	116.38
490.568	119.38
490.786	123.38
491.003	131.38
491.221	133.38
491.439	132.38
491.657	129.38
491.874	144.38
492.092	133.38
492.31	156.38
492.527	155.38
492.745	155.38
492.963	125.38
493.18	144.38
493.398	125.38
493.615	124.38
493.833	128.38
494.05	121.38
494.268	113.38
494.485	112.38
494.703	131.38
494.92	129.38
495.138	120.38
495.355	136.38
495.573	126.38
495.79	107.38
496.008	106.38
496.225	123.38
496.442	127.38
496.66	110.38
496.877	130.38
497.094	122.38
497.312	109.38
497.529	119.38
497.746	106.38
497.963	103.38
498.181	113.38
498.398	100.38
498.615	109.38
498.832	85.38
499.049	112.38
499.267	97.38
499.484	119.38
499.701	105.38
499.918	105.38
500.135	99.38
500.352	112.38
500.569	107.38
500.786	113.38
501.003	115.38
501.22	117.38
501.437	103.38
501.654	122.38
501.871	116.38
502.088	107.38
502.305	112.38
502.522	113.38
502.739	96.38
502.956	105.38
503.172	108.38
503.389	112.38
503.606	85.38
503.823	108.38
504.04	100.38
504.256	110.38
504.473	96.38
504.69	98.38
504.907	102.38
505.123	88.38
505.34	105.38
505.557	105.38
505.773	96.38
505.99	100.38
506.207	93.38
506.423	98.38
506.64	107.38
506.856	92.38
507.073	95.38
507.289	101.38
507.506	87.38
507.722	92.38
507.939	101.38
508.155	104.38
508.372	99.38
508.588	98.38
508.805	96.38
509.021	90.38
509.238	85.38
509.454	86.38
509.67	88.38
509.887	79.38
510.103	87.38
510.319	87.38
510.536	95.38
510.752	82.38
510.968	82.38
511.184	71.38
511.401	63.38
511.617	88.38
511.833	94.38
512.049	81.38
512.265	85.38
512.481	87.38
512.698	83.38
512.914	92.38
513.13	85.38
513.346	91.38
513.562	88.38
513.778	84.38
513.994	85.38
514.21	91.38
514.426	90.38
514.642	87.38
514.858	95.38
515.074	88.38
515.29	91.38
515.506	84.38
515.721	80.38
515.937	80.38
516.153	68.38
516.369	73.38
516.585	88.38
516.801	90.38
517.016	86.38
517.232	96.38
517.448	83.38
517.664	84.38
517.879	70.38
518.095	88.38
518.311	100.38
518.527	99.38
518.742	89.38
518.958	93.38
519.173	100.38
519.389	91.38
519.605	98.38
519.82	92.38
520.036	104.38
520.251	91.38
520.467	92.38
520.682	75.38
520.898	75.38
521.113	84.38
521.329	86.38
521.544	82.38
521.76	92.38
521.975	85.38
522.19	99.38
522.406	96.38
522.621	91.38
522.836	91.38
523.052	101.38
523.267	104.38
523.482	84.38
523.698	99.38
523.913	96.38
524.128	102.38
524.343	99.38
524.559	93.38
524.774	100.38
524.989	105.38
525.204	95.38
525.419	99.38
525.634	104.38
525.849	92.38
526.064	98.38
526.28	96.38
526.495	89.38
526.71	102.38
526.925	73.38
527.14	84.38
527.355	80.38
527.57	71.38
527.785	90.38
527.999	88.38
528.214	86.38
528.429	95.38
528.644	111.38
528.859	103.38
529.074	112.38
529.289	123.38
529.503	114.38
529.718	108.38
529.933	92.38
530.148	93.38
530.363	90.38
530.577	82.38
530.792	87.38
531.007	81.38
531.221	76.38
531.436	87.38
531.651	77.38
531.865	78.38
532.08	84.38
532.295	90.38
532.509	64.38
532.724	74.38
532.938	77.38
533.153	80.38
533.367	83.38
533.582	97.38
533.796	97.38
534.011	99.38
534.225	95.38
534.44	77.38
534.654	85.38
534.868	95.38
535.083	103.38
535.297	98.38
535.511	83.38
535.726	99.38
535.94	102.38
536.154	85.38
536.369	86.38
536.583	84.38
536.797	96.38
537.011	81.38
537.225	81.38
537.44	89.38
537.654	76.38
537.868	95.38
538.082	92.38
538.296	87.38
538.51	89.38
538.724	94.38
538.938	103.38
539.153	97.38
539.367	100.38
539.581	93.38
539.795	91.38
540.009	77.38
540.222	82.38
540.436	97.38
540.65	93.38
540.864	99.38
541.078	116.38
541.292	103.38
541.506	113.38
541.72	127.38
541.934	124.38
542.147	145.38
542.361	127.38
542.575	108.38
542.789	95.38
543.002	111.38
543.216	92.38
543.43	99.38
543.644	106.38
543.857	115.38
544.071	123.38
544.285	132.38
544.498	118.38
544.712	136.38
544.925	123.38
545.139	121.38
545.352	107.38
545.566	131.38
545.779	113.38
545.993	132.38
546.206	131.38
546.42	116.38
546.633	124.38
546.847	135.38
547.06	122.38
547.274	117.38
547.487	119.38
547.7	112.38
547.914	119.38
548.127	113.38
548.34	121.38
548.554	113.38
548.767	120.38
548.98	109.38
549.193	111.38
549.407	117.38
549.62	106.38
549.833	121.38
550.046	117.38
550.259	123.38
550.473	99.38
550.686	115.38
550.899	111.38
551.112	120.38
551.325	107.38
551.538	116.38
551.751	113.38
551.964	108.38
552.177	109.38
552.39	112.38
552.603	112.38
552.816	119.38
553.029	127.38
553.242	112.38
553.455	118.38
553.667	123.38
553.88	117.38
554.093	104.38
554.306	107.38
554.519	96.38
554.732	118.38
554.944	106.38
555.157	119.38
555.37	107.38
555.583	115.38
555.795	117.38
556.008	107.38
556.221	117.38
556.433	111.38
556.646	108.38
556.859	107.38
557.071	107.38
557.284	121.38
557.496	103.38
557.709	121.38
557.921	100.38
558.134	113.38
558.346	117.38
558.559	107.38
558.771	113.38
558.984	115.38
559.196	112.38
559.409	104.38
559.621	104.38
559.833	93.38
560.046	113.38
560.258	100.38
560.47	100.38
560.683	96.38
560.895	96.38
561.107	103.38
561.32	106.38
561.532	111.38
561.744	107.38
561.956	102.38
562.168	101.38
562.381	101.38
562.593	98.38
562.805	99.38
563.017	110.38
563.229	97.38
563.441	105.38
563.653	112.38
563.865	95.38
564.077	96.38
564.289	100.38
564.501	111.38
564.713	91.38
564.925	100.38
565.137	93.38
565.349	90.38
565.561	105.38
565.773	106.38
565.985	109.38
566.197	117.38
566.408	114.38
566.62	113.38
566.832	107.38
567.044	105.38
567.255	111.38
567.467	102.38
567.679	82.38
567.891	101.38
568.102	92.38
568.314	81.38
568.526	83.38
568.737	91.38
568.949	81.38
569.161	82.38
569.372	84.38
569.584	79.38
569.795	81.38
570.007	90.38
570.218	93.38
570.43	83.38
570.641	78.38
570.853	86.38
571.064	89.38
571.276	85.38
571.487	92.38
571.698	85.38
571.91	105.38
572.121	85.38
572.333	104.38
572.544	103.38
572.755	92.38
572.966	85.38
573.178	92.38
573.389	88.38
573.6	78.38
573.811	96.38
574.023	98.38
574.234	91.38
574.445	100.38
574.656	94.38
574.867	97.38
575.078	78.38
575.289	88.38
575.501	81.38
575.712	95.38
575.923	79.38
576.134	82.38
576.345	82.38
576.556	93.38
576.767	90.38
576.978	108.38
577.188	97.38
577.399	84.38
577.61	91.38
577.821	79.38
578.032	90.38
578.243	96.38
578.454	91.38
578.665	93.38
578.875	81.38
579.086	81.38
579.297	71.38
579.508	89.38
579.718	78.38
579.929	84.38
580.14	72.38
580.35	92.38
580.561	92.38
580.772	76.38
580.982	100.38
581.193	93.38
581.403	82.38
581.614	91.38
581.825	83.38
582.035	84.38
582.246	92.38
582.456	77.38
582.667	85.38
582.877	91.38
583.087	90.38
583.298	89.38
583.508	84.38
583.719	68.38
583.929	92.38
584.139	85.38
584.35	74.38
584.56	90.38
584.77	82.38
584.981	89.38
585.191	86.38
585.401	98.38
585.611	86.38
585.821	99.38
586.032	91.38
586.242	82.38
586.452	95.38
586.662	84.38
586.872	82.38
587.082	81.38
587.292	90.38
587.502	81.38
587.713	82.38
587.923	85.38
588.133	91.38
588.343	91.38
588.553	82.38
588.762	84.38
588.972	86.38
589.182	90.38
589.392	85.38
589.602	83.38
589.812	89.38
590.022	76.38
590.232	85.38
590.441	84.38
590.651	92.38
590.861	84.38
591.071	74.38
591.281	88.38
591.49	91.38
591.7	81.38
591.91	96.38
592.119	90.38
592.329	83.38
592.539	83.38
592.748	103.38
592.958	98.38
593.167	79.38
593.377	73.38
593.587	90.38
593.796	83.38
594.006	83.38
594.215	89.38
594.424	87.38
594.634	84.38
594.843	79.38
595.053	80.38
595.262	101.38
595.472	97.38
595.681	82.38
595.89	109.38
596.1	82.38
596.309	75.38
596.518	76.38
596.727	79.38
596.937	90.38
597.146	96.38
597.355	103.38
597.564	76.38
597.774	89.38
597.983	87.38
598.192	75.38
598.401	91.38
598.61	82.38
598.819	84.38
599.028	68.38
599.237	94.38
599.446	85.38
599.655	90.38
599.864	100.38
600.073	80.38
600.282	77.38
600.491	93.38
600.7	97.38
600.909	89.38
601.118	85.38
601.327	90.38
601.536	94.38
601.745	101.38
601.953	82.38
602.162	98.38
602.371	91.38
602.58	95.38
602.789	100.38
602.997	101.38
603.206	106.38
603.415	95.38
603.623	98.38
603.832	87.38
604.041	100.38
604.249	81.38
604.458	95.38
604.666	100.38
604.875	93.38
605.084	92.38
605.292	98.38
605.501	98.38
605.709	93.38
605.918	87.38
606.126	99.38
606.334	101.38
606.543	91.38
606.751	104.38
606.96	101.38
607.168	98.38
607.376	100.38
607.585	98.38
607.793	104.38
608.001	93.38
608.21	90.38
608.418	91.38
608.626	109.38
608.834	96.38
609.043	83.38
609.251	106.38
609.459	102.38
609.667	89.38
609.875	87.38
610.083	87.38
610.291	85.38
610.499	82.38
610.707	106.38
610.916	98.38
611.124	108.38
611.332	106.38
611.54	99.38
611.748	91.38
611.955	95.38
612.163	93.38
612.371	87.38
612.579	86.38
612.787	97.38
612.995	97.38
613.203	102.38
613.411	112.38
613.618	95.38
613.826	94.38
614.034	95.38
614.242	88.38
614.449	104.38
614.657	95.38
614.865	111.38
615.072	84.38
615.28	93.38
615.488	101.38
615.695	94.38
615.903	101.38
616.111	100.38
616.318	94.38
616.526	75.38
616.733	84.38
616.941	87.38
617.148	99.38
617.356	89.38
617.563	98.38
617.771	88.38
617.978	102.38
618.185	105.38
618.393	82.38
618.6	102.38
618.807	94.38
619.015	87.38
619.222	90.38
619.429	97.38
619.637	105.38
619.844	87.38
620.051	98.38
620.258	100.38
620.466	101.38
620.673	104.38
620.88	95.38
621.087	82.38
621.294	87.38
621.501	85.38
621.708	94.38
621.915	101.38
622.122	103.38
622.329	87.38
622.536	100.38
622.743	92.38
622.95	102.38
623.157	87.38
623.364	84.38
623.571	101.38
623.778	108.38
623.985	91.38
624.192	96.38
624.399	93.38
624.606	91.38
624.812	102.38
625.019	95.38
625.226	95.38
625.433	98.38
625.639	87.38
625.846	85.38
626.053	94.38
626.259	105.38
626.466	94.38
626.673	95.38
626.879	88.38
627.086	98.38
627.293	104.38
627.499	108.38
627.706	100.38
627.912	98.38
628.119	90.38
628.325	93.38
628.532	99.38
628.738	84.38
628.945	91.38
629.151	99.38
629.357	89.38
629.564	88.38
629.77	80.38
629.976	91.38
630.183	82.38
630.389	111.38
630.595	89.38
630.802	91.38
631.008	96.38
631.214	104.38
631.42	86.38
631.627	93.38
631.833	89.38
632.039	112.38
632.245	93.38
632.451	81.38
632.657	100.38
632.863	88.38
633.069	90.38
633.275	93.38
633.481	82.38
633.688	83.38
633.893	76.38
634.099	89.38
634.305	100.38
634.511	95.38
634.717	100.38
634.923	91.38
635.129	74.38
635.335	84.38
635.541	91.38
635.747	95.38
635.952	85.38
636.158	100.38
636.364	103.38
636.57	101.38
636.775	101.38
636.981	93.38
637.187	94.38
637.392	91.38
637.598	93.38
637.804	102.38
638.009	105.38
638.215	88.38
638.421	87.38
638.626	103.38
638.832	83.38
639.037	95.38
639.243	95.38
639.448	86.38
639.654	89.38
639.859	102.38
640.065	96.38
640.27	102.38
640.475	102.38
640.681	99.38
640.886	84.38
641.091	88.38
641.297	87.38
641.502	94.38
641.707	79.38
641.913	108.38
642.118	82.38
642.323	79.38
642.528	74.38
642.733	85.38
642.939	87.38
643.144	105.38
643.349	90.38
643.554	91.38
643.759	76.38
643.964	78.38
644.169	93.38
644.374	94.38
644.579	92.38
644.784	82.38
644.989	86.38
645.194	90.38
645.399	74.38
645.604	95.38
645.809	95.38
646.014	92.38
646.219	86.38
646.423	77.38
646.628	78.38
646.833	98.38
647.038	101.38
647.243	88.38
647.447	85.38
647.652	89.38
647.857	91.38
648.062	73.38
648.266	91.38
648.471	79.38
648.676	69.38
648.88	101.38
649.085	89.38
649.289	89.38
649.494	72.38
649.698	98.38
649.903	85.38
650.107	97.38
650.312	91.38
650.516	87.38
650.721	100.38
650.925	81.38
651.13	99.38
651.334	77.38
651.539	91.38
651.743	91.38
651.947	86.38
652.152	99.38
652.356	96.38
652.56	75.38
652.764	97.38
652.969	100.38
653.173	96.38
653.377	98.38
653.581	86.38
653.785	85.38
653.99	83.38
654.194	94.38
654.398	85.38
654.602	84.38
654.806	81.38
655.01	76.38
655.214	77.38
655.418	82.38
655.622	80.38
655.826	87.38
656.03	88.38
656.234	87.38
656.438	97.38
656.642	81.38
656.846	80.38
657.049	77.38
657.253	82.38
657.457	87.38
657.661	89.38
657.865	84.38
658.068	81.38
658.272	82.38
658.476	68.38
658.68	74.38
658.883	76.38
659.087	91.38
659.291	88.38
659.494	85.38
659.698	81.38
659.901	85.38
660.105	88.38
660.309	76.38
660.512	74.38
660.716	84.38
660.919	71.38
661.123	85.38
661.326	88.38
661.53	81.38
661.733	95.38
661.936	91.38
662.14	84.38
662.343	77.38
662.546	72.38
662.75	96.38
662.953	81.38
663.156	85.38
663.36	83.38
663.563	87.38
663.766	75.38
663.969	85.38
664.173	83.38
664.376	74.38
664.579	75.38
664.782	92.38
664.985	87.38
665.188	67.38
665.391	81.38
665.594	73.38
665.797	81.38
666	83.38
666.203	86.38
666.406	82.38
666.609	74.38
666.812	92.38
667.015	90.38
667.218	84.38
667.421	88.38
667.624	92.38
667.827	78.38
668.03	74.38
668.232	68.38
668.435	76.38
668.638	68.38
668.841	83.38
669.043	84.38
669.246	85.38
669.449	81.38
669.651	84.38
669.854	87.38
670.057	80.38
670.259	90.38
670.462	79.38
670.665	85.38
670.867	73.38
671.07	77.38
671.272	71.38
671.475	80.38
671.677	74.38
671.88	81.38
672.082	81.38
672.284	72.38
672.487	83.38
672.689	86.38
672.892	101.38
