Data from Zn(NO3)2Standard.Agarose3%.GreenCap.LampEnergy10E.O_HRD10591_15-08-16-948.txt Node
Date: Mon Jul 22 15:08:16 EDT 2019
User: cochatt
Spectrometer: HR+D1059
Trigger mode: 1
Integration Time (sec): 1.000000E-1
Scans to average: 1
Electric dark correction enabled: true
Nonlinearity correction enabled: false
Boxcar width: 0
XAxis mode: Wavelengths
Number of Pixels in Spectrum: 2048
>>>>>Begin Spectral Data<<<<<
223.165	-0.25
223.4	-0.25
223.635	-0.25
223.869	-16.25
224.104	-18.25
224.338	1.75
224.573	-8.25
224.808	-9.25
225.042	-6.25
225.277	-18.25
225.511	-16.25
225.746	-16.25
225.98	2.75
226.215	3.75
226.449	22.75
226.683	9.75
226.918	37.75
227.152	30.75
227.387	32.75
227.621	41.75
227.856	55.75
228.09	50.75
228.324	46.75
228.559	54.75
228.793	47.75
229.027	55.75
229.262	66.75
229.496	65.75
229.73	73.75
229.964	65.75
230.199	84.75
230.433	67.75
230.667	79.75
230.901	80.75
231.136	77.75
231.37	76.75
231.604	82.75
231.838	94.75
232.072	93.75
232.306	94.75
232.541	66.75
232.775	89.75
233.009	85.75
233.243	77.75
233.477	86.75
233.711	91.75
233.945	89.75
234.179	77.75
234.413	77.75
234.647	77.75
234.881	83.75
235.115	95.75
235.349	83.75
235.583	82.75
235.817	71.75
236.051	71.75
236.285	82.75
236.519	85.75
236.753	81.75
236.987	68.75
237.221	82.75
237.455	74.75
237.689	69.75
237.922	79.75
238.156	76.75
238.39	74.75
238.624	83.75
238.858	87.75
239.091	75.75
239.325	75.75
239.559	69.75
239.793	80.75
240.027	86.75
240.26	85.75
240.494	74.75
240.728	74.75
240.961	67.75
241.195	77.75
241.429	96.75
241.662	63.75
241.896	67.75
242.13	87.75
242.363	81.75
242.597	74.75
242.83	77.75
243.064	79.75
243.298	75.75
243.531	89.75
243.765	86.75
243.998	89.75
244.232	74.75
244.465	91.75
244.699	77.75
244.932	73.75
245.166	70.75
245.399	69.75
245.633	82.75
245.866	93.75
246.099	85.75
246.333	79.75
246.566	73.75
246.8	73.75
247.033	82.75
247.266	62.75
247.5	70.75
247.733	72.75
247.966	72.75
248.2	97.75
248.433	87.75
248.666	76.75
248.899	91.75
249.133	71.75
249.366	60.75
249.599	88.75
249.832	83.75
250.066	82.75
250.299	80.75
250.532	89.75
250.765	65.75
250.998	81.75
251.231	87.75
251.465	63.75
251.698	88.75
251.931	87.75
252.164	91.75
252.397	82.75
252.63	85.75
252.863	63.75
253.096	78.75
253.329	78.75
253.562	84.75
253.795	74.75
254.028	87.75
254.261	78.75
254.494	98.75
254.727	93.75
254.96	83.75
255.193	85.75
255.426	93.75
255.659	78.75
255.892	79.75
256.124	79.75
256.357	74.75
256.59	76.75
256.823	86.75
257.056	74.75
257.289	83.75
257.521	73.75
257.754	82.75
257.987	70.75
258.22	77.75
258.452	86.75
258.685	97.75
258.918	78.75
259.151	84.75
259.383	74.75
259.616	96.75
259.849	82.75
260.081	82.75
260.314	75.75
260.547	88.75
260.779	79.75
261.012	78.75
261.244	68.75
261.477	89.75
261.71	80.75
261.942	81.75
262.175	70.75
262.407	82.75
262.64	89.75
262.872	79.75
263.105	94.75
263.337	73.75
263.57	78.75
263.802	87.75
264.035	83.75
264.267	71.75
264.499	77.75
264.732	86.75
264.964	96.75
265.197	90.75
265.429	80.75
265.661	89.75
265.894	89.75
266.126	87.75
266.358	95.75
266.591	79.75
266.823	71.75
267.055	78.75
267.287	86.75
267.52	85.75
267.752	85.75
267.984	91.75
268.216	81.75
268.448	79.75
268.681	83.75
268.913	101.75
269.145	103.75
269.377	80.75
269.609	83.75
269.841	100.75
270.073	86.75
270.306	75.75
270.538	86.75
270.77	75.75
271.002	83.75
271.234	75.75
271.466	77.75
271.698	85.75
271.93	85.75
272.162	86.75
272.394	88.75
272.626	75.75
272.858	77.75
273.09	103.75
273.322	77.75
273.553	90.75
273.785	85.75
274.017	89.75
274.249	82.75
274.481	77.75
274.713	74.75
274.945	79.75
275.176	87.75
275.408	77.75
275.64	79.75
275.872	83.75
276.104	85.75
276.335	78.75
276.567	92.75
276.799	84.75
277.031	70.75
277.262	83.75
277.494	89.75
277.726	85.75
277.957	87.75
278.189	83.75
278.421	87.75
278.652	74.75
278.884	80.75
279.115	91.75
279.347	85.75
279.579	91.75
279.81	81.75
280.042	78.75
280.273	85.75
280.505	67.75
280.736	65.75
280.968	82.75
281.199	79.75
281.431	95.75
281.662	85.75
281.894	86.75
282.125	83.75
282.356	91.75
282.588	86.75
282.819	97.75
283.051	93.75
283.282	98.75
283.513	96.75
283.745	92.75
283.976	97.75
284.207	86.75
284.439	71.75
284.67	85.75
284.901	76.75
285.132	85.75
285.364	94.75
285.595	95.75
285.826	96.75
286.057	93.75
286.288	88.75
286.52	98.75
286.751	83.75
286.982	88.75
287.213	80.75
287.444	92.75
287.675	86.75
287.906	94.75
288.138	90.75
288.369	82.75
288.6	89.75
288.831	69.75
289.062	87.75
289.293	102.75
289.524	94.75
289.755	83.75
289.986	78.75
290.217	95.75
290.448	88.75
290.679	92.75
290.91	88.75
291.141	81.75
291.371	65.75
291.602	87.75
291.833	91.75
292.064	80.75
292.295	91.75
292.526	84.75
292.757	83.75
292.987	91.75
293.218	78.75
293.449	84.75
293.68	78.75
293.91	93.75
294.141	83.75
294.372	83.75
294.603	100.75
294.833	91.75
295.064	83.75
295.295	88.75
295.525	73.75
295.756	79.75
295.987	97.75
296.217	79.75
296.448	88.75
296.679	92.75
296.909	83.75
297.14	84.75
297.37	82.75
297.601	76.75
297.831	81.75
298.062	91.75
298.292	73.75
298.523	80.75
298.753	86.75
298.984	88.75
299.214	91.75
299.445	82.75
299.675	82.75
299.905	76.75
300.136	76.75
300.366	86.75
300.597	79.75
300.827	75.75
301.057	91.75
301.288	83.75
301.518	89.75
301.748	93.75
301.979	107.75
302.209	90.75
302.439	79.75
302.669	90.75
302.9	98.75
303.13	85.75
303.36	89.75
303.59	76.75
303.82	86.75
304.051	75.75
304.281	79.75
304.511	88.75
304.741	91.75
304.971	93.75
305.201	84.75
305.431	92.75
305.661	85.75
305.891	91.75
306.121	96.75
306.352	96.75
306.582	78.75
306.812	80.75
307.042	89.75
307.272	79.75
307.502	75.75
307.731	77.75
307.961	78.75
308.191	91.75
308.421	90.75
308.651	100.75
308.881	90.75
309.111	93.75
309.341	72.75
309.571	84.75
309.8	92.75
310.03	84.75
310.26	86.75
310.49	93.75
310.72	103.75
310.949	89.75
311.179	81.75
311.409	93.75
311.639	92.75
311.868	86.75
312.098	85.75
312.328	85.75
312.557	93.75
312.787	97.75
313.017	73.75
313.246	106.75
313.476	82.75
313.706	90.75
313.935	85.75
314.165	80.75
314.394	92.75
314.624	98.75
314.853	86.75
315.083	82.75
315.312	91.75
315.542	94.75
315.771	87.75
316.001	86.75
316.23	95.75
316.46	76.75
316.689	88.75
316.919	78.75
317.148	78.75
317.377	102.75
317.607	76.75
317.836	79.75
318.065	85.75
318.295	96.75
318.524	93.75
318.753	81.75
318.983	103.75
319.212	80.75
319.441	89.75
319.67	86.75
319.9	95.75
320.129	96.75
320.358	91.75
320.587	70.75
320.816	90.75
321.046	90.75
321.275	78.75
321.504	85.75
321.733	84.75
321.962	98.75
322.191	89.75
322.42	87.75
322.649	80.75
322.878	89.75
323.108	83.75
323.337	85.75
323.566	78.75
323.795	73.75
324.024	85.75
324.253	76.75
324.482	89.75
324.71	89.75
324.939	89.75
325.168	87.75
325.397	90.75
325.626	75.75
325.855	84.75
326.084	73.75
326.313	96.75
326.542	91.75
326.77	103.75
326.999	89.75
327.228	83.75
327.457	72.75
327.686	98.75
327.914	94.75
328.143	99.75
328.372	106.75
328.6	84.75
328.829	93.75
329.058	83.75
329.287	76.75
329.515	77.75
329.744	84.75
329.972	80.75
330.201	82.75
330.43	84.75
330.658	87.75
330.887	78.75
331.115	83.75
331.344	88.75
331.572	79.75
331.801	81.75
332.03	93.75
332.258	90.75
332.486	100.75
332.715	84.75
332.943	92.75
333.172	80.75
333.4	86.75
333.629	94.75
333.857	90.75
334.085	66.75
334.314	88.75
334.542	94.75
334.771	93.75
334.999	83.75
335.227	76.75
335.455	84.75
335.684	88.75
335.912	102.75
336.14	81.75
336.369	81.75
336.597	74.75
336.825	81.75
337.053	88.75
337.281	73.75
337.51	81.75
337.738	77.75
337.966	76.75
338.194	76.75
338.422	79.75
338.65	81.75
338.878	75.75
339.106	84.75
339.334	85.75
339.562	90.75
339.79	97.75
340.018	95.75
340.246	98.75
340.474	90.75
340.702	78.75
340.93	82.75
341.158	83.75
341.386	83.75
341.614	87.75
341.842	76.75
342.07	73.75
342.298	88.75
342.526	74.75
342.754	89.75
342.981	71.75
343.209	95.75
343.437	99.75
343.665	82.75
343.893	82.75
344.12	84.75
344.348	83.75
344.576	72.75
344.804	87.75
345.031	92.75
345.259	90.75
345.487	81.75
345.714	76.75
345.942	78.75
346.17	83.75
346.397	86.75
346.625	93.75
346.853	77.75
347.08	99.75
347.308	88.75
347.535	85.75
347.763	77.75
347.99	96.75
348.218	79.75
348.445	92.75
348.673	89.75
348.9	92.75
349.128	79.75
349.355	70.75
349.583	83.75
349.81	86.75
350.037	92.75
350.265	77.75
350.492	78.75
350.72	84.75
350.947	83.75
351.174	84.75
351.402	92.75
351.629	92.75
351.856	86.75
352.083	87.75
352.311	83.75
352.538	82.75
352.765	69.75
352.992	99.75
353.22	74.75
353.447	81.75
353.674	93.75
353.901	88.75
354.128	97.75
354.355	86.75
354.583	90.75
354.81	76.75
355.037	88.75
355.264	94.75
355.491	93.75
355.718	85.75
355.945	81.75
356.172	86.75
356.399	92.75
356.626	98.75
356.853	83.75
357.08	94.75
357.307	84.75
357.534	79.75
357.761	74.75
357.988	75.75
358.215	84.75
358.441	88.75
358.668	97.75
358.895	81.75
359.122	85.75
359.349	88.75
359.576	83.75
359.802	76.75
360.029	75.75
360.256	83.75
360.483	76.75
360.709	85.75
360.936	100.75
361.163	94.75
361.39	89.75
361.616	80.75
361.843	81.75
362.07	84.75
362.296	76.75
362.523	93.75
362.749	96.75
362.976	87.75
363.203	69.75
363.429	74.75
363.656	96.75
363.882	91.75
364.109	93.75
364.335	86.75
364.562	88.75
364.788	74.75
365.015	81.75
365.241	89.75
365.468	91.75
365.694	84.75
365.92	85.75
366.147	78.75
366.373	73.75
366.599	85.75
366.826	91.75
367.052	87.75
367.278	100.75
367.505	91.75
367.731	85.75
367.957	81.75
368.184	92.75
368.41	88.75
368.636	80.75
368.862	99.75
369.089	88.75
369.315	97.75
369.541	86.75
369.767	90.75
369.993	78.75
370.219	78.75
370.445	87.75
370.672	73.75
370.898	80.75
371.124	91.75
371.35	76.75
371.576	88.75
371.802	92.75
372.028	79.75
372.254	79.75
372.48	103.75
372.706	90.75
372.932	88.75
373.158	87.75
373.384	81.75
373.61	89.75
373.835	105.75
374.061	66.75
374.287	80.75
374.513	88.75
374.739	93.75
374.965	93.75
375.191	98.75
375.416	91.75
375.642	107.75
375.868	95.75
376.094	87.75
376.319	84.75
376.545	93.75
376.771	83.75
376.997	94.75
377.222	89.75
377.448	96.75
377.674	74.75
377.899	90.75
378.125	77.75
378.35	89.75
378.576	83.75
378.802	87.75
379.027	81.75
379.253	98.75
379.478	85.75
379.704	82.75
379.929	91.75
380.155	100.75
380.38	105.75
380.606	84.75
380.831	88.75
381.057	86.75
381.282	93.75
381.507	91.75
381.733	87.75
381.958	83.75
382.184	92.75
382.409	104.75
382.634	98.75
382.86	107.75
383.085	96.75
383.31	92.75
383.535	97.75
383.761	99.75
383.986	94.75
384.211	81.75
384.436	97.75
384.662	95.75
384.887	94.75
385.112	84.75
385.337	87.75
385.562	95.75
385.787	90.75
386.013	87.75
386.238	88.75
386.463	88.75
386.688	93.75
386.913	83.75
387.138	78.75
387.363	98.75
387.588	99.75
387.813	95.75
388.038	105.75
388.263	96.75
388.488	91.75
388.713	83.75
388.938	97.75
389.163	86.75
389.387	93.75
389.612	88.75
389.837	84.75
390.062	92.75
390.287	98.75
390.512	92.75
390.736	79.75
390.961	95.75
391.186	96.75
391.411	86.75
391.636	93.75
391.86	87.75
392.085	84.75
392.31	93.75
392.534	100.75
392.759	107.75
392.984	91.75
393.208	92.75
393.433	97.75
393.658	107.75
393.882	92.75
394.107	93.75
394.331	97.75
394.556	89.75
394.78	82.75
395.005	93.75
395.229	87.75
395.454	100.75
395.678	89.75
395.903	94.75
396.127	100.75
396.352	102.75
396.576	99.75
396.801	96.75
397.025	92.75
397.249	98.75
397.474	111.75
397.698	105.75
397.922	109.75
398.147	84.75
398.371	93.75
398.595	91.75
398.82	82.75
399.044	99.75
399.268	111.75
399.492	86.75
399.717	84.75
399.941	94.75
400.165	99.75
400.389	93.75
400.613	99.75
400.837	94.75
401.062	106.75
401.286	94.75
401.51	85.75
401.734	80.75
401.958	86.75
402.182	99.75
402.406	87.75
402.63	91.75
402.854	98.75
403.078	107.75
403.302	91.75
403.526	96.75
403.75	108.75
403.974	100.75
404.198	97.75
404.422	87.75
404.645	81.75
404.869	103.75
405.093	89.75
405.317	101.75
405.541	101.75
405.765	99.75
405.988	82.75
406.212	91.75
406.436	103.75
406.66	103.75
406.883	104.75
407.107	103.75
407.331	96.75
407.555	102.75
407.778	100.75
408.002	95.75
408.226	80.75
408.449	90.75
408.673	98.75
408.896	94.75
409.12	88.75
409.344	119.75
409.567	107.75
409.791	92.75
410.014	99.75
410.238	109.75
410.461	90.75
410.685	87.75
410.908	126.75
411.132	107.75
411.355	106.75
411.578	106.75
411.802	89.75
412.025	79.75
412.249	106.75
412.472	103.75
412.695	101.75
412.919	105.75
413.142	101.75
413.365	102.75
413.589	99.75
413.812	107.75
414.035	98.75
414.258	107.75
414.482	97.75
414.705	94.75
414.928	107.75
415.151	86.75
415.374	101.75
415.597	110.75
415.821	102.75
416.044	103.75
416.267	108.75
416.49	113.75
416.713	113.75
416.936	107.75
417.159	118.75
417.382	107.75
417.605	79.75
417.828	92.75
418.051	92.75
418.274	106.75
418.497	105.75
418.72	109.75
418.943	102.75
419.166	113.75
419.389	113.75
419.611	109.75
419.834	94.75
420.057	106.75
420.28	123.75
420.503	102.75
420.726	94.75
420.948	107.75
421.171	96.75
421.394	102.75
421.617	118.75
421.839	95.75
422.062	99.75
422.285	101.75
422.507	123.75
422.73	93.75
422.953	97.75
423.175	99.75
423.398	90.75
423.621	109.75
423.843	102.75
424.066	100.75
424.288	105.75
424.511	111.75
424.733	106.75
424.956	114.75
425.178	122.75
425.401	106.75
425.623	105.75
425.846	111.75
426.068	101.75
426.291	114.75
426.513	96.75
426.735	107.75
426.958	104.75
427.18	96.75
427.402	106.75
427.625	98.75
427.847	105.75
428.069	103.75
428.292	91.75
428.514	119.75
428.736	111.75
428.958	100.75
429.181	94.75
429.403	98.75
429.625	92.75
429.847	99.75
430.069	113.75
430.292	105.75
430.514	92.75
430.736	116.75
430.958	92.75
431.18	111.75
431.402	111.75
431.624	93.75
431.846	101.75
432.068	90.75
432.29	91.75
432.512	88.75
432.734	119.75
432.956	113.75
433.178	117.75
433.4	97.75
433.622	92.75
433.844	101.75
434.066	115.75
434.287	93.75
434.509	82.75
434.731	96.75
434.953	94.75
435.175	111.75
435.397	102.75
435.618	104.75
435.84	92.75
436.062	99.75
436.284	93.75
436.505	99.75
436.727	109.75
436.949	104.75
437.17	96.75
437.392	97.75
437.614	91.75
437.835	110.75
438.057	85.75
438.278	101.75
438.5	102.75
438.721	115.75
438.943	92.75
439.165	100.75
439.386	114.75
439.608	102.75
439.829	106.75
440.05	124.75
440.272	129.75
440.493	112.75
440.715	115.75
440.936	108.75
441.158	109.75
441.379	117.75
441.6	107.75
441.822	124.75
442.043	105.75
442.264	105.75
442.486	110.75
442.707	114.75
442.928	109.75
443.149	119.75
443.371	121.75
443.592	123.75
443.813	114.75
444.034	108.75
444.255	109.75
444.476	97.75
444.698	99.75
444.919	105.75
445.14	191.75
445.361	165.75
445.582	121.75
445.803	124.75
446.024	105.75
446.245	119.75
446.466	114.75
446.687	117.75
446.908	103.75
447.129	118.75
447.35	107.75
447.571	119.75
447.792	98.75
448.013	108.75
448.234	109.75
448.455	102.75
448.675	110.75
448.896	109.75
449.117	100.75
449.338	115.75
449.559	93.75
449.779	103.75
450	117.75
450.221	104.75
450.442	117.75
450.662	119.75
450.883	113.75
451.104	115.75
451.324	97.75
451.545	101.75
451.766	119.75
451.986	105.75
452.207	116.75
452.428	116.75
452.648	109.75
452.869	109.75
453.089	106.75
453.31	102.75
453.53	93.75
453.751	90.75
453.971	91.75
454.192	85.75
454.412	98.75
454.633	109.75
454.853	114.75
455.073	89.75
455.294	101.75
455.514	110.75
455.734	101.75
455.955	117.75
456.175	98.75
456.395	99.75
456.616	117.75
456.836	93.75
457.056	85.75
457.276	103.75
457.497	91.75
457.717	98.75
457.937	86.75
458.157	106.75
458.377	96.75
458.598	102.75
458.818	95.75
459.038	85.75
459.258	87.75
459.478	90.75
459.698	86.75
459.918	105.75
460.138	89.75
460.358	98.75
460.578	102.75
460.798	103.75
461.018	94.75
461.238	106.75
461.458	108.75
461.678	97.75
461.898	82.75
462.118	95.75
462.338	82.75
462.558	103.75
462.777	78.75
462.997	97.75
463.217	95.75
463.437	100.75
463.657	100.75
463.876	87.75
464.096	92.75
464.316	81.75
464.536	113.75
464.755	87.75
464.975	99.75
465.195	95.75
465.414	92.75
465.634	99.75
465.854	89.75
466.073	106.75
466.293	88.75
466.512	109.75
466.732	109.75
466.951	101.75
467.171	93.75
467.391	91.75
467.61	110.75
467.829	131.75
468.049	112.75
468.268	99.75
468.488	104.75
468.707	109.75
468.927	100.75
469.146	118.75
469.365	108.75
469.585	97.75
469.804	94.75
470.023	101.75
470.243	110.75
470.462	117.75
470.681	121.75
470.901	90.75
471.12	113.75
471.339	97.75
471.558	106.75
471.777	110.75
471.997	108.75
472.216	106.75
472.435	107.75
472.654	95.75
472.873	108.75
473.092	113.75
473.311	91.75
473.53	109.75
473.749	104.75
473.968	118.75
474.187	97.75
474.406	85.75
474.625	102.75
474.844	97.75
475.063	113.75
475.282	109.75
475.501	110.75
475.72	98.75
475.939	112.75
476.158	92.75
476.377	97.75
476.596	107.75
476.814	98.75
477.033	86.75
477.252	101.75
477.471	106.75
477.69	122.75
477.908	117.75
478.127	111.75
478.346	106.75
478.564	119.75
478.783	117.75
479.002	117.75
479.22	97.75
479.439	109.75
479.658	97.75
479.876	100.75
480.095	89.75
480.313	102.75
480.532	89.75
480.751	110.75
480.969	90.75
481.188	89.75
481.406	78.75
481.624	89.75
481.843	78.75
482.061	89.75
482.28	99.75
482.498	93.75
482.717	89.75
482.935	98.75
483.153	106.75
483.372	121.75
483.59	101.75
483.808	119.75
484.027	115.75
484.245	121.75
484.463	119.75
484.681	125.75
484.9	130.75
485.118	103.75
485.336	121.75
485.554	109.75
485.772	88.75
485.99	98.75
486.209	107.75
486.427	95.75
486.645	86.75
486.863	108.75
487.081	110.75
487.299	106.75
487.517	123.75
487.735	133.75
487.953	131.75
488.171	140.75
488.389	131.75
488.607	121.75
488.825	118.75
489.043	105.75
489.261	107.75
489.479	113.75
489.696	112.75
489.914	114.75
490.132	106.75
490.35	110.75
490.568	112.75
490.786	126.75
491.003	133.75
491.221	133.75
491.439	137.75
491.657	137.75
491.874	140.75
492.092	161.75
492.31	155.75
492.527	158.75
492.745	149.75
492.963	149.75
493.18	133.75
493.398	137.75
493.615	137.75
493.833	125.75
494.05	123.75
494.268	134.75
494.485	122.75
494.703	129.75
494.92	128.75
495.138	133.75
495.355	123.75
495.573	121.75
495.79	119.75
496.008	122.75
496.225	141.75
496.442	108.75
496.66	119.75
496.877	120.75
497.094	129.75
497.312	123.75
497.529	135.75
497.746	122.75
497.963	114.75
498.181	111.75
498.398	99.75
498.615	94.75
498.832	105.75
499.049	102.75
499.267	109.75
499.484	114.75
499.701	113.75
499.918	98.75
500.135	105.75
500.352	120.75
500.569	109.75
500.786	113.75
501.003	129.75
501.22	102.75
501.437	114.75
501.654	104.75
501.871	108.75
502.088	94.75
502.305	118.75
502.522	96.75
502.739	106.75
502.956	113.75
503.172	105.75
503.389	123.75
503.606	117.75
503.823	97.75
504.04	94.75
504.256	121.75
504.473	100.75
504.69	108.75
504.907	126.75
505.123	97.75
505.34	96.75
505.557	113.75
505.773	113.75
505.99	101.75
506.207	110.75
506.423	122.75
506.64	101.75
506.856	123.75
507.073	95.75
507.289	105.75
507.506	104.75
507.722	97.75
507.939	103.75
508.155	99.75
508.372	98.75
508.588	94.75
508.805	108.75
509.021	97.75
509.238	97.75
509.454	97.75
509.67	87.75
509.887	100.75
510.103	101.75
510.319	87.75
510.536	85.75
510.752	87.75
510.968	83.75
511.184	93.75
511.401	79.75
511.617	92.75
511.833	85.75
512.049	89.75
512.265	99.75
512.481	101.75
512.698	86.75
512.914	71.75
513.13	84.75
513.346	75.75
513.562	85.75
513.778	89.75
513.994	100.75
514.21	97.75
514.426	86.75
514.642	96.75
514.858	99.75
515.074	93.75
515.29	90.75
515.506	86.75
515.721	79.75
515.937	83.75
516.153	89.75
516.369	92.75
516.585	82.75
516.801	97.75
517.016	83.75
517.232	84.75
517.448	90.75
517.664	95.75
517.879	94.75
518.095	79.75
518.311	94.75
518.527	82.75
518.742	97.75
518.958	96.75
519.173	99.75
519.389	98.75
519.605	95.75
519.82	105.75
520.036	100.75
520.251	98.75
520.467	89.75
520.682	98.75
520.898	92.75
521.113	92.75
521.329	71.75
521.544	84.75
521.76	94.75
521.975	79.75
522.19	99.75
522.406	87.75
522.621	88.75
522.836	77.75
523.052	89.75
523.267	93.75
523.482	98.75
523.698	97.75
523.913	88.75
524.128	97.75
524.343	104.75
524.559	113.75
524.774	105.75
524.989	107.75
525.204	95.75
525.419	114.75
525.634	98.75
525.849	95.75
526.064	105.75
526.28	97.75
526.495	96.75
526.71	100.75
526.925	86.75
527.14	88.75
527.355	83.75
527.57	89.75
527.785	94.75
527.999	95.75
528.214	83.75
528.429	114.75
528.644	121.75
528.859	108.75
529.074	116.75
529.289	120.75
529.503	119.75
529.718	112.75
529.933	95.75
530.148	103.75
530.363	100.75
530.577	73.75
530.792	97.75
531.007	91.75
531.221	92.75
531.436	83.75
531.651	77.75
531.865	86.75
532.08	85.75
532.295	81.75
532.509	89.75
532.724	89.75
532.938	100.75
533.153	93.75
533.367	107.75
533.582	100.75
533.796	115.75
534.011	111.75
534.225	92.75
534.44	86.75
534.654	97.75
534.868	91.75
535.083	89.75
535.297	100.75
535.511	91.75
535.726	102.75
535.94	105.75
536.154	102.75
536.369	95.75
536.583	74.75
536.797	72.75
537.011	82.75
537.225	96.75
537.44	85.75
537.654	94.75
537.868	100.75
538.082	91.75
538.296	89.75
538.51	83.75
538.724	109.75
538.938	102.75
539.153	110.75
539.367	102.75
539.581	109.75
539.795	87.75
540.009	98.75
540.222	92.75
540.436	98.75
540.65	93.75
540.864	100.75
541.078	113.75
541.292	118.75
541.506	122.75
541.72	134.75
541.934	118.75
542.147	137.75
542.361	133.75
542.575	113.75
542.789	111.75
543.002	122.75
543.216	91.75
543.43	110.75
543.644	120.75
543.857	104.75
544.071	129.75
544.285	121.75
544.498	127.75
544.712	116.75
544.925	118.75
545.139	126.75
545.352	125.75
545.566	130.75
545.779	116.75
545.993	127.75
546.206	132.75
546.42	131.75
546.633	126.75
546.847	128.75
547.06	124.75
547.274	129.75
547.487	129.75
547.7	125.75
547.914	112.75
548.127	120.75
548.34	118.75
548.554	111.75
548.767	132.75
548.98	117.75
549.193	122.75
549.407	112.75
549.62	129.75
549.833	117.75
550.046	113.75
550.259	107.75
550.473	120.75
550.686	115.75
550.899	117.75
551.112	127.75
551.325	114.75
551.538	106.75
551.751	106.75
551.964	118.75
552.177	102.75
552.39	111.75
552.603	107.75
552.816	107.75
553.029	121.75
553.242	120.75
553.455	121.75
553.667	133.75
553.88	118.75
554.093	112.75
554.306	110.75
554.519	102.75
554.732	120.75
554.944	123.75
555.157	123.75
555.37	126.75
555.583	113.75
555.795	110.75
556.008	117.75
556.221	119.75
556.433	114.75
556.646	108.75
556.859	104.75
557.071	115.75
557.284	115.75
557.496	105.75
557.709	109.75
557.921	105.75
558.134	103.75
558.346	113.75
558.559	115.75
558.771	103.75
558.984	113.75
559.196	110.75
559.409	97.75
559.621	103.75
559.833	103.75
560.046	106.75
560.258	105.75
560.47	113.75
560.683	102.75
560.895	117.75
561.107	118.75
561.32	103.75
561.532	106.75
561.744	112.75
561.956	112.75
562.168	120.75
562.381	118.75
562.593	101.75
562.805	111.75
563.017	120.75
563.229	107.75
563.441	114.75
563.653	113.75
563.865	111.75
564.077	115.75
564.289	121.75
564.501	98.75
564.713	99.75
564.925	106.75
565.137	100.75
565.349	104.75
565.561	103.75
565.773	113.75
565.985	102.75
566.197	100.75
566.408	91.75
566.62	109.75
566.832	111.75
567.044	105.75
567.255	88.75
567.467	99.75
567.679	101.75
567.891	105.75
568.102	98.75
568.314	83.75
568.526	87.75
568.737	91.75
568.949	74.75
569.161	84.75
569.372	102.75
569.584	94.75
569.795	83.75
570.007	85.75
570.218	86.75
570.43	80.75
570.641	76.75
570.853	94.75
571.064	89.75
571.276	109.75
571.487	85.75
571.698	78.75
571.91	102.75
572.121	103.75
572.333	107.75
572.544	85.75
572.755	83.75
572.966	91.75
573.178	101.75
573.389	86.75
573.6	95.75
573.811	80.75
574.023	82.75
574.234	109.75
574.445	91.75
574.656	89.75
574.867	97.75
575.078	102.75
575.289	97.75
575.501	99.75
575.712	106.75
575.923	90.75
576.134	90.75
576.345	98.75
576.556	88.75
576.767	94.75
576.978	102.75
577.188	99.75
577.399	89.75
577.61	99.75
577.821	98.75
578.032	94.75
578.243	83.75
578.454	91.75
578.665	99.75
578.875	90.75
579.086	94.75
579.297	71.75
579.508	92.75
579.718	95.75
579.929	77.75
580.14	79.75
580.35	102.75
580.561	95.75
580.772	99.75
580.982	95.75
581.193	83.75
581.403	85.75
581.614	94.75
581.825	101.75
582.035	96.75
582.246	78.75
582.456	93.75
582.667	90.75
582.877	89.75
583.087	90.75
583.298	103.75
583.508	93.75
583.719	87.75
583.929	83.75
584.139	93.75
584.35	71.75
584.56	80.75
584.77	80.75
584.981	60.75
585.191	85.75
585.401	87.75
585.611	82.75
585.821	78.75
586.032	79.75
586.242	84.75
586.452	93.75
586.662	85.75
586.872	81.75
587.082	91.75
587.292	80.75
587.502	93.75
587.713	96.75
587.923	89.75
588.133	88.75
588.343	95.75
588.553	81.75
588.762	83.75
588.972	90.75
589.182	79.75
589.392	98.75
589.602	96.75
589.812	89.75
590.022	75.75
590.232	82.75
590.441	97.75
590.651	91.75
590.861	99.75
591.071	85.75
591.281	83.75
591.49	83.75
591.7	84.75
591.91	96.75
592.119	92.75
592.329	87.75
592.539	64.75
592.748	81.75
592.958	89.75
593.167	92.75
593.377	94.75
593.587	91.75
593.796	80.75
594.006	86.75
594.215	70.75
594.424	87.75
594.634	90.75
594.843	92.75
595.053	72.75
595.262	87.75
595.472	89.75
595.681	80.75
595.89	80.75
596.1	90.75
596.309	90.75
596.518	104.75
596.727	96.75
596.937	93.75
597.146	88.75
597.355	93.75
597.564	80.75
597.774	101.75
597.983	97.75
598.192	90.75
598.401	100.75
598.61	79.75
598.819	76.75
599.028	88.75
599.237	91.75
599.446	94.75
599.655	94.75
599.864	89.75
600.073	89.75
600.282	82.75
600.491	97.75
600.7	86.75
600.909	105.75
601.118	102.75
601.327	89.75
601.536	84.75
601.745	98.75
601.953	91.75
602.162	105.75
602.371	91.75
602.58	94.75
602.789	95.75
602.997	99.75
603.206	96.75
603.415	97.75
603.623	108.75
603.832	100.75
604.041	93.75
604.249	106.75
604.458	97.75
604.666	91.75
604.875	94.75
605.084	85.75
605.292	100.75
605.501	103.75
605.709	104.75
605.918	86.75
606.126	101.75
606.334	99.75
606.543	108.75
606.751	98.75
606.96	94.75
607.168	92.75
607.376	89.75
607.585	109.75
607.793	102.75
608.001	93.75
608.21	101.75
608.418	87.75
608.626	98.75
608.834	108.75
609.043	102.75
609.251	117.75
609.459	82.75
609.667	107.75
609.875	93.75
610.083	98.75
610.291	91.75
610.499	106.75
610.707	103.75
610.916	100.75
611.124	107.75
611.332	94.75
611.54	97.75
611.748	97.75
611.955	98.75
612.163	90.75
612.371	96.75
612.579	101.75
612.787	104.75
612.995	102.75
613.203	100.75
613.411	99.75
613.618	108.75
613.826	107.75
614.034	112.75
614.242	94.75
614.449	100.75
614.657	95.75
614.865	106.75
615.072	90.75
615.28	108.75
615.488	104.75
615.695	95.75
615.903	99.75
616.111	101.75
616.318	106.75
616.526	94.75
616.733	99.75
616.941	94.75
617.148	105.75
617.356	97.75
617.563	83.75
617.771	79.75
617.978	102.75
618.185	106.75
618.393	91.75
618.6	88.75
618.807	100.75
619.015	109.75
619.222	97.75
619.429	106.75
619.637	95.75
619.844	104.75
620.051	101.75
620.258	104.75
620.466	94.75
620.673	107.75
620.88	100.75
621.087	113.75
621.294	105.75
621.501	101.75
621.708	107.75
621.915	117.75
622.122	96.75
622.329	94.75
622.536	94.75
622.743	88.75
622.95	102.75
623.157	90.75
623.364	103.75
623.571	91.75
623.778	104.75
623.985	102.75
624.192	89.75
624.399	107.75
624.606	99.75
624.812	95.75
625.019	99.75
625.226	106.75
625.433	111.75
625.639	94.75
625.846	93.75
626.053	108.75
626.259	91.75
626.466	82.75
626.673	94.75
626.879	86.75
627.086	68.75
627.293	90.75
627.499	95.75
627.706	102.75
627.912	109.75
628.119	110.75
628.325	90.75
628.532	90.75
628.738	93.75
628.945	98.75
629.151	109.75
629.357	103.75
629.564	97.75
629.77	94.75
629.976	86.75
630.183	79.75
630.389	90.75
630.595	95.75
630.802	94.75
631.008	114.75
631.214	88.75
631.42	87.75
631.627	103.75
631.833	92.75
632.039	97.75
632.245	101.75
632.451	101.75
632.657	92.75
632.863	103.75
633.069	100.75
633.275	82.75
633.481	85.75
633.688	91.75
633.893	80.75
634.099	92.75
634.305	92.75
634.511	101.75
634.717	98.75
634.923	99.75
635.129	83.75
635.335	98.75
635.541	98.75
635.747	81.75
635.952	89.75
636.158	95.75
636.364	82.75
636.57	84.75
636.775	100.75
636.981	83.75
637.187	92.75
637.392	81.75
637.598	93.75
637.804	96.75
638.009	89.75
638.215	93.75
638.421	86.75
638.626	100.75
638.832	97.75
639.037	75.75
639.243	89.75
639.448	92.75
639.654	85.75
639.859	102.75
640.065	89.75
640.27	84.75
640.475	103.75
640.681	90.75
640.886	97.75
641.091	93.75
641.297	92.75
641.502	93.75
641.707	92.75
641.913	94.75
642.118	89.75
642.323	105.75
642.528	96.75
642.733	108.75
642.939	101.75
643.144	96.75
643.349	85.75
643.554	95.75
643.759	91.75
643.964	86.75
644.169	97.75
644.374	79.75
644.579	93.75
644.784	80.75
644.989	87.75
645.194	102.75
645.399	85.75
645.604	99.75
645.809	117.75
646.014	106.75
646.219	87.75
646.423	98.75
646.628	86.75
646.833	106.75
647.038	89.75
647.243	89.75
647.447	90.75
647.652	89.75
647.857	109.75
648.062	81.75
648.266	97.75
648.471	91.75
648.676	93.75
648.88	93.75
649.085	90.75
649.289	94.75
649.494	95.75
649.698	92.75
649.903	76.75
650.107	93.75
650.312	82.75
650.516	94.75
650.721	89.75
650.925	86.75
651.13	75.75
651.334	86.75
651.539	95.75
651.743	87.75
651.947	89.75
652.152	84.75
652.356	81.75
652.56	81.75
652.764	89.75
652.969	100.75
653.173	88.75
653.377	100.75
653.581	83.75
653.785	85.75
653.99	105.75
654.194	86.75
654.398	86.75
654.602	98.75
654.806	78.75
655.01	85.75
655.214	81.75
655.418	80.75
655.622	90.75
655.826	93.75
656.03	97.75
656.234	89.75
656.438	97.75
656.642	87.75
656.846	91.75
657.049	79.75
657.253	97.75
657.457	79.75
657.661	75.75
657.865	86.75
658.068	87.75
658.272	99.75
658.476	94.75
658.68	85.75
658.883	93.75
659.087	93.75
659.291	91.75
659.494	99.75
659.698	95.75
659.901	85.75
660.105	83.75
660.309	82.75
660.512	89.75
660.716	92.75
660.919	86.75
661.123	81.75
661.326	103.75
661.53	85.75
661.733	91.75
661.936	92.75
662.14	83.75
662.343	98.75
662.546	82.75
662.75	92.75
662.953	89.75
663.156	91.75
663.36	81.75
663.563	82.75
663.766	80.75
663.969	97.75
664.173	96.75
664.376	83.75
664.579	86.75
664.782	79.75
664.985	78.75
665.188	75.75
665.391	79.75
665.594	79.75
665.797	88.75
666	83.75
666.203	95.75
666.406	88.75
666.609	77.75
666.812	77.75
667.015	87.75
667.218	82.75
667.421	75.75
667.624	78.75
667.827	95.75
668.03	86.75
668.232	91.75
668.435	79.75
668.638	83.75
668.841	84.75
669.043	81.75
669.246	76.75
669.449	74.75
669.651	97.75
669.854	80.75
670.057	78.75
670.259	82.75
670.462	89.75
670.665	86.75
670.867	76.75
671.07	72.75
671.272	82.75
671.475	82.75
671.677	88.75
671.88	86.75
672.082	87.75
672.284	86.75
672.487	91.75
672.689	79.75
672.892	102.75
