Data from Zn(NO3)2Standard.Agarose3%.GreenCap.LampEnergy10E.O_HRD10591_15-08-42-950.txt Node
Date: Mon Jul 22 15:08:42 EDT 2019
User: cochatt
Spectrometer: HR+D1059
Trigger mode: 1
Integration Time (sec): 1.000000E-1
Scans to average: 1
Electric dark correction enabled: true
Nonlinearity correction enabled: false
Boxcar width: 0
XAxis mode: Wavelengths
Number of Pixels in Spectrum: 2048
>>>>>Begin Spectral Data<<<<<
223.165	-21.62
223.4	-21.62
223.635	-21.62
223.869	-19.62
224.104	-16.62
224.338	-24.62
224.573	-21.62
224.808	-13.62
225.042	-9.62
225.277	-5.62
225.511	11.38
225.746	12.38
225.98	2.38
226.215	16.38
226.449	24.38
226.683	33.38
226.918	11.38
227.152	21.38
227.387	29.38
227.621	31.38
227.856	47.38
228.09	48.38
228.324	41.38
228.559	53.38
228.793	43.38
229.027	59.38
229.262	47.38
229.496	53.38
229.73	59.38
229.964	70.38
230.199	81.38
230.433	80.38
230.667	79.38
230.901	71.38
231.136	71.38
231.37	94.38
231.604	72.38
231.838	81.38
232.072	70.38
232.306	91.38
232.541	73.38
232.775	82.38
233.009	89.38
233.243	82.38
233.477	73.38
233.711	80.38
233.945	80.38
234.179	92.38
234.413	81.38
234.647	85.38
234.881	94.38
235.115	83.38
235.349	77.38
235.583	81.38
235.817	75.38
236.051	83.38
236.285	77.38
236.519	63.38
236.753	76.38
236.987	76.38
237.221	62.38
237.455	74.38
237.689	73.38
237.922	71.38
238.156	75.38
238.39	79.38
238.624	67.38
238.858	71.38
239.091	76.38
239.325	75.38
239.559	76.38
239.793	81.38
240.027	74.38
240.26	65.38
240.494	80.38
240.728	71.38
240.961	83.38
241.195	85.38
241.429	67.38
241.662	77.38
241.896	83.38
242.13	76.38
242.363	76.38
242.597	51.38
242.83	65.38
243.064	76.38
243.298	79.38
243.531	80.38
243.765	79.38
243.998	69.38
244.232	78.38
244.465	83.38
244.699	74.38
244.932	77.38
245.166	68.38
245.399	75.38
245.633	57.38
245.866	71.38
246.099	71.38
246.333	60.38
246.566	65.38
246.8	76.38
247.033	76.38
247.266	84.38
247.5	85.38
247.733	75.38
247.966	69.38
248.2	79.38
248.433	74.38
248.666	72.38
248.899	75.38
249.133	78.38
249.366	86.38
249.599	84.38
249.832	72.38
250.066	78.38
250.299	85.38
250.532	84.38
250.765	78.38
250.998	84.38
251.231	74.38
251.465	85.38
251.698	73.38
251.931	75.38
252.164	81.38
252.397	85.38
252.63	74.38
252.863	77.38
253.096	76.38
253.329	82.38
253.562	72.38
253.795	85.38
254.028	74.38
254.261	84.38
254.494	80.38
254.727	79.38
254.96	81.38
255.193	86.38
255.426	89.38
255.659	74.38
255.892	92.38
256.124	81.38
256.357	71.38
256.59	81.38
256.823	72.38
257.056	81.38
257.289	101.38
257.521	79.38
257.754	84.38
257.987	90.38
258.22	79.38
258.452	76.38
258.685	80.38
258.918	80.38
259.151	67.38
259.383	77.38
259.616	73.38
259.849	93.38
260.081	78.38
260.314	73.38
260.547	77.38
260.779	82.38
261.012	62.38
261.244	80.38
261.477	87.38
261.71	83.38
261.942	89.38
262.175	77.38
262.407	79.38
262.64	85.38
262.872	76.38
263.105	80.38
263.337	86.38
263.57	84.38
263.802	86.38
264.035	77.38
264.267	76.38
264.499	78.38
264.732	74.38
264.964	81.38
265.197	80.38
265.429	75.38
265.661	86.38
265.894	83.38
266.126	78.38
266.358	72.38
266.591	74.38
266.823	83.38
267.055	76.38
267.287	84.38
267.52	77.38
267.752	89.38
267.984	72.38
268.216	69.38
268.448	83.38
268.681	85.38
268.913	75.38
269.145	78.38
269.377	65.38
269.609	73.38
269.841	86.38
270.073	78.38
270.306	73.38
270.538	86.38
270.77	82.38
271.002	88.38
271.234	80.38
271.466	82.38
271.698	68.38
271.93	85.38
272.162	83.38
272.394	86.38
272.626	80.38
272.858	87.38
273.09	80.38
273.322	82.38
273.553	79.38
273.785	72.38
274.017	86.38
274.249	89.38
274.481	77.38
274.713	72.38
274.945	96.38
275.176	77.38
275.408	94.38
275.64	88.38
275.872	87.38
276.104	80.38
276.335	86.38
276.567	75.38
276.799	74.38
277.031	80.38
277.262	62.38
277.494	84.38
277.726	98.38
277.957	76.38
278.189	72.38
278.421	88.38
278.652	82.38
278.884	68.38
279.115	85.38
279.347	86.38
279.579	93.38
279.81	83.38
280.042	71.38
280.273	102.38
280.505	70.38
280.736	75.38
280.968	91.38
281.199	87.38
281.431	97.38
281.662	77.38
281.894	77.38
282.125	91.38
282.356	93.38
282.588	98.38
282.819	87.38
283.051	86.38
283.282	94.38
283.513	80.38
283.745	77.38
283.976	96.38
284.207	87.38
284.439	87.38
284.67	82.38
284.901	66.38
285.132	64.38
285.364	83.38
285.595	83.38
285.826	81.38
286.057	84.38
286.288	75.38
286.52	87.38
286.751	84.38
286.982	78.38
287.213	74.38
287.444	83.38
287.675	85.38
287.906	69.38
288.138	98.38
288.369	82.38
288.6	92.38
288.831	97.38
289.062	92.38
289.293	76.38
289.524	87.38
289.755	77.38
289.986	72.38
290.217	78.38
290.448	92.38
290.679	91.38
290.91	71.38
291.141	70.38
291.371	71.38
291.602	90.38
291.833	93.38
292.064	62.38
292.295	84.38
292.526	98.38
292.757	83.38
292.987	77.38
293.218	95.38
293.449	99.38
293.68	89.38
293.91	75.38
294.141	84.38
294.372	74.38
294.603	73.38
294.833	55.38
295.064	85.38
295.295	74.38
295.525	82.38
295.756	92.38
295.987	75.38
296.217	82.38
296.448	92.38
296.679	87.38
296.909	57.38
297.14	91.38
297.37	89.38
297.601	71.38
297.831	75.38
298.062	68.38
298.292	73.38
298.523	90.38
298.753	84.38
298.984	79.38
299.214	79.38
299.445	73.38
299.675	91.38
299.905	91.38
300.136	84.38
300.366	84.38
300.597	76.38
300.827	86.38
301.057	77.38
301.288	91.38
301.518	80.38
301.748	81.38
301.979	95.38
302.209	82.38
302.439	84.38
302.669	84.38
302.9	83.38
303.13	80.38
303.36	85.38
303.59	70.38
303.82	79.38
304.051	68.38
304.281	89.38
304.511	73.38
304.741	72.38
304.971	78.38
305.201	94.38
305.431	92.38
305.661	87.38
305.891	70.38
306.121	86.38
306.352	87.38
306.582	94.38
306.812	83.38
307.042	93.38
307.272	83.38
307.502	77.38
307.731	77.38
307.961	79.38
308.191	88.38
308.421	81.38
308.651	75.38
308.881	72.38
309.111	81.38
309.341	86.38
309.571	92.38
309.8	71.38
310.03	90.38
310.26	75.38
310.49	83.38
310.72	75.38
310.949	89.38
311.179	89.38
311.409	87.38
311.639	73.38
311.868	84.38
312.098	77.38
312.328	88.38
312.557	89.38
312.787	75.38
313.017	78.38
313.246	84.38
313.476	87.38
313.706	100.38
313.935	67.38
314.165	94.38
314.394	86.38
314.624	88.38
314.853	82.38
315.083	77.38
315.312	72.38
315.542	65.38
315.771	79.38
316.001	83.38
316.23	89.38
316.46	84.38
316.689	71.38
316.919	79.38
317.148	74.38
317.377	77.38
317.607	81.38
317.836	90.38
318.065	104.38
318.295	85.38
318.524	105.38
318.753	96.38
318.983	94.38
319.212	79.38
319.441	80.38
319.67	58.38
319.9	90.38
320.129	84.38
320.358	85.38
320.587	95.38
320.816	79.38
321.046	70.38
321.275	79.38
321.504	72.38
321.733	83.38
321.962	78.38
322.191	86.38
322.42	90.38
322.649	89.38
322.878	95.38
323.108	99.38
323.337	88.38
323.566	88.38
323.795	78.38
324.024	76.38
324.253	91.38
324.482	76.38
324.71	93.38
324.939	90.38
325.168	80.38
325.397	77.38
325.626	80.38
325.855	94.38
326.084	82.38
326.313	88.38
326.542	92.38
326.77	79.38
326.999	71.38
327.228	75.38
327.457	89.38
327.686	76.38
327.914	61.38
328.143	71.38
328.372	73.38
328.6	79.38
328.829	84.38
329.058	75.38
329.287	83.38
329.515	81.38
329.744	74.38
329.972	69.38
330.201	74.38
330.43	82.38
330.658	84.38
330.887	79.38
331.115	92.38
331.344	81.38
331.572	75.38
331.801	87.38
332.03	78.38
332.258	76.38
332.486	67.38
332.715	70.38
332.943	93.38
333.172	90.38
333.4	82.38
333.629	89.38
333.857	87.38
334.085	80.38
334.314	82.38
334.542	89.38
334.771	64.38
334.999	76.38
335.227	81.38
335.455	83.38
335.684	76.38
335.912	91.38
336.14	84.38
336.369	72.38
336.597	75.38
336.825	85.38
337.053	86.38
337.281	82.38
337.51	68.38
337.738	82.38
337.966	73.38
338.194	67.38
338.422	83.38
338.65	79.38
338.878	86.38
339.106	69.38
339.334	90.38
339.562	74.38
339.79	74.38
340.018	76.38
340.246	86.38
340.474	81.38
340.702	87.38
340.93	88.38
341.158	74.38
341.386	78.38
341.614	88.38
341.842	75.38
342.07	84.38
342.298	77.38
342.526	88.38
342.754	81.38
342.981	87.38
343.209	70.38
343.437	88.38
343.665	70.38
343.893	94.38
344.12	75.38
344.348	87.38
344.576	80.38
344.804	83.38
345.031	80.38
345.259	86.38
345.487	84.38
345.714	86.38
345.942	78.38
346.17	83.38
346.397	83.38
346.625	90.38
346.853	82.38
347.08	82.38
347.308	80.38
347.535	84.38
347.763	88.38
347.99	81.38
348.218	83.38
348.445	77.38
348.673	76.38
348.9	76.38
349.128	93.38
349.355	90.38
349.583	89.38
349.81	76.38
350.037	80.38
350.265	73.38
350.492	83.38
350.72	90.38
350.947	90.38
351.174	77.38
351.402	81.38
351.629	90.38
351.856	88.38
352.083	93.38
352.311	76.38
352.538	77.38
352.765	70.38
352.992	80.38
353.22	90.38
353.447	82.38
353.674	81.38
353.901	82.38
354.128	81.38
354.355	69.38
354.583	75.38
354.81	82.38
355.037	85.38
355.264	82.38
355.491	88.38
355.718	69.38
355.945	76.38
356.172	79.38
356.399	68.38
356.626	92.38
356.853	75.38
357.08	80.38
357.307	76.38
357.534	79.38
357.761	81.38
357.988	75.38
358.215	79.38
358.441	79.38
358.668	83.38
358.895	76.38
359.122	90.38
359.349	89.38
359.576	73.38
359.802	86.38
360.029	78.38
360.256	75.38
360.483	76.38
360.709	88.38
360.936	91.38
361.163	98.38
361.39	87.38
361.616	74.38
361.843	91.38
362.07	91.38
362.296	87.38
362.523	84.38
362.749	80.38
362.976	91.38
363.203	79.38
363.429	75.38
363.656	89.38
363.882	90.38
364.109	82.38
364.335	81.38
364.562	75.38
364.788	81.38
365.015	84.38
365.241	84.38
365.468	86.38
365.694	84.38
365.92	79.38
366.147	86.38
366.373	86.38
366.599	91.38
366.826	77.38
367.052	75.38
367.278	80.38
367.505	85.38
367.731	91.38
367.957	76.38
368.184	78.38
368.41	73.38
368.636	75.38
368.862	76.38
369.089	89.38
369.315	74.38
369.541	92.38
369.767	97.38
369.993	81.38
370.219	85.38
370.445	77.38
370.672	79.38
370.898	70.38
371.124	89.38
371.35	80.38
371.576	75.38
371.802	80.38
372.028	80.38
372.254	81.38
372.48	102.38
372.706	79.38
372.932	79.38
373.158	78.38
373.384	73.38
373.61	90.38
373.835	77.38
374.061	80.38
374.287	90.38
374.513	82.38
374.739	73.38
374.965	67.38
375.191	84.38
375.416	89.38
375.642	81.38
375.868	100.38
376.094	84.38
376.319	72.38
376.545	87.38
376.771	91.38
376.997	85.38
377.222	73.38
377.448	80.38
377.674	78.38
377.899	82.38
378.125	89.38
378.35	85.38
378.576	86.38
378.802	76.38
379.027	78.38
379.253	93.38
379.478	80.38
379.704	86.38
379.929	79.38
380.155	89.38
380.38	76.38
380.606	87.38
380.831	87.38
381.057	107.38
381.282	91.38
381.507	81.38
381.733	84.38
381.958	94.38
382.184	95.38
382.409	82.38
382.634	91.38
382.86	83.38
383.085	93.38
383.31	84.38
383.535	87.38
383.761	94.38
383.986	87.38
384.211	80.38
384.436	71.38
384.662	82.38
384.887	98.38
385.112	97.38
385.337	82.38
385.562	72.38
385.787	91.38
386.013	106.38
386.238	79.38
386.463	90.38
386.688	87.38
386.913	84.38
387.138	91.38
387.363	77.38
387.588	86.38
387.813	103.38
388.038	98.38
388.263	71.38
388.488	84.38
388.713	94.38
388.938	70.38
389.163	95.38
389.387	76.38
389.612	85.38
389.837	100.38
390.062	89.38
390.287	86.38
390.512	95.38
390.736	83.38
390.961	77.38
391.186	88.38
391.411	106.38
391.636	97.38
391.86	96.38
392.085	77.38
392.31	86.38
392.534	90.38
392.759	83.38
392.984	90.38
393.208	103.38
393.433	96.38
393.658	84.38
393.882	86.38
394.107	91.38
394.331	91.38
394.556	90.38
394.78	90.38
395.005	90.38
395.229	85.38
395.454	86.38
395.678	87.38
395.903	88.38
396.127	88.38
396.352	84.38
396.576	79.38
396.801	96.38
397.025	100.38
397.249	92.38
397.474	98.38
397.698	87.38
397.922	86.38
398.147	81.38
398.371	91.38
398.595	89.38
398.82	89.38
399.044	104.38
399.268	91.38
399.492	100.38
399.717	88.38
399.941	107.38
400.165	99.38
400.389	95.38
400.613	92.38
400.837	82.38
401.062	105.38
401.286	87.38
401.51	83.38
401.734	91.38
401.958	91.38
402.182	103.38
402.406	92.38
402.63	102.38
402.854	106.38
403.078	85.38
403.302	102.38
403.526	90.38
403.75	98.38
403.974	84.38
404.198	100.38
404.422	99.38
404.645	95.38
404.869	91.38
405.093	77.38
405.317	100.38
405.541	101.38
405.765	95.38
405.988	90.38
406.212	104.38
406.436	87.38
406.66	90.38
406.883	93.38
407.107	92.38
407.331	78.38
407.555	94.38
407.778	98.38
408.002	112.38
408.226	85.38
408.449	112.38
408.673	95.38
408.896	98.38
409.12	95.38
409.344	107.38
409.567	96.38
409.791	96.38
410.014	103.38
410.238	104.38
410.461	112.38
410.685	102.38
410.908	92.38
411.132	99.38
411.355	92.38
411.578	96.38
411.802	107.38
412.025	87.38
412.249	88.38
412.472	95.38
412.695	85.38
412.919	99.38
413.142	98.38
413.365	114.38
413.589	90.38
413.812	110.38
414.035	84.38
414.258	104.38
414.482	96.38
414.705	112.38
414.928	102.38
415.151	103.38
415.374	86.38
415.597	90.38
415.821	98.38
416.044	112.38
416.267	95.38
416.49	96.38
416.713	94.38
416.936	90.38
417.159	104.38
417.382	102.38
417.605	95.38
417.828	97.38
418.051	99.38
418.274	99.38
418.497	111.38
418.72	96.38
418.943	110.38
419.166	117.38
419.389	106.38
419.611	99.38
419.834	102.38
420.057	96.38
420.28	112.38
420.503	94.38
420.726	100.38
420.948	111.38
421.171	124.38
421.394	95.38
421.617	97.38
421.839	101.38
422.062	100.38
422.285	114.38
422.507	103.38
422.73	97.38
422.953	111.38
423.175	102.38
423.398	102.38
423.621	91.38
423.843	108.38
424.066	110.38
424.288	114.38
424.511	112.38
424.733	103.38
424.956	107.38
425.178	101.38
425.401	108.38
425.623	104.38
425.846	110.38
426.068	100.38
426.291	99.38
426.513	90.38
426.735	103.38
426.958	117.38
427.18	113.38
427.402	100.38
427.625	91.38
427.847	102.38
428.069	102.38
428.292	105.38
428.514	97.38
428.736	102.38
428.958	106.38
429.181	114.38
429.403	104.38
429.625	116.38
429.847	115.38
430.069	95.38
430.292	96.38
430.514	112.38
430.736	99.38
430.958	110.38
431.18	104.38
431.402	95.38
431.624	104.38
431.846	89.38
432.068	94.38
432.29	101.38
432.512	96.38
432.734	90.38
432.956	88.38
433.178	100.38
433.4	104.38
433.622	119.38
433.844	99.38
434.066	109.38
434.287	87.38
434.509	90.38
434.731	98.38
434.953	109.38
435.175	92.38
435.397	98.38
435.618	94.38
435.84	105.38
436.062	102.38
436.284	101.38
436.505	119.38
436.727	101.38
436.949	102.38
437.17	115.38
437.392	88.38
437.614	84.38
437.835	96.38
438.057	86.38
438.278	82.38
438.5	85.38
438.721	110.38
438.943	112.38
439.165	114.38
439.386	97.38
439.608	117.38
439.829	116.38
440.05	112.38
440.272	108.38
440.493	119.38
440.715	115.38
440.936	122.38
441.158	120.38
441.379	108.38
441.6	115.38
441.822	113.38
442.043	108.38
442.264	118.38
442.486	112.38
442.707	111.38
442.928	94.38
443.149	101.38
443.371	100.38
443.592	104.38
443.813	109.38
444.034	100.38
444.255	108.38
444.476	99.38
444.698	115.38
444.919	110.38
445.14	203.38
445.361	151.38
445.582	106.38
445.803	120.38
446.024	124.38
446.245	115.38
446.466	114.38
446.687	118.38
446.908	114.38
447.129	127.38
447.35	117.38
447.571	89.38
447.792	107.38
448.013	117.38
448.234	107.38
448.455	119.38
448.675	111.38
448.896	110.38
449.117	85.38
449.338	90.38
449.559	95.38
449.779	107.38
450	107.38
450.221	98.38
450.442	107.38
450.662	106.38
450.883	103.38
451.104	106.38
451.324	105.38
451.545	94.38
451.766	111.38
451.986	100.38
452.207	110.38
452.428	112.38
452.648	101.38
452.869	88.38
453.089	90.38
453.31	85.38
453.53	105.38
453.751	98.38
453.971	100.38
454.192	99.38
454.412	96.38
454.633	92.38
454.853	87.38
455.073	99.38
455.294	86.38
455.514	99.38
455.734	104.38
455.955	103.38
456.175	90.38
456.395	88.38
456.616	88.38
456.836	91.38
457.056	91.38
457.276	83.38
457.497	95.38
457.717	97.38
457.937	85.38
458.157	90.38
458.377	100.38
458.598	90.38
458.818	97.38
459.038	93.38
459.258	83.38
459.478	69.38
459.698	81.38
459.918	91.38
460.138	98.38
460.358	100.38
460.578	111.38
460.798	104.38
461.018	94.38
461.238	87.38
461.458	97.38
461.678	96.38
461.898	85.38
462.118	105.38
462.338	100.38
462.558	100.38
462.777	103.38
462.997	95.38
463.217	78.38
463.437	78.38
463.657	83.38
463.876	93.38
464.096	90.38
464.316	83.38
464.536	99.38
464.755	102.38
464.975	96.38
465.195	97.38
465.414	91.38
465.634	106.38
465.854	96.38
466.073	103.38
466.293	96.38
466.512	121.38
466.732	105.38
466.951	99.38
467.171	117.38
467.391	118.38
467.61	106.38
467.829	102.38
468.049	106.38
468.268	114.38
468.488	112.38
468.707	100.38
468.927	96.38
469.146	115.38
469.365	114.38
469.585	99.38
469.804	102.38
470.023	111.38
470.243	115.38
470.462	118.38
470.681	114.38
470.901	104.38
471.12	110.38
471.339	96.38
471.558	94.38
471.777	115.38
471.997	93.38
472.216	107.38
472.435	106.38
472.654	103.38
472.873	90.38
473.092	97.38
473.311	98.38
473.53	93.38
473.749	104.38
473.968	107.38
474.187	107.38
474.406	97.38
474.625	89.38
474.844	106.38
475.063	107.38
475.282	82.38
475.501	103.38
475.72	112.38
475.939	94.38
476.158	104.38
476.377	106.38
476.596	97.38
476.814	98.38
477.033	106.38
477.252	107.38
477.471	108.38
477.69	111.38
477.908	110.38
478.127	110.38
478.346	102.38
478.564	122.38
478.783	101.38
479.002	103.38
479.22	120.38
479.439	103.38
479.658	102.38
479.876	110.38
480.095	95.38
480.313	99.38
480.532	85.38
480.751	85.38
480.969	88.38
481.188	82.38
481.406	82.38
481.624	76.38
481.843	90.38
482.061	80.38
482.28	81.38
482.498	101.38
482.717	94.38
482.935	84.38
483.153	91.38
483.372	105.38
483.59	107.38
483.808	108.38
484.027	115.38
484.245	96.38
484.463	113.38
484.681	120.38
484.9	124.38
485.118	105.38
485.336	111.38
485.554	94.38
485.772	84.38
485.99	103.38
486.209	99.38
486.427	90.38
486.645	95.38
486.863	98.38
487.081	99.38
487.299	89.38
487.517	118.38
487.735	121.38
487.953	139.38
488.171	135.38
488.389	126.38
488.607	122.38
488.825	117.38
489.043	115.38
489.261	108.38
489.479	118.38
489.696	101.38
489.914	102.38
490.132	111.38
490.35	98.38
490.568	123.38
490.786	128.38
491.003	122.38
491.221	128.38
491.439	122.38
491.657	146.38
491.874	146.38
492.092	150.38
492.31	150.38
492.527	143.38
492.745	153.38
492.963	132.38
493.18	128.38
493.398	138.38
493.615	127.38
493.833	123.38
494.05	123.38
494.268	122.38
494.485	118.38
494.703	111.38
494.92	145.38
495.138	107.38
495.355	132.38
495.573	135.38
495.79	127.38
496.008	123.38
496.225	120.38
496.442	108.38
496.66	118.38
496.877	128.38
497.094	123.38
497.312	105.38
497.529	116.38
497.746	112.38
497.963	118.38
498.181	100.38
498.398	99.38
498.615	115.38
498.832	94.38
499.049	92.38
499.267	96.38
499.484	128.38
499.701	119.38
499.918	105.38
500.135	117.38
500.352	90.38
500.569	94.38
500.786	119.38
501.003	116.38
501.22	125.38
501.437	112.38
501.654	92.38
501.871	109.38
502.088	94.38
502.305	111.38
502.522	110.38
502.739	109.38
502.956	101.38
503.172	99.38
503.389	117.38
503.606	92.38
503.823	109.38
504.04	105.38
504.256	105.38
504.473	111.38
504.69	91.38
504.907	103.38
505.123	112.38
505.34	113.38
505.557	96.38
505.773	106.38
505.99	100.38
506.207	102.38
506.423	90.38
506.64	113.38
506.856	92.38
507.073	104.38
507.289	101.38
507.506	100.38
507.722	104.38
507.939	103.38
508.155	96.38
508.372	98.38
508.588	100.38
508.805	102.38
509.021	102.38
509.238	97.38
509.454	79.38
509.67	96.38
509.887	99.38
510.103	75.38
510.319	90.38
510.536	96.38
510.752	80.38
510.968	86.38
511.184	97.38
511.401	72.38
511.617	89.38
511.833	84.38
512.049	86.38
512.265	92.38
512.481	91.38
512.698	103.38
512.914	89.38
513.13	96.38
513.346	92.38
513.562	102.38
513.778	94.38
513.994	87.38
514.21	91.38
514.426	94.38
514.642	94.38
514.858	93.38
515.074	78.38
515.29	84.38
515.506	68.38
515.721	100.38
515.937	88.38
516.153	83.38
516.369	84.38
516.585	87.38
516.801	90.38
517.016	87.38
517.232	88.38
517.448	90.38
517.664	89.38
517.879	84.38
518.095	92.38
518.311	86.38
518.527	101.38
518.742	90.38
518.958	94.38
519.173	95.38
519.389	103.38
519.605	101.38
519.82	97.38
520.036	87.38
520.251	101.38
520.467	97.38
520.682	67.38
520.898	93.38
521.113	80.38
521.329	80.38
521.544	82.38
521.76	96.38
521.975	100.38
522.19	100.38
522.406	89.38
522.621	66.38
522.836	89.38
523.052	110.38
523.267	106.38
523.482	102.38
523.698	97.38
523.913	89.38
524.128	100.38
524.343	98.38
524.559	103.38
524.774	93.38
524.989	91.38
525.204	88.38
525.419	103.38
525.634	97.38
525.849	86.38
526.064	94.38
526.28	87.38
526.495	97.38
526.71	81.38
526.925	82.38
527.14	87.38
527.355	66.38
527.57	83.38
527.785	85.38
527.999	102.38
528.214	92.38
528.429	103.38
528.644	96.38
528.859	107.38
529.074	114.38
529.289	118.38
529.503	116.38
529.718	128.38
529.933	98.38
530.148	92.38
530.363	84.38
530.577	91.38
530.792	95.38
531.007	80.38
531.221	84.38
531.436	81.38
531.651	81.38
531.865	86.38
532.08	86.38
532.295	89.38
532.509	88.38
532.724	80.38
532.938	88.38
533.153	85.38
533.367	95.38
533.582	112.38
533.796	102.38
534.011	91.38
534.225	90.38
534.44	90.38
534.654	82.38
534.868	94.38
535.083	88.38
535.297	92.38
535.511	86.38
535.726	76.38
535.94	88.38
536.154	94.38
536.369	82.38
536.583	89.38
536.797	91.38
537.011	89.38
537.225	80.38
537.44	87.38
537.654	92.38
537.868	90.38
538.082	80.38
538.296	87.38
538.51	88.38
538.724	107.38
538.938	104.38
539.153	99.38
539.367	111.38
539.581	102.38
539.795	99.38
540.009	84.38
540.222	100.38
540.436	102.38
540.65	92.38
540.864	96.38
541.078	105.38
541.292	124.38
541.506	123.38
541.72	127.38
541.934	118.38
542.147	124.38
542.361	129.38
542.575	108.38
542.789	122.38
543.002	102.38
543.216	99.38
543.43	112.38
543.644	104.38
543.857	119.38
544.071	126.38
544.285	118.38
544.498	125.38
544.712	103.38
544.925	116.38
545.139	120.38
545.352	106.38
545.566	123.38
545.779	122.38
545.993	130.38
546.206	123.38
546.42	126.38
546.633	138.38
546.847	126.38
547.06	123.38
547.274	121.38
547.487	124.38
547.7	130.38
547.914	120.38
548.127	121.38
548.34	125.38
548.554	125.38
548.767	112.38
548.98	126.38
549.193	114.38
549.407	121.38
549.62	132.38
549.833	112.38
550.046	115.38
550.259	122.38
550.473	110.38
550.686	111.38
550.899	139.38
551.112	114.38
551.325	109.38
551.538	114.38
551.751	99.38
551.964	94.38
552.177	102.38
552.39	107.38
552.603	99.38
552.816	126.38
553.029	124.38
553.242	126.38
553.455	116.38
553.667	112.38
553.88	114.38
554.093	119.38
554.306	113.38
554.519	115.38
554.732	112.38
554.944	121.38
555.157	115.38
555.37	116.38
555.583	124.38
555.795	101.38
556.008	103.38
556.221	113.38
556.433	110.38
556.646	101.38
556.859	114.38
557.071	112.38
557.284	114.38
557.496	105.38
557.709	111.38
557.921	107.38
558.134	107.38
558.346	113.38
558.559	108.38
558.771	108.38
558.984	121.38
559.196	102.38
559.409	94.38
559.621	103.38
559.833	104.38
560.046	109.38
560.258	112.38
560.47	112.38
560.683	117.38
560.895	114.38
561.107	99.38
561.32	90.38
561.532	105.38
561.744	100.38
561.956	110.38
562.168	101.38
562.381	107.38
562.593	113.38
562.805	106.38
563.017	100.38
563.229	103.38
563.441	110.38
563.653	112.38
563.865	103.38
564.077	103.38
564.289	118.38
564.501	99.38
564.713	112.38
564.925	106.38
565.137	94.38
565.349	89.38
565.561	104.38
565.773	95.38
565.985	97.38
566.197	89.38
566.408	100.38
566.62	102.38
566.832	97.38
567.044	110.38
567.255	99.38
567.467	108.38
567.679	93.38
567.891	99.38
568.102	88.38
568.314	96.38
568.526	70.38
568.737	98.38
568.949	84.38
569.161	96.38
569.372	83.38
569.584	89.38
569.795	84.38
570.007	85.38
570.218	87.38
570.43	88.38
570.641	73.38
570.853	91.38
571.064	98.38
571.276	98.38
571.487	92.38
571.698	90.38
571.91	95.38
572.121	98.38
572.333	90.38
572.544	96.38
572.755	86.38
572.966	85.38
573.178	79.38
573.389	87.38
573.6	81.38
573.811	111.38
574.023	92.38
574.234	81.38
574.445	91.38
574.656	96.38
574.867	94.38
575.078	89.38
575.289	86.38
575.501	96.38
575.712	90.38
575.923	80.38
576.134	87.38
576.345	89.38
576.556	88.38
576.767	91.38
576.978	80.38
577.188	85.38
577.399	80.38
577.61	99.38
577.821	85.38
578.032	89.38
578.243	88.38
578.454	92.38
578.665	106.38
578.875	79.38
579.086	80.38
579.297	81.38
579.508	87.38
579.718	83.38
579.929	87.38
580.14	76.38
580.35	76.38
580.561	79.38
580.772	86.38
580.982	85.38
581.193	99.38
581.403	90.38
581.614	76.38
581.825	87.38
582.035	91.38
582.246	72.38
582.456	99.38
582.667	75.38
582.877	80.38
583.087	86.38
583.298	85.38
583.508	93.38
583.719	86.38
583.929	82.38
584.139	78.38
584.35	85.38
584.56	84.38
584.77	85.38
584.981	94.38
585.191	88.38
585.401	84.38
585.611	85.38
585.821	73.38
586.032	94.38
586.242	99.38
586.452	80.38
586.662	82.38
586.872	87.38
587.082	82.38
587.292	96.38
587.502	86.38
587.713	75.38
587.923	86.38
588.133	87.38
588.343	75.38
588.553	79.38
588.762	91.38
588.972	95.38
589.182	89.38
589.392	82.38
589.602	76.38
589.812	79.38
590.022	91.38
590.232	97.38
590.441	94.38
590.651	69.38
590.861	65.38
591.071	82.38
591.281	87.38
591.49	75.38
591.7	77.38
591.91	90.38
592.119	79.38
592.329	84.38
592.539	76.38
592.748	92.38
592.958	84.38
593.167	50.38
593.377	91.38
593.587	95.38
593.796	87.38
594.006	81.38
594.215	81.38
594.424	78.38
594.634	80.38
594.843	102.38
595.053	91.38
595.262	87.38
595.472	81.38
595.681	88.38
595.89	86.38
596.1	91.38
596.309	86.38
596.518	94.38
596.727	114.38
596.937	74.38
597.146	81.38
597.355	76.38
597.564	90.38
597.774	70.38
597.983	94.38
598.192	79.38
598.401	93.38
598.61	75.38
598.819	105.38
599.028	76.38
599.237	77.38
599.446	99.38
599.655	88.38
599.864	87.38
600.073	88.38
600.282	84.38
600.491	83.38
600.7	79.38
600.909	82.38
601.118	98.38
601.327	86.38
601.536	98.38
601.745	96.38
601.953	91.38
602.162	100.38
602.371	103.38
602.58	85.38
602.789	103.38
602.997	97.38
603.206	73.38
603.415	78.38
603.623	84.38
603.832	101.38
604.041	82.38
604.249	92.38
604.458	78.38
604.666	77.38
604.875	78.38
605.084	91.38
605.292	90.38
605.501	113.38
605.709	99.38
605.918	98.38
606.126	103.38
606.334	80.38
606.543	102.38
606.751	97.38
606.96	94.38
607.168	96.38
607.376	97.38
607.585	103.38
607.793	83.38
608.001	98.38
608.21	83.38
608.418	100.38
608.626	90.38
608.834	101.38
609.043	98.38
609.251	102.38
609.459	88.38
609.667	117.38
609.875	94.38
610.083	97.38
610.291	116.38
610.499	93.38
610.707	82.38
610.916	98.38
611.124	109.38
611.332	94.38
611.54	102.38
611.748	107.38
611.955	92.38
612.163	91.38
612.371	90.38
612.579	103.38
612.787	92.38
612.995	102.38
613.203	98.38
613.411	99.38
613.618	102.38
613.826	91.38
614.034	91.38
614.242	105.38
614.449	92.38
614.657	91.38
614.865	102.38
615.072	92.38
615.28	97.38
615.488	89.38
615.695	98.38
615.903	86.38
616.111	103.38
616.318	92.38
616.526	94.38
616.733	93.38
616.941	97.38
617.148	100.38
617.356	89.38
617.563	90.38
617.771	98.38
617.978	86.38
618.185	76.38
618.393	89.38
618.6	97.38
618.807	104.38
619.015	107.38
619.222	90.38
619.429	81.38
619.637	91.38
619.844	94.38
620.051	98.38
620.258	99.38
620.466	97.38
620.673	86.38
620.88	91.38
621.087	97.38
621.294	93.38
621.501	99.38
621.708	94.38
621.915	94.38
622.122	83.38
622.329	93.38
622.536	102.38
622.743	86.38
622.95	89.38
623.157	97.38
623.364	84.38
623.571	97.38
623.778	94.38
623.985	88.38
624.192	102.38
624.399	88.38
624.606	90.38
624.812	91.38
625.019	96.38
625.226	96.38
625.433	77.38
625.639	91.38
625.846	87.38
626.053	82.38
626.259	97.38
626.466	95.38
626.673	96.38
626.879	91.38
627.086	91.38
627.293	96.38
627.499	111.38
627.706	88.38
627.912	87.38
628.119	88.38
628.325	86.38
628.532	102.38
628.738	96.38
628.945	98.38
629.151	89.38
629.357	93.38
629.564	74.38
629.77	89.38
629.976	87.38
630.183	80.38
630.389	88.38
630.595	103.38
630.802	94.38
631.008	103.38
631.214	106.38
631.42	89.38
631.627	116.38
631.833	104.38
632.039	70.38
632.245	85.38
632.451	84.38
632.657	90.38
632.863	108.38
633.069	98.38
633.275	93.38
633.481	83.38
633.688	83.38
633.893	91.38
634.099	90.38
634.305	94.38
634.511	84.38
634.717	89.38
634.923	93.38
635.129	94.38
635.335	92.38
635.541	91.38
635.747	97.38
635.952	85.38
636.158	100.38
636.364	97.38
636.57	93.38
636.775	97.38
636.981	90.38
637.187	81.38
637.392	97.38
637.598	91.38
637.804	82.38
638.009	87.38
638.215	98.38
638.421	66.38
638.626	90.38
638.832	101.38
639.037	86.38
639.243	98.38
639.448	80.38
639.654	84.38
639.859	98.38
640.065	78.38
640.27	87.38
640.475	91.38
640.681	77.38
640.886	94.38
641.091	98.38
641.297	82.38
641.502	90.38
641.707	94.38
641.913	102.38
642.118	81.38
642.323	84.38
642.528	110.38
642.733	94.38
642.939	95.38
643.144	87.38
643.349	95.38
643.554	88.38
643.759	79.38
643.964	81.38
644.169	87.38
644.374	92.38
644.579	95.38
644.784	91.38
644.989	101.38
645.194	69.38
645.399	85.38
645.604	84.38
645.809	82.38
646.014	92.38
646.219	98.38
646.423	92.38
646.628	98.38
646.833	88.38
647.038	91.38
647.243	102.38
647.447	99.38
647.652	88.38
647.857	83.38
648.062	96.38
648.266	87.38
648.471	96.38
648.676	79.38
648.88	102.38
649.085	86.38
649.289	78.38
649.494	84.38
649.698	89.38
649.903	80.38
650.107	86.38
650.312	84.38
650.516	99.38
650.721	75.38
650.925	91.38
651.13	100.38
651.334	83.38
651.539	88.38
651.743	102.38
651.947	87.38
652.152	78.38
652.356	90.38
652.56	73.38
652.764	88.38
652.969	84.38
653.173	84.38
653.377	85.38
653.581	83.38
653.785	91.38
653.99	75.38
654.194	73.38
654.398	85.38
654.602	80.38
654.806	86.38
655.01	96.38
655.214	82.38
655.418	83.38
655.622	87.38
655.826	97.38
656.03	92.38
656.234	99.38
656.438	88.38
656.642	84.38
656.846	89.38
657.049	89.38
657.253	83.38
657.457	81.38
657.661	85.38
657.865	87.38
658.068	74.38
658.272	80.38
658.476	83.38
658.68	85.38
658.883	83.38
659.087	83.38
659.291	87.38
659.494	82.38
659.698	87.38
659.901	93.38
660.105	99.38
660.309	90.38
660.512	70.38
660.716	89.38
660.919	75.38
661.123	82.38
661.326	79.38
661.53	65.38
661.733	72.38
661.936	94.38
662.14	89.38
662.343	91.38
662.546	89.38
662.75	91.38
662.953	71.38
663.156	84.38
663.36	77.38
663.563	103.38
663.766	77.38
663.969	87.38
664.173	87.38
664.376	71.38
664.579	76.38
664.782	75.38
664.985	74.38
665.188	88.38
665.391	98.38
665.594	88.38
665.797	73.38
666	97.38
666.203	80.38
666.406	89.38
666.609	77.38
666.812	79.38
667.015	72.38
667.218	91.38
667.421	86.38
667.624	89.38
667.827	73.38
668.03	76.38
668.232	80.38
668.435	73.38
668.638	73.38
668.841	76.38
669.043	89.38
669.246	78.38
669.449	81.38
669.651	79.38
669.854	73.38
670.057	73.38
670.259	84.38
670.462	69.38
670.665	74.38
670.867	89.38
671.07	88.38
671.272	69.38
671.475	84.38
671.677	91.38
671.88	78.38
672.082	82.38
672.284	79.38
672.487	83.38
672.689	75.38
672.892	67.38
