Data from Zn(NO3)2Standard.Agarose3%.GreenCap.LampEnergy5.5.E.O_HRD10591_15-01-51-767.txt Node
Date: Mon Jul 22 15:01:51 EDT 2019
User: cochatt
Spectrometer: HR+D1059
Trigger mode: 1
Integration Time (sec): 1.000000E-1
Scans to average: 1
Electric dark correction enabled: true
Nonlinearity correction enabled: false
Boxcar width: 0
XAxis mode: Wavelengths
Number of Pixels in Spectrum: 2048
>>>>>Begin Spectral Data<<<<<
223.165	-10.62
223.4	-10.62
223.635	-10.62
223.869	-21.62
224.104	-13.62
224.338	-19.62
224.573	-17.62
224.808	-19.62
225.042	3.38
225.277	-13.62
225.511	-1.62
225.746	6.38
225.98	13.38
226.215	17.38
226.449	11.38
226.683	19.38
226.918	23.38
227.152	23.38
227.387	35.38
227.621	58.38
227.856	39.38
228.09	52.38
228.324	38.38
228.559	59.38
228.793	57.38
229.027	66.38
229.262	60.38
229.496	69.38
229.73	70.38
229.964	64.38
230.199	74.38
230.433	72.38
230.667	81.38
230.901	73.38
231.136	90.38
231.37	88.38
231.604	79.38
231.838	98.38
232.072	82.38
232.306	84.38
232.541	86.38
232.775	88.38
233.009	91.38
233.243	76.38
233.477	87.38
233.711	81.38
233.945	85.38
234.179	88.38
234.413	80.38
234.647	86.38
234.881	90.38
235.115	85.38
235.349	71.38
235.583	85.38
235.817	75.38
236.051	84.38
236.285	84.38
236.519	85.38
236.753	88.38
236.987	90.38
237.221	79.38
237.455	73.38
237.689	69.38
237.922	91.38
238.156	70.38
238.39	72.38
238.624	80.38
238.858	90.38
239.091	78.38
239.325	86.38
239.559	72.38
239.793	76.38
240.027	84.38
240.26	91.38
240.494	77.38
240.728	75.38
240.961	76.38
241.195	87.38
241.429	87.38
241.662	59.38
241.896	76.38
242.13	83.38
242.363	79.38
242.597	76.38
242.83	81.38
243.064	74.38
243.298	76.38
243.531	87.38
243.765	87.38
243.998	89.38
244.232	81.38
244.465	86.38
244.699	82.38
244.932	84.38
245.166	83.38
245.399	83.38
245.633	91.38
245.866	92.38
246.099	72.38
246.333	86.38
246.566	74.38
246.8	83.38
247.033	83.38
247.266	78.38
247.5	101.38
247.733	77.38
247.966	76.38
248.2	90.38
248.433	98.38
248.666	80.38
248.899	83.38
249.133	83.38
249.366	80.38
249.599	70.38
249.832	92.38
250.066	99.38
250.299	87.38
250.532	85.38
250.765	87.38
250.998	71.38
251.231	73.38
251.465	75.38
251.698	90.38
251.931	82.38
252.164	85.38
252.397	67.38
252.63	81.38
252.863	90.38
253.096	72.38
253.329	83.38
253.562	77.38
253.795	84.38
254.028	87.38
254.261	87.38
254.494	79.38
254.727	83.38
254.96	82.38
255.193	82.38
255.426	81.38
255.659	85.38
255.892	84.38
256.124	86.38
256.357	81.38
256.59	85.38
256.823	95.38
257.056	81.38
257.289	84.38
257.521	82.38
257.754	74.38
257.987	86.38
258.22	93.38
258.452	78.38
258.685	91.38
258.918	75.38
259.151	80.38
259.383	89.38
259.616	103.38
259.849	93.38
260.081	84.38
260.314	78.38
260.547	59.38
260.779	82.38
261.012	75.38
261.244	85.38
261.477	94.38
261.71	84.38
261.942	88.38
262.175	92.38
262.407	86.38
262.64	72.38
262.872	81.38
263.105	92.38
263.337	96.38
263.57	98.38
263.802	76.38
264.035	83.38
264.267	85.38
264.499	84.38
264.732	91.38
264.964	83.38
265.197	81.38
265.429	91.38
265.661	99.38
265.894	83.38
266.126	98.38
266.358	89.38
266.591	77.38
266.823	88.38
267.055	88.38
267.287	80.38
267.52	80.38
267.752	78.38
267.984	81.38
268.216	75.38
268.448	90.38
268.681	86.38
268.913	84.38
269.145	90.38
269.377	82.38
269.609	81.38
269.841	93.38
270.073	82.38
270.306	75.38
270.538	66.38
270.77	77.38
271.002	88.38
271.234	75.38
271.466	88.38
271.698	80.38
271.93	78.38
272.162	72.38
272.394	82.38
272.626	79.38
272.858	79.38
273.09	87.38
273.322	79.38
273.553	77.38
273.785	103.38
274.017	91.38
274.249	92.38
274.481	92.38
274.713	77.38
274.945	88.38
275.176	89.38
275.408	84.38
275.64	79.38
275.872	82.38
276.104	92.38
276.335	101.38
276.567	96.38
276.799	88.38
277.031	91.38
277.262	87.38
277.494	83.38
277.726	79.38
277.957	98.38
278.189	108.38
278.421	78.38
278.652	88.38
278.884	91.38
279.115	77.38
279.347	87.38
279.579	87.38
279.81	88.38
280.042	92.38
280.273	72.38
280.505	79.38
280.736	77.38
280.968	77.38
281.199	85.38
281.431	86.38
281.662	86.38
281.894	86.38
282.125	81.38
282.356	79.38
282.588	83.38
282.819	95.38
283.051	72.38
283.282	98.38
283.513	84.38
283.745	95.38
283.976	87.38
284.207	83.38
284.439	91.38
284.67	92.38
284.901	94.38
285.132	80.38
285.364	91.38
285.595	91.38
285.826	99.38
286.057	95.38
286.288	84.38
286.52	80.38
286.751	76.38
286.982	87.38
287.213	82.38
287.444	83.38
287.675	91.38
287.906	79.38
288.138	88.38
288.369	62.38
288.6	85.38
288.831	96.38
289.062	87.38
289.293	90.38
289.524	82.38
289.755	74.38
289.986	80.38
290.217	87.38
290.448	77.38
290.679	73.38
290.91	112.38
291.141	80.38
291.371	82.38
291.602	88.38
291.833	81.38
292.064	86.38
292.295	95.38
292.526	86.38
292.757	88.38
292.987	82.38
293.218	84.38
293.449	96.38
293.68	91.38
293.91	78.38
294.141	91.38
294.372	90.38
294.603	86.38
294.833	98.38
295.064	91.38
295.295	91.38
295.525	84.38
295.756	77.38
295.987	82.38
296.217	77.38
296.448	90.38
296.679	84.38
296.909	87.38
297.14	75.38
297.37	89.38
297.601	91.38
297.831	92.38
298.062	79.38
298.292	86.38
298.523	94.38
298.753	94.38
298.984	79.38
299.214	92.38
299.445	76.38
299.675	67.38
299.905	84.38
300.136	97.38
300.366	79.38
300.597	74.38
300.827	93.38
301.057	86.38
301.288	87.38
301.518	107.38
301.748	94.38
301.979	94.38
302.209	91.38
302.439	87.38
302.669	83.38
302.9	89.38
303.13	98.38
303.36	90.38
303.59	96.38
303.82	84.38
304.051	84.38
304.281	83.38
304.511	93.38
304.741	82.38
304.971	91.38
305.201	86.38
305.431	94.38
305.661	89.38
305.891	74.38
306.121	97.38
306.352	92.38
306.582	92.38
306.812	77.38
307.042	93.38
307.272	77.38
307.502	90.38
307.731	93.38
307.961	91.38
308.191	90.38
308.421	82.38
308.651	89.38
308.881	81.38
309.111	95.38
309.341	89.38
309.571	99.38
309.8	89.38
310.03	96.38
310.26	79.38
310.49	77.38
310.72	81.38
310.949	84.38
311.179	89.38
311.409	89.38
311.639	83.38
311.868	92.38
312.098	83.38
312.328	74.38
312.557	82.38
312.787	83.38
313.017	91.38
313.246	96.38
313.476	76.38
313.706	89.38
313.935	96.38
314.165	69.38
314.394	85.38
314.624	91.38
314.853	84.38
315.083	75.38
315.312	74.38
315.542	77.38
315.771	86.38
316.001	78.38
316.23	78.38
316.46	83.38
316.689	82.38
316.919	92.38
317.148	93.38
317.377	91.38
317.607	101.38
317.836	96.38
318.065	88.38
318.295	77.38
318.524	74.38
318.753	68.38
318.983	86.38
319.212	97.38
319.441	87.38
319.67	86.38
319.9	91.38
320.129	69.38
320.358	81.38
320.587	86.38
320.816	100.38
321.046	92.38
321.275	83.38
321.504	91.38
321.733	90.38
321.962	84.38
322.191	83.38
322.42	98.38
322.649	102.38
322.878	94.38
323.108	83.38
323.337	93.38
323.566	83.38
323.795	95.38
324.024	102.38
324.253	87.38
324.482	83.38
324.71	79.38
324.939	84.38
325.168	96.38
325.397	89.38
325.626	80.38
325.855	91.38
326.084	83.38
326.313	79.38
326.542	88.38
326.77	93.38
326.999	106.38
327.228	79.38
327.457	86.38
327.686	82.38
327.914	101.38
328.143	81.38
328.372	93.38
328.6	79.38
328.829	77.38
329.058	86.38
329.287	91.38
329.515	78.38
329.744	87.38
329.972	81.38
330.201	95.38
330.43	100.38
330.658	90.38
330.887	73.38
331.115	76.38
331.344	93.38
331.572	93.38
331.801	92.38
332.03	87.38
332.258	93.38
332.486	78.38
332.715	82.38
332.943	83.38
333.172	90.38
333.4	84.38
333.629	99.38
333.857	81.38
334.085	75.38
334.314	96.38
334.542	84.38
334.771	98.38
334.999	92.38
335.227	78.38
335.455	82.38
335.684	79.38
335.912	84.38
336.14	97.38
336.369	94.38
336.597	87.38
336.825	102.38
337.053	81.38
337.281	67.38
337.51	89.38
337.738	94.38
337.966	91.38
338.194	91.38
338.422	92.38
338.65	77.38
338.878	86.38
339.106	84.38
339.334	78.38
339.562	87.38
339.79	77.38
340.018	97.38
340.246	88.38
340.474	90.38
340.702	89.38
340.93	95.38
341.158	100.38
341.386	98.38
341.614	92.38
341.842	75.38
342.07	77.38
342.298	95.38
342.526	101.38
342.754	81.38
342.981	85.38
343.209	85.38
343.437	94.38
343.665	94.38
343.893	75.38
344.12	95.38
344.348	79.38
344.576	81.38
344.804	90.38
345.031	85.38
345.259	83.38
345.487	87.38
345.714	93.38
345.942	86.38
346.17	76.38
346.397	93.38
346.625	80.38
346.853	85.38
347.08	100.38
347.308	69.38
347.535	92.38
347.763	92.38
347.99	80.38
348.218	85.38
348.445	81.38
348.673	78.38
348.9	87.38
349.128	79.38
349.355	90.38
349.583	76.38
349.81	83.38
350.037	89.38
350.265	78.38
350.492	90.38
350.72	80.38
350.947	82.38
351.174	80.38
351.402	88.38
351.629	93.38
351.856	92.38
352.083	85.38
352.311	80.38
352.538	88.38
352.765	80.38
352.992	85.38
353.22	87.38
353.447	87.38
353.674	84.38
353.901	89.38
354.128	85.38
354.355	84.38
354.583	83.38
354.81	102.38
355.037	85.38
355.264	63.38
355.491	88.38
355.718	92.38
355.945	87.38
356.172	87.38
356.399	74.38
356.626	82.38
356.853	78.38
357.08	82.38
357.307	90.38
357.534	75.38
357.761	79.38
357.988	85.38
358.215	85.38
358.441	91.38
358.668	72.38
358.895	82.38
359.122	100.38
359.349	75.38
359.576	106.38
359.802	92.38
360.029	83.38
360.256	87.38
360.483	80.38
360.709	81.38
360.936	87.38
361.163	79.38
361.39	78.38
361.616	96.38
361.843	74.38
362.07	87.38
362.296	84.38
362.523	79.38
362.749	91.38
362.976	83.38
363.203	87.38
363.429	94.38
363.656	90.38
363.882	75.38
364.109	92.38
364.335	96.38
364.562	66.38
364.788	83.38
365.015	91.38
365.241	95.38
365.468	101.38
365.694	88.38
365.92	90.38
366.147	87.38
366.373	100.38
366.599	79.38
366.826	87.38
367.052	87.38
367.278	82.38
367.505	82.38
367.731	87.38
367.957	81.38
368.184	77.38
368.41	83.38
368.636	95.38
368.862	95.38
369.089	93.38
369.315	91.38
369.541	80.38
369.767	96.38
369.993	90.38
370.219	84.38
370.445	91.38
370.672	77.38
370.898	91.38
371.124	84.38
371.35	83.38
371.576	80.38
371.802	98.38
372.028	85.38
372.254	86.38
372.48	75.38
372.706	88.38
372.932	86.38
373.158	89.38
373.384	89.38
373.61	90.38
373.835	87.38
374.061	76.38
374.287	89.38
374.513	89.38
374.739	78.38
374.965	90.38
375.191	85.38
375.416	75.38
375.642	78.38
375.868	96.38
376.094	94.38
376.319	82.38
376.545	80.38
376.771	83.38
376.997	89.38
377.222	95.38
377.448	82.38
377.674	90.38
377.899	88.38
378.125	75.38
378.35	80.38
378.576	79.38
378.802	77.38
379.027	86.38
379.253	86.38
379.478	88.38
379.704	81.38
379.929	75.38
380.155	72.38
380.38	79.38
380.606	102.38
380.831	95.38
381.057	101.38
381.282	90.38
381.507	76.38
381.733	96.38
381.958	88.38
382.184	83.38
382.409	62.38
382.634	88.38
382.86	78.38
383.085	89.38
383.31	92.38
383.535	85.38
383.761	84.38
383.986	100.38
384.211	88.38
384.436	83.38
384.662	93.38
384.887	83.38
385.112	76.38
385.337	80.38
385.562	80.38
385.787	78.38
386.013	86.38
386.238	86.38
386.463	78.38
386.688	88.38
386.913	96.38
387.138	81.38
387.363	83.38
387.588	92.38
387.813	84.38
388.038	89.38
388.263	96.38
388.488	80.38
388.713	88.38
388.938	96.38
389.163	86.38
389.387	84.38
389.612	83.38
389.837	87.38
390.062	77.38
390.287	84.38
390.512	76.38
390.736	90.38
390.961	94.38
391.186	88.38
391.411	74.38
391.636	94.38
391.86	84.38
392.085	92.38
392.31	88.38
392.534	80.38
392.759	83.38
392.984	105.38
393.208	76.38
393.433	83.38
393.658	79.38
393.882	86.38
394.107	78.38
394.331	76.38
394.556	88.38
394.78	74.38
395.005	86.38
395.229	86.38
395.454	88.38
395.678	104.38
395.903	82.38
396.127	75.38
396.352	84.38
396.576	86.38
396.801	86.38
397.025	73.38
397.249	79.38
397.474	92.38
397.698	83.38
397.922	85.38
398.147	93.38
398.371	88.38
398.595	83.38
398.82	88.38
399.044	88.38
399.268	88.38
399.492	80.38
399.717	83.38
399.941	84.38
400.165	99.38
400.389	91.38
400.613	102.38
400.837	74.38
401.062	80.38
401.286	85.38
401.51	98.38
401.734	93.38
401.958	75.38
402.182	92.38
402.406	96.38
402.63	87.38
402.854	68.38
403.078	79.38
403.302	86.38
403.526	79.38
403.75	79.38
403.974	86.38
404.198	96.38
404.422	95.38
404.645	87.38
404.869	91.38
405.093	101.38
405.317	98.38
405.541	93.38
405.765	95.38
405.988	92.38
406.212	86.38
406.436	86.38
406.66	84.38
406.883	96.38
407.107	92.38
407.331	105.38
407.555	92.38
407.778	88.38
408.002	87.38
408.226	90.38
408.449	78.38
408.673	88.38
408.896	91.38
409.12	86.38
409.344	82.38
409.567	87.38
409.791	94.38
410.014	91.38
410.238	88.38
410.461	90.38
410.685	67.38
410.908	87.38
411.132	94.38
411.355	87.38
411.578	91.38
411.802	86.38
412.025	92.38
412.249	77.38
412.472	88.38
412.695	96.38
412.919	94.38
413.142	87.38
413.365	100.38
413.589	85.38
413.812	85.38
414.035	86.38
414.258	97.38
414.482	92.38
414.705	93.38
414.928	91.38
415.151	89.38
415.374	89.38
415.597	90.38
415.821	102.38
416.044	93.38
416.267	78.38
416.49	77.38
416.713	84.38
416.936	84.38
417.159	86.38
417.382	91.38
417.605	77.38
417.828	101.38
418.051	90.38
418.274	90.38
418.497	93.38
418.72	90.38
418.943	103.38
419.166	93.38
419.389	81.38
419.611	92.38
419.834	97.38
420.057	92.38
420.28	71.38
420.503	83.38
420.726	89.38
420.948	89.38
421.171	96.38
421.394	104.38
421.617	103.38
421.839	88.38
422.062	74.38
422.285	88.38
422.507	83.38
422.73	93.38
422.953	91.38
423.175	95.38
423.398	87.38
423.621	84.38
423.843	77.38
424.066	89.38
424.288	94.38
424.511	83.38
424.733	86.38
424.956	88.38
425.178	92.38
425.401	101.38
425.623	92.38
425.846	77.38
426.068	91.38
426.291	89.38
426.513	92.38
426.735	94.38
426.958	93.38
427.18	102.38
427.402	109.38
427.625	85.38
427.847	94.38
428.069	91.38
428.292	88.38
428.514	77.38
428.736	93.38
428.958	104.38
429.181	89.38
429.403	84.38
429.625	84.38
429.847	78.38
430.069	96.38
430.292	99.38
430.514	89.38
430.736	95.38
430.958	77.38
431.18	102.38
431.402	103.38
431.624	86.38
431.846	85.38
432.068	82.38
432.29	96.38
432.512	91.38
432.734	99.38
432.956	75.38
433.178	90.38
433.4	100.38
433.622	97.38
433.844	100.38
434.066	80.38
434.287	96.38
434.509	85.38
434.731	77.38
434.953	77.38
435.175	79.38
435.397	83.38
435.618	80.38
435.84	92.38
436.062	81.38
436.284	84.38
436.505	88.38
436.727	85.38
436.949	101.38
437.17	103.38
437.392	93.38
437.614	75.38
437.835	87.38
438.057	82.38
438.278	90.38
438.5	104.38
438.721	107.38
438.943	94.38
439.165	91.38
439.386	95.38
439.608	104.38
439.829	88.38
440.05	100.38
440.272	104.38
440.493	92.38
440.715	101.38
440.936	100.38
441.158	105.38
441.379	108.38
441.6	101.38
441.822	84.38
442.043	81.38
442.264	94.38
442.486	99.38
442.707	101.38
442.928	85.38
443.149	90.38
443.371	91.38
443.592	90.38
443.813	103.38
444.034	95.38
444.255	98.38
444.476	86.38
444.698	84.38
444.919	92.38
445.14	232.38
445.361	150.38
445.582	106.38
445.803	78.38
446.024	90.38
446.245	103.38
446.466	99.38
446.687	104.38
446.908	95.38
447.129	96.38
447.35	94.38
447.571	82.38
447.792	93.38
448.013	89.38
448.234	93.38
448.455	85.38
448.675	94.38
448.896	84.38
449.117	100.38
449.338	78.38
449.559	81.38
449.779	79.38
450	86.38
450.221	78.38
450.442	86.38
450.662	87.38
450.883	100.38
451.104	89.38
451.324	101.38
451.545	92.38
451.766	93.38
451.986	106.38
452.207	91.38
452.428	93.38
452.648	77.38
452.869	85.38
453.089	90.38
453.31	92.38
453.53	83.38
453.751	82.38
453.971	93.38
454.192	77.38
454.412	85.38
454.633	88.38
454.853	100.38
455.073	98.38
455.294	94.38
455.514	86.38
455.734	75.38
455.955	91.38
456.175	86.38
456.395	90.38
456.616	93.38
456.836	75.38
457.056	85.38
457.276	78.38
457.497	78.38
457.717	72.38
457.937	88.38
458.157	92.38
458.377	94.38
458.598	99.38
458.818	87.38
459.038	92.38
459.258	88.38
459.478	85.38
459.698	77.38
459.918	76.38
460.138	73.38
460.358	88.38
460.578	86.38
460.798	80.38
461.018	84.38
461.238	77.38
461.458	87.38
461.678	92.38
461.898	101.38
462.118	77.38
462.338	76.38
462.558	78.38
462.777	97.38
462.997	99.38
463.217	76.38
463.437	81.38
463.657	76.38
463.876	83.38
464.096	94.38
464.316	96.38
464.536	99.38
464.755	85.38
464.975	74.38
465.195	104.38
465.414	100.38
465.634	93.38
465.854	82.38
466.073	83.38
466.293	95.38
466.512	104.38
466.732	98.38
466.951	88.38
467.171	84.38
467.391	89.38
467.61	76.38
467.829	94.38
468.049	86.38
468.268	93.38
468.488	88.38
468.707	82.38
468.927	96.38
469.146	97.38
469.365	106.38
469.585	91.38
469.804	91.38
470.023	98.38
470.243	95.38
470.462	89.38
470.681	84.38
470.901	83.38
471.12	96.38
471.339	94.38
471.558	105.38
471.777	76.38
471.997	93.38
472.216	98.38
472.435	98.38
472.654	86.38
472.873	94.38
473.092	91.38
473.311	93.38
473.53	86.38
473.749	98.38
473.968	95.38
474.187	83.38
474.406	101.38
474.625	81.38
474.844	91.38
475.063	74.38
475.282	93.38
475.501	91.38
475.72	90.38
475.939	90.38
476.158	97.38
476.377	82.38
476.596	85.38
476.814	87.38
477.033	88.38
477.252	94.38
477.471	83.38
477.69	90.38
477.908	91.38
478.127	99.38
478.346	92.38
478.564	87.38
478.783	95.38
479.002	107.38
479.22	104.38
479.439	91.38
479.658	83.38
479.876	99.38
480.095	91.38
480.313	82.38
480.532	100.38
480.751	103.38
480.969	87.38
481.188	98.38
481.406	93.38
481.624	76.38
481.843	86.38
482.061	90.38
482.28	87.38
482.498	73.38
482.717	78.38
482.935	97.38
483.153	92.38
483.372	89.38
483.59	108.38
483.808	85.38
484.027	94.38
484.245	86.38
484.463	94.38
484.681	107.38
484.9	98.38
485.118	87.38
485.336	88.38
485.554	90.38
485.772	94.38
485.99	90.38
486.209	88.38
486.427	92.38
486.645	84.38
486.863	104.38
487.081	93.38
487.299	82.38
487.517	100.38
487.735	104.38
487.953	110.38
488.171	103.38
488.389	88.38
488.607	91.38
488.825	94.38
489.043	104.38
489.261	89.38
489.479	96.38
489.696	78.38
489.914	103.38
490.132	98.38
490.35	91.38
490.568	79.38
490.786	92.38
491.003	90.38
491.221	99.38
491.439	92.38
491.657	84.38
491.874	100.38
492.092	108.38
492.31	101.38
492.527	111.38
492.745	103.38
492.963	94.38
493.18	108.38
493.398	109.38
493.615	100.38
493.833	94.38
494.05	95.38
494.268	95.38
494.485	99.38
494.703	90.38
494.92	94.38
495.138	109.38
495.355	105.38
495.573	106.38
495.79	103.38
496.008	95.38
496.225	107.38
496.442	115.38
496.66	99.38
496.877	104.38
497.094	101.38
497.312	91.38
497.529	89.38
497.746	115.38
497.963	94.38
498.181	98.38
498.398	91.38
498.615	80.38
498.832	89.38
499.049	106.38
499.267	100.38
499.484	95.38
499.701	111.38
499.918	85.38
500.135	94.38
500.352	92.38
500.569	101.38
500.786	102.38
501.003	95.38
501.22	92.38
501.437	90.38
501.654	95.38
501.871	88.38
502.088	84.38
502.305	87.38
502.522	88.38
502.739	94.38
502.956	117.38
503.172	91.38
503.389	104.38
503.606	94.38
503.823	93.38
504.04	95.38
504.256	96.38
504.473	85.38
504.69	98.38
504.907	107.38
505.123	90.38
505.34	81.38
505.557	79.38
505.773	83.38
505.99	97.38
506.207	83.38
506.423	89.38
506.64	92.38
506.856	90.38
507.073	95.38
507.289	76.38
507.506	111.38
507.722	96.38
507.939	98.38
508.155	82.38
508.372	87.38
508.588	91.38
508.805	85.38
509.021	89.38
509.238	86.38
509.454	80.38
509.67	87.38
509.887	90.38
510.103	101.38
510.319	90.38
510.536	106.38
510.752	75.38
510.968	95.38
511.184	95.38
511.401	95.38
511.617	80.38
511.833	90.38
512.049	71.38
512.265	90.38
512.481	73.38
512.698	98.38
512.914	93.38
513.13	85.38
513.346	89.38
513.562	86.38
513.778	88.38
513.994	81.38
514.21	93.38
514.426	84.38
514.642	89.38
514.858	85.38
515.074	99.38
515.29	82.38
515.506	81.38
515.721	86.38
515.937	102.38
516.153	88.38
516.369	71.38
516.585	85.38
516.801	87.38
517.016	89.38
517.232	74.38
517.448	86.38
517.664	89.38
517.879	96.38
518.095	94.38
518.311	81.38
518.527	79.38
518.742	91.38
518.958	92.38
519.173	102.38
519.389	94.38
519.605	81.38
519.82	78.38
520.036	80.38
520.251	81.38
520.467	85.38
520.682	78.38
520.898	78.38
521.113	96.38
521.329	86.38
521.544	61.38
521.76	97.38
521.975	88.38
522.19	95.38
522.406	85.38
522.621	87.38
522.836	102.38
523.052	93.38
523.267	93.38
523.482	86.38
523.698	105.38
523.913	92.38
524.128	92.38
524.343	117.38
524.559	96.38
524.774	99.38
524.989	84.38
525.204	93.38
525.419	86.38
525.634	93.38
525.849	93.38
526.064	94.38
526.28	82.38
526.495	82.38
526.71	85.38
526.925	99.38
527.14	92.38
527.355	78.38
527.57	84.38
527.785	77.38
527.999	84.38
528.214	86.38
528.429	95.38
528.644	96.38
528.859	90.38
529.074	99.38
529.289	94.38
529.503	90.38
529.718	88.38
529.933	91.38
530.148	85.38
530.363	88.38
530.577	80.38
530.792	81.38
531.007	76.38
531.221	92.38
531.436	85.38
531.651	101.38
531.865	102.38
532.08	85.38
532.295	86.38
532.509	78.38
532.724	79.38
532.938	74.38
533.153	91.38
533.367	89.38
533.582	93.38
533.796	82.38
534.011	79.38
534.225	91.38
534.44	81.38
534.654	73.38
534.868	85.38
535.083	88.38
535.297	76.38
535.511	90.38
535.726	83.38
535.94	104.38
536.154	79.38
536.369	84.38
536.583	75.38
536.797	90.38
537.011	72.38
537.225	97.38
537.44	87.38
537.654	74.38
537.868	72.38
538.082	86.38
538.296	98.38
538.51	84.38
538.724	103.38
538.938	99.38
539.153	92.38
539.367	92.38
539.581	90.38
539.795	95.38
540.009	98.38
540.222	98.38
540.436	78.38
540.65	77.38
540.864	87.38
541.078	83.38
541.292	102.38
541.506	96.38
541.72	94.38
541.934	108.38
542.147	98.38
542.361	106.38
542.575	105.38
542.789	95.38
543.002	101.38
543.216	91.38
543.43	88.38
543.644	91.38
543.857	94.38
544.071	97.38
544.285	99.38
544.498	96.38
544.712	91.38
544.925	97.38
545.139	93.38
545.352	88.38
545.566	92.38
545.779	97.38
545.993	96.38
546.206	112.38
546.42	96.38
546.633	110.38
546.847	103.38
547.06	93.38
547.274	109.38
547.487	115.38
547.7	100.38
547.914	107.38
548.127	100.38
548.34	102.38
548.554	112.38
548.767	104.38
548.98	103.38
549.193	102.38
549.407	92.38
549.62	104.38
549.833	102.38
550.046	107.38
550.259	102.38
550.473	94.38
550.686	102.38
550.899	104.38
551.112	103.38
551.325	93.38
551.538	98.38
551.751	95.38
551.964	87.38
552.177	98.38
552.39	98.38
552.603	105.38
552.816	110.38
553.029	104.38
553.242	94.38
553.455	105.38
553.667	99.38
553.88	102.38
554.093	94.38
554.306	100.38
554.519	108.38
554.732	101.38
554.944	103.38
555.157	102.38
555.37	98.38
555.583	87.38
555.795	93.38
556.008	92.38
556.221	82.38
556.433	100.38
556.646	104.38
556.859	95.38
557.071	101.38
557.284	94.38
557.496	90.38
557.709	92.38
557.921	93.38
558.134	90.38
558.346	101.38
558.559	107.38
558.771	92.38
558.984	96.38
559.196	89.38
559.409	92.38
559.621	89.38
559.833	95.38
560.046	114.38
560.258	93.38
560.47	119.38
560.683	110.38
560.895	89.38
561.107	98.38
561.32	80.38
561.532	84.38
561.744	99.38
561.956	94.38
562.168	98.38
562.381	99.38
562.593	94.38
562.805	92.38
563.017	90.38
563.229	106.38
563.441	103.38
563.653	102.38
563.865	108.38
564.077	87.38
564.289	84.38
564.501	97.38
564.713	99.38
564.925	91.38
565.137	89.38
565.349	99.38
565.561	96.38
565.773	98.38
565.985	99.38
566.197	95.38
566.408	96.38
566.62	88.38
566.832	83.38
567.044	85.38
567.255	95.38
567.467	85.38
567.679	79.38
567.891	91.38
568.102	75.38
568.314	87.38
568.526	88.38
568.737	90.38
568.949	75.38
569.161	80.38
569.372	85.38
569.584	88.38
569.795	79.38
570.007	88.38
570.218	74.38
570.43	90.38
570.641	79.38
570.853	99.38
571.064	95.38
571.276	101.38
571.487	94.38
571.698	84.38
571.91	83.38
572.121	78.38
572.333	89.38
572.544	86.38
572.755	73.38
572.966	105.38
573.178	101.38
573.389	103.38
573.6	95.38
573.811	90.38
574.023	89.38
574.234	87.38
574.445	107.38
574.656	94.38
574.867	94.38
575.078	100.38
575.289	84.38
575.501	108.38
575.712	82.38
575.923	92.38
576.134	79.38
576.345	83.38
576.556	90.38
576.767	96.38
576.978	90.38
577.188	80.38
577.399	98.38
577.61	92.38
577.821	83.38
578.032	77.38
578.243	93.38
578.454	86.38
578.665	93.38
578.875	99.38
579.086	90.38
579.297	91.38
579.508	72.38
579.718	96.38
579.929	83.38
580.14	85.38
580.35	84.38
580.561	80.38
580.772	97.38
580.982	108.38
581.193	94.38
581.403	95.38
581.614	72.38
581.825	86.38
582.035	93.38
582.246	91.38
582.456	85.38
582.667	79.38
582.877	92.38
583.087	82.38
583.298	77.38
583.508	91.38
583.719	100.38
583.929	91.38
584.139	101.38
584.35	80.38
584.56	93.38
584.77	90.38
584.981	90.38
585.191	87.38
585.401	85.38
585.611	93.38
585.821	83.38
586.032	86.38
586.242	76.38
586.452	79.38
586.662	87.38
586.872	93.38
587.082	80.38
587.292	71.38
587.502	73.38
587.713	93.38
587.923	79.38
588.133	107.38
588.343	89.38
588.553	85.38
588.762	94.38
588.972	91.38
589.182	88.38
589.392	89.38
589.602	87.38
589.812	78.38
590.022	79.38
590.232	108.38
590.441	88.38
590.651	87.38
590.861	69.38
591.071	79.38
591.281	95.38
591.49	83.38
591.7	86.38
591.91	75.38
592.119	95.38
592.329	95.38
592.539	88.38
592.748	93.38
592.958	103.38
593.167	84.38
593.377	67.38
593.587	102.38
593.796	103.38
594.006	92.38
594.215	82.38
594.424	93.38
594.634	84.38
594.843	83.38
595.053	87.38
595.262	90.38
595.472	93.38
595.681	95.38
595.89	91.38
596.1	97.38
596.309	94.38
596.518	83.38
596.727	95.38
596.937	85.38
597.146	94.38
597.355	93.38
597.564	91.38
597.774	96.38
597.983	80.38
598.192	95.38
598.401	102.38
598.61	88.38
598.819	85.38
599.028	87.38
599.237	75.38
599.446	97.38
599.655	99.38
599.864	82.38
600.073	87.38
600.282	101.38
600.491	83.38
600.7	90.38
600.909	101.38
601.118	89.38
601.327	93.38
601.536	95.38
601.745	86.38
601.953	103.38
602.162	91.38
602.371	78.38
602.58	91.38
602.789	97.38
602.997	94.38
603.206	82.38
603.415	100.38
603.623	99.38
603.832	90.38
604.041	98.38
604.249	79.38
604.458	81.38
604.666	86.38
604.875	100.38
605.084	97.38
605.292	82.38
605.501	92.38
605.709	85.38
605.918	93.38
606.126	101.38
606.334	93.38
606.543	89.38
606.751	97.38
606.96	82.38
607.168	91.38
607.376	96.38
607.585	83.38
607.793	101.38
608.001	91.38
608.21	102.38
608.418	92.38
608.626	88.38
608.834	90.38
609.043	87.38
609.251	100.38
609.459	85.38
609.667	94.38
609.875	101.38
610.083	100.38
610.291	100.38
610.499	106.38
610.707	95.38
610.916	93.38
611.124	77.38
611.332	90.38
611.54	92.38
611.748	89.38
611.955	96.38
612.163	89.38
612.371	100.38
612.579	96.38
612.787	89.38
612.995	89.38
613.203	88.38
613.411	92.38
613.618	91.38
613.826	76.38
614.034	81.38
614.242	96.38
614.449	99.38
614.657	97.38
614.865	93.38
615.072	90.38
615.28	82.38
615.488	87.38
615.695	85.38
615.903	95.38
616.111	98.38
616.318	95.38
616.526	96.38
616.733	85.38
616.941	81.38
617.148	92.38
617.356	90.38
617.563	89.38
617.771	91.38
617.978	83.38
618.185	80.38
618.393	92.38
618.6	96.38
618.807	80.38
619.015	86.38
619.222	89.38
619.429	89.38
619.637	93.38
619.844	95.38
620.051	106.38
620.258	96.38
620.466	93.38
620.673	84.38
620.88	108.38
621.087	88.38
621.294	87.38
621.501	92.38
621.708	91.38
621.915	97.38
622.122	86.38
622.329	91.38
622.536	88.38
622.743	83.38
622.95	94.38
623.157	95.38
623.364	92.38
623.571	86.38
623.778	90.38
623.985	78.38
624.192	93.38
624.399	78.38
624.606	88.38
624.812	88.38
625.019	94.38
625.226	90.38
625.433	96.38
625.639	84.38
625.846	103.38
626.053	96.38
626.259	78.38
626.466	81.38
626.673	82.38
626.879	96.38
627.086	95.38
627.293	104.38
627.499	98.38
627.706	94.38
627.912	81.38
628.119	85.38
628.325	109.38
628.532	91.38
628.738	86.38
628.945	82.38
629.151	90.38
629.357	84.38
629.564	97.38
629.77	99.38
629.976	91.38
630.183	81.38
630.389	89.38
630.595	73.38
630.802	83.38
631.008	98.38
631.214	101.38
631.42	92.38
631.627	87.38
631.833	93.38
632.039	93.38
632.245	96.38
632.451	103.38
632.657	88.38
632.863	93.38
633.069	88.38
633.275	85.38
633.481	91.38
633.688	79.38
633.893	93.38
634.099	87.38
634.305	84.38
634.511	76.38
634.717	104.38
634.923	98.38
635.129	86.38
635.335	88.38
635.541	96.38
635.747	93.38
635.952	112.38
636.158	85.38
636.364	89.38
636.57	85.38
636.775	101.38
636.981	78.38
637.187	91.38
637.392	84.38
637.598	84.38
637.804	79.38
638.009	80.38
638.215	80.38
638.421	91.38
638.626	99.38
638.832	80.38
639.037	96.38
639.243	84.38
639.448	84.38
639.654	73.38
639.859	78.38
640.065	87.38
640.27	104.38
640.475	82.38
640.681	87.38
640.886	86.38
641.091	85.38
641.297	82.38
641.502	90.38
641.707	88.38
641.913	98.38
642.118	100.38
642.323	100.38
642.528	87.38
642.733	96.38
642.939	80.38
643.144	82.38
643.349	93.38
643.554	83.38
643.759	90.38
643.964	73.38
644.169	82.38
644.374	85.38
644.579	84.38
644.784	105.38
644.989	74.38
645.194	87.38
645.399	98.38
645.604	97.38
645.809	87.38
646.014	85.38
646.219	82.38
646.423	87.38
646.628	83.38
646.833	86.38
647.038	84.38
647.243	98.38
647.447	85.38
647.652	77.38
647.857	90.38
648.062	69.38
648.266	81.38
648.471	90.38
648.676	75.38
648.88	96.38
649.085	86.38
649.289	90.38
649.494	79.38
649.698	82.38
649.903	86.38
650.107	86.38
650.312	96.38
650.516	88.38
650.721	99.38
650.925	78.38
651.13	102.38
651.334	77.38
651.539	84.38
651.743	73.38
651.947	90.38
652.152	92.38
652.356	84.38
652.56	91.38
652.764	90.38
652.969	84.38
653.173	77.38
653.377	80.38
653.581	98.38
653.785	83.38
653.99	85.38
654.194	83.38
654.398	78.38
654.602	87.38
654.806	99.38
655.01	85.38
655.214	96.38
655.418	87.38
655.622	92.38
655.826	85.38
656.03	85.38
656.234	95.38
656.438	82.38
656.642	88.38
656.846	78.38
657.049	91.38
657.253	90.38
657.457	89.38
657.661	95.38
657.865	95.38
658.068	86.38
658.272	80.38
658.476	88.38
658.68	88.38
658.883	84.38
659.087	85.38
659.291	90.38
659.494	80.38
659.698	89.38
659.901	80.38
660.105	86.38
660.309	76.38
660.512	80.38
660.716	88.38
660.919	77.38
661.123	88.38
661.326	83.38
661.53	87.38
661.733	78.38
661.936	88.38
662.14	79.38
662.343	79.38
662.546	92.38
662.75	86.38
662.953	84.38
663.156	90.38
663.36	71.38
663.563	88.38
663.766	99.38
663.969	86.38
664.173	84.38
664.376	79.38
664.579	94.38
664.782	78.38
664.985	84.38
665.188	75.38
665.391	61.38
665.594	69.38
665.797	100.38
666	76.38
666.203	83.38
666.406	83.38
666.609	81.38
666.812	76.38
667.015	94.38
667.218	95.38
667.421	103.38
667.624	86.38
667.827	78.38
668.03	72.38
668.232	82.38
668.435	83.38
668.638	80.38
668.841	91.38
669.043	85.38
669.246	83.38
669.449	74.38
669.651	81.38
669.854	86.38
670.057	76.38
670.259	75.38
670.462	79.38
670.665	91.38
670.867	81.38
671.07	86.38
671.272	83.38
671.475	76.38
671.677	78.38
671.88	77.38
672.082	90.38
672.284	104.38
672.487	86.38
672.689	78.38
672.892	83.38
