Data from Zn(NO3)2Standard.Agarose3%.GreenCap.LampEnergy10E.O_HRD10591_15-08-52-951.txt Node
Date: Mon Jul 22 15:08:52 EDT 2019
User: cochatt
Spectrometer: HR+D1059
Trigger mode: 1
Integration Time (sec): 1.000000E-1
Scans to average: 1
Electric dark correction enabled: true
Nonlinearity correction enabled: false
Boxcar width: 0
XAxis mode: Wavelengths
Number of Pixels in Spectrum: 2048
>>>>>Begin Spectral Data<<<<<
223.165	-4.62
223.4	-4.62
223.635	-4.62
223.869	-22.62
224.104	-29.62
224.338	-20.62
224.573	-15.62
224.808	-14.62
225.042	2.38
225.277	-5.62
225.511	-6.62
225.746	1.38
225.98	11.38
226.215	4.38
226.449	20.38
226.683	16.38
226.918	27.38
227.152	36.38
227.387	45.38
227.621	27.38
227.856	60.38
228.09	53.38
228.324	47.38
228.559	59.38
228.793	63.38
229.027	70.38
229.262	66.38
229.496	87.38
229.73	74.38
229.964	72.38
230.199	70.38
230.433	84.38
230.667	66.38
230.901	95.38
231.136	86.38
231.37	75.38
231.604	88.38
231.838	97.38
232.072	78.38
232.306	90.38
232.541	80.38
232.775	88.38
233.009	90.38
233.243	93.38
233.477	90.38
233.711	73.38
233.945	98.38
234.179	88.38
234.413	87.38
234.647	89.38
234.881	85.38
235.115	72.38
235.349	82.38
235.583	89.38
235.817	90.38
236.051	88.38
236.285	94.38
236.519	98.38
236.753	80.38
236.987	82.38
237.221	86.38
237.455	80.38
237.689	65.38
237.922	85.38
238.156	76.38
238.39	80.38
238.624	79.38
238.858	83.38
239.091	87.38
239.325	91.38
239.559	83.38
239.793	76.38
240.027	85.38
240.26	81.38
240.494	85.38
240.728	77.38
240.961	68.38
241.195	88.38
241.429	76.38
241.662	85.38
241.896	73.38
242.13	79.38
242.363	90.38
242.597	76.38
242.83	81.38
243.064	88.38
243.298	67.38
243.531	79.38
243.765	80.38
243.998	90.38
244.232	73.38
244.465	81.38
244.699	68.38
244.932	74.38
245.166	81.38
245.399	74.38
245.633	95.38
245.866	82.38
246.099	66.38
246.333	82.38
246.566	97.38
246.8	79.38
247.033	71.38
247.266	71.38
247.5	85.38
247.733	83.38
247.966	92.38
248.2	76.38
248.433	79.38
248.666	92.38
248.899	64.38
249.133	88.38
249.366	92.38
249.599	78.38
249.832	73.38
250.066	83.38
250.299	74.38
250.532	96.38
250.765	90.38
250.998	81.38
251.231	97.38
251.465	95.38
251.698	95.38
251.931	73.38
252.164	81.38
252.397	90.38
252.63	89.38
252.863	95.38
253.096	84.38
253.329	88.38
253.562	90.38
253.795	88.38
254.028	89.38
254.261	89.38
254.494	82.38
254.727	74.38
254.96	92.38
255.193	81.38
255.426	71.38
255.659	85.38
255.892	93.38
256.124	89.38
256.357	82.38
256.59	70.38
256.823	79.38
257.056	90.38
257.289	83.38
257.521	89.38
257.754	89.38
257.987	75.38
258.22	94.38
258.452	96.38
258.685	81.38
258.918	85.38
259.151	70.38
259.383	87.38
259.616	110.38
259.849	85.38
260.081	76.38
260.314	79.38
260.547	84.38
260.779	91.38
261.012	96.38
261.244	87.38
261.477	108.38
261.71	82.38
261.942	88.38
262.175	92.38
262.407	81.38
262.64	92.38
262.872	86.38
263.105	85.38
263.337	82.38
263.57	78.38
263.802	76.38
264.035	86.38
264.267	80.38
264.499	90.38
264.732	81.38
264.964	82.38
265.197	93.38
265.429	89.38
265.661	82.38
265.894	79.38
266.126	88.38
266.358	80.38
266.591	90.38
266.823	86.38
267.055	73.38
267.287	87.38
267.52	92.38
267.752	96.38
267.984	90.38
268.216	86.38
268.448	86.38
268.681	90.38
268.913	83.38
269.145	95.38
269.377	99.38
269.609	80.38
269.841	79.38
270.073	85.38
270.306	88.38
270.538	83.38
270.77	89.38
271.002	79.38
271.234	80.38
271.466	79.38
271.698	90.38
271.93	74.38
272.162	87.38
272.394	74.38
272.626	99.38
272.858	86.38
273.09	78.38
273.322	79.38
273.553	85.38
273.785	77.38
274.017	78.38
274.249	85.38
274.481	96.38
274.713	80.38
274.945	94.38
275.176	100.38
275.408	75.38
275.64	78.38
275.872	77.38
276.104	83.38
276.335	87.38
276.567	86.38
276.799	99.38
277.031	92.38
277.262	79.38
277.494	92.38
277.726	89.38
277.957	92.38
278.189	83.38
278.421	80.38
278.652	81.38
278.884	87.38
279.115	90.38
279.347	98.38
279.579	92.38
279.81	87.38
280.042	77.38
280.273	90.38
280.505	85.38
280.736	105.38
280.968	90.38
281.199	99.38
281.431	81.38
281.662	90.38
281.894	94.38
282.125	98.38
282.356	90.38
282.588	81.38
282.819	91.38
283.051	104.38
283.282	84.38
283.513	81.38
283.745	95.38
283.976	79.38
284.207	89.38
284.439	103.38
284.67	86.38
284.901	87.38
285.132	81.38
285.364	85.38
285.595	83.38
285.826	86.38
286.057	87.38
286.288	92.38
286.52	90.38
286.751	81.38
286.982	95.38
287.213	81.38
287.444	85.38
287.675	76.38
287.906	76.38
288.138	81.38
288.369	82.38
288.6	85.38
288.831	93.38
289.062	82.38
289.293	86.38
289.524	100.38
289.755	99.38
289.986	101.38
290.217	80.38
290.448	95.38
290.679	97.38
290.91	79.38
291.141	103.38
291.371	110.38
291.602	91.38
291.833	91.38
292.064	101.38
292.295	86.38
292.526	88.38
292.757	81.38
292.987	108.38
293.218	86.38
293.449	86.38
293.68	103.38
293.91	89.38
294.141	89.38
294.372	84.38
294.603	96.38
294.833	90.38
295.064	94.38
295.295	88.38
295.525	95.38
295.756	93.38
295.987	84.38
296.217	96.38
296.448	88.38
296.679	79.38
296.909	82.38
297.14	99.38
297.37	87.38
297.601	94.38
297.831	85.38
298.062	81.38
298.292	94.38
298.523	85.38
298.753	82.38
298.984	88.38
299.214	97.38
299.445	102.38
299.675	84.38
299.905	87.38
300.136	84.38
300.366	101.38
300.597	80.38
300.827	86.38
301.057	89.38
301.288	100.38
301.518	83.38
301.748	103.38
301.979	80.38
302.209	94.38
302.439	81.38
302.669	97.38
302.9	92.38
303.13	86.38
303.36	91.38
303.59	89.38
303.82	87.38
304.051	97.38
304.281	90.38
304.511	86.38
304.741	94.38
304.971	92.38
305.201	84.38
305.431	90.38
305.661	96.38
305.891	94.38
306.121	83.38
306.352	81.38
306.582	83.38
306.812	82.38
307.042	96.38
307.272	82.38
307.502	79.38
307.731	88.38
307.961	105.38
308.191	81.38
308.421	94.38
308.651	90.38
308.881	79.38
309.111	85.38
309.341	92.38
309.571	90.38
309.8	89.38
310.03	103.38
310.26	92.38
310.49	101.38
310.72	82.38
310.949	94.38
311.179	80.38
311.409	88.38
311.639	87.38
311.868	104.38
312.098	97.38
312.328	90.38
312.557	86.38
312.787	96.38
313.017	86.38
313.246	96.38
313.476	88.38
313.706	92.38
313.935	81.38
314.165	91.38
314.394	88.38
314.624	87.38
314.853	85.38
315.083	80.38
315.312	95.38
315.542	91.38
315.771	88.38
316.001	94.38
316.23	96.38
316.46	102.38
316.689	77.38
316.919	83.38
317.148	87.38
317.377	101.38
317.607	95.38
317.836	87.38
318.065	87.38
318.295	77.38
318.524	93.38
318.753	92.38
318.983	94.38
319.212	88.38
319.441	91.38
319.67	86.38
319.9	99.38
320.129	89.38
320.358	102.38
320.587	89.38
320.816	91.38
321.046	91.38
321.275	102.38
321.504	94.38
321.733	93.38
321.962	88.38
322.191	89.38
322.42	96.38
322.649	78.38
322.878	83.38
323.108	100.38
323.337	87.38
323.566	84.38
323.795	91.38
324.024	83.38
324.253	92.38
324.482	77.38
324.71	90.38
324.939	90.38
325.168	87.38
325.397	94.38
325.626	91.38
325.855	90.38
326.084	92.38
326.313	100.38
326.542	77.38
326.77	83.38
326.999	86.38
327.228	86.38
327.457	73.38
327.686	85.38
327.914	101.38
328.143	96.38
328.372	82.38
328.6	89.38
328.829	84.38
329.058	87.38
329.287	97.38
329.515	87.38
329.744	89.38
329.972	88.38
330.201	102.38
330.43	89.38
330.658	83.38
330.887	93.38
331.115	79.38
331.344	93.38
331.572	86.38
331.801	93.38
332.03	87.38
332.258	82.38
332.486	93.38
332.715	89.38
332.943	83.38
333.172	94.38
333.4	90.38
333.629	78.38
333.857	95.38
334.085	90.38
334.314	102.38
334.542	95.38
334.771	90.38
334.999	75.38
335.227	89.38
335.455	89.38
335.684	90.38
335.912	93.38
336.14	81.38
336.369	97.38
336.597	78.38
336.825	94.38
337.053	88.38
337.281	84.38
337.51	109.38
337.738	86.38
337.966	89.38
338.194	93.38
338.422	85.38
338.65	84.38
338.878	86.38
339.106	87.38
339.334	81.38
339.562	79.38
339.79	92.38
340.018	84.38
340.246	88.38
340.474	102.38
340.702	70.38
340.93	82.38
341.158	95.38
341.386	93.38
341.614	91.38
341.842	92.38
342.07	90.38
342.298	83.38
342.526	88.38
342.754	87.38
342.981	90.38
343.209	97.38
343.437	100.38
343.665	87.38
343.893	88.38
344.12	87.38
344.348	93.38
344.576	88.38
344.804	79.38
345.031	86.38
345.259	89.38
345.487	92.38
345.714	99.38
345.942	87.38
346.17	81.38
346.397	92.38
346.625	95.38
346.853	104.38
347.08	101.38
347.308	96.38
347.535	87.38
347.763	99.38
347.99	103.38
348.218	96.38
348.445	93.38
348.673	90.38
348.9	85.38
349.128	78.38
349.355	96.38
349.583	87.38
349.81	88.38
350.037	89.38
350.265	90.38
350.492	93.38
350.72	89.38
350.947	73.38
351.174	83.38
351.402	86.38
351.629	88.38
351.856	91.38
352.083	96.38
352.311	86.38
352.538	96.38
352.765	86.38
352.992	85.38
353.22	93.38
353.447	94.38
353.674	84.38
353.901	95.38
354.128	96.38
354.355	73.38
354.583	86.38
354.81	83.38
355.037	95.38
355.264	96.38
355.491	93.38
355.718	85.38
355.945	88.38
356.172	95.38
356.399	91.38
356.626	91.38
356.853	100.38
357.08	92.38
357.307	82.38
357.534	77.38
357.761	79.38
357.988	70.38
358.215	95.38
358.441	77.38
358.668	87.38
358.895	94.38
359.122	88.38
359.349	82.38
359.576	96.38
359.802	92.38
360.029	86.38
360.256	95.38
360.483	88.38
360.709	91.38
360.936	95.38
361.163	86.38
361.39	81.38
361.616	95.38
361.843	82.38
362.07	89.38
362.296	95.38
362.523	97.38
362.749	96.38
362.976	98.38
363.203	91.38
363.429	87.38
363.656	99.38
363.882	84.38
364.109	100.38
364.335	93.38
364.562	84.38
364.788	83.38
365.015	87.38
365.241	93.38
365.468	104.38
365.694	90.38
365.92	90.38
366.147	101.38
366.373	75.38
366.599	98.38
366.826	93.38
367.052	98.38
367.278	97.38
367.505	93.38
367.731	88.38
367.957	102.38
368.184	91.38
368.41	89.38
368.636	94.38
368.862	89.38
369.089	90.38
369.315	91.38
369.541	79.38
369.767	97.38
369.993	87.38
370.219	95.38
370.445	89.38
370.672	90.38
370.898	88.38
371.124	92.38
371.35	86.38
371.576	106.38
371.802	105.38
372.028	92.38
372.254	91.38
372.48	92.38
372.706	104.38
372.932	95.38
373.158	87.38
373.384	95.38
373.61	91.38
373.835	94.38
374.061	83.38
374.287	94.38
374.513	79.38
374.739	103.38
374.965	93.38
375.191	87.38
375.416	87.38
375.642	84.38
375.868	90.38
376.094	79.38
376.319	109.38
376.545	84.38
376.771	97.38
376.997	96.38
377.222	82.38
377.448	101.38
377.674	90.38
377.899	91.38
378.125	82.38
378.35	88.38
378.576	99.38
378.802	93.38
379.027	99.38
379.253	86.38
379.478	80.38
379.704	83.38
379.929	79.38
380.155	100.38
380.38	91.38
380.606	87.38
380.831	98.38
381.057	102.38
381.282	94.38
381.507	98.38
381.733	82.38
381.958	96.38
382.184	88.38
382.409	93.38
382.634	104.38
382.86	98.38
383.085	88.38
383.31	112.38
383.535	88.38
383.761	78.38
383.986	88.38
384.211	89.38
384.436	88.38
384.662	94.38
384.887	85.38
385.112	93.38
385.337	86.38
385.562	82.38
385.787	88.38
386.013	97.38
386.238	93.38
386.463	88.38
386.688	102.38
386.913	98.38
387.138	101.38
387.363	79.38
387.588	89.38
387.813	92.38
388.038	93.38
388.263	92.38
388.488	96.38
388.713	92.38
388.938	88.38
389.163	93.38
389.387	72.38
389.612	91.38
389.837	105.38
390.062	98.38
390.287	98.38
390.512	99.38
390.736	86.38
390.961	78.38
391.186	104.38
391.411	89.38
391.636	86.38
391.86	97.38
392.085	107.38
392.31	93.38
392.534	103.38
392.759	95.38
392.984	98.38
393.208	90.38
393.433	97.38
393.658	109.38
393.882	98.38
394.107	111.38
394.331	104.38
394.556	98.38
394.78	101.38
395.005	97.38
395.229	101.38
395.454	102.38
395.678	98.38
395.903	98.38
396.127	102.38
396.352	96.38
396.576	106.38
396.801	88.38
397.025	94.38
397.249	97.38
397.474	105.38
397.698	90.38
397.922	97.38
398.147	107.38
398.371	97.38
398.595	98.38
398.82	101.38
399.044	97.38
399.268	101.38
399.492	112.38
399.717	96.38
399.941	93.38
400.165	105.38
400.389	102.38
400.613	102.38
400.837	88.38
401.062	106.38
401.286	96.38
401.51	97.38
401.734	101.38
401.958	105.38
402.182	100.38
402.406	119.38
402.63	105.38
402.854	107.38
403.078	104.38
403.302	96.38
403.526	103.38
403.75	101.38
403.974	100.38
404.198	99.38
404.422	100.38
404.645	85.38
404.869	110.38
405.093	97.38
405.317	103.38
405.541	102.38
405.765	108.38
405.988	110.38
406.212	102.38
406.436	112.38
406.66	112.38
406.883	104.38
407.107	98.38
407.331	102.38
407.555	94.38
407.778	102.38
408.002	103.38
408.226	100.38
408.449	104.38
408.673	100.38
408.896	104.38
409.12	84.38
409.344	102.38
409.567	93.38
409.791	88.38
410.014	115.38
410.238	94.38
410.461	101.38
410.685	103.38
410.908	111.38
411.132	110.38
411.355	93.38
411.578	118.38
411.802	111.38
412.025	118.38
412.249	102.38
412.472	105.38
412.695	97.38
412.919	114.38
413.142	103.38
413.365	108.38
413.589	105.38
413.812	121.38
414.035	108.38
414.258	107.38
414.482	96.38
414.705	118.38
414.928	97.38
415.151	108.38
415.374	112.38
415.597	101.38
415.821	118.38
416.044	120.38
416.267	108.38
416.49	93.38
416.713	105.38
416.936	98.38
417.159	92.38
417.382	101.38
417.605	86.38
417.828	91.38
418.051	108.38
418.274	119.38
418.497	91.38
418.72	101.38
418.943	113.38
419.166	117.38
419.389	115.38
419.611	118.38
419.834	119.38
420.057	123.38
420.28	105.38
420.503	113.38
420.726	112.38
420.948	104.38
421.171	117.38
421.394	123.38
421.617	113.38
421.839	105.38
422.062	121.38
422.285	110.38
422.507	106.38
422.73	108.38
422.953	101.38
423.175	113.38
423.398	126.38
423.621	109.38
423.843	96.38
424.066	109.38
424.288	105.38
424.511	107.38
424.733	125.38
424.956	117.38
425.178	101.38
425.401	109.38
425.623	118.38
425.846	110.38
426.068	121.38
426.291	119.38
426.513	112.38
426.735	105.38
426.958	103.38
427.18	108.38
427.402	121.38
427.625	117.38
427.847	111.38
428.069	104.38
428.292	113.38
428.514	106.38
428.736	119.38
428.958	113.38
429.181	104.38
429.403	99.38
429.625	107.38
429.847	106.38
430.069	104.38
430.292	115.38
430.514	99.38
430.736	97.38
430.958	98.38
431.18	105.38
431.402	104.38
431.624	112.38
431.846	94.38
432.068	76.38
432.29	95.38
432.512	94.38
432.734	108.38
432.956	117.38
433.178	121.38
433.4	115.38
433.622	103.38
433.844	117.38
434.066	98.38
434.287	101.38
434.509	95.38
434.731	98.38
434.953	94.38
435.175	107.38
435.397	108.38
435.618	103.38
435.84	91.38
436.062	94.38
436.284	104.38
436.505	101.38
436.727	99.38
436.949	113.38
437.17	104.38
437.392	120.38
437.614	115.38
437.835	107.38
438.057	97.38
438.278	107.38
438.5	97.38
438.721	101.38
438.943	117.38
439.165	117.38
439.386	109.38
439.608	111.38
439.829	117.38
440.05	111.38
440.272	101.38
440.493	127.38
440.715	119.38
440.936	125.38
441.158	110.38
441.379	117.38
441.6	117.38
441.822	126.38
442.043	119.38
442.264	118.38
442.486	114.38
442.707	107.38
442.928	124.38
443.149	114.38
443.371	114.38
443.592	117.38
443.813	114.38
444.034	114.38
444.255	120.38
444.476	118.38
444.698	127.38
444.919	112.38
445.14	253.38
445.361	179.38
445.582	110.38
445.803	113.38
446.024	122.38
446.245	128.38
446.466	136.38
446.687	110.38
446.908	117.38
447.129	124.38
447.35	123.38
447.571	111.38
447.792	126.38
448.013	115.38
448.234	109.38
448.455	106.38
448.675	134.38
448.896	118.38
449.117	114.38
449.338	121.38
449.559	121.38
449.779	106.38
450	121.38
450.221	112.38
450.442	123.38
450.662	97.38
450.883	104.38
451.104	116.38
451.324	103.38
451.545	117.38
451.766	115.38
451.986	99.38
452.207	99.38
452.428	120.38
452.648	105.38
452.869	98.38
453.089	112.38
453.31	101.38
453.53	121.38
453.751	118.38
453.971	112.38
454.192	101.38
454.412	104.38
454.633	84.38
454.853	116.38
455.073	94.38
455.294	102.38
455.514	107.38
455.734	103.38
455.955	114.38
456.175	123.38
456.395	98.38
456.616	100.38
456.836	109.38
457.056	100.38
457.276	102.38
457.497	105.38
457.717	96.38
457.937	101.38
458.157	99.38
458.377	111.38
458.598	105.38
458.818	87.38
459.038	102.38
459.258	106.38
459.478	85.38
459.698	92.38
459.918	101.38
460.138	90.38
460.358	107.38
460.578	118.38
460.798	114.38
461.018	108.38
461.238	98.38
461.458	105.38
461.678	90.38
461.898	102.38
462.118	103.38
462.338	113.38
462.558	95.38
462.777	109.38
462.997	94.38
463.217	102.38
463.437	107.38
463.657	98.38
463.876	106.38
464.096	88.38
464.316	81.38
464.536	103.38
464.755	103.38
464.975	97.38
465.195	104.38
465.414	101.38
465.634	99.38
465.854	116.38
466.073	104.38
466.293	121.38
466.512	106.38
466.732	109.38
466.951	123.38
467.171	127.38
467.391	109.38
467.61	106.38
467.829	107.38
468.049	118.38
468.268	120.38
468.488	115.38
468.707	100.38
468.927	113.38
469.146	116.38
469.365	108.38
469.585	125.38
469.804	126.38
470.023	111.38
470.243	121.38
470.462	109.38
470.681	109.38
470.901	116.38
471.12	110.38
471.339	125.38
471.558	113.38
471.777	130.38
471.997	111.38
472.216	103.38
472.435	94.38
472.654	100.38
472.873	96.38
473.092	103.38
473.311	113.38
473.53	106.38
473.749	102.38
473.968	118.38
474.187	101.38
474.406	113.38
474.625	111.38
474.844	114.38
475.063	115.38
475.282	111.38
475.501	111.38
475.72	105.38
475.939	110.38
476.158	109.38
476.377	99.38
476.596	113.38
476.814	110.38
477.033	98.38
477.252	107.38
477.471	114.38
477.69	120.38
477.908	117.38
478.127	108.38
478.346	94.38
478.564	110.38
478.783	112.38
479.002	96.38
479.22	106.38
479.439	117.38
479.658	106.38
479.876	126.38
480.095	99.38
480.313	104.38
480.532	105.38
480.751	93.38
480.969	89.38
481.188	89.38
481.406	101.38
481.624	89.38
481.843	105.38
482.061	97.38
482.28	96.38
482.498	101.38
482.717	104.38
482.935	109.38
483.153	128.38
483.372	123.38
483.59	112.38
483.808	111.38
484.027	110.38
484.245	121.38
484.463	129.38
484.681	130.38
484.9	119.38
485.118	129.38
485.336	123.38
485.554	102.38
485.772	103.38
485.99	109.38
486.209	103.38
486.427	115.38
486.645	111.38
486.863	113.38
487.081	112.38
487.299	115.38
487.517	123.38
487.735	115.38
487.953	138.38
488.171	137.38
488.389	140.38
488.607	137.38
488.825	108.38
489.043	119.38
489.261	111.38
489.479	113.38
489.696	127.38
489.914	117.38
490.132	117.38
490.35	104.38
490.568	123.38
490.786	129.38
491.003	139.38
491.221	142.38
491.439	136.38
491.657	141.38
491.874	154.38
492.092	159.38
492.31	168.38
492.527	162.38
492.745	149.38
492.963	139.38
493.18	149.38
493.398	133.38
493.615	134.38
493.833	135.38
494.05	137.38
494.268	120.38
494.485	112.38
494.703	142.38
494.92	129.38
495.138	113.38
495.355	131.38
495.573	129.38
495.79	123.38
496.008	136.38
496.225	131.38
496.442	131.38
496.66	139.38
496.877	130.38
497.094	144.38
497.312	118.38
497.529	127.38
497.746	128.38
497.963	113.38
498.181	99.38
498.398	104.38
498.615	109.38
498.832	125.38
499.049	97.38
499.267	110.38
499.484	105.38
499.701	104.38
499.918	113.38
500.135	113.38
500.352	103.38
500.569	116.38
500.786	118.38
501.003	117.38
501.22	112.38
501.437	107.38
501.654	107.38
501.871	122.38
502.088	118.38
502.305	105.38
502.522	116.38
502.739	107.38
502.956	111.38
503.172	107.38
503.389	117.38
503.606	97.38
503.823	109.38
504.04	105.38
504.256	102.38
504.473	102.38
504.69	120.38
504.907	110.38
505.123	106.38
505.34	106.38
505.557	100.38
505.773	111.38
505.99	102.38
506.207	102.38
506.423	106.38
506.64	111.38
506.856	93.38
507.073	122.38
507.289	109.38
507.506	106.38
507.722	107.38
507.939	112.38
508.155	103.38
508.372	101.38
508.588	106.38
508.805	112.38
509.021	99.38
509.238	103.38
509.454	107.38
509.67	98.38
509.887	96.38
510.103	90.38
510.319	98.38
510.536	102.38
510.752	91.38
510.968	88.38
511.184	100.38
511.401	91.38
511.617	95.38
511.833	84.38
512.049	100.38
512.265	93.38
512.481	92.38
512.698	95.38
512.914	92.38
513.13	86.38
513.346	98.38
513.562	96.38
513.778	84.38
513.994	99.38
514.21	83.38
514.426	97.38
514.642	94.38
514.858	86.38
515.074	98.38
515.29	97.38
515.506	92.38
515.721	90.38
515.937	98.38
516.153	95.38
516.369	88.38
516.585	74.38
516.801	91.38
517.016	112.38
517.232	101.38
517.448	95.38
517.664	98.38
517.879	108.38
518.095	93.38
518.311	83.38
518.527	99.38
518.742	98.38
518.958	110.38
519.173	100.38
519.389	111.38
519.605	102.38
519.82	107.38
520.036	90.38
520.251	99.38
520.467	81.38
520.682	106.38
520.898	96.38
521.113	94.38
521.329	94.38
521.544	99.38
521.76	102.38
521.975	102.38
522.19	89.38
522.406	94.38
522.621	89.38
522.836	111.38
523.052	95.38
523.267	98.38
523.482	107.38
523.698	91.38
523.913	103.38
524.128	98.38
524.343	100.38
524.559	94.38
524.774	107.38
524.989	114.38
525.204	113.38
525.419	93.38
525.634	105.38
525.849	102.38
526.064	105.38
526.28	98.38
526.495	104.38
526.71	96.38
526.925	85.38
527.14	89.38
527.355	89.38
527.57	83.38
527.785	93.38
527.999	93.38
528.214	107.38
528.429	110.38
528.644	105.38
528.859	110.38
529.074	113.38
529.289	129.38
529.503	121.38
529.718	123.38
529.933	118.38
530.148	97.38
530.363	90.38
530.577	92.38
530.792	86.38
531.007	92.38
531.221	83.38
531.436	95.38
531.651	83.38
531.865	86.38
532.08	100.38
532.295	90.38
532.509	76.38
532.724	89.38
532.938	90.38
533.153	91.38
533.367	94.38
533.582	88.38
533.796	121.38
534.011	104.38
534.225	97.38
534.44	110.38
534.654	92.38
534.868	95.38
535.083	88.38
535.297	94.38
535.511	83.38
535.726	97.38
535.94	94.38
536.154	89.38
536.369	80.38
536.583	89.38
536.797	100.38
537.011	96.38
537.225	94.38
537.44	92.38
537.654	96.38
537.868	82.38
538.082	99.38
538.296	89.38
538.51	99.38
538.724	95.38
538.938	116.38
539.153	119.38
539.367	102.38
539.581	106.38
539.795	91.38
540.009	104.38
540.222	106.38
540.436	96.38
540.65	103.38
540.864	104.38
541.078	101.38
541.292	123.38
541.506	126.38
541.72	128.38
541.934	139.38
542.147	133.38
542.361	130.38
542.575	118.38
542.789	123.38
543.002	118.38
543.216	122.38
543.43	111.38
543.644	106.38
543.857	127.38
544.071	143.38
544.285	139.38
544.498	129.38
544.712	122.38
544.925	121.38
545.139	113.38
545.352	127.38
545.566	123.38
545.779	125.38
545.993	127.38
546.206	136.38
546.42	135.38
546.633	139.38
546.847	129.38
547.06	117.38
547.274	124.38
547.487	143.38
547.7	127.38
547.914	137.38
548.127	127.38
548.34	144.38
548.554	133.38
548.767	133.38
548.98	122.38
549.193	125.38
549.407	108.38
549.62	135.38
549.833	130.38
550.046	126.38
550.259	108.38
550.473	123.38
550.686	123.38
550.899	119.38
551.112	122.38
551.325	123.38
551.538	117.38
551.751	107.38
551.964	109.38
552.177	113.38
552.39	125.38
552.603	120.38
552.816	129.38
553.029	118.38
553.242	136.38
553.455	117.38
553.667	135.38
553.88	117.38
554.093	126.38
554.306	122.38
554.519	126.38
554.732	111.38
554.944	127.38
555.157	121.38
555.37	113.38
555.583	117.38
555.795	109.38
556.008	112.38
556.221	95.38
556.433	129.38
556.646	120.38
556.859	126.38
557.071	120.38
557.284	118.38
557.496	126.38
557.709	120.38
557.921	113.38
558.134	119.38
558.346	119.38
558.559	119.38
558.771	113.38
558.984	110.38
559.196	115.38
559.409	116.38
559.621	125.38
559.833	107.38
560.046	106.38
560.258	99.38
560.47	122.38
560.683	123.38
560.895	116.38
561.107	102.38
561.32	111.38
561.532	110.38
561.744	125.38
561.956	101.38
562.168	109.38
562.381	108.38
562.593	106.38
562.805	107.38
563.017	108.38
563.229	117.38
563.441	116.38
563.653	123.38
563.865	102.38
564.077	112.38
564.289	115.38
564.501	105.38
564.713	94.38
564.925	108.38
565.137	113.38
565.349	118.38
565.561	111.38
565.773	115.38
565.985	100.38
566.197	113.38
566.408	110.38
566.62	100.38
566.832	94.38
567.044	116.38
567.255	117.38
567.467	109.38
567.679	101.38
567.891	94.38
568.102	85.38
568.314	100.38
568.526	88.38
568.737	94.38
568.949	90.38
569.161	99.38
569.372	83.38
569.584	96.38
569.795	90.38
570.007	90.38
570.218	87.38
570.43	95.38
570.641	94.38
570.853	93.38
571.064	94.38
571.276	90.38
571.487	98.38
571.698	102.38
571.91	99.38
572.121	106.38
572.333	94.38
572.544	100.38
572.755	103.38
572.966	99.38
573.178	101.38
573.389	97.38
573.6	89.38
573.811	85.38
574.023	84.38
574.234	99.38
574.445	91.38
574.656	94.38
574.867	93.38
575.078	102.38
575.289	100.38
575.501	93.38
575.712	101.38
575.923	96.38
576.134	106.38
576.345	94.38
576.556	96.38
576.767	92.38
576.978	105.38
577.188	92.38
577.399	88.38
577.61	93.38
577.821	95.38
578.032	89.38
578.243	106.38
578.454	110.38
578.665	99.38
578.875	92.38
579.086	97.38
579.297	89.38
579.508	95.38
579.718	101.38
579.929	100.38
580.14	98.38
580.35	109.38
580.561	87.38
580.772	87.38
580.982	77.38
581.193	101.38
581.403	89.38
581.614	85.38
581.825	99.38
582.035	106.38
582.246	96.38
582.456	77.38
582.667	95.38
582.877	96.38
583.087	105.38
583.298	101.38
583.508	73.38
583.719	86.38
583.929	101.38
584.139	91.38
584.35	88.38
584.56	95.38
584.77	80.38
584.981	100.38
585.191	93.38
585.401	90.38
585.611	99.38
585.821	87.38
586.032	89.38
586.242	93.38
586.452	95.38
586.662	105.38
586.872	86.38
587.082	82.38
587.292	92.38
587.502	97.38
587.713	84.38
587.923	93.38
588.133	90.38
588.343	80.38
588.553	92.38
588.762	84.38
588.972	95.38
589.182	73.38
589.392	78.38
589.602	96.38
589.812	80.38
590.022	97.38
590.232	89.38
590.441	83.38
590.651	82.38
590.861	101.38
591.071	80.38
591.281	97.38
591.49	99.38
591.7	103.38
591.91	87.38
592.119	94.38
592.329	85.38
592.539	73.38
592.748	87.38
592.958	82.38
593.167	95.38
593.377	95.38
593.587	98.38
593.796	86.38
594.006	86.38
594.215	88.38
594.424	85.38
594.634	92.38
594.843	82.38
595.053	92.38
595.262	85.38
595.472	86.38
595.681	98.38
595.89	93.38
596.1	91.38
596.309	94.38
596.518	94.38
596.727	97.38
596.937	92.38
597.146	95.38
597.355	99.38
597.564	79.38
597.774	81.38
597.983	98.38
598.192	97.38
598.401	93.38
598.61	95.38
598.819	78.38
599.028	99.38
599.237	86.38
599.446	86.38
599.655	95.38
599.864	106.38
600.073	100.38
600.282	99.38
600.491	81.38
600.7	89.38
600.909	102.38
601.118	98.38
601.327	97.38
601.536	98.38
601.745	99.38
601.953	103.38
602.162	98.38
602.371	91.38
602.58	85.38
602.789	91.38
602.997	102.38
603.206	92.38
603.415	103.38
603.623	98.38
603.832	105.38
604.041	95.38
604.249	100.38
604.458	101.38
604.666	104.38
604.875	99.38
605.084	83.38
605.292	94.38
605.501	98.38
605.709	106.38
605.918	101.38
606.126	102.38
606.334	105.38
606.543	109.38
606.751	104.38
606.96	105.38
607.168	98.38
607.376	112.38
607.585	104.38
607.793	107.38
608.001	100.38
608.21	94.38
608.418	106.38
608.626	99.38
608.834	80.38
609.043	112.38
609.251	109.38
609.459	93.38
609.667	111.38
609.875	99.38
610.083	91.38
610.291	102.38
610.499	109.38
610.707	103.38
610.916	96.38
611.124	97.38
611.332	108.38
611.54	105.38
611.748	115.38
611.955	105.38
612.163	119.38
612.371	121.38
612.579	97.38
612.787	96.38
612.995	109.38
613.203	99.38
613.411	107.38
613.618	96.38
613.826	100.38
614.034	81.38
614.242	101.38
614.449	95.38
614.657	104.38
614.865	118.38
615.072	114.38
615.28	108.38
615.488	106.38
615.695	94.38
615.903	108.38
616.111	100.38
616.318	105.38
616.526	105.38
616.733	117.38
616.941	102.38
617.148	110.38
617.356	107.38
617.563	96.38
617.771	97.38
617.978	88.38
618.185	106.38
618.393	98.38
618.6	102.38
618.807	94.38
619.015	87.38
619.222	86.38
619.429	93.38
619.637	103.38
619.844	99.38
620.051	94.38
620.258	98.38
620.466	99.38
620.673	102.38
620.88	93.38
621.087	109.38
621.294	99.38
621.501	90.38
621.708	107.38
621.915	101.38
622.122	93.38
622.329	101.38
622.536	86.38
622.743	91.38
622.95	90.38
623.157	102.38
623.364	93.38
623.571	90.38
623.778	98.38
623.985	110.38
624.192	87.38
624.399	109.38
624.606	109.38
624.812	96.38
625.019	106.38
625.226	98.38
625.433	101.38
625.639	98.38
625.846	98.38
626.053	83.38
626.259	85.38
626.466	107.38
626.673	109.38
626.879	101.38
627.086	104.38
627.293	92.38
627.499	87.38
627.706	100.38
627.912	100.38
628.119	101.38
628.325	94.38
628.532	105.38
628.738	106.38
628.945	88.38
629.151	100.38
629.357	94.38
629.564	103.38
629.77	111.38
629.976	94.38
630.183	98.38
630.389	103.38
630.595	101.38
630.802	98.38
631.008	95.38
631.214	99.38
631.42	94.38
631.627	104.38
631.833	111.38
632.039	105.38
632.245	93.38
632.451	95.38
632.657	90.38
632.863	109.38
633.069	95.38
633.275	99.38
633.481	104.38
633.688	104.38
633.893	94.38
634.099	93.38
634.305	93.38
634.511	85.38
634.717	105.38
634.923	95.38
635.129	93.38
635.335	94.38
635.541	86.38
635.747	103.38
635.952	93.38
636.158	100.38
636.364	96.38
636.57	87.38
636.775	101.38
636.981	94.38
637.187	99.38
637.392	105.38
637.598	86.38
637.804	98.38
638.009	99.38
638.215	85.38
638.421	92.38
638.626	103.38
638.832	100.38
639.037	110.38
639.243	99.38
639.448	95.38
639.654	86.38
639.859	99.38
640.065	101.38
640.27	103.38
640.475	99.38
640.681	91.38
640.886	79.38
641.091	102.38
641.297	93.38
641.502	83.38
641.707	95.38
641.913	92.38
642.118	97.38
642.323	93.38
642.528	87.38
642.733	107.38
642.939	112.38
643.144	86.38
643.349	92.38
643.554	92.38
643.759	104.38
643.964	98.38
644.169	94.38
644.374	86.38
644.579	110.38
644.784	104.38
644.989	101.38
645.194	108.38
645.399	95.38
645.604	92.38
645.809	111.38
646.014	89.38
646.219	85.38
646.423	97.38
646.628	99.38
646.833	87.38
647.038	92.38
647.243	99.38
647.447	96.38
647.652	102.38
647.857	86.38
648.062	101.38
648.266	101.38
648.471	86.38
648.676	93.38
648.88	104.38
649.085	102.38
649.289	86.38
649.494	101.38
649.698	108.38
649.903	89.38
650.107	92.38
650.312	94.38
650.516	90.38
650.721	102.38
650.925	100.38
651.13	85.38
651.334	90.38
651.539	87.38
651.743	106.38
651.947	90.38
652.152	93.38
652.356	98.38
652.56	99.38
652.764	89.38
652.969	96.38
653.173	92.38
653.377	89.38
653.581	89.38
653.785	90.38
653.99	85.38
654.194	97.38
654.398	86.38
654.602	92.38
654.806	96.38
655.01	101.38
655.214	85.38
655.418	97.38
655.622	99.38
655.826	89.38
656.03	84.38
656.234	88.38
656.438	88.38
656.642	92.38
656.846	95.38
657.049	89.38
657.253	81.38
657.457	95.38
657.661	89.38
657.865	97.38
658.068	87.38
658.272	113.38
658.476	63.38
658.68	100.38
658.883	87.38
659.087	89.38
659.291	101.38
659.494	90.38
659.698	69.38
659.901	95.38
660.105	97.38
660.309	94.38
660.512	89.38
660.716	81.38
660.919	94.38
661.123	83.38
661.326	83.38
661.53	95.38
661.733	96.38
661.936	84.38
662.14	84.38
662.343	97.38
662.546	92.38
662.75	91.38
662.953	95.38
663.156	85.38
663.36	77.38
663.563	104.38
663.766	78.38
663.969	97.38
664.173	85.38
664.376	97.38
664.579	88.38
664.782	99.38
664.985	90.38
665.188	81.38
665.391	90.38
665.594	98.38
665.797	89.38
666	90.38
666.203	94.38
666.406	85.38
666.609	87.38
666.812	103.38
667.015	95.38
667.218	81.38
667.421	81.38
667.624	83.38
667.827	101.38
668.03	93.38
668.232	99.38
668.435	85.38
668.638	100.38
668.841	92.38
669.043	94.38
669.246	85.38
669.449	98.38
669.651	82.38
669.854	82.38
670.057	94.38
670.259	84.38
670.462	86.38
670.665	75.38
670.867	78.38
671.07	77.38
671.272	94.38
671.475	83.38
671.677	83.38
671.88	89.38
672.082	89.38
672.284	99.38
672.487	93.38
672.689	91.38
672.892	91.38
