Data from Zn(NO3)2Standard.Agarose3%.GreenCap.LampEnergy10E.O_HRD10591_15-08-22-948.txt Node
Date: Mon Jul 22 15:08:22 EDT 2019
User: cochatt
Spectrometer: HR+D1059
Trigger mode: 1
Integration Time (sec): 1.000000E-1
Scans to average: 1
Electric dark correction enabled: true
Nonlinearity correction enabled: false
Boxcar width: 0
XAxis mode: Wavelengths
Number of Pixels in Spectrum: 2048
>>>>>Begin Spectral Data<<<<<
223.165	-23.62
223.4	-23.62
223.635	-23.62
223.869	-8.62
224.104	-16.62
224.338	-21.62
224.573	-24.62
224.808	-21.62
225.042	-8.62
225.277	-7.62
225.511	0.38
225.746	3.38
225.98	8.38
226.215	4.38
226.449	16.38
226.683	27.38
226.918	49.38
227.152	23.38
227.387	34.38
227.621	43.38
227.856	39.38
228.09	48.38
228.324	45.38
228.559	61.38
228.793	53.38
229.027	64.38
229.262	68.38
229.496	77.38
229.73	54.38
229.964	71.38
230.199	88.38
230.433	73.38
230.667	75.38
230.901	99.38
231.136	91.38
231.37	74.38
231.604	93.38
231.838	89.38
232.072	94.38
232.306	87.38
232.541	73.38
232.775	74.38
233.009	76.38
233.243	80.38
233.477	78.38
233.711	73.38
233.945	86.38
234.179	84.38
234.413	79.38
234.647	84.38
234.881	81.38
235.115	76.38
235.349	85.38
235.583	84.38
235.817	74.38
236.051	74.38
236.285	88.38
236.519	88.38
236.753	87.38
236.987	70.38
237.221	73.38
237.455	93.38
237.689	70.38
237.922	94.38
238.156	70.38
238.39	67.38
238.624	75.38
238.858	74.38
239.091	71.38
239.325	76.38
239.559	78.38
239.793	74.38
240.027	79.38
240.26	80.38
240.494	76.38
240.728	88.38
240.961	90.38
241.195	82.38
241.429	65.38
241.662	74.38
241.896	77.38
242.13	80.38
242.363	84.38
242.597	69.38
242.83	72.38
243.064	78.38
243.298	72.38
243.531	67.38
243.765	87.38
243.998	86.38
244.232	83.38
244.465	75.38
244.699	68.38
244.932	68.38
245.166	88.38
245.399	73.38
245.633	88.38
245.866	74.38
246.099	81.38
246.333	81.38
246.566	71.38
246.8	76.38
247.033	86.38
247.266	88.38
247.5	80.38
247.733	83.38
247.966	88.38
248.2	75.38
248.433	66.38
248.666	86.38
248.899	85.38
249.133	84.38
249.366	68.38
249.599	78.38
249.832	79.38
250.066	85.38
250.299	74.38
250.532	79.38
250.765	71.38
250.998	84.38
251.231	71.38
251.465	75.38
251.698	76.38
251.931	78.38
252.164	93.38
252.397	82.38
252.63	88.38
252.863	73.38
253.096	88.38
253.329	84.38
253.562	69.38
253.795	87.38
254.028	86.38
254.261	82.38
254.494	95.38
254.727	95.38
254.96	87.38
255.193	92.38
255.426	79.38
255.659	82.38
255.892	84.38
256.124	68.38
256.357	87.38
256.59	74.38
256.823	91.38
257.056	92.38
257.289	77.38
257.521	85.38
257.754	68.38
257.987	67.38
258.22	84.38
258.452	73.38
258.685	86.38
258.918	82.38
259.151	86.38
259.383	80.38
259.616	85.38
259.849	70.38
260.081	87.38
260.314	78.38
260.547	85.38
260.779	87.38
261.012	85.38
261.244	79.38
261.477	90.38
261.71	77.38
261.942	95.38
262.175	83.38
262.407	78.38
262.64	94.38
262.872	87.38
263.105	76.38
263.337	92.38
263.57	93.38
263.802	80.38
264.035	74.38
264.267	86.38
264.499	75.38
264.732	94.38
264.964	93.38
265.197	83.38
265.429	89.38
265.661	82.38
265.894	82.38
266.126	83.38
266.358	88.38
266.591	77.38
266.823	79.38
267.055	79.38
267.287	75.38
267.52	78.38
267.752	83.38
267.984	76.38
268.216	83.38
268.448	77.38
268.681	87.38
268.913	79.38
269.145	83.38
269.377	86.38
269.609	92.38
269.841	88.38
270.073	93.38
270.306	70.38
270.538	86.38
270.77	91.38
271.002	74.38
271.234	93.38
271.466	92.38
271.698	94.38
271.93	81.38
272.162	70.38
272.394	70.38
272.626	90.38
272.858	79.38
273.09	70.38
273.322	92.38
273.553	86.38
273.785	93.38
274.017	91.38
274.249	81.38
274.481	81.38
274.713	97.38
274.945	83.38
275.176	94.38
275.408	91.38
275.64	92.38
275.872	80.38
276.104	94.38
276.335	84.38
276.567	80.38
276.799	84.38
277.031	87.38
277.262	83.38
277.494	86.38
277.726	84.38
277.957	69.38
278.189	78.38
278.421	82.38
278.652	81.38
278.884	80.38
279.115	86.38
279.347	86.38
279.579	80.38
279.81	79.38
280.042	78.38
280.273	72.38
280.505	77.38
280.736	75.38
280.968	71.38
281.199	88.38
281.431	96.38
281.662	85.38
281.894	93.38
282.125	78.38
282.356	80.38
282.588	85.38
282.819	77.38
283.051	84.38
283.282	71.38
283.513	88.38
283.745	86.38
283.976	78.38
284.207	96.38
284.439	62.38
284.67	91.38
284.901	63.38
285.132	94.38
285.364	80.38
285.595	89.38
285.826	87.38
286.057	94.38
286.288	91.38
286.52	82.38
286.751	91.38
286.982	86.38
287.213	87.38
287.444	87.38
287.675	105.38
287.906	81.38
288.138	79.38
288.369	92.38
288.6	77.38
288.831	99.38
289.062	100.38
289.293	93.38
289.524	86.38
289.755	82.38
289.986	80.38
290.217	98.38
290.448	90.38
290.679	86.38
290.91	83.38
291.141	82.38
291.371	96.38
291.602	91.38
291.833	92.38
292.064	91.38
292.295	91.38
292.526	90.38
292.757	69.38
292.987	87.38
293.218	78.38
293.449	84.38
293.68	98.38
293.91	88.38
294.141	81.38
294.372	88.38
294.603	79.38
294.833	88.38
295.064	86.38
295.295	63.38
295.525	82.38
295.756	87.38
295.987	87.38
296.217	70.38
296.448	87.38
296.679	79.38
296.909	91.38
297.14	79.38
297.37	91.38
297.601	87.38
297.831	94.38
298.062	89.38
298.292	94.38
298.523	97.38
298.753	84.38
298.984	77.38
299.214	89.38
299.445	91.38
299.675	63.38
299.905	79.38
300.136	95.38
300.366	94.38
300.597	105.38
300.827	93.38
301.057	97.38
301.288	84.38
301.518	94.38
301.748	77.38
301.979	85.38
302.209	90.38
302.439	84.38
302.669	89.38
302.9	98.38
303.13	81.38
303.36	95.38
303.59	88.38
303.82	91.38
304.051	83.38
304.281	92.38
304.511	82.38
304.741	77.38
304.971	93.38
305.201	96.38
305.431	81.38
305.661	88.38
305.891	83.38
306.121	99.38
306.352	103.38
306.582	94.38
306.812	77.38
307.042	87.38
307.272	80.38
307.502	92.38
307.731	95.38
307.961	80.38
308.191	92.38
308.421	87.38
308.651	86.38
308.881	88.38
309.111	82.38
309.341	83.38
309.571	81.38
309.8	83.38
310.03	80.38
310.26	83.38
310.49	87.38
310.72	86.38
310.949	85.38
311.179	77.38
311.409	86.38
311.639	75.38
311.868	84.38
312.098	83.38
312.328	107.38
312.557	91.38
312.787	90.38
313.017	88.38
313.246	92.38
313.476	95.38
313.706	86.38
313.935	96.38
314.165	85.38
314.394	86.38
314.624	77.38
314.853	73.38
315.083	106.38
315.312	95.38
315.542	95.38
315.771	87.38
316.001	69.38
316.23	100.38
316.46	80.38
316.689	91.38
316.919	79.38
317.148	77.38
317.377	95.38
317.607	80.38
317.836	89.38
318.065	87.38
318.295	86.38
318.524	90.38
318.753	84.38
318.983	93.38
319.212	92.38
319.441	102.38
319.67	87.38
319.9	78.38
320.129	80.38
320.358	99.38
320.587	112.38
320.816	96.38
321.046	89.38
321.275	91.38
321.504	86.38
321.733	88.38
321.962	100.38
322.191	86.38
322.42	95.38
322.649	86.38
322.878	91.38
323.108	80.38
323.337	86.38
323.566	90.38
323.795	82.38
324.024	94.38
324.253	99.38
324.482	87.38
324.71	87.38
324.939	97.38
325.168	91.38
325.397	76.38
325.626	78.38
325.855	79.38
326.084	98.38
326.313	71.38
326.542	96.38
326.77	77.38
326.999	88.38
327.228	88.38
327.457	82.38
327.686	89.38
327.914	79.38
328.143	92.38
328.372	76.38
328.6	88.38
328.829	78.38
329.058	99.38
329.287	88.38
329.515	84.38
329.744	83.38
329.972	89.38
330.201	87.38
330.43	79.38
330.658	87.38
330.887	92.38
331.115	80.38
331.344	80.38
331.572	77.38
331.801	76.38
332.03	85.38
332.258	94.38
332.486	98.38
332.715	90.38
332.943	84.38
333.172	94.38
333.4	90.38
333.629	80.38
333.857	89.38
334.085	82.38
334.314	91.38
334.542	102.38
334.771	87.38
334.999	84.38
335.227	70.38
335.455	84.38
335.684	97.38
335.912	79.38
336.14	96.38
336.369	87.38
336.597	90.38
336.825	81.38
337.053	92.38
337.281	78.38
337.51	83.38
337.738	75.38
337.966	87.38
338.194	87.38
338.422	94.38
338.65	75.38
338.878	83.38
339.106	97.38
339.334	88.38
339.562	78.38
339.79	88.38
340.018	74.38
340.246	83.38
340.474	81.38
340.702	85.38
340.93	84.38
341.158	97.38
341.386	74.38
341.614	76.38
341.842	79.38
342.07	84.38
342.298	75.38
342.526	91.38
342.754	97.38
342.981	89.38
343.209	84.38
343.437	97.38
343.665	93.38
343.893	80.38
344.12	94.38
344.348	83.38
344.576	92.38
344.804	89.38
345.031	88.38
345.259	100.38
345.487	92.38
345.714	98.38
345.942	93.38
346.17	80.38
346.397	90.38
346.625	86.38
346.853	79.38
347.08	91.38
347.308	92.38
347.535	77.38
347.763	90.38
347.99	70.38
348.218	95.38
348.445	88.38
348.673	78.38
348.9	89.38
349.128	94.38
349.355	88.38
349.583	98.38
349.81	94.38
350.037	91.38
350.265	80.38
350.492	75.38
350.72	91.38
350.947	99.38
351.174	91.38
351.402	82.38
351.629	92.38
351.856	87.38
352.083	94.38
352.311	95.38
352.538	86.38
352.765	79.38
352.992	95.38
353.22	99.38
353.447	94.38
353.674	83.38
353.901	84.38
354.128	82.38
354.355	78.38
354.583	94.38
354.81	94.38
355.037	79.38
355.264	85.38
355.491	78.38
355.718	80.38
355.945	83.38
356.172	77.38
356.399	92.38
356.626	79.38
356.853	85.38
357.08	75.38
357.307	93.38
357.534	81.38
357.761	83.38
357.988	101.38
358.215	74.38
358.441	92.38
358.668	76.38
358.895	79.38
359.122	88.38
359.349	89.38
359.576	86.38
359.802	87.38
360.029	79.38
360.256	98.38
360.483	92.38
360.709	95.38
360.936	75.38
361.163	78.38
361.39	74.38
361.616	88.38
361.843	83.38
362.07	86.38
362.296	93.38
362.523	85.38
362.749	74.38
362.976	81.38
363.203	97.38
363.429	76.38
363.656	82.38
363.882	81.38
364.109	78.38
364.335	80.38
364.562	87.38
364.788	78.38
365.015	96.38
365.241	79.38
365.468	82.38
365.694	77.38
365.92	86.38
366.147	83.38
366.373	94.38
366.599	79.38
366.826	98.38
367.052	72.38
367.278	79.38
367.505	83.38
367.731	83.38
367.957	87.38
368.184	92.38
368.41	88.38
368.636	79.38
368.862	93.38
369.089	96.38
369.315	79.38
369.541	78.38
369.767	88.38
369.993	95.38
370.219	69.38
370.445	90.38
370.672	102.38
370.898	80.38
371.124	103.38
371.35	85.38
371.576	73.38
371.802	94.38
372.028	78.38
372.254	88.38
372.48	79.38
372.706	89.38
372.932	92.38
373.158	72.38
373.384	98.38
373.61	95.38
373.835	92.38
374.061	79.38
374.287	97.38
374.513	81.38
374.739	89.38
374.965	92.38
375.191	90.38
375.416	73.38
375.642	88.38
375.868	102.38
376.094	98.38
376.319	93.38
376.545	86.38
376.771	87.38
376.997	99.38
377.222	92.38
377.448	89.38
377.674	85.38
377.899	105.38
378.125	79.38
378.35	80.38
378.576	88.38
378.802	81.38
379.027	82.38
379.253	104.38
379.478	97.38
379.704	86.38
379.929	91.38
380.155	87.38
380.38	105.38
380.606	89.38
380.831	92.38
381.057	90.38
381.282	77.38
381.507	87.38
381.733	96.38
381.958	100.38
382.184	101.38
382.409	102.38
382.634	98.38
382.86	98.38
383.085	83.38
383.31	95.38
383.535	81.38
383.761	82.38
383.986	89.38
384.211	92.38
384.436	78.38
384.662	85.38
384.887	90.38
385.112	88.38
385.337	93.38
385.562	86.38
385.787	84.38
386.013	91.38
386.238	83.38
386.463	96.38
386.688	78.38
386.913	96.38
387.138	100.38
387.363	99.38
387.588	90.38
387.813	90.38
388.038	100.38
388.263	87.38
388.488	86.38
388.713	80.38
388.938	88.38
389.163	99.38
389.387	93.38
389.612	91.38
389.837	92.38
390.062	86.38
390.287	90.38
390.512	92.38
390.736	86.38
390.961	99.38
391.186	95.38
391.411	92.38
391.636	100.38
391.86	87.38
392.085	84.38
392.31	96.38
392.534	92.38
392.759	101.38
392.984	85.38
393.208	102.38
393.433	97.38
393.658	85.38
393.882	92.38
394.107	87.38
394.331	77.38
394.556	91.38
394.78	94.38
395.005	92.38
395.229	82.38
395.454	95.38
395.678	101.38
395.903	107.38
396.127	105.38
396.352	99.38
396.576	107.38
396.801	98.38
397.025	92.38
397.249	100.38
397.474	108.38
397.698	96.38
397.922	96.38
398.147	100.38
398.371	109.38
398.595	98.38
398.82	96.38
399.044	107.38
399.268	103.38
399.492	98.38
399.717	94.38
399.941	85.38
400.165	107.38
400.389	97.38
400.613	100.38
400.837	101.38
401.062	105.38
401.286	100.38
401.51	88.38
401.734	91.38
401.958	105.38
402.182	100.38
402.406	87.38
402.63	88.38
402.854	104.38
403.078	101.38
403.302	99.38
403.526	101.38
403.75	100.38
403.974	96.38
404.198	108.38
404.422	90.38
404.645	95.38
404.869	99.38
405.093	94.38
405.317	99.38
405.541	107.38
405.765	86.38
405.988	114.38
406.212	92.38
406.436	92.38
406.66	104.38
406.883	116.38
407.107	89.38
407.331	111.38
407.555	89.38
407.778	94.38
408.002	107.38
408.226	106.38
408.449	104.38
408.673	95.38
408.896	118.38
409.12	97.38
409.344	97.38
409.567	102.38
409.791	90.38
410.014	105.38
410.238	109.38
410.461	104.38
410.685	101.38
410.908	94.38
411.132	101.38
411.355	114.38
411.578	100.38
411.802	90.38
412.025	106.38
412.249	106.38
412.472	105.38
412.695	91.38
412.919	91.38
413.142	106.38
413.365	109.38
413.589	104.38
413.812	90.38
414.035	100.38
414.258	106.38
414.482	111.38
414.705	93.38
414.928	84.38
415.151	98.38
415.374	96.38
415.597	98.38
415.821	107.38
416.044	101.38
416.267	98.38
416.49	118.38
416.713	98.38
416.936	102.38
417.159	104.38
417.382	111.38
417.605	114.38
417.828	107.38
418.051	94.38
418.274	103.38
418.497	99.38
418.72	112.38
418.943	106.38
419.166	110.38
419.389	94.38
419.611	99.38
419.834	107.38
420.057	107.38
420.28	108.38
420.503	116.38
420.726	98.38
420.948	112.38
421.171	111.38
421.394	105.38
421.617	109.38
421.839	108.38
422.062	106.38
422.285	108.38
422.507	112.38
422.73	114.38
422.953	113.38
423.175	118.38
423.398	110.38
423.621	103.38
423.843	111.38
424.066	114.38
424.288	114.38
424.511	114.38
424.733	109.38
424.956	125.38
425.178	111.38
425.401	121.38
425.623	116.38
425.846	101.38
426.068	110.38
426.291	93.38
426.513	111.38
426.735	94.38
426.958	106.38
427.18	104.38
427.402	116.38
427.625	106.38
427.847	108.38
428.069	104.38
428.292	98.38
428.514	105.38
428.736	105.38
428.958	98.38
429.181	116.38
429.403	118.38
429.625	115.38
429.847	103.38
430.069	101.38
430.292	114.38
430.514	91.38
430.736	116.38
430.958	115.38
431.18	107.38
431.402	91.38
431.624	109.38
431.846	96.38
432.068	90.38
432.29	92.38
432.512	109.38
432.734	105.38
432.956	104.38
433.178	100.38
433.4	115.38
433.622	98.38
433.844	106.38
434.066	92.38
434.287	109.38
434.509	85.38
434.731	100.38
434.953	98.38
435.175	108.38
435.397	105.38
435.618	97.38
435.84	109.38
436.062	100.38
436.284	106.38
436.505	102.38
436.727	97.38
436.949	115.38
437.17	117.38
437.392	114.38
437.614	110.38
437.835	81.38
438.057	95.38
438.278	102.38
438.5	92.38
438.721	111.38
438.943	104.38
439.165	114.38
439.386	110.38
439.608	110.38
439.829	112.38
440.05	119.38
440.272	94.38
440.493	108.38
440.715	104.38
440.936	109.38
441.158	111.38
441.379	122.38
441.6	120.38
441.822	135.38
442.043	102.38
442.264	107.38
442.486	108.38
442.707	114.38
442.928	124.38
443.149	116.38
443.371	115.38
443.592	120.38
443.813	119.38
444.034	112.38
444.255	112.38
444.476	115.38
444.698	114.38
444.919	114.38
445.14	202.38
445.361	143.38
445.582	118.38
445.803	122.38
446.024	122.38
446.245	111.38
446.466	123.38
446.687	130.38
446.908	116.38
447.129	118.38
447.35	118.38
447.571	106.38
447.792	108.38
448.013	98.38
448.234	107.38
448.455	109.38
448.675	105.38
448.896	98.38
449.117	116.38
449.338	107.38
449.559	104.38
449.779	98.38
450	110.38
450.221	115.38
450.442	116.38
450.662	104.38
450.883	100.38
451.104	106.38
451.324	98.38
451.545	91.38
451.766	115.38
451.986	87.38
452.207	99.38
452.428	120.38
452.648	120.38
452.869	95.38
453.089	94.38
453.31	93.38
453.53	91.38
453.751	104.38
453.971	100.38
454.192	98.38
454.412	104.38
454.633	95.38
454.853	103.38
455.073	108.38
455.294	104.38
455.514	95.38
455.734	106.38
455.955	89.38
456.175	86.38
456.395	105.38
456.616	95.38
456.836	86.38
457.056	105.38
457.276	114.38
457.497	108.38
457.717	96.38
457.937	110.38
458.157	94.38
458.377	97.38
458.598	99.38
458.818	97.38
459.038	101.38
459.258	91.38
459.478	65.38
459.698	91.38
459.918	81.38
460.138	97.38
460.358	94.38
460.578	117.38
460.798	99.38
461.018	114.38
461.238	96.38
461.458	97.38
461.678	104.38
461.898	99.38
462.118	77.38
462.338	98.38
462.558	105.38
462.777	99.38
462.997	104.38
463.217	89.38
463.437	84.38
463.657	92.38
463.876	96.38
464.096	94.38
464.316	89.38
464.536	100.38
464.755	94.38
464.975	98.38
465.195	95.38
465.414	104.38
465.634	110.38
465.854	114.38
466.073	95.38
466.293	105.38
466.512	102.38
466.732	104.38
466.951	108.38
467.171	107.38
467.391	119.38
467.61	109.38
467.829	97.38
468.049	108.38
468.268	105.38
468.488	99.38
468.707	118.38
468.927	103.38
469.146	122.38
469.365	107.38
469.585	101.38
469.804	115.38
470.023	105.38
470.243	116.38
470.462	112.38
470.681	116.38
470.901	122.38
471.12	111.38
471.339	102.38
471.558	110.38
471.777	120.38
471.997	119.38
472.216	116.38
472.435	109.38
472.654	98.38
472.873	88.38
473.092	101.38
473.311	86.38
473.53	117.38
473.749	110.38
473.968	112.38
474.187	95.38
474.406	116.38
474.625	105.38
474.844	104.38
475.063	114.38
475.282	111.38
475.501	97.38
475.72	119.38
475.939	117.38
476.158	103.38
476.377	118.38
476.596	97.38
476.814	102.38
477.033	100.38
477.252	82.38
477.471	97.38
477.69	106.38
477.908	119.38
478.127	118.38
478.346	106.38
478.564	122.38
478.783	106.38
479.002	116.38
479.22	98.38
479.439	119.38
479.658	100.38
479.876	102.38
480.095	98.38
480.313	99.38
480.532	113.38
480.751	106.38
480.969	81.38
481.188	89.38
481.406	96.38
481.624	85.38
481.843	99.38
482.061	91.38
482.28	109.38
482.498	97.38
482.717	100.38
482.935	102.38
483.153	111.38
483.372	107.38
483.59	125.38
483.808	134.38
484.027	116.38
484.245	124.38
484.463	116.38
484.681	127.38
484.9	113.38
485.118	105.38
485.336	92.38
485.554	105.38
485.772	97.38
485.99	88.38
486.209	90.38
486.427	105.38
486.645	99.38
486.863	114.38
487.081	118.38
487.299	120.38
487.517	122.38
487.735	123.38
487.953	118.38
488.171	133.38
488.389	129.38
488.607	105.38
488.825	121.38
489.043	119.38
489.261	101.38
489.479	116.38
489.696	123.38
489.914	112.38
490.132	129.38
490.35	107.38
490.568	117.38
490.786	129.38
491.003	142.38
491.221	120.38
491.439	140.38
491.657	138.38
491.874	134.38
492.092	149.38
492.31	145.38
492.527	153.38
492.745	136.38
492.963	149.38
493.18	140.38
493.398	140.38
493.615	125.38
493.833	124.38
494.05	140.38
494.268	126.38
494.485	132.38
494.703	126.38
494.92	126.38
495.138	130.38
495.355	122.38
495.573	126.38
495.79	131.38
496.008	133.38
496.225	121.38
496.442	114.38
496.66	142.38
496.877	115.38
497.094	135.38
497.312	128.38
497.529	109.38
497.746	130.38
497.963	116.38
498.181	107.38
498.398	101.38
498.615	110.38
498.832	100.38
499.049	97.38
499.267	107.38
499.484	131.38
499.701	107.38
499.918	113.38
500.135	106.38
500.352	120.38
500.569	101.38
500.786	116.38
501.003	120.38
501.22	111.38
501.437	130.38
501.654	114.38
501.871	109.38
502.088	122.38
502.305	106.38
502.522	108.38
502.739	108.38
502.956	120.38
503.172	105.38
503.389	126.38
503.606	114.38
503.823	105.38
504.04	109.38
504.256	95.38
504.473	88.38
504.69	112.38
504.907	103.38
505.123	107.38
505.34	101.38
505.557	98.38
505.773	112.38
505.99	104.38
506.207	112.38
506.423	115.38
506.64	101.38
506.856	95.38
507.073	101.38
507.289	122.38
507.506	113.38
507.722	110.38
507.939	100.38
508.155	101.38
508.372	103.38
508.588	91.38
508.805	100.38
509.021	110.38
509.238	114.38
509.454	96.38
509.67	84.38
509.887	101.38
510.103	81.38
510.319	97.38
510.536	92.38
510.752	80.38
510.968	95.38
511.184	99.38
511.401	76.38
511.617	91.38
511.833	94.38
512.049	72.38
512.265	90.38
512.481	99.38
512.698	91.38
512.914	94.38
513.13	98.38
513.346	96.38
513.562	99.38
513.778	94.38
513.994	90.38
514.21	91.38
514.426	83.38
514.642	84.38
514.858	73.38
515.074	90.38
515.29	88.38
515.506	92.38
515.721	89.38
515.937	91.38
516.153	85.38
516.369	93.38
516.585	84.38
516.801	87.38
517.016	79.38
517.232	89.38
517.448	88.38
517.664	90.38
517.879	85.38
518.095	94.38
518.311	98.38
518.527	89.38
518.742	96.38
518.958	99.38
519.173	94.38
519.389	98.38
519.605	97.38
519.82	94.38
520.036	95.38
520.251	94.38
520.467	86.38
520.682	92.38
520.898	85.38
521.113	78.38
521.329	83.38
521.544	87.38
521.76	84.38
521.975	107.38
522.19	103.38
522.406	90.38
522.621	99.38
522.836	101.38
523.052	99.38
523.267	109.38
523.482	95.38
523.698	114.38
523.913	104.38
524.128	95.38
524.343	92.38
524.559	95.38
524.774	102.38
524.989	111.38
525.204	98.38
525.419	100.38
525.634	99.38
525.849	102.38
526.064	108.38
526.28	100.38
526.495	91.38
526.71	91.38
526.925	83.38
527.14	94.38
527.355	90.38
527.57	92.38
527.785	79.38
527.999	100.38
528.214	92.38
528.429	100.38
528.644	104.38
528.859	109.38
529.074	90.38
529.289	112.38
529.503	116.38
529.718	107.38
529.933	104.38
530.148	97.38
530.363	101.38
530.577	99.38
530.792	82.38
531.007	84.38
531.221	88.38
531.436	85.38
531.651	82.38
531.865	81.38
532.08	80.38
532.295	93.38
532.509	86.38
532.724	104.38
532.938	73.38
533.153	104.38
533.367	90.38
533.582	105.38
533.796	97.38
534.011	88.38
534.225	80.38
534.44	99.38
534.654	88.38
534.868	93.38
535.083	85.38
535.297	96.38
535.511	88.38
535.726	92.38
535.94	95.38
536.154	91.38
536.369	64.38
536.583	94.38
536.797	82.38
537.011	104.38
537.225	102.38
537.44	80.38
537.654	96.38
537.868	95.38
538.082	98.38
538.296	91.38
538.51	89.38
538.724	106.38
538.938	98.38
539.153	102.38
539.367	110.38
539.581	98.38
539.795	100.38
540.009	96.38
540.222	123.38
540.436	94.38
540.65	93.38
540.864	100.38
541.078	98.38
541.292	116.38
541.506	130.38
541.72	142.38
541.934	126.38
542.147	145.38
542.361	125.38
542.575	117.38
542.789	112.38
543.002	124.38
543.216	111.38
543.43	107.38
543.644	117.38
543.857	124.38
544.071	114.38
544.285	124.38
544.498	128.38
544.712	123.38
544.925	134.38
545.139	125.38
545.352	115.38
545.566	123.38
545.779	95.38
545.993	120.38
546.206	137.38
546.42	123.38
546.633	125.38
546.847	142.38
547.06	131.38
547.274	138.38
547.487	150.38
547.7	118.38
547.914	112.38
548.127	115.38
548.34	140.38
548.554	133.38
548.767	126.38
548.98	133.38
549.193	116.38
549.407	124.38
549.62	123.38
549.833	115.38
550.046	119.38
550.259	111.38
550.473	123.38
550.686	111.38
550.899	120.38
551.112	108.38
551.325	114.38
551.538	114.38
551.751	106.38
551.964	94.38
552.177	104.38
552.39	101.38
552.603	107.38
552.816	116.38
553.029	121.38
553.242	127.38
553.455	124.38
553.667	114.38
553.88	126.38
554.093	124.38
554.306	114.38
554.519	114.38
554.732	107.38
554.944	121.38
555.157	116.38
555.37	117.38
555.583	125.38
555.795	110.38
556.008	115.38
556.221	119.38
556.433	118.38
556.646	94.38
556.859	114.38
557.071	120.38
557.284	111.38
557.496	121.38
557.709	118.38
557.921	125.38
558.134	128.38
558.346	126.38
558.559	114.38
558.771	103.38
558.984	122.38
559.196	112.38
559.409	118.38
559.621	114.38
559.833	119.38
560.046	106.38
560.258	116.38
560.47	107.38
560.683	111.38
560.895	102.38
561.107	122.38
561.32	100.38
561.532	118.38
561.744	117.38
561.956	115.38
562.168	109.38
562.381	109.38
562.593	92.38
562.805	104.38
563.017	108.38
563.229	115.38
563.441	117.38
563.653	105.38
563.865	94.38
564.077	95.38
564.289	98.38
564.501	95.38
564.713	103.38
564.925	111.38
565.137	97.38
565.349	116.38
565.561	107.38
565.773	103.38
565.985	112.38
566.197	105.38
566.408	105.38
566.62	106.38
566.832	95.38
567.044	95.38
567.255	97.38
567.467	91.38
567.679	97.38
567.891	126.38
568.102	88.38
568.314	98.38
568.526	99.38
568.737	90.38
568.949	77.38
569.161	95.38
569.372	82.38
569.584	79.38
569.795	84.38
570.007	79.38
570.218	95.38
570.43	99.38
570.641	90.38
570.853	100.38
571.064	89.38
571.276	99.38
571.487	91.38
571.698	90.38
571.91	102.38
572.121	98.38
572.333	100.38
572.544	88.38
572.755	90.38
572.966	90.38
573.178	92.38
573.389	71.38
573.6	100.38
573.811	85.38
574.023	103.38
574.234	90.38
574.445	88.38
574.656	89.38
574.867	79.38
575.078	90.38
575.289	93.38
575.501	88.38
575.712	89.38
575.923	91.38
576.134	84.38
576.345	104.38
576.556	93.38
576.767	83.38
576.978	83.38
577.188	109.38
577.399	97.38
577.61	92.38
577.821	101.38
578.032	99.38
578.243	85.38
578.454	85.38
578.665	93.38
578.875	74.38
579.086	83.38
579.297	82.38
579.508	87.38
579.718	90.38
579.929	73.38
580.14	79.38
580.35	72.38
580.561	75.38
580.772	79.38
580.982	84.38
581.193	102.38
581.403	89.38
581.614	78.38
581.825	100.38
582.035	86.38
582.246	78.38
582.456	96.38
582.667	95.38
582.877	96.38
583.087	80.38
583.298	91.38
583.508	100.38
583.719	94.38
583.929	91.38
584.139	96.38
584.35	96.38
584.56	95.38
584.77	87.38
584.981	79.38
585.191	93.38
585.401	74.38
585.611	92.38
585.821	79.38
586.032	88.38
586.242	87.38
586.452	87.38
586.662	86.38
586.872	84.38
587.082	96.38
587.292	87.38
587.502	89.38
587.713	87.38
587.923	85.38
588.133	74.38
588.343	83.38
588.553	93.38
588.762	89.38
588.972	89.38
589.182	79.38
589.392	90.38
589.602	86.38
589.812	92.38
590.022	78.38
590.232	104.38
590.441	88.38
590.651	91.38
590.861	92.38
591.071	81.38
591.281	102.38
591.49	80.38
591.7	100.38
591.91	82.38
592.119	85.38
592.329	74.38
592.539	90.38
592.748	97.38
592.958	94.38
593.167	93.38
593.377	93.38
593.587	82.38
593.796	77.38
594.006	86.38
594.215	80.38
594.424	77.38
594.634	96.38
594.843	95.38
595.053	97.38
595.262	91.38
595.472	95.38
595.681	86.38
595.89	80.38
596.1	95.38
596.309	90.38
596.518	99.38
596.727	99.38
596.937	81.38
597.146	87.38
597.355	109.38
597.564	96.38
597.774	79.38
597.983	79.38
598.192	95.38
598.401	90.38
598.61	96.38
598.819	81.38
599.028	88.38
599.237	87.38
599.446	94.38
599.655	102.38
599.864	96.38
600.073	76.38
600.282	90.38
600.491	109.38
600.7	97.38
600.909	86.38
601.118	108.38
601.327	94.38
601.536	110.38
601.745	88.38
601.953	95.38
602.162	108.38
602.371	82.38
602.58	84.38
602.789	102.38
602.997	96.38
603.206	96.38
603.415	103.38
603.623	92.38
603.832	90.38
604.041	94.38
604.249	96.38
604.458	88.38
604.666	88.38
604.875	76.38
605.084	93.38
605.292	88.38
605.501	92.38
605.709	89.38
605.918	98.38
606.126	106.38
606.334	94.38
606.543	94.38
606.751	111.38
606.96	97.38
607.168	98.38
607.376	95.38
607.585	99.38
607.793	87.38
608.001	97.38
608.21	78.38
608.418	87.38
608.626	89.38
608.834	95.38
609.043	93.38
609.251	99.38
609.459	93.38
609.667	103.38
609.875	99.38
610.083	99.38
610.291	97.38
610.499	96.38
610.707	97.38
610.916	110.38
611.124	122.38
611.332	91.38
611.54	104.38
611.748	106.38
611.955	94.38
612.163	107.38
612.371	105.38
612.579	108.38
612.787	106.38
612.995	100.38
613.203	101.38
613.411	92.38
613.618	100.38
613.826	101.38
614.034	100.38
614.242	104.38
614.449	99.38
614.657	94.38
614.865	101.38
615.072	110.38
615.28	95.38
615.488	94.38
615.695	95.38
615.903	89.38
616.111	79.38
616.318	95.38
616.526	102.38
616.733	102.38
616.941	96.38
617.148	85.38
617.356	100.38
617.563	97.38
617.771	109.38
617.978	98.38
618.185	94.38
618.393	101.38
618.6	96.38
618.807	109.38
619.015	98.38
619.222	107.38
619.429	100.38
619.637	101.38
619.844	91.38
620.051	102.38
620.258	105.38
620.466	93.38
620.673	101.38
620.88	85.38
621.087	102.38
621.294	98.38
621.501	99.38
621.708	94.38
621.915	95.38
622.122	108.38
622.329	89.38
622.536	90.38
622.743	101.38
622.95	98.38
623.157	99.38
623.364	98.38
623.571	117.38
623.778	92.38
623.985	86.38
624.192	99.38
624.399	95.38
624.606	88.38
624.812	88.38
625.019	92.38
625.226	98.38
625.433	106.38
625.639	86.38
625.846	84.38
626.053	96.38
626.259	84.38
626.466	103.38
626.673	93.38
626.879	86.38
627.086	90.38
627.293	94.38
627.499	98.38
627.706	97.38
627.912	103.38
628.119	95.38
628.325	88.38
628.532	92.38
628.738	90.38
628.945	74.38
629.151	99.38
629.357	90.38
629.564	98.38
629.77	105.38
629.976	96.38
630.183	92.38
630.389	98.38
630.595	93.38
630.802	87.38
631.008	97.38
631.214	90.38
631.42	79.38
631.627	102.38
631.833	99.38
632.039	88.38
632.245	93.38
632.451	96.38
632.657	101.38
632.863	106.38
633.069	95.38
633.275	95.38
633.481	96.38
633.688	86.38
633.893	104.38
634.099	92.38
634.305	83.38
634.511	95.38
634.717	107.38
634.923	106.38
635.129	92.38
635.335	100.38
635.541	92.38
635.747	104.38
635.952	100.38
636.158	105.38
636.364	111.38
636.57	101.38
636.775	102.38
636.981	79.38
637.187	84.38
637.392	101.38
637.598	94.38
637.804	104.38
638.009	89.38
638.215	81.38
638.421	105.38
638.626	81.38
638.832	93.38
639.037	106.38
639.243	105.38
639.448	106.38
639.654	100.38
639.859	89.38
640.065	92.38
640.27	90.38
640.475	88.38
640.681	99.38
640.886	106.38
641.091	91.38
641.297	92.38
641.502	93.38
641.707	97.38
641.913	86.38
642.118	99.38
642.323	107.38
642.528	89.38
642.733	95.38
642.939	97.38
643.144	89.38
643.349	98.38
643.554	97.38
643.759	78.38
643.964	109.38
644.169	92.38
644.374	94.38
644.579	96.38
644.784	104.38
644.989	90.38
645.194	89.38
645.399	106.38
645.604	99.38
645.809	79.38
646.014	93.38
646.219	97.38
646.423	91.38
646.628	103.38
646.833	98.38
647.038	93.38
647.243	105.38
647.447	100.38
647.652	96.38
647.857	94.38
648.062	87.38
648.266	99.38
648.471	94.38
648.676	96.38
648.88	85.38
649.085	94.38
649.289	91.38
649.494	96.38
649.698	105.38
649.903	91.38
650.107	75.38
650.312	92.38
650.516	99.38
650.721	96.38
650.925	90.38
651.13	91.38
651.334	82.38
651.539	80.38
651.743	86.38
651.947	91.38
652.152	89.38
652.356	79.38
652.56	75.38
652.764	115.38
652.969	88.38
653.173	94.38
653.377	93.38
653.581	82.38
653.785	91.38
653.99	79.38
654.194	86.38
654.398	96.38
654.602	96.38
654.806	93.38
655.01	87.38
655.214	93.38
655.418	89.38
655.622	94.38
655.826	91.38
656.03	87.38
656.234	93.38
656.438	73.38
656.642	91.38
656.846	96.38
657.049	79.38
657.253	81.38
657.457	79.38
657.661	100.38
657.865	85.38
658.068	78.38
658.272	97.38
658.476	94.38
658.68	98.38
658.883	102.38
659.087	84.38
659.291	72.38
659.494	100.38
659.698	93.38
659.901	88.38
660.105	76.38
660.309	80.38
660.512	92.38
660.716	90.38
660.919	82.38
661.123	86.38
661.326	87.38
661.53	89.38
661.733	65.38
661.936	85.38
662.14	78.38
662.343	91.38
662.546	92.38
662.75	79.38
662.953	80.38
663.156	84.38
663.36	86.38
663.563	82.38
663.766	70.38
663.969	81.38
664.173	90.38
664.376	84.38
664.579	71.38
664.782	87.38
664.985	88.38
665.188	79.38
665.391	91.38
665.594	83.38
665.797	95.38
666	80.38
666.203	90.38
666.406	78.38
666.609	75.38
666.812	84.38
667.015	83.38
667.218	75.38
667.421	95.38
667.624	99.38
667.827	88.38
668.03	82.38
668.232	87.38
668.435	100.38
668.638	85.38
668.841	78.38
669.043	79.38
669.246	87.38
669.449	88.38
669.651	84.38
669.854	81.38
670.057	82.38
670.259	85.38
670.462	82.38
670.665	91.38
670.867	91.38
671.07	85.38
671.272	72.38
671.475	91.38
671.677	81.38
671.88	81.38
672.082	89.38
672.284	79.38
672.487	89.38
672.689	86.38
672.892	84.38
