Data from Zn(NO3)2Standard.Agarose3%.GreenCap.LampEnergy5.5.E.O_HRD10591_15-02-11-767.txt Node
Date: Mon Jul 22 15:02:11 EDT 2019
User: cochatt
Spectrometer: HR+D1059
Trigger mode: 1
Integration Time (sec): 1.000000E-1
Scans to average: 1
Electric dark correction enabled: true
Nonlinearity correction enabled: false
Boxcar width: 0
XAxis mode: Wavelengths
Number of Pixels in Spectrum: 2048
>>>>>Begin Spectral Data<<<<<
223.165	-24.31
223.4	-24.31
223.635	-24.31
223.869	-10.31
224.104	-15.31
224.338	-5.31
224.573	-25.31
224.808	-15.31
225.042	-22.31
225.277	4.69
225.511	4.69
225.746	12.69
225.98	4.69
226.215	0.69
226.449	20.69
226.683	24.69
226.918	15.69
227.152	29.69
227.387	44.69
227.621	33.69
227.856	46.69
228.09	37.69
228.324	60.69
228.559	53.69
228.793	63.69
229.027	54.69
229.262	54.69
229.496	73.69
229.73	58.69
229.964	50.69
230.199	83.69
230.433	70.69
230.667	65.69
230.901	78.69
231.136	78.69
231.37	70.69
231.604	68.69
231.838	73.69
232.072	67.69
232.306	58.69
232.541	80.69
232.775	72.69
233.009	84.69
233.243	68.69
233.477	71.69
233.711	67.69
233.945	86.69
234.179	86.69
234.413	85.69
234.647	78.69
234.881	69.69
235.115	63.69
235.349	69.69
235.583	69.69
235.817	67.69
236.051	64.69
236.285	70.69
236.519	69.69
236.753	77.69
236.987	67.69
237.221	54.69
237.455	77.69
237.689	80.69
237.922	76.69
238.156	66.69
238.39	73.69
238.624	66.69
238.858	69.69
239.091	79.69
239.325	73.69
239.559	71.69
239.793	62.69
240.027	72.69
240.26	65.69
240.494	60.69
240.728	73.69
240.961	76.69
241.195	58.69
241.429	69.69
241.662	71.69
241.896	84.69
242.13	72.69
242.363	66.69
242.597	75.69
242.83	81.69
243.064	69.69
243.298	60.69
243.531	67.69
243.765	75.69
243.998	66.69
244.232	63.69
244.465	81.69
244.699	68.69
244.932	70.69
245.166	81.69
245.399	72.69
245.633	75.69
245.866	86.69
246.099	70.69
246.333	77.69
246.566	86.69
246.8	68.69
247.033	74.69
247.266	83.69
247.5	76.69
247.733	82.69
247.966	80.69
248.2	65.69
248.433	82.69
248.666	73.69
248.899	75.69
249.133	73.69
249.366	86.69
249.599	70.69
249.832	81.69
250.066	82.69
250.299	71.69
250.532	74.69
250.765	72.69
250.998	79.69
251.231	68.69
251.465	80.69
251.698	71.69
251.931	80.69
252.164	71.69
252.397	80.69
252.63	78.69
252.863	88.69
253.096	64.69
253.329	66.69
253.562	82.69
253.795	73.69
254.028	76.69
254.261	84.69
254.494	63.69
254.727	96.69
254.96	84.69
255.193	83.69
255.426	60.69
255.659	62.69
255.892	70.69
256.124	73.69
256.357	65.69
256.59	76.69
256.823	78.69
257.056	63.69
257.289	78.69
257.521	72.69
257.754	83.69
257.987	70.69
258.22	72.69
258.452	68.69
258.685	80.69
258.918	84.69
259.151	78.69
259.383	85.69
259.616	81.69
259.849	84.69
260.081	80.69
260.314	83.69
260.547	90.69
260.779	80.69
261.012	83.69
261.244	78.69
261.477	72.69
261.71	81.69
261.942	68.69
262.175	69.69
262.407	63.69
262.64	82.69
262.872	74.69
263.105	69.69
263.337	74.69
263.57	75.69
263.802	81.69
264.035	87.69
264.267	78.69
264.499	74.69
264.732	91.69
264.964	82.69
265.197	84.69
265.429	74.69
265.661	80.69
265.894	82.69
266.126	78.69
266.358	65.69
266.591	82.69
266.823	63.69
267.055	84.69
267.287	74.69
267.52	82.69
267.752	83.69
267.984	75.69
268.216	80.69
268.448	63.69
268.681	68.69
268.913	89.69
269.145	86.69
269.377	73.69
269.609	84.69
269.841	78.69
270.073	69.69
270.306	80.69
270.538	79.69
270.77	80.69
271.002	70.69
271.234	89.69
271.466	80.69
271.698	84.69
271.93	72.69
272.162	79.69
272.394	96.69
272.626	78.69
272.858	72.69
273.09	92.69
273.322	84.69
273.553	82.69
273.785	73.69
274.017	84.69
274.249	65.69
274.481	84.69
274.713	69.69
274.945	83.69
275.176	76.69
275.408	83.69
275.64	72.69
275.872	80.69
276.104	95.69
276.335	82.69
276.567	71.69
276.799	82.69
277.031	80.69
277.262	85.69
277.494	88.69
277.726	74.69
277.957	95.69
278.189	74.69
278.421	82.69
278.652	77.69
278.884	84.69
279.115	86.69
279.347	85.69
279.579	77.69
279.81	80.69
280.042	85.69
280.273	73.69
280.505	81.69
280.736	73.69
280.968	79.69
281.199	66.69
281.431	69.69
281.662	82.69
281.894	83.69
282.125	69.69
282.356	82.69
282.588	79.69
282.819	71.69
283.051	74.69
283.282	76.69
283.513	82.69
283.745	90.69
283.976	90.69
284.207	71.69
284.439	73.69
284.67	82.69
284.901	80.69
285.132	74.69
285.364	70.69
285.595	59.69
285.826	80.69
286.057	81.69
286.288	76.69
286.52	58.69
286.751	73.69
286.982	82.69
287.213	79.69
287.444	78.69
287.675	82.69
287.906	82.69
288.138	80.69
288.369	71.69
288.6	65.69
288.831	85.69
289.062	80.69
289.293	82.69
289.524	60.69
289.755	77.69
289.986	76.69
290.217	86.69
290.448	72.69
290.679	91.69
290.91	73.69
291.141	83.69
291.371	92.69
291.602	73.69
291.833	71.69
292.064	77.69
292.295	82.69
292.526	62.69
292.757	80.69
292.987	82.69
293.218	69.69
293.449	82.69
293.68	89.69
293.91	81.69
294.141	73.69
294.372	86.69
294.603	74.69
294.833	86.69
295.064	87.69
295.295	70.69
295.525	70.69
295.756	81.69
295.987	78.69
296.217	81.69
296.448	80.69
296.679	62.69
296.909	78.69
297.14	77.69
297.37	93.69
297.601	80.69
297.831	78.69
298.062	84.69
298.292	81.69
298.523	67.69
298.753	75.69
298.984	74.69
299.214	80.69
299.445	86.69
299.675	82.69
299.905	86.69
300.136	73.69
300.366	94.69
300.597	75.69
300.827	86.69
301.057	91.69
301.288	79.69
301.518	67.69
301.748	84.69
301.979	72.69
302.209	76.69
302.439	79.69
302.669	73.69
302.9	87.69
303.13	84.69
303.36	86.69
303.59	75.69
303.82	86.69
304.051	87.69
304.281	83.69
304.511	82.69
304.741	81.69
304.971	62.69
305.201	75.69
305.431	74.69
305.661	82.69
305.891	73.69
306.121	84.69
306.352	80.69
306.582	66.69
306.812	82.69
307.042	80.69
307.272	66.69
307.502	80.69
307.731	92.69
307.961	87.69
308.191	78.69
308.421	82.69
308.651	80.69
308.881	68.69
309.111	79.69
309.341	92.69
309.571	93.69
309.8	83.69
310.03	77.69
310.26	90.69
310.49	87.69
310.72	82.69
310.949	93.69
311.179	56.69
311.409	78.69
311.639	84.69
311.868	69.69
312.098	88.69
312.328	88.69
312.557	84.69
312.787	81.69
313.017	81.69
313.246	72.69
313.476	89.69
313.706	78.69
313.935	88.69
314.165	93.69
314.394	73.69
314.624	72.69
314.853	83.69
315.083	83.69
315.312	94.69
315.542	80.69
315.771	86.69
316.001	83.69
316.23	94.69
316.46	92.69
316.689	79.69
316.919	81.69
317.148	86.69
317.377	83.69
317.607	87.69
317.836	80.69
318.065	90.69
318.295	82.69
318.524	81.69
318.753	75.69
318.983	70.69
319.212	81.69
319.441	81.69
319.67	86.69
319.9	73.69
320.129	81.69
320.358	88.69
320.587	75.69
320.816	77.69
321.046	62.69
321.275	80.69
321.504	78.69
321.733	78.69
321.962	87.69
322.191	85.69
322.42	76.69
322.649	77.69
322.878	66.69
323.108	87.69
323.337	88.69
323.566	94.69
323.795	82.69
324.024	80.69
324.253	73.69
324.482	76.69
324.71	76.69
324.939	77.69
325.168	68.69
325.397	98.69
325.626	81.69
325.855	85.69
326.084	72.69
326.313	74.69
326.542	76.69
326.77	75.69
326.999	80.69
327.228	86.69
327.457	80.69
327.686	84.69
327.914	80.69
328.143	83.69
328.372	90.69
328.6	84.69
328.829	80.69
329.058	82.69
329.287	77.69
329.515	76.69
329.744	83.69
329.972	84.69
330.201	78.69
330.43	83.69
330.658	78.69
330.887	80.69
331.115	93.69
331.344	65.69
331.572	75.69
331.801	81.69
332.03	79.69
332.258	86.69
332.486	77.69
332.715	52.69
332.943	70.69
333.172	82.69
333.4	69.69
333.629	86.69
333.857	82.69
334.085	85.69
334.314	82.69
334.542	78.69
334.771	79.69
334.999	82.69
335.227	90.69
335.455	63.69
335.684	90.69
335.912	78.69
336.14	73.69
336.369	84.69
336.597	81.69
336.825	71.69
337.053	88.69
337.281	68.69
337.51	72.69
337.738	80.69
337.966	88.69
338.194	75.69
338.422	80.69
338.65	80.69
338.878	82.69
339.106	90.69
339.334	84.69
339.562	45.69
339.79	70.69
340.018	73.69
340.246	92.69
340.474	72.69
340.702	88.69
340.93	87.69
341.158	85.69
341.386	76.69
341.614	77.69
341.842	80.69
342.07	84.69
342.298	71.69
342.526	69.69
342.754	85.69
342.981	80.69
343.209	74.69
343.437	72.69
343.665	69.69
343.893	77.69
344.12	78.69
344.348	79.69
344.576	79.69
344.804	82.69
345.031	74.69
345.259	75.69
345.487	78.69
345.714	71.69
345.942	74.69
346.17	86.69
346.397	81.69
346.625	82.69
346.853	75.69
347.08	74.69
347.308	64.69
347.535	73.69
347.763	72.69
347.99	86.69
348.218	88.69
348.445	87.69
348.673	86.69
348.9	77.69
349.128	87.69
349.355	77.69
349.583	96.69
349.81	83.69
350.037	77.69
350.265	80.69
350.492	82.69
350.72	82.69
350.947	80.69
351.174	85.69
351.402	72.69
351.629	87.69
351.856	72.69
352.083	68.69
352.311	87.69
352.538	80.69
352.765	75.69
352.992	89.69
353.22	88.69
353.447	90.69
353.674	73.69
353.901	85.69
354.128	65.69
354.355	61.69
354.583	67.69
354.81	70.69
355.037	80.69
355.264	85.69
355.491	85.69
355.718	87.69
355.945	81.69
356.172	66.69
356.399	79.69
356.626	92.69
356.853	87.69
357.08	91.69
357.307	75.69
357.534	87.69
357.761	72.69
357.988	71.69
358.215	82.69
358.441	82.69
358.668	80.69
358.895	73.69
359.122	73.69
359.349	68.69
359.576	67.69
359.802	84.69
360.029	77.69
360.256	68.69
360.483	80.69
360.709	68.69
360.936	82.69
361.163	91.69
361.39	76.69
361.616	66.69
361.843	84.69
362.07	84.69
362.296	79.69
362.523	83.69
362.749	82.69
362.976	81.69
363.203	73.69
363.429	65.69
363.656	79.69
363.882	86.69
364.109	68.69
364.335	71.69
364.562	79.69
364.788	79.69
365.015	71.69
365.241	85.69
365.468	79.69
365.694	72.69
365.92	78.69
366.147	68.69
366.373	86.69
366.599	67.69
366.826	72.69
367.052	81.69
367.278	84.69
367.505	68.69
367.731	78.69
367.957	81.69
368.184	72.69
368.41	70.69
368.636	86.69
368.862	87.69
369.089	91.69
369.315	87.69
369.541	68.69
369.767	83.69
369.993	86.69
370.219	72.69
370.445	85.69
370.672	80.69
370.898	79.69
371.124	84.69
371.35	80.69
371.576	73.69
371.802	60.69
372.028	76.69
372.254	81.69
372.48	68.69
372.706	87.69
372.932	80.69
373.158	78.69
373.384	64.69
373.61	85.69
373.835	73.69
374.061	75.69
374.287	78.69
374.513	83.69
374.739	67.69
374.965	79.69
375.191	78.69
375.416	82.69
375.642	65.69
375.868	72.69
376.094	63.69
376.319	76.69
376.545	73.69
376.771	70.69
376.997	86.69
377.222	84.69
377.448	69.69
377.674	88.69
377.899	58.69
378.125	74.69
378.35	73.69
378.576	70.69
378.802	101.69
379.027	70.69
379.253	88.69
379.478	84.69
379.704	78.69
379.929	69.69
380.155	89.69
380.38	81.69
380.606	76.69
380.831	77.69
381.057	84.69
381.282	85.69
381.507	86.69
381.733	88.69
381.958	68.69
382.184	66.69
382.409	73.69
382.634	77.69
382.86	71.69
383.085	78.69
383.31	78.69
383.535	85.69
383.761	90.69
383.986	80.69
384.211	74.69
384.436	85.69
384.662	68.69
384.887	70.69
385.112	100.69
385.337	88.69
385.562	66.69
385.787	90.69
386.013	70.69
386.238	72.69
386.463	73.69
386.688	82.69
386.913	80.69
387.138	80.69
387.363	83.69
387.588	83.69
387.813	81.69
388.038	63.69
388.263	69.69
388.488	60.69
388.713	75.69
388.938	74.69
389.163	77.69
389.387	77.69
389.612	66.69
389.837	74.69
390.062	79.69
390.287	78.69
390.512	85.69
390.736	67.69
390.961	79.69
391.186	87.69
391.411	73.69
391.636	84.69
391.86	84.69
392.085	90.69
392.31	75.69
392.534	90.69
392.759	72.69
392.984	95.69
393.208	80.69
393.433	73.69
393.658	91.69
393.882	89.69
394.107	82.69
394.331	58.69
394.556	72.69
394.78	63.69
395.005	77.69
395.229	72.69
395.454	74.69
395.678	88.69
395.903	71.69
396.127	78.69
396.352	72.69
396.576	87.69
396.801	80.69
397.025	68.69
397.249	92.69
397.474	78.69
397.698	76.69
397.922	84.69
398.147	74.69
398.371	67.69
398.595	86.69
398.82	92.69
399.044	72.69
399.268	83.69
399.492	81.69
399.717	70.69
399.941	78.69
400.165	73.69
400.389	74.69
400.613	86.69
400.837	93.69
401.062	80.69
401.286	92.69
401.51	70.69
401.734	74.69
401.958	83.69
402.182	70.69
402.406	73.69
402.63	78.69
402.854	93.69
403.078	72.69
403.302	72.69
403.526	76.69
403.75	70.69
403.974	84.69
404.198	84.69
404.422	82.69
404.645	96.69
404.869	73.69
405.093	73.69
405.317	81.69
405.541	71.69
405.765	76.69
405.988	79.69
406.212	87.69
406.436	86.69
406.66	74.69
406.883	72.69
407.107	96.69
407.331	80.69
407.555	92.69
407.778	72.69
408.002	73.69
408.226	79.69
408.449	87.69
408.673	93.69
408.896	75.69
409.12	69.69
409.344	70.69
409.567	87.69
409.791	68.69
410.014	83.69
410.238	74.69
410.461	79.69
410.685	94.69
410.908	82.69
411.132	80.69
411.355	93.69
411.578	85.69
411.802	80.69
412.025	74.69
412.249	75.69
412.472	82.69
412.695	86.69
412.919	87.69
413.142	84.69
413.365	77.69
413.589	80.69
413.812	79.69
414.035	94.69
414.258	81.69
414.482	95.69
414.705	74.69
414.928	74.69
415.151	74.69
415.374	78.69
415.597	73.69
415.821	75.69
416.044	88.69
416.267	84.69
416.49	80.69
416.713	93.69
416.936	89.69
417.159	74.69
417.382	80.69
417.605	89.69
417.828	71.69
418.051	85.69
418.274	85.69
418.497	95.69
418.72	82.69
418.943	77.69
419.166	69.69
419.389	85.69
419.611	83.69
419.834	92.69
420.057	88.69
420.28	73.69
420.503	86.69
420.726	84.69
420.948	91.69
421.171	88.69
421.394	66.69
421.617	85.69
421.839	83.69
422.062	77.69
422.285	93.69
422.507	85.69
422.73	91.69
422.953	99.69
423.175	82.69
423.398	72.69
423.621	80.69
423.843	83.69
424.066	81.69
424.288	93.69
424.511	80.69
424.733	91.69
424.956	77.69
425.178	85.69
425.401	85.69
425.623	80.69
425.846	69.69
426.068	77.69
426.291	79.69
426.513	85.69
426.735	78.69
426.958	93.69
427.18	80.69
427.402	77.69
427.625	81.69
427.847	79.69
428.069	79.69
428.292	89.69
428.514	92.69
428.736	85.69
428.958	81.69
429.181	81.69
429.403	78.69
429.625	82.69
429.847	83.69
430.069	86.69
430.292	98.69
430.514	84.69
430.736	84.69
430.958	74.69
431.18	96.69
431.402	76.69
431.624	71.69
431.846	85.69
432.068	91.69
432.29	82.69
432.512	82.69
432.734	78.69
432.956	95.69
433.178	86.69
433.4	79.69
433.622	87.69
433.844	76.69
434.066	70.69
434.287	73.69
434.509	80.69
434.731	88.69
434.953	92.69
435.175	88.69
435.397	91.69
435.618	69.69
435.84	71.69
436.062	71.69
436.284	87.69
436.505	90.69
436.727	89.69
436.949	95.69
437.17	81.69
437.392	96.69
437.614	66.69
437.835	73.69
438.057	75.69
438.278	87.69
438.5	78.69
438.721	84.69
438.943	82.69
439.165	85.69
439.386	77.69
439.608	98.69
439.829	94.69
440.05	98.69
440.272	80.69
440.493	90.69
440.715	84.69
440.936	95.69
441.158	89.69
441.379	96.69
441.6	98.69
441.822	79.69
442.043	76.69
442.264	82.69
442.486	86.69
442.707	84.69
442.928	82.69
443.149	85.69
443.371	80.69
443.592	73.69
443.813	90.69
444.034	88.69
444.255	95.69
444.476	67.69
444.698	86.69
444.919	79.69
445.14	200.69
445.361	143.69
445.582	89.69
445.803	87.69
446.024	85.69
446.245	96.69
446.466	87.69
446.687	89.69
446.908	95.69
447.129	88.69
447.35	82.69
447.571	83.69
447.792	91.69
448.013	84.69
448.234	89.69
448.455	91.69
448.675	86.69
448.896	85.69
449.117	88.69
449.338	71.69
449.559	86.69
449.779	87.69
450	75.69
450.221	79.69
450.442	82.69
450.662	88.69
450.883	86.69
451.104	74.69
451.324	82.69
451.545	80.69
451.766	82.69
451.986	87.69
452.207	71.69
452.428	93.69
452.648	85.69
452.869	81.69
453.089	79.69
453.31	83.69
453.53	78.69
453.751	86.69
453.971	90.69
454.192	83.69
454.412	86.69
454.633	98.69
454.853	87.69
455.073	82.69
455.294	75.69
455.514	78.69
455.734	80.69
455.955	86.69
456.175	76.69
456.395	74.69
456.616	79.69
456.836	91.69
457.056	85.69
457.276	88.69
457.497	76.69
457.717	84.69
457.937	77.69
458.157	83.69
458.377	78.69
458.598	74.69
458.818	82.69
459.038	82.69
459.258	80.69
459.478	80.69
459.698	78.69
459.918	71.69
460.138	80.69
460.358	98.69
460.578	80.69
460.798	79.69
461.018	87.69
461.238	73.69
461.458	85.69
461.678	67.69
461.898	82.69
462.118	98.69
462.338	90.69
462.558	73.69
462.777	80.69
462.997	91.69
463.217	77.69
463.437	68.69
463.657	79.69
463.876	85.69
464.096	70.69
464.316	80.69
464.536	79.69
464.755	97.69
464.975	73.69
465.195	78.69
465.414	80.69
465.634	73.69
465.854	73.69
466.073	92.69
466.293	88.69
466.512	64.69
466.732	77.69
466.951	84.69
467.171	75.69
467.391	82.69
467.61	84.69
467.829	92.69
468.049	88.69
468.268	91.69
468.488	91.69
468.707	78.69
468.927	98.69
469.146	92.69
469.365	82.69
469.585	90.69
469.804	94.69
470.023	90.69
470.243	100.69
470.462	101.69
470.681	86.69
470.901	87.69
471.12	82.69
471.339	96.69
471.558	79.69
471.777	87.69
471.997	81.69
472.216	86.69
472.435	75.69
472.654	81.69
472.873	97.69
473.092	77.69
473.311	90.69
473.53	94.69
473.749	87.69
473.968	85.69
474.187	82.69
474.406	81.69
474.625	81.69
474.844	84.69
475.063	89.69
475.282	76.69
475.501	97.69
475.72	82.69
475.939	83.69
476.158	74.69
476.377	74.69
476.596	96.69
476.814	82.69
477.033	78.69
477.252	86.69
477.471	78.69
477.69	89.69
477.908	89.69
478.127	87.69
478.346	68.69
478.564	78.69
478.783	93.69
479.002	77.69
479.22	81.69
479.439	99.69
479.658	85.69
479.876	76.69
480.095	75.69
480.313	77.69
480.532	84.69
480.751	76.69
480.969	81.69
481.188	81.69
481.406	65.69
481.624	79.69
481.843	74.69
482.061	103.69
482.28	82.69
482.498	73.69
482.717	87.69
482.935	77.69
483.153	67.69
483.372	94.69
483.59	95.69
483.808	96.69
484.027	74.69
484.245	82.69
484.463	92.69
484.681	84.69
484.9	99.69
485.118	84.69
485.336	83.69
485.554	100.69
485.772	75.69
485.99	83.69
486.209	76.69
486.427	75.69
486.645	70.69
486.863	94.69
487.081	116.69
487.299	88.69
487.517	104.69
487.735	93.69
487.953	97.69
488.171	83.69
488.389	99.69
488.607	95.69
488.825	78.69
489.043	85.69
489.261	91.69
489.479	99.69
489.696	87.69
489.914	78.69
490.132	69.69
490.35	95.69
490.568	94.69
490.786	93.69
491.003	104.69
491.221	82.69
491.439	105.69
491.657	105.69
491.874	102.69
492.092	104.69
492.31	102.69
492.527	112.69
492.745	110.69
492.963	87.69
493.18	86.69
493.398	93.69
493.615	102.69
493.833	83.69
494.05	93.69
494.268	94.69
494.485	97.69
494.703	101.69
494.92	105.69
495.138	95.69
495.355	95.69
495.573	80.69
495.79	93.69
496.008	89.69
496.225	96.69
496.442	101.69
496.66	89.69
496.877	94.69
497.094	90.69
497.312	74.69
497.529	93.69
497.746	85.69
497.963	87.69
498.181	87.69
498.398	88.69
498.615	78.69
498.832	90.69
499.049	87.69
499.267	76.69
499.484	82.69
499.701	78.69
499.918	93.69
500.135	82.69
500.352	96.69
500.569	102.69
500.786	87.69
501.003	87.69
501.22	78.69
501.437	77.69
501.654	84.69
501.871	88.69
502.088	72.69
502.305	83.69
502.522	72.69
502.739	84.69
502.956	90.69
503.172	87.69
503.389	85.69
503.606	82.69
503.823	76.69
504.04	86.69
504.256	86.69
504.473	85.69
504.69	91.69
504.907	98.69
505.123	92.69
505.34	93.69
505.557	77.69
505.773	97.69
505.99	82.69
506.207	83.69
506.423	86.69
506.64	82.69
506.856	82.69
507.073	85.69
507.289	93.69
507.506	81.69
507.722	90.69
507.939	76.69
508.155	78.69
508.372	81.69
508.588	97.69
508.805	82.69
509.021	85.69
509.238	78.69
509.454	74.69
509.67	87.69
509.887	84.69
510.103	80.69
510.319	93.69
510.536	68.69
510.752	93.69
510.968	75.69
511.184	73.69
511.401	83.69
511.617	80.69
511.833	75.69
512.049	85.69
512.265	82.69
512.481	70.69
512.698	81.69
512.914	79.69
513.13	72.69
513.346	88.69
513.562	72.69
513.778	80.69
513.994	89.69
514.21	91.69
514.426	77.69
514.642	79.69
514.858	70.69
515.074	77.69
515.29	83.69
515.506	73.69
515.721	76.69
515.937	79.69
516.153	87.69
516.369	81.69
516.585	87.69
516.801	75.69
517.016	86.69
517.232	81.69
517.448	92.69
517.664	71.69
517.879	70.69
518.095	85.69
518.311	85.69
518.527	65.69
518.742	83.69
518.958	84.69
519.173	93.69
519.389	73.69
519.605	80.69
519.82	79.69
520.036	74.69
520.251	67.69
520.467	81.69
520.682	92.69
520.898	73.69
521.113	78.69
521.329	78.69
521.544	62.69
521.76	60.69
521.975	73.69
522.19	65.69
522.406	77.69
522.621	90.69
522.836	85.69
523.052	85.69
523.267	95.69
523.482	87.69
523.698	81.69
523.913	82.69
524.128	76.69
524.343	89.69
524.559	92.69
524.774	83.69
524.989	97.69
525.204	99.69
525.419	95.69
525.634	89.69
525.849	84.69
526.064	74.69
526.28	81.69
526.495	66.69
526.71	87.69
526.925	85.69
527.14	79.69
527.355	74.69
527.57	85.69
527.785	71.69
527.999	84.69
528.214	80.69
528.429	53.69
528.644	87.69
528.859	75.69
529.074	80.69
529.289	93.69
529.503	101.69
529.718	78.69
529.933	87.69
530.148	77.69
530.363	78.69
530.577	75.69
530.792	92.69
531.007	78.69
531.221	85.69
531.436	84.69
531.651	84.69
531.865	87.69
532.08	81.69
532.295	76.69
532.509	84.69
532.724	83.69
532.938	84.69
533.153	89.69
533.367	95.69
533.582	87.69
533.796	79.69
534.011	86.69
534.225	73.69
534.44	91.69
534.654	92.69
534.868	87.69
535.083	73.69
535.297	80.69
535.511	95.69
535.726	83.69
535.94	82.69
536.154	77.69
536.369	85.69
536.583	77.69
536.797	86.69
537.011	90.69
537.225	82.69
537.44	75.69
537.654	85.69
537.868	102.69
538.082	81.69
538.296	74.69
538.51	88.69
538.724	88.69
538.938	89.69
539.153	85.69
539.367	67.69
539.581	84.69
539.795	93.69
540.009	76.69
540.222	82.69
540.436	85.69
540.65	80.69
540.864	80.69
541.078	80.69
541.292	96.69
541.506	92.69
541.72	98.69
541.934	89.69
542.147	97.69
542.361	103.69
542.575	98.69
542.789	88.69
543.002	92.69
543.216	80.69
543.43	73.69
543.644	101.69
543.857	91.69
544.071	88.69
544.285	93.69
544.498	94.69
544.712	90.69
544.925	102.69
545.139	106.69
545.352	101.69
545.566	92.69
545.779	95.69
545.993	96.69
546.206	87.69
546.42	90.69
546.633	100.69
546.847	79.69
547.06	95.69
547.274	79.69
547.487	87.69
547.7	84.69
547.914	90.69
548.127	99.69
548.34	92.69
548.554	93.69
548.767	108.69
548.98	85.69
549.193	100.69
549.407	87.69
549.62	89.69
549.833	90.69
550.046	89.69
550.259	99.69
550.473	94.69
550.686	90.69
550.899	100.69
551.112	80.69
551.325	83.69
551.538	86.69
551.751	88.69
551.964	82.69
552.177	90.69
552.39	90.69
552.603	88.69
552.816	108.69
553.029	88.69
553.242	88.69
553.455	88.69
553.667	96.69
553.88	100.69
554.093	85.69
554.306	99.69
554.519	88.69
554.732	84.69
554.944	86.69
555.157	91.69
555.37	81.69
555.583	89.69
555.795	87.69
556.008	93.69
556.221	100.69
556.433	86.69
556.646	91.69
556.859	90.69
557.071	85.69
557.284	86.69
557.496	75.69
557.709	98.69
557.921	91.69
558.134	84.69
558.346	95.69
558.559	92.69
558.771	77.69
558.984	81.69
559.196	88.69
559.409	74.69
559.621	103.69
559.833	88.69
560.046	85.69
560.258	95.69
560.47	84.69
560.683	87.69
560.895	95.69
561.107	84.69
561.32	75.69
561.532	89.69
561.744	85.69
561.956	91.69
562.168	87.69
562.381	98.69
562.593	91.69
562.805	86.69
563.017	85.69
563.229	80.69
563.441	92.69
563.653	88.69
563.865	91.69
564.077	92.69
564.289	89.69
564.501	76.69
564.713	74.69
564.925	89.69
565.137	79.69
565.349	88.69
565.561	85.69
565.773	90.69
565.985	84.69
566.197	85.69
566.408	91.69
566.62	87.69
566.832	81.69
567.044	78.69
567.255	94.69
567.467	85.69
567.679	90.69
567.891	80.69
568.102	79.69
568.314	69.69
568.526	72.69
568.737	91.69
568.949	84.69
569.161	76.69
569.372	70.69
569.584	86.69
569.795	71.69
570.007	78.69
570.218	92.69
570.43	80.69
570.641	81.69
570.853	81.69
571.064	80.69
571.276	83.69
571.487	81.69
571.698	102.69
571.91	82.69
572.121	94.69
572.333	82.69
572.544	80.69
572.755	84.69
572.966	79.69
573.178	81.69
573.389	84.69
573.6	74.69
573.811	80.69
574.023	65.69
574.234	78.69
574.445	85.69
574.656	85.69
574.867	88.69
575.078	70.69
575.289	85.69
575.501	86.69
575.712	78.69
575.923	68.69
576.134	88.69
576.345	78.69
576.556	71.69
576.767	79.69
576.978	91.69
577.188	85.69
577.399	82.69
577.61	85.69
577.821	81.69
578.032	88.69
578.243	84.69
578.454	90.69
578.665	95.69
578.875	89.69
579.086	76.69
579.297	79.69
579.508	82.69
579.718	68.69
579.929	84.69
580.14	78.69
580.35	90.69
580.561	93.69
580.772	90.69
580.982	96.69
581.193	94.69
581.403	88.69
581.614	87.69
581.825	86.69
582.035	79.69
582.246	87.69
582.456	78.69
582.667	88.69
582.877	86.69
583.087	76.69
583.298	66.69
583.508	68.69
583.719	75.69
583.929	71.69
584.139	61.69
584.35	74.69
584.56	77.69
584.77	81.69
584.981	81.69
585.191	87.69
585.401	88.69
585.611	77.69
585.821	91.69
586.032	72.69
586.242	82.69
586.452	93.69
586.662	72.69
586.872	74.69
587.082	76.69
587.292	73.69
587.502	81.69
587.713	77.69
587.923	79.69
588.133	84.69
588.343	83.69
588.553	69.69
588.762	75.69
588.972	92.69
589.182	79.69
589.392	82.69
589.602	79.69
589.812	76.69
590.022	76.69
590.232	68.69
590.441	86.69
590.651	82.69
590.861	81.69
591.071	89.69
591.281	78.69
591.49	76.69
591.7	93.69
591.91	87.69
592.119	93.69
592.329	76.69
592.539	78.69
592.748	70.69
592.958	90.69
593.167	87.69
593.377	88.69
593.587	84.69
593.796	75.69
594.006	76.69
594.215	73.69
594.424	91.69
594.634	89.69
594.843	78.69
595.053	79.69
595.262	75.69
595.472	90.69
595.681	82.69
595.89	81.69
596.1	85.69
596.309	73.69
596.518	76.69
596.727	78.69
596.937	80.69
597.146	83.69
597.355	77.69
597.564	76.69
597.774	94.69
597.983	94.69
598.192	91.69
598.401	81.69
598.61	89.69
598.819	85.69
599.028	85.69
599.237	69.69
599.446	98.69
599.655	75.69
599.864	85.69
600.073	70.69
600.282	78.69
600.491	93.69
600.7	88.69
600.909	86.69
601.118	74.69
601.327	84.69
601.536	76.69
601.745	80.69
601.953	78.69
602.162	78.69
602.371	91.69
602.58	84.69
602.789	86.69
602.997	79.69
603.206	79.69
603.415	85.69
603.623	67.69
603.832	70.69
604.041	74.69
604.249	70.69
604.458	90.69
604.666	87.69
604.875	92.69
605.084	81.69
605.292	83.69
605.501	66.69
605.709	88.69
605.918	97.69
606.126	81.69
606.334	81.69
606.543	68.69
606.751	80.69
606.96	79.69
607.168	75.69
607.376	73.69
607.585	79.69
607.793	92.69
608.001	89.69
608.21	78.69
608.418	86.69
608.626	92.69
608.834	76.69
609.043	72.69
609.251	74.69
609.459	77.69
609.667	82.69
609.875	79.69
610.083	85.69
610.291	91.69
610.499	98.69
610.707	82.69
610.916	81.69
611.124	78.69
611.332	67.69
611.54	83.69
611.748	74.69
611.955	89.69
612.163	97.69
612.371	90.69
612.579	77.69
612.787	74.69
612.995	103.69
613.203	84.69
613.411	96.69
613.618	82.69
613.826	95.69
614.034	71.69
614.242	85.69
614.449	80.69
614.657	70.69
614.865	82.69
615.072	79.69
615.28	91.69
615.488	74.69
615.695	81.69
615.903	87.69
616.111	78.69
616.318	90.69
616.526	82.69
616.733	88.69
616.941	83.69
617.148	88.69
617.356	87.69
617.563	74.69
617.771	79.69
617.978	83.69
618.185	75.69
618.393	91.69
618.6	85.69
618.807	87.69
619.015	88.69
619.222	93.69
619.429	75.69
619.637	101.69
619.844	94.69
620.051	85.69
620.258	88.69
620.466	111.69
620.673	81.69
620.88	77.69
621.087	94.69
621.294	83.69
621.501	82.69
621.708	80.69
621.915	84.69
622.122	79.69
622.329	75.69
622.536	74.69
622.743	86.69
622.95	90.69
623.157	79.69
623.364	83.69
623.571	89.69
623.778	73.69
623.985	89.69
624.192	70.69
624.399	95.69
624.606	82.69
624.812	77.69
625.019	82.69
625.226	92.69
625.433	84.69
625.639	68.69
625.846	91.69
626.053	90.69
626.259	88.69
626.466	74.69
626.673	70.69
626.879	89.69
627.086	84.69
627.293	77.69
627.499	82.69
627.706	86.69
627.912	88.69
628.119	84.69
628.325	101.69
628.532	81.69
628.738	70.69
628.945	88.69
629.151	102.69
629.357	89.69
629.564	72.69
629.77	82.69
629.976	69.69
630.183	81.69
630.389	80.69
630.595	100.69
630.802	74.69
631.008	84.69
631.214	85.69
631.42	86.69
631.627	79.69
631.833	74.69
632.039	76.69
632.245	89.69
632.451	77.69
632.657	80.69
632.863	94.69
633.069	95.69
633.275	76.69
633.481	68.69
633.688	82.69
633.893	78.69
634.099	84.69
634.305	86.69
634.511	76.69
634.717	78.69
634.923	76.69
635.129	83.69
635.335	74.69
635.541	78.69
635.747	73.69
635.952	72.69
636.158	74.69
636.364	87.69
636.57	81.69
636.775	74.69
636.981	69.69
637.187	89.69
637.392	84.69
637.598	86.69
637.804	80.69
638.009	89.69
638.215	86.69
638.421	82.69
638.626	82.69
638.832	78.69
639.037	74.69
639.243	89.69
639.448	88.69
639.654	72.69
639.859	82.69
640.065	84.69
640.27	82.69
640.475	78.69
640.681	78.69
640.886	90.69
641.091	79.69
641.297	78.69
641.502	77.69
641.707	84.69
641.913	76.69
642.118	81.69
642.323	85.69
642.528	74.69
642.733	77.69
642.939	79.69
643.144	57.69
643.349	84.69
643.554	77.69
643.759	91.69
643.964	71.69
644.169	81.69
644.374	85.69
644.579	97.69
644.784	72.69
644.989	81.69
645.194	86.69
645.399	74.69
645.604	101.69
645.809	71.69
646.014	75.69
646.219	74.69
646.423	96.69
646.628	84.69
646.833	80.69
647.038	81.69
647.243	70.69
647.447	82.69
647.652	66.69
647.857	81.69
648.062	76.69
648.266	79.69
648.471	74.69
648.676	84.69
648.88	83.69
649.085	95.69
649.289	81.69
649.494	85.69
649.698	76.69
649.903	73.69
650.107	72.69
650.312	95.69
650.516	84.69
650.721	85.69
650.925	85.69
651.13	77.69
651.334	74.69
651.539	76.69
651.743	82.69
651.947	73.69
652.152	73.69
652.356	85.69
652.56	80.69
652.764	69.69
652.969	72.69
653.173	74.69
653.377	82.69
653.581	75.69
653.785	69.69
653.99	81.69
654.194	89.69
654.398	85.69
654.602	80.69
654.806	81.69
655.01	86.69
655.214	73.69
655.418	74.69
655.622	88.69
655.826	80.69
656.03	67.69
656.234	87.69
656.438	90.69
656.642	79.69
656.846	76.69
657.049	93.69
657.253	82.69
657.457	84.69
657.661	78.69
657.865	79.69
658.068	80.69
658.272	83.69
658.476	71.69
658.68	84.69
658.883	66.69
659.087	75.69
659.291	81.69
659.494	80.69
659.698	77.69
659.901	89.69
660.105	72.69
660.309	68.69
660.512	80.69
660.716	79.69
660.919	87.69
661.123	77.69
661.326	85.69
661.53	69.69
661.733	71.69
661.936	80.69
662.14	83.69
662.343	68.69
662.546	89.69
662.75	71.69
662.953	78.69
663.156	77.69
663.36	71.69
663.563	80.69
663.766	91.69
663.969	75.69
664.173	70.69
664.376	73.69
664.579	73.69
664.782	71.69
664.985	78.69
665.188	83.69
665.391	87.69
665.594	82.69
665.797	67.69
666	65.69
666.203	71.69
666.406	71.69
666.609	79.69
666.812	78.69
667.015	73.69
667.218	78.69
667.421	92.69
667.624	72.69
667.827	74.69
668.03	81.69
668.232	79.69
668.435	73.69
668.638	62.69
668.841	92.69
669.043	83.69
669.246	80.69
669.449	82.69
669.651	85.69
669.854	79.69
670.057	76.69
670.259	60.69
670.462	69.69
670.665	88.69
670.867	89.69
671.07	87.69
671.272	78.69
671.475	71.69
671.677	77.69
671.88	79.69
672.082	77.69
672.284	94.69
672.487	75.69
672.689	68.69
672.892	64.69
