Data from Zn(NO3)2Standard.Agarose3%.GreenCap.LampEnergy5.5.E.O_HRD10591_15-02-07-768.txt Node
Date: Mon Jul 22 15:02:07 EDT 2019
User: cochatt
Spectrometer: HR+D1059
Trigger mode: 1
Integration Time (sec): 1.000000E-1
Scans to average: 1
Electric dark correction enabled: true
Nonlinearity correction enabled: false
Boxcar width: 0
XAxis mode: Wavelengths
Number of Pixels in Spectrum: 2048
>>>>>Begin Spectral Data<<<<<
223.165	-23.12
223.4	-23.12
223.635	-23.12
223.869	-8.12
224.104	-8.12
224.338	-15.12
224.573	-14.12
224.808	-9.12
225.042	-18.12
225.277	-3.12
225.511	-12.12
225.746	8.88
225.98	9.88
226.215	9.88
226.449	13.88
226.683	21.88
226.918	20.88
227.152	25.88
227.387	27.88
227.621	39.88
227.856	49.88
228.09	48.88
228.324	51.88
228.559	54.88
228.793	60.88
229.027	63.88
229.262	66.88
229.496	81.88
229.73	68.88
229.964	66.88
230.199	69.88
230.433	69.88
230.667	83.88
230.901	81.88
231.136	74.88
231.37	73.88
231.604	76.88
231.838	71.88
232.072	84.88
232.306	85.88
232.541	80.88
232.775	74.88
233.009	73.88
233.243	84.88
233.477	69.88
233.711	80.88
233.945	92.88
234.179	91.88
234.413	85.88
234.647	76.88
234.881	82.88
235.115	78.88
235.349	77.88
235.583	94.88
235.817	77.88
236.051	85.88
236.285	68.88
236.519	68.88
236.753	80.88
236.987	85.88
237.221	90.88
237.455	89.88
237.689	80.88
237.922	66.88
238.156	73.88
238.39	72.88
238.624	65.88
238.858	90.88
239.091	87.88
239.325	68.88
239.559	75.88
239.793	73.88
240.027	66.88
240.26	72.88
240.494	84.88
240.728	77.88
240.961	82.88
241.195	75.88
241.429	70.88
241.662	71.88
241.896	69.88
242.13	69.88
242.363	77.88
242.597	72.88
242.83	76.88
243.064	65.88
243.298	82.88
243.531	85.88
243.765	76.88
243.998	83.88
244.232	93.88
244.465	77.88
244.699	73.88
244.932	90.88
245.166	82.88
245.399	77.88
245.633	74.88
245.866	64.88
246.099	69.88
246.333	83.88
246.566	80.88
246.8	73.88
247.033	76.88
247.266	81.88
247.5	73.88
247.733	85.88
247.966	77.88
248.2	88.88
248.433	83.88
248.666	80.88
248.899	75.88
249.133	78.88
249.366	73.88
249.599	82.88
249.832	73.88
250.066	82.88
250.299	82.88
250.532	76.88
250.765	71.88
250.998	82.88
251.231	73.88
251.465	78.88
251.698	72.88
251.931	75.88
252.164	78.88
252.397	76.88
252.63	75.88
252.863	71.88
253.096	70.88
253.329	76.88
253.562	82.88
253.795	69.88
254.028	75.88
254.261	80.88
254.494	76.88
254.727	78.88
254.96	78.88
255.193	68.88
255.426	65.88
255.659	83.88
255.892	83.88
256.124	68.88
256.357	74.88
256.59	89.88
256.823	64.88
257.056	83.88
257.289	77.88
257.521	88.88
257.754	71.88
257.987	82.88
258.22	77.88
258.452	83.88
258.685	72.88
258.918	87.88
259.151	80.88
259.383	82.88
259.616	81.88
259.849	85.88
260.081	81.88
260.314	65.88
260.547	71.88
260.779	86.88
261.012	95.88
261.244	89.88
261.477	71.88
261.71	76.88
261.942	85.88
262.175	72.88
262.407	63.88
262.64	82.88
262.872	99.88
263.105	92.88
263.337	79.88
263.57	87.88
263.802	81.88
264.035	88.88
264.267	74.88
264.499	75.88
264.732	69.88
264.964	64.88
265.197	77.88
265.429	82.88
265.661	86.88
265.894	80.88
266.126	95.88
266.358	82.88
266.591	92.88
266.823	86.88
267.055	77.88
267.287	88.88
267.52	72.88
267.752	85.88
267.984	87.88
268.216	69.88
268.448	90.88
268.681	82.88
268.913	83.88
269.145	98.88
269.377	83.88
269.609	77.88
269.841	88.88
270.073	90.88
270.306	80.88
270.538	90.88
270.77	70.88
271.002	89.88
271.234	70.88
271.466	91.88
271.698	77.88
271.93	88.88
272.162	69.88
272.394	72.88
272.626	95.88
272.858	88.88
273.09	91.88
273.322	101.88
273.553	82.88
273.785	73.88
274.017	87.88
274.249	85.88
274.481	79.88
274.713	82.88
274.945	90.88
275.176	93.88
275.408	75.88
275.64	80.88
275.872	75.88
276.104	88.88
276.335	82.88
276.567	89.88
276.799	80.88
277.031	79.88
277.262	76.88
277.494	82.88
277.726	92.88
277.957	93.88
278.189	83.88
278.421	80.88
278.652	78.88
278.884	86.88
279.115	80.88
279.347	90.88
279.579	87.88
279.81	83.88
280.042	96.88
280.273	89.88
280.505	78.88
280.736	80.88
280.968	84.88
281.199	90.88
281.431	79.88
281.662	89.88
281.894	91.88
282.125	81.88
282.356	86.88
282.588	73.88
282.819	74.88
283.051	82.88
283.282	78.88
283.513	81.88
283.745	87.88
283.976	90.88
284.207	81.88
284.439	88.88
284.67	85.88
284.901	74.88
285.132	84.88
285.364	83.88
285.595	77.88
285.826	84.88
286.057	77.88
286.288	87.88
286.52	78.88
286.751	84.88
286.982	72.88
287.213	83.88
287.444	85.88
287.675	90.88
287.906	85.88
288.138	87.88
288.369	93.88
288.6	80.88
288.831	78.88
289.062	82.88
289.293	73.88
289.524	79.88
289.755	85.88
289.986	78.88
290.217	85.88
290.448	83.88
290.679	98.88
290.91	90.88
291.141	95.88
291.371	88.88
291.602	76.88
291.833	83.88
292.064	85.88
292.295	83.88
292.526	74.88
292.757	79.88
292.987	92.88
293.218	91.88
293.449	86.88
293.68	85.88
293.91	85.88
294.141	88.88
294.372	83.88
294.603	75.88
294.833	88.88
295.064	79.88
295.295	60.88
295.525	78.88
295.756	88.88
295.987	83.88
296.217	92.88
296.448	88.88
296.679	88.88
296.909	100.88
297.14	90.88
297.37	72.88
297.601	77.88
297.831	81.88
298.062	87.88
298.292	73.88
298.523	103.88
298.753	80.88
298.984	82.88
299.214	84.88
299.445	74.88
299.675	83.88
299.905	93.88
300.136	73.88
300.366	80.88
300.597	92.88
300.827	84.88
301.057	77.88
301.288	85.88
301.518	80.88
301.748	92.88
301.979	87.88
302.209	87.88
302.439	80.88
302.669	77.88
302.9	80.88
303.13	67.88
303.36	82.88
303.59	98.88
303.82	84.88
304.051	91.88
304.281	96.88
304.511	103.88
304.741	67.88
304.971	79.88
305.201	92.88
305.431	73.88
305.661	72.88
305.891	88.88
306.121	76.88
306.352	83.88
306.582	74.88
306.812	88.88
307.042	91.88
307.272	82.88
307.502	81.88
307.731	78.88
307.961	77.88
308.191	88.88
308.421	87.88
308.651	87.88
308.881	97.88
309.111	85.88
309.341	98.88
309.571	72.88
309.8	80.88
310.03	82.88
310.26	81.88
310.49	86.88
310.72	96.88
310.949	91.88
311.179	94.88
311.409	86.88
311.639	79.88
311.868	88.88
312.098	76.88
312.328	77.88
312.557	97.88
312.787	79.88
313.017	99.88
313.246	85.88
313.476	89.88
313.706	77.88
313.935	76.88
314.165	88.88
314.394	96.88
314.624	87.88
314.853	74.88
315.083	91.88
315.312	86.88
315.542	88.88
315.771	81.88
316.001	85.88
316.23	84.88
316.46	76.88
316.689	91.88
316.919	88.88
317.148	83.88
317.377	96.88
317.607	69.88
317.836	85.88
318.065	75.88
318.295	88.88
318.524	81.88
318.753	71.88
318.983	83.88
319.212	73.88
319.441	84.88
319.67	87.88
319.9	82.88
320.129	80.88
320.358	71.88
320.587	88.88
320.816	83.88
321.046	84.88
321.275	94.88
321.504	76.88
321.733	85.88
321.962	79.88
322.191	75.88
322.42	81.88
322.649	85.88
322.878	86.88
323.108	90.88
323.337	84.88
323.566	87.88
323.795	88.88
324.024	75.88
324.253	91.88
324.482	89.88
324.71	91.88
324.939	79.88
325.168	84.88
325.397	86.88
325.626	79.88
325.855	85.88
326.084	73.88
326.313	78.88
326.542	84.88
326.77	101.88
326.999	92.88
327.228	80.88
327.457	90.88
327.686	77.88
327.914	76.88
328.143	96.88
328.372	86.88
328.6	84.88
328.829	87.88
329.058	88.88
329.287	86.88
329.515	92.88
329.744	95.88
329.972	91.88
330.201	83.88
330.43	88.88
330.658	76.88
330.887	83.88
331.115	76.88
331.344	72.88
331.572	77.88
331.801	73.88
332.03	83.88
332.258	90.88
332.486	78.88
332.715	83.88
332.943	90.88
333.172	80.88
333.4	83.88
333.629	93.88
333.857	97.88
334.085	87.88
334.314	82.88
334.542	84.88
334.771	82.88
334.999	93.88
335.227	77.88
335.455	97.88
335.684	80.88
335.912	90.88
336.14	80.88
336.369	77.88
336.597	88.88
336.825	87.88
337.053	89.88
337.281	88.88
337.51	88.88
337.738	85.88
337.966	80.88
338.194	76.88
338.422	74.88
338.65	90.88
338.878	77.88
339.106	84.88
339.334	84.88
339.562	86.88
339.79	82.88
340.018	77.88
340.246	74.88
340.474	76.88
340.702	90.88
340.93	83.88
341.158	73.88
341.386	83.88
341.614	88.88
341.842	80.88
342.07	78.88
342.298	73.88
342.526	81.88
342.754	89.88
342.981	84.88
343.209	77.88
343.437	93.88
343.665	83.88
343.893	81.88
344.12	93.88
344.348	73.88
344.576	102.88
344.804	88.88
345.031	66.88
345.259	91.88
345.487	89.88
345.714	87.88
345.942	90.88
346.17	90.88
346.397	76.88
346.625	91.88
346.853	91.88
347.08	85.88
347.308	96.88
347.535	78.88
347.763	84.88
347.99	88.88
348.218	79.88
348.445	83.88
348.673	85.88
348.9	99.88
349.128	91.88
349.355	85.88
349.583	90.88
349.81	95.88
350.037	86.88
350.265	80.88
350.492	83.88
350.72	80.88
350.947	85.88
351.174	89.88
351.402	76.88
351.629	77.88
351.856	89.88
352.083	95.88
352.311	93.88
352.538	68.88
352.765	76.88
352.992	59.88
353.22	87.88
353.447	108.88
353.674	91.88
353.901	84.88
354.128	77.88
354.355	85.88
354.583	87.88
354.81	65.88
355.037	84.88
355.264	91.88
355.491	75.88
355.718	77.88
355.945	90.88
356.172	81.88
356.399	88.88
356.626	77.88
356.853	76.88
357.08	84.88
357.307	81.88
357.534	98.88
357.761	77.88
357.988	88.88
358.215	80.88
358.441	96.88
358.668	84.88
358.895	79.88
359.122	87.88
359.349	82.88
359.576	85.88
359.802	78.88
360.029	85.88
360.256	67.88
360.483	87.88
360.709	79.88
360.936	76.88
361.163	73.88
361.39	86.88
361.616	70.88
361.843	85.88
362.07	96.88
362.296	69.88
362.523	86.88
362.749	76.88
362.976	73.88
363.203	96.88
363.429	74.88
363.656	80.88
363.882	91.88
364.109	82.88
364.335	80.88
364.562	85.88
364.788	82.88
365.015	86.88
365.241	93.88
365.468	91.88
365.694	67.88
365.92	85.88
366.147	74.88
366.373	80.88
366.599	94.88
366.826	90.88
367.052	95.88
367.278	71.88
367.505	92.88
367.731	95.88
367.957	82.88
368.184	80.88
368.41	76.88
368.636	89.88
368.862	89.88
369.089	71.88
369.315	89.88
369.541	82.88
369.767	82.88
369.993	76.88
370.219	73.88
370.445	82.88
370.672	87.88
370.898	89.88
371.124	83.88
371.35	77.88
371.576	86.88
371.802	71.88
372.028	77.88
372.254	91.88
372.48	76.88
372.706	95.88
372.932	88.88
373.158	82.88
373.384	88.88
373.61	93.88
373.835	81.88
374.061	78.88
374.287	81.88
374.513	84.88
374.739	65.88
374.965	80.88
375.191	90.88
375.416	79.88
375.642	76.88
375.868	82.88
376.094	70.88
376.319	90.88
376.545	84.88
376.771	82.88
376.997	87.88
377.222	75.88
377.448	93.88
377.674	86.88
377.899	89.88
378.125	74.88
378.35	102.88
378.576	81.88
378.802	77.88
379.027	85.88
379.253	83.88
379.478	89.88
379.704	83.88
379.929	66.88
380.155	73.88
380.38	86.88
380.606	69.88
380.831	83.88
381.057	91.88
381.282	86.88
381.507	76.88
381.733	84.88
381.958	76.88
382.184	83.88
382.409	83.88
382.634	82.88
382.86	82.88
383.085	74.88
383.31	85.88
383.535	87.88
383.761	85.88
383.986	78.88
384.211	78.88
384.436	73.88
384.662	78.88
384.887	77.88
385.112	81.88
385.337	76.88
385.562	70.88
385.787	78.88
386.013	103.88
386.238	79.88
386.463	82.88
386.688	73.88
386.913	83.88
387.138	75.88
387.363	80.88
387.588	85.88
387.813	85.88
388.038	71.88
388.263	76.88
388.488	85.88
388.713	71.88
388.938	80.88
389.163	88.88
389.387	92.88
389.612	93.88
389.837	82.88
390.062	76.88
390.287	74.88
390.512	83.88
390.736	69.88
390.961	80.88
391.186	80.88
391.411	91.88
391.636	85.88
391.86	80.88
392.085	76.88
392.31	77.88
392.534	80.88
392.759	83.88
392.984	94.88
393.208	94.88
393.433	88.88
393.658	96.88
393.882	83.88
394.107	97.88
394.331	72.88
394.556	88.88
394.78	83.88
395.005	71.88
395.229	91.88
395.454	95.88
395.678	93.88
395.903	87.88
396.127	88.88
396.352	87.88
396.576	73.88
396.801	96.88
397.025	77.88
397.249	100.88
397.474	82.88
397.698	88.88
397.922	79.88
398.147	90.88
398.371	88.88
398.595	101.88
398.82	81.88
399.044	90.88
399.268	79.88
399.492	93.88
399.717	69.88
399.941	88.88
400.165	74.88
400.389	83.88
400.613	99.88
400.837	85.88
401.062	67.88
401.286	76.88
401.51	84.88
401.734	83.88
401.958	83.88
402.182	79.88
402.406	81.88
402.63	96.88
402.854	95.88
403.078	89.88
403.302	90.88
403.526	82.88
403.75	77.88
403.974	85.88
404.198	71.88
404.422	86.88
404.645	85.88
404.869	89.88
405.093	96.88
405.317	84.88
405.541	70.88
405.765	93.88
405.988	80.88
406.212	87.88
406.436	80.88
406.66	84.88
406.883	80.88
407.107	82.88
407.331	80.88
407.555	76.88
407.778	81.88
408.002	83.88
408.226	91.88
408.449	97.88
408.673	83.88
408.896	87.88
409.12	71.88
409.344	86.88
409.567	79.88
409.791	76.88
410.014	96.88
410.238	85.88
410.461	64.88
410.685	82.88
410.908	83.88
411.132	93.88
411.355	89.88
411.578	89.88
411.802	79.88
412.025	74.88
412.249	81.88
412.472	83.88
412.695	77.88
412.919	91.88
413.142	96.88
413.365	74.88
413.589	85.88
413.812	85.88
414.035	87.88
414.258	77.88
414.482	96.88
414.705	83.88
414.928	84.88
415.151	97.88
415.374	98.88
415.597	84.88
415.821	71.88
416.044	89.88
416.267	87.88
416.49	89.88
416.713	84.88
416.936	87.88
417.159	81.88
417.382	82.88
417.605	78.88
417.828	75.88
418.051	71.88
418.274	77.88
418.497	92.88
418.72	98.88
418.943	98.88
419.166	96.88
419.389	79.88
419.611	98.88
419.834	87.88
420.057	99.88
420.28	99.88
420.503	90.88
420.726	87.88
420.948	93.88
421.171	79.88
421.394	90.88
421.617	81.88
421.839	80.88
422.062	96.88
422.285	87.88
422.507	85.88
422.73	77.88
422.953	90.88
423.175	78.88
423.398	93.88
423.621	90.88
423.843	92.88
424.066	74.88
424.288	104.88
424.511	81.88
424.733	91.88
424.956	90.88
425.178	84.88
425.401	92.88
425.623	75.88
425.846	91.88
426.068	91.88
426.291	89.88
426.513	85.88
426.735	93.88
426.958	93.88
427.18	85.88
427.402	88.88
427.625	85.88
427.847	72.88
428.069	80.88
428.292	87.88
428.514	82.88
428.736	80.88
428.958	92.88
429.181	83.88
429.403	84.88
429.625	82.88
429.847	79.88
430.069	64.88
430.292	81.88
430.514	97.88
430.736	79.88
430.958	97.88
431.18	91.88
431.402	84.88
431.624	83.88
431.846	91.88
432.068	76.88
432.29	77.88
432.512	72.88
432.734	93.88
432.956	94.88
433.178	88.88
433.4	94.88
433.622	101.88
433.844	87.88
434.066	88.88
434.287	89.88
434.509	92.88
434.731	84.88
434.953	75.88
435.175	75.88
435.397	82.88
435.618	89.88
435.84	88.88
436.062	90.88
436.284	84.88
436.505	80.88
436.727	100.88
436.949	101.88
437.17	90.88
437.392	91.88
437.614	67.88
437.835	75.88
438.057	84.88
438.278	103.88
438.5	75.88
438.721	76.88
438.943	87.88
439.165	98.88
439.386	71.88
439.608	98.88
439.829	88.88
440.05	85.88
440.272	105.88
440.493	80.88
440.715	73.88
440.936	83.88
441.158	100.88
441.379	73.88
441.6	89.88
441.822	92.88
442.043	72.88
442.264	98.88
442.486	78.88
442.707	87.88
442.928	83.88
443.149	93.88
443.371	80.88
443.592	72.88
443.813	87.88
444.034	77.88
444.255	94.88
444.476	91.88
444.698	98.88
444.919	88.88
445.14	228.88
445.361	161.88
445.582	97.88
445.803	96.88
446.024	97.88
446.245	92.88
446.466	86.88
446.687	93.88
446.908	102.88
447.129	90.88
447.35	96.88
447.571	86.88
447.792	85.88
448.013	80.88
448.234	97.88
448.455	96.88
448.675	90.88
448.896	100.88
449.117	99.88
449.338	98.88
449.559	97.88
449.779	91.88
450	85.88
450.221	92.88
450.442	95.88
450.662	87.88
450.883	86.88
451.104	95.88
451.324	93.88
451.545	89.88
451.766	82.88
451.986	88.88
452.207	90.88
452.428	84.88
452.648	73.88
452.869	86.88
453.089	90.88
453.31	87.88
453.53	88.88
453.751	91.88
453.971	85.88
454.192	94.88
454.412	78.88
454.633	90.88
454.853	77.88
455.073	77.88
455.294	83.88
455.514	80.88
455.734	90.88
455.955	91.88
456.175	95.88
456.395	88.88
456.616	89.88
456.836	92.88
457.056	72.88
457.276	88.88
457.497	81.88
457.717	80.88
457.937	73.88
458.157	81.88
458.377	89.88
458.598	78.88
458.818	70.88
459.038	77.88
459.258	83.88
459.478	87.88
459.698	74.88
459.918	87.88
460.138	81.88
460.358	95.88
460.578	94.88
460.798	84.88
461.018	104.88
461.238	94.88
461.458	72.88
461.678	99.88
461.898	100.88
462.118	83.88
462.338	80.88
462.558	80.88
462.777	77.88
462.997	79.88
463.217	85.88
463.437	81.88
463.657	77.88
463.876	81.88
464.096	87.88
464.316	91.88
464.536	78.88
464.755	81.88
464.975	91.88
465.195	89.88
465.414	72.88
465.634	93.88
465.854	84.88
466.073	87.88
466.293	95.88
466.512	81.88
466.732	88.88
466.951	102.88
467.171	89.88
467.391	94.88
467.61	85.88
467.829	95.88
468.049	97.88
468.268	97.88
468.488	93.88
468.707	83.88
468.927	92.88
469.146	93.88
469.365	100.88
469.585	84.88
469.804	85.88
470.023	104.88
470.243	93.88
470.462	84.88
470.681	85.88
470.901	102.88
471.12	103.88
471.339	86.88
471.558	78.88
471.777	79.88
471.997	84.88
472.216	83.88
472.435	88.88
472.654	97.88
472.873	90.88
473.092	81.88
473.311	75.88
473.53	83.88
473.749	84.88
473.968	75.88
474.187	81.88
474.406	92.88
474.625	89.88
474.844	85.88
475.063	98.88
475.282	104.88
475.501	76.88
475.72	86.88
475.939	98.88
476.158	78.88
476.377	95.88
476.596	95.88
476.814	84.88
477.033	83.88
477.252	76.88
477.471	91.88
477.69	83.88
477.908	97.88
478.127	88.88
478.346	103.88
478.564	81.88
478.783	92.88
479.002	87.88
479.22	75.88
479.439	80.88
479.658	79.88
479.876	74.88
480.095	75.88
480.313	91.88
480.532	75.88
480.751	94.88
480.969	78.88
481.188	73.88
481.406	96.88
481.624	87.88
481.843	77.88
482.061	87.88
482.28	91.88
482.498	71.88
482.717	72.88
482.935	96.88
483.153	83.88
483.372	101.88
483.59	97.88
483.808	88.88
484.027	71.88
484.245	81.88
484.463	76.88
484.681	102.88
484.9	90.88
485.118	94.88
485.336	84.88
485.554	84.88
485.772	86.88
485.99	81.88
486.209	80.88
486.427	74.88
486.645	80.88
486.863	84.88
487.081	97.88
487.299	81.88
487.517	93.88
487.735	94.88
487.953	89.88
488.171	91.88
488.389	94.88
488.607	98.88
488.825	90.88
489.043	89.88
489.261	88.88
489.479	91.88
489.696	107.88
489.914	97.88
490.132	97.88
490.35	100.88
490.568	106.88
490.786	108.88
491.003	103.88
491.221	99.88
491.439	103.88
491.657	116.88
491.874	108.88
492.092	104.88
492.31	111.88
492.527	113.88
492.745	104.88
492.963	99.88
493.18	85.88
493.398	104.88
493.615	93.88
493.833	97.88
494.05	92.88
494.268	91.88
494.485	93.88
494.703	114.88
494.92	79.88
495.138	95.88
495.355	98.88
495.573	86.88
495.79	96.88
496.008	101.88
496.225	92.88
496.442	97.88
496.66	95.88
496.877	100.88
497.094	98.88
497.312	100.88
497.529	106.88
497.746	97.88
497.963	95.88
498.181	101.88
498.398	64.88
498.615	83.88
498.832	90.88
499.049	78.88
499.267	87.88
499.484	93.88
499.701	95.88
499.918	88.88
500.135	102.88
500.352	85.88
500.569	91.88
500.786	104.88
501.003	90.88
501.22	82.88
501.437	100.88
501.654	87.88
501.871	92.88
502.088	93.88
502.305	89.88
502.522	89.88
502.739	87.88
502.956	88.88
503.172	88.88
503.389	96.88
503.606	83.88
503.823	86.88
504.04	106.88
504.256	76.88
504.473	90.88
504.69	85.88
504.907	93.88
505.123	90.88
505.34	88.88
505.557	90.88
505.773	100.88
505.99	89.88
506.207	82.88
506.423	92.88
506.64	87.88
506.856	94.88
507.073	94.88
507.289	91.88
507.506	92.88
507.722	84.88
507.939	90.88
508.155	81.88
508.372	84.88
508.588	87.88
508.805	87.88
509.021	88.88
509.238	96.88
509.454	95.88
509.67	75.88
509.887	80.88
510.103	85.88
510.319	78.88
510.536	85.88
510.752	83.88
510.968	88.88
511.184	91.88
511.401	97.88
511.617	98.88
511.833	62.88
512.049	83.88
512.265	80.88
512.481	89.88
512.698	82.88
512.914	77.88
513.13	83.88
513.346	65.88
513.562	84.88
513.778	91.88
513.994	88.88
514.21	82.88
514.426	83.88
514.642	82.88
514.858	84.88
515.074	81.88
515.29	86.88
515.506	80.88
515.721	77.88
515.937	64.88
516.153	77.88
516.369	93.88
516.585	69.88
516.801	84.88
517.016	84.88
517.232	89.88
517.448	81.88
517.664	90.88
517.879	89.88
518.095	72.88
518.311	96.88
518.527	76.88
518.742	88.88
518.958	97.88
519.173	68.88
519.389	90.88
519.605	92.88
519.82	83.88
520.036	83.88
520.251	79.88
520.467	80.88
520.682	83.88
520.898	91.88
521.113	76.88
521.329	89.88
521.544	89.88
521.76	81.88
521.975	87.88
522.19	99.88
522.406	78.88
522.621	85.88
522.836	81.88
523.052	86.88
523.267	68.88
523.482	85.88
523.698	101.88
523.913	87.88
524.128	82.88
524.343	88.88
524.559	88.88
524.774	78.88
524.989	103.88
525.204	103.88
525.419	88.88
525.634	86.88
525.849	92.88
526.064	97.88
526.28	91.88
526.495	81.88
526.71	75.88
526.925	77.88
527.14	82.88
527.355	89.88
527.57	78.88
527.785	81.88
527.999	88.88
528.214	92.88
528.429	92.88
528.644	88.88
528.859	106.88
529.074	97.88
529.289	104.88
529.503	91.88
529.718	80.88
529.933	91.88
530.148	82.88
530.363	86.88
530.577	77.88
530.792	78.88
531.007	84.88
531.221	91.88
531.436	90.88
531.651	69.88
531.865	84.88
532.08	99.88
532.295	78.88
532.509	80.88
532.724	85.88
532.938	82.88
533.153	78.88
533.367	96.88
533.582	80.88
533.796	103.88
534.011	95.88
534.225	87.88
534.44	87.88
534.654	82.88
534.868	95.88
535.083	87.88
535.297	85.88
535.511	98.88
535.726	93.88
535.94	73.88
536.154	91.88
536.369	77.88
536.583	86.88
536.797	87.88
537.011	95.88
537.225	94.88
537.44	91.88
537.654	94.88
537.868	93.88
538.082	89.88
538.296	97.88
538.51	93.88
538.724	91.88
538.938	95.88
539.153	91.88
539.367	94.88
539.581	75.88
539.795	84.88
540.009	100.88
540.222	72.88
540.436	90.88
540.65	75.88
540.864	96.88
541.078	99.88
541.292	106.88
541.506	89.88
541.72	111.88
541.934	96.88
542.147	113.88
542.361	99.88
542.575	90.88
542.789	92.88
543.002	97.88
543.216	90.88
543.43	97.88
543.644	97.88
543.857	96.88
544.071	90.88
544.285	102.88
544.498	92.88
544.712	99.88
544.925	90.88
545.139	89.88
545.352	100.88
545.566	92.88
545.779	93.88
545.993	96.88
546.206	101.88
546.42	97.88
546.633	95.88
546.847	96.88
547.06	87.88
547.274	95.88
547.487	97.88
547.7	99.88
547.914	97.88
548.127	91.88
548.34	104.88
548.554	125.88
548.767	108.88
548.98	100.88
549.193	96.88
549.407	103.88
549.62	100.88
549.833	112.88
550.046	104.88
550.259	100.88
550.473	85.88
550.686	103.88
550.899	103.88
551.112	104.88
551.325	109.88
551.538	101.88
551.751	91.88
551.964	95.88
552.177	93.88
552.39	92.88
552.603	92.88
552.816	100.88
553.029	95.88
553.242	92.88
553.455	92.88
553.667	83.88
553.88	98.88
554.093	106.88
554.306	99.88
554.519	84.88
554.732	96.88
554.944	90.88
555.157	91.88
555.37	92.88
555.583	66.88
555.795	104.88
556.008	94.88
556.221	100.88
556.433	89.88
556.646	101.88
556.859	96.88
557.071	91.88
557.284	106.88
557.496	77.88
557.709	87.88
557.921	102.88
558.134	104.88
558.346	85.88
558.559	100.88
558.771	98.88
558.984	97.88
559.196	91.88
559.409	92.88
559.621	97.88
559.833	97.88
560.046	109.88
560.258	104.88
560.47	92.88
560.683	95.88
560.895	86.88
561.107	100.88
561.32	85.88
561.532	88.88
561.744	106.88
561.956	101.88
562.168	91.88
562.381	90.88
562.593	85.88
562.805	94.88
563.017	95.88
563.229	96.88
563.441	88.88
563.653	76.88
563.865	91.88
564.077	97.88
564.289	99.88
564.501	97.88
564.713	102.88
564.925	92.88
565.137	75.88
565.349	89.88
565.561	96.88
565.773	95.88
565.985	91.88
566.197	84.88
566.408	94.88
566.62	89.88
566.832	93.88
567.044	91.88
567.255	109.88
567.467	90.88
567.679	91.88
567.891	75.88
568.102	73.88
568.314	100.88
568.526	79.88
568.737	75.88
568.949	90.88
569.161	83.88
569.372	88.88
569.584	87.88
569.795	86.88
570.007	100.88
570.218	97.88
570.43	89.88
570.641	94.88
570.853	83.88
571.064	88.88
571.276	95.88
571.487	99.88
571.698	103.88
571.91	81.88
572.121	95.88
572.333	82.88
572.544	98.88
572.755	88.88
572.966	75.88
573.178	87.88
573.389	84.88
573.6	77.88
573.811	87.88
574.023	93.88
574.234	90.88
574.445	96.88
574.656	84.88
574.867	72.88
575.078	96.88
575.289	73.88
575.501	102.88
575.712	95.88
575.923	86.88
576.134	73.88
576.345	86.88
576.556	89.88
576.767	84.88
576.978	88.88
577.188	97.88
577.399	82.88
577.61	75.88
577.821	89.88
578.032	82.88
578.243	83.88
578.454	90.88
578.665	86.88
578.875	87.88
579.086	76.88
579.297	92.88
579.508	90.88
579.718	80.88
579.929	72.88
580.14	93.88
580.35	90.88
580.561	84.88
580.772	82.88
580.982	86.88
581.193	91.88
581.403	92.88
581.614	86.88
581.825	92.88
582.035	83.88
582.246	83.88
582.456	92.88
582.667	82.88
582.877	87.88
583.087	85.88
583.298	84.88
583.508	82.88
583.719	72.88
583.929	101.88
584.139	92.88
584.35	89.88
584.56	94.88
584.77	83.88
584.981	94.88
585.191	96.88
585.401	93.88
585.611	87.88
585.821	91.88
586.032	92.88
586.242	88.88
586.452	88.88
586.662	84.88
586.872	86.88
587.082	82.88
587.292	81.88
587.502	95.88
587.713	92.88
587.923	85.88
588.133	97.88
588.343	81.88
588.553	81.88
588.762	84.88
588.972	90.88
589.182	82.88
589.392	78.88
589.602	81.88
589.812	75.88
590.022	80.88
590.232	87.88
590.441	96.88
590.651	80.88
590.861	88.88
591.071	91.88
591.281	90.88
591.49	82.88
591.7	88.88
591.91	95.88
592.119	76.88
592.329	73.88
592.539	89.88
592.748	89.88
592.958	74.88
593.167	74.88
593.377	70.88
593.587	95.88
593.796	89.88
594.006	63.88
594.215	95.88
594.424	92.88
594.634	72.88
594.843	76.88
595.053	97.88
595.262	75.88
595.472	86.88
595.681	90.88
595.89	97.88
596.1	81.88
596.309	92.88
596.518	89.88
596.727	85.88
596.937	89.88
597.146	86.88
597.355	92.88
597.564	100.88
597.774	75.88
597.983	99.88
598.192	71.88
598.401	91.88
598.61	92.88
598.819	84.88
599.028	98.88
599.237	80.88
599.446	96.88
599.655	88.88
599.864	102.88
600.073	93.88
600.282	82.88
600.491	92.88
600.7	78.88
600.909	84.88
601.118	93.88
601.327	81.88
601.536	85.88
601.745	84.88
601.953	80.88
602.162	75.88
602.371	76.88
602.58	73.88
602.789	81.88
602.997	90.88
603.206	79.88
603.415	101.88
603.623	98.88
603.832	96.88
604.041	95.88
604.249	85.88
604.458	83.88
604.666	102.88
604.875	91.88
605.084	80.88
605.292	90.88
605.501	92.88
605.709	96.88
605.918	88.88
606.126	95.88
606.334	81.88
606.543	109.88
606.751	105.88
606.96	83.88
607.168	86.88
607.376	75.88
607.585	71.88
607.793	91.88
608.001	85.88
608.21	84.88
608.418	96.88
608.626	99.88
608.834	91.88
609.043	95.88
609.251	95.88
609.459	85.88
609.667	89.88
609.875	86.88
610.083	92.88
610.291	105.88
610.499	87.88
610.707	88.88
610.916	84.88
611.124	85.88
611.332	84.88
611.54	87.88
611.748	96.88
611.955	92.88
612.163	80.88
612.371	91.88
612.579	87.88
612.787	89.88
612.995	99.88
613.203	99.88
613.411	96.88
613.618	85.88
613.826	96.88
614.034	91.88
614.242	108.88
614.449	92.88
614.657	93.88
614.865	82.88
615.072	86.88
615.28	95.88
615.488	85.88
615.695	82.88
615.903	88.88
616.111	83.88
616.318	91.88
616.526	83.88
616.733	96.88
616.941	84.88
617.148	101.88
617.356	80.88
617.563	85.88
617.771	85.88
617.978	102.88
618.185	87.88
618.393	85.88
618.6	91.88
618.807	89.88
619.015	82.88
619.222	90.88
619.429	86.88
619.637	87.88
619.844	80.88
620.051	82.88
620.258	74.88
620.466	84.88
620.673	91.88
620.88	86.88
621.087	93.88
621.294	92.88
621.501	86.88
621.708	85.88
621.915	95.88
622.122	88.88
622.329	104.88
622.536	99.88
622.743	77.88
622.95	92.88
623.157	95.88
623.364	89.88
623.571	92.88
623.778	87.88
623.985	94.88
624.192	93.88
624.399	75.88
624.606	92.88
624.812	85.88
625.019	86.88
625.226	93.88
625.433	93.88
625.639	97.88
625.846	93.88
626.053	85.88
626.259	89.88
626.466	84.88
626.673	81.88
626.879	87.88
627.086	96.88
627.293	82.88
627.499	82.88
627.706	72.88
627.912	93.88
628.119	92.88
628.325	100.88
628.532	95.88
628.738	76.88
628.945	98.88
629.151	89.88
629.357	86.88
629.564	87.88
629.77	77.88
629.976	90.88
630.183	93.88
630.389	98.88
630.595	79.88
630.802	89.88
631.008	79.88
631.214	91.88
631.42	93.88
631.627	91.88
631.833	80.88
632.039	69.88
632.245	82.88
632.451	81.88
632.657	101.88
632.863	96.88
633.069	64.88
633.275	77.88
633.481	97.88
633.688	86.88
633.893	87.88
634.099	76.88
634.305	91.88
634.511	87.88
634.717	89.88
634.923	84.88
635.129	82.88
635.335	75.88
635.541	93.88
635.747	70.88
635.952	96.88
636.158	100.88
636.364	98.88
636.57	85.88
636.775	79.88
636.981	86.88
637.187	86.88
637.392	88.88
637.598	84.88
637.804	82.88
638.009	89.88
638.215	83.88
638.421	90.88
638.626	85.88
638.832	86.88
639.037	83.88
639.243	84.88
639.448	76.88
639.654	89.88
639.859	80.88
640.065	83.88
640.27	71.88
640.475	86.88
640.681	86.88
640.886	71.88
641.091	87.88
641.297	91.88
641.502	75.88
641.707	87.88
641.913	88.88
642.118	77.88
642.323	82.88
642.528	102.88
642.733	82.88
642.939	86.88
643.144	88.88
643.349	103.88
643.554	98.88
643.759	75.88
643.964	90.88
644.169	91.88
644.374	90.88
644.579	91.88
644.784	83.88
644.989	80.88
645.194	77.88
645.399	86.88
645.604	91.88
645.809	95.88
646.014	93.88
646.219	81.88
646.423	83.88
646.628	96.88
646.833	91.88
647.038	75.88
647.243	92.88
647.447	80.88
647.652	70.88
647.857	86.88
648.062	93.88
648.266	91.88
648.471	77.88
648.676	90.88
648.88	89.88
649.085	85.88
649.289	76.88
649.494	87.88
649.698	83.88
649.903	97.88
650.107	79.88
650.312	99.88
650.516	77.88
650.721	75.88
650.925	71.88
651.13	81.88
651.334	92.88
651.539	90.88
651.743	93.88
651.947	83.88
652.152	90.88
652.356	86.88
652.56	96.88
652.764	81.88
652.969	89.88
653.173	84.88
653.377	74.88
653.581	80.88
653.785	76.88
653.99	75.88
654.194	86.88
654.398	90.88
654.602	96.88
654.806	83.88
655.01	85.88
655.214	81.88
655.418	93.88
655.622	79.88
655.826	85.88
656.03	78.88
656.234	83.88
656.438	91.88
656.642	74.88
656.846	74.88
657.049	67.88
657.253	81.88
657.457	83.88
657.661	76.88
657.865	72.88
658.068	74.88
658.272	88.88
658.476	88.88
658.68	81.88
658.883	76.88
659.087	83.88
659.291	83.88
659.494	72.88
659.698	84.88
659.901	68.88
660.105	75.88
660.309	85.88
660.512	77.88
660.716	77.88
660.919	91.88
661.123	83.88
661.326	77.88
661.53	102.88
661.733	88.88
661.936	79.88
662.14	80.88
662.343	74.88
662.546	86.88
662.75	86.88
662.953	89.88
663.156	77.88
663.36	85.88
663.563	75.88
663.766	86.88
663.969	91.88
664.173	78.88
664.376	70.88
664.579	72.88
664.782	81.88
664.985	83.88
665.188	78.88
665.391	75.88
665.594	82.88
665.797	79.88
666	69.88
666.203	69.88
666.406	88.88
666.609	83.88
666.812	77.88
667.015	69.88
667.218	104.88
667.421	76.88
667.624	90.88
667.827	71.88
668.03	80.88
668.232	97.88
668.435	77.88
668.638	80.88
668.841	106.88
669.043	88.88
669.246	91.88
669.449	80.88
669.651	97.88
669.854	78.88
670.057	88.88
670.259	93.88
670.462	81.88
670.665	98.88
670.867	75.88
671.07	88.88
671.272	91.88
671.475	93.88
671.677	85.88
671.88	76.88
672.082	77.88
672.284	67.88
672.487	95.88
672.689	80.88
672.892	77.88
