Data from Zn(NO3)2Standard.Agarose3%.GreenCap.LampEnergy10E.O_HRD10591_15-07-52-946.txt Node
Date: Mon Jul 22 15:07:52 EDT 2019
User: cochatt
Spectrometer: HR+D1059
Trigger mode: 1
Integration Time (sec): 1.000000E-1
Scans to average: 1
Electric dark correction enabled: true
Nonlinearity correction enabled: false
Boxcar width: 0
XAxis mode: Wavelengths
Number of Pixels in Spectrum: 2048
>>>>>Begin Spectral Data<<<<<
223.165	-12.62
223.4	-12.62
223.635	-12.62
223.869	-24.62
224.104	-23.62
224.338	-2.62
224.573	-11.62
224.808	-15.62
225.042	-5.62
225.277	6.38
225.511	0.38
225.746	4.38
225.98	5.38
226.215	7.38
226.449	10.38
226.683	7.38
226.918	24.38
227.152	30.38
227.387	33.38
227.621	39.38
227.856	40.38
228.09	51.38
228.324	57.38
228.559	43.38
228.793	59.38
229.027	69.38
229.262	56.38
229.496	77.38
229.73	76.38
229.964	56.38
230.199	70.38
230.433	71.38
230.667	74.38
230.901	73.38
231.136	70.38
231.37	76.38
231.604	87.38
231.838	66.38
232.072	91.38
232.306	87.38
232.541	91.38
232.775	83.38
233.009	81.38
233.243	75.38
233.477	74.38
233.711	82.38
233.945	92.38
234.179	93.38
234.413	74.38
234.647	83.38
234.881	88.38
235.115	86.38
235.349	74.38
235.583	85.38
235.817	77.38
236.051	81.38
236.285	93.38
236.519	81.38
236.753	73.38
236.987	63.38
237.221	69.38
237.455	77.38
237.689	83.38
237.922	76.38
238.156	77.38
238.39	73.38
238.624	67.38
238.858	84.38
239.091	73.38
239.325	82.38
239.559	89.38
239.793	87.38
240.027	81.38
240.26	67.38
240.494	69.38
240.728	80.38
240.961	69.38
241.195	71.38
241.429	81.38
241.662	66.38
241.896	82.38
242.13	74.38
242.363	87.38
242.597	74.38
242.83	68.38
243.064	81.38
243.298	63.38
243.531	77.38
243.765	72.38
243.998	75.38
244.232	66.38
244.465	87.38
244.699	72.38
244.932	88.38
245.166	82.38
245.399	90.38
245.633	92.38
245.866	72.38
246.099	78.38
246.333	81.38
246.566	75.38
246.8	70.38
247.033	72.38
247.266	74.38
247.5	74.38
247.733	85.38
247.966	71.38
248.2	73.38
248.433	78.38
248.666	82.38
248.899	77.38
249.133	68.38
249.366	75.38
249.599	73.38
249.832	91.38
250.066	85.38
250.299	77.38
250.532	77.38
250.765	90.38
250.998	58.38
251.231	77.38
251.465	87.38
251.698	75.38
251.931	68.38
252.164	88.38
252.397	79.38
252.63	80.38
252.863	76.38
253.096	75.38
253.329	60.38
253.562	89.38
253.795	69.38
254.028	69.38
254.261	73.38
254.494	77.38
254.727	77.38
254.96	75.38
255.193	70.38
255.426	73.38
255.659	77.38
255.892	95.38
256.124	83.38
256.357	79.38
256.59	85.38
256.823	89.38
257.056	80.38
257.289	75.38
257.521	82.38
257.754	73.38
257.987	85.38
258.22	69.38
258.452	68.38
258.685	75.38
258.918	80.38
259.151	82.38
259.383	92.38
259.616	85.38
259.849	85.38
260.081	70.38
260.314	80.38
260.547	84.38
260.779	71.38
261.012	73.38
261.244	86.38
261.477	85.38
261.71	73.38
261.942	77.38
262.175	85.38
262.407	80.38
262.64	83.38
262.872	94.38
263.105	77.38
263.337	83.38
263.57	75.38
263.802	84.38
264.035	86.38
264.267	72.38
264.499	76.38
264.732	86.38
264.964	89.38
265.197	86.38
265.429	90.38
265.661	87.38
265.894	82.38
266.126	79.38
266.358	61.38
266.591	87.38
266.823	70.38
267.055	73.38
267.287	85.38
267.52	67.38
267.752	85.38
267.984	86.38
268.216	85.38
268.448	85.38
268.681	82.38
268.913	88.38
269.145	82.38
269.377	83.38
269.609	66.38
269.841	86.38
270.073	75.38
270.306	74.38
270.538	82.38
270.77	81.38
271.002	82.38
271.234	91.38
271.466	84.38
271.698	86.38
271.93	79.38
272.162	83.38
272.394	91.38
272.626	90.38
272.858	77.38
273.09	95.38
273.322	88.38
273.553	97.38
273.785	91.38
274.017	73.38
274.249	89.38
274.481	87.38
274.713	73.38
274.945	82.38
275.176	87.38
275.408	84.38
275.64	89.38
275.872	85.38
276.104	97.38
276.335	70.38
276.567	73.38
276.799	76.38
277.031	83.38
277.262	80.38
277.494	89.38
277.726	81.38
277.957	90.38
278.189	77.38
278.421	82.38
278.652	73.38
278.884	84.38
279.115	91.38
279.347	83.38
279.579	88.38
279.81	81.38
280.042	82.38
280.273	87.38
280.505	77.38
280.736	86.38
280.968	70.38
281.199	80.38
281.431	87.38
281.662	83.38
281.894	70.38
282.125	71.38
282.356	74.38
282.588	75.38
282.819	86.38
283.051	74.38
283.282	71.38
283.513	91.38
283.745	78.38
283.976	74.38
284.207	87.38
284.439	75.38
284.67	76.38
284.901	93.38
285.132	93.38
285.364	85.38
285.595	89.38
285.826	95.38
286.057	81.38
286.288	88.38
286.52	81.38
286.751	76.38
286.982	71.38
287.213	85.38
287.444	89.38
287.675	94.38
287.906	78.38
288.138	104.38
288.369	90.38
288.6	81.38
288.831	98.38
289.062	84.38
289.293	80.38
289.524	87.38
289.755	88.38
289.986	88.38
290.217	90.38
290.448	90.38
290.679	87.38
290.91	77.38
291.141	86.38
291.371	83.38
291.602	76.38
291.833	79.38
292.064	76.38
292.295	95.38
292.526	81.38
292.757	90.38
292.987	77.38
293.218	79.38
293.449	72.38
293.68	91.38
293.91	91.38
294.141	81.38
294.372	87.38
294.603	71.38
294.833	87.38
295.064	79.38
295.295	81.38
295.525	76.38
295.756	92.38
295.987	80.38
296.217	80.38
296.448	81.38
296.679	88.38
296.909	75.38
297.14	67.38
297.37	92.38
297.601	74.38
297.831	81.38
298.062	89.38
298.292	78.38
298.523	89.38
298.753	60.38
298.984	76.38
299.214	84.38
299.445	90.38
299.675	80.38
299.905	69.38
300.136	82.38
300.366	77.38
300.597	89.38
300.827	85.38
301.057	68.38
301.288	82.38
301.518	76.38
301.748	77.38
301.979	87.38
302.209	85.38
302.439	81.38
302.669	79.38
302.9	87.38
303.13	75.38
303.36	89.38
303.59	66.38
303.82	88.38
304.051	91.38
304.281	77.38
304.511	92.38
304.741	80.38
304.971	73.38
305.201	83.38
305.431	78.38
305.661	71.38
305.891	92.38
306.121	80.38
306.352	81.38
306.582	86.38
306.812	87.38
307.042	63.38
307.272	80.38
307.502	85.38
307.731	85.38
307.961	77.38
308.191	90.38
308.421	83.38
308.651	90.38
308.881	98.38
309.111	84.38
309.341	92.38
309.571	78.38
309.8	91.38
310.03	85.38
310.26	85.38
310.49	89.38
310.72	88.38
310.949	61.38
311.179	74.38
311.409	84.38
311.639	91.38
311.868	81.38
312.098	92.38
312.328	77.38
312.557	88.38
312.787	78.38
313.017	89.38
313.246	71.38
313.476	76.38
313.706	84.38
313.935	85.38
314.165	84.38
314.394	91.38
314.624	82.38
314.853	77.38
315.083	76.38
315.312	88.38
315.542	86.38
315.771	81.38
316.001	92.38
316.23	65.38
316.46	83.38
316.689	75.38
316.919	76.38
317.148	81.38
317.377	69.38
317.607	76.38
317.836	75.38
318.065	80.38
318.295	85.38
318.524	97.38
318.753	77.38
318.983	76.38
319.212	78.38
319.441	77.38
319.67	89.38
319.9	90.38
320.129	78.38
320.358	80.38
320.587	81.38
320.816	77.38
321.046	80.38
321.275	88.38
321.504	63.38
321.733	82.38
321.962	87.38
322.191	84.38
322.42	81.38
322.649	71.38
322.878	79.38
323.108	94.38
323.337	84.38
323.566	92.38
323.795	82.38
324.024	89.38
324.253	94.38
324.482	86.38
324.71	76.38
324.939	93.38
325.168	87.38
325.397	74.38
325.626	98.38
325.855	88.38
326.084	76.38
326.313	95.38
326.542	94.38
326.77	84.38
326.999	74.38
327.228	82.38
327.457	86.38
327.686	81.38
327.914	86.38
328.143	69.38
328.372	89.38
328.6	70.38
328.829	75.38
329.058	80.38
329.287	83.38
329.515	69.38
329.744	89.38
329.972	85.38
330.201	80.38
330.43	84.38
330.658	67.38
330.887	79.38
331.115	65.38
331.344	76.38
331.572	84.38
331.801	77.38
332.03	91.38
332.258	89.38
332.486	88.38
332.715	81.38
332.943	109.38
333.172	87.38
333.4	81.38
333.629	82.38
333.857	79.38
334.085	88.38
334.314	76.38
334.542	82.38
334.771	72.38
334.999	73.38
335.227	88.38
335.455	98.38
335.684	84.38
335.912	69.38
336.14	80.38
336.369	84.38
336.597	89.38
336.825	86.38
337.053	81.38
337.281	87.38
337.51	95.38
337.738	72.38
337.966	77.38
338.194	81.38
338.422	82.38
338.65	72.38
338.878	72.38
339.106	85.38
339.334	76.38
339.562	75.38
339.79	82.38
340.018	87.38
340.246	98.38
340.474	81.38
340.702	80.38
340.93	86.38
341.158	77.38
341.386	76.38
341.614	82.38
341.842	73.38
342.07	77.38
342.298	91.38
342.526	75.38
342.754	88.38
342.981	72.38
343.209	92.38
343.437	89.38
343.665	79.38
343.893	84.38
344.12	79.38
344.348	85.38
344.576	77.38
344.804	80.38
345.031	86.38
345.259	90.38
345.487	84.38
345.714	86.38
345.942	85.38
346.17	87.38
346.397	87.38
346.625	87.38
346.853	75.38
347.08	94.38
347.308	91.38
347.535	71.38
347.763	77.38
347.99	81.38
348.218	81.38
348.445	78.38
348.673	75.38
348.9	75.38
349.128	95.38
349.355	79.38
349.583	93.38
349.81	74.38
350.037	69.38
350.265	74.38
350.492	84.38
350.72	81.38
350.947	80.38
351.174	85.38
351.402	106.38
351.629	88.38
351.856	81.38
352.083	80.38
352.311	71.38
352.538	85.38
352.765	71.38
352.992	93.38
353.22	87.38
353.447	80.38
353.674	86.38
353.901	73.38
354.128	84.38
354.355	87.38
354.583	85.38
354.81	78.38
355.037	81.38
355.264	68.38
355.491	100.38
355.718	79.38
355.945	76.38
356.172	83.38
356.399	76.38
356.626	93.38
356.853	90.38
357.08	88.38
357.307	95.38
357.534	84.38
357.761	90.38
357.988	74.38
358.215	81.38
358.441	88.38
358.668	89.38
358.895	82.38
359.122	90.38
359.349	84.38
359.576	77.38
359.802	78.38
360.029	80.38
360.256	89.38
360.483	82.38
360.709	84.38
360.936	98.38
361.163	77.38
361.39	98.38
361.616	88.38
361.843	86.38
362.07	83.38
362.296	88.38
362.523	79.38
362.749	83.38
362.976	83.38
363.203	80.38
363.429	77.38
363.656	90.38
363.882	81.38
364.109	97.38
364.335	84.38
364.562	81.38
364.788	93.38
365.015	77.38
365.241	69.38
365.468	88.38
365.694	82.38
365.92	70.38
366.147	82.38
366.373	86.38
366.599	76.38
366.826	83.38
367.052	87.38
367.278	74.38
367.505	75.38
367.731	91.38
367.957	89.38
368.184	77.38
368.41	82.38
368.636	95.38
368.862	82.38
369.089	73.38
369.315	84.38
369.541	87.38
369.767	86.38
369.993	99.38
370.219	90.38
370.445	91.38
370.672	83.38
370.898	76.38
371.124	82.38
371.35	91.38
371.576	84.38
371.802	75.38
372.028	84.38
372.254	82.38
372.48	88.38
372.706	96.38
372.932	86.38
373.158	87.38
373.384	99.38
373.61	85.38
373.835	89.38
374.061	88.38
374.287	71.38
374.513	83.38
374.739	82.38
374.965	87.38
375.191	86.38
375.416	80.38
375.642	87.38
375.868	88.38
376.094	94.38
376.319	90.38
376.545	79.38
376.771	79.38
376.997	85.38
377.222	99.38
377.448	110.38
377.674	81.38
377.899	72.38
378.125	85.38
378.35	90.38
378.576	75.38
378.802	76.38
379.027	71.38
379.253	87.38
379.478	75.38
379.704	85.38
379.929	88.38
380.155	84.38
380.38	97.38
380.606	79.38
380.831	86.38
381.057	87.38
381.282	83.38
381.507	110.38
381.733	85.38
381.958	80.38
382.184	75.38
382.409	79.38
382.634	76.38
382.86	86.38
383.085	82.38
383.31	92.38
383.535	90.38
383.761	87.38
383.986	78.38
384.211	93.38
384.436	77.38
384.662	88.38
384.887	88.38
385.112	92.38
385.337	76.38
385.562	85.38
385.787	94.38
386.013	100.38
386.238	93.38
386.463	96.38
386.688	80.38
386.913	90.38
387.138	84.38
387.363	89.38
387.588	98.38
387.813	97.38
388.038	85.38
388.263	100.38
388.488	84.38
388.713	87.38
388.938	92.38
389.163	90.38
389.387	95.38
389.612	85.38
389.837	98.38
390.062	97.38
390.287	71.38
390.512	89.38
390.736	95.38
390.961	93.38
391.186	91.38
391.411	81.38
391.636	89.38
391.86	91.38
392.085	91.38
392.31	83.38
392.534	88.38
392.759	92.38
392.984	94.38
393.208	83.38
393.433	102.38
393.658	94.38
393.882	83.38
394.107	87.38
394.331	97.38
394.556	99.38
394.78	82.38
395.005	93.38
395.229	92.38
395.454	100.38
395.678	87.38
395.903	90.38
396.127	86.38
396.352	96.38
396.576	84.38
396.801	72.38
397.025	92.38
397.249	84.38
397.474	97.38
397.698	85.38
397.922	84.38
398.147	96.38
398.371	87.38
398.595	99.38
398.82	90.38
399.044	90.38
399.268	83.38
399.492	97.38
399.717	92.38
399.941	90.38
400.165	85.38
400.389	82.38
400.613	92.38
400.837	99.38
401.062	95.38
401.286	90.38
401.51	94.38
401.734	94.38
401.958	86.38
402.182	89.38
402.406	99.38
402.63	97.38
402.854	100.38
403.078	110.38
403.302	103.38
403.526	89.38
403.75	95.38
403.974	97.38
404.198	102.38
404.422	94.38
404.645	105.38
404.869	93.38
405.093	93.38
405.317	93.38
405.541	92.38
405.765	94.38
405.988	81.38
406.212	111.38
406.436	90.38
406.66	92.38
406.883	93.38
407.107	90.38
407.331	95.38
407.555	101.38
407.778	108.38
408.002	103.38
408.226	110.38
408.449	99.38
408.673	90.38
408.896	90.38
409.12	102.38
409.344	111.38
409.567	85.38
409.791	85.38
410.014	101.38
410.238	90.38
410.461	117.38
410.685	104.38
410.908	85.38
411.132	90.38
411.355	99.38
411.578	94.38
411.802	90.38
412.025	92.38
412.249	83.38
412.472	89.38
412.695	96.38
412.919	93.38
413.142	100.38
413.365	109.38
413.589	93.38
413.812	84.38
414.035	104.38
414.258	91.38
414.482	83.38
414.705	97.38
414.928	96.38
415.151	89.38
415.374	97.38
415.597	92.38
415.821	102.38
416.044	100.38
416.267	92.38
416.49	90.38
416.713	99.38
416.936	107.38
417.159	100.38
417.382	103.38
417.605	102.38
417.828	108.38
418.051	109.38
418.274	107.38
418.497	117.38
418.72	87.38
418.943	100.38
419.166	98.38
419.389	101.38
419.611	121.38
419.834	96.38
420.057	93.38
420.28	103.38
420.503	111.38
420.726	121.38
420.948	106.38
421.171	97.38
421.394	102.38
421.617	102.38
421.839	94.38
422.062	112.38
422.285	97.38
422.507	119.38
422.73	104.38
422.953	116.38
423.175	109.38
423.398	114.38
423.621	99.38
423.843	101.38
424.066	119.38
424.288	111.38
424.511	117.38
424.733	127.38
424.956	109.38
425.178	99.38
425.401	100.38
425.623	100.38
425.846	103.38
426.068	91.38
426.291	105.38
426.513	100.38
426.735	116.38
426.958	106.38
427.18	110.38
427.402	100.38
427.625	100.38
427.847	98.38
428.069	112.38
428.292	99.38
428.514	107.38
428.736	101.38
428.958	100.38
429.181	101.38
429.403	117.38
429.625	102.38
429.847	108.38
430.069	99.38
430.292	96.38
430.514	108.38
430.736	99.38
430.958	99.38
431.18	94.38
431.402	98.38
431.624	98.38
431.846	88.38
432.068	85.38
432.29	90.38
432.512	81.38
432.734	104.38
432.956	91.38
433.178	105.38
433.4	110.38
433.622	112.38
433.844	95.38
434.066	100.38
434.287	85.38
434.509	93.38
434.731	89.38
434.953	83.38
435.175	86.38
435.397	111.38
435.618	111.38
435.84	105.38
436.062	95.38
436.284	101.38
436.505	101.38
436.727	88.38
436.949	115.38
437.17	107.38
437.392	106.38
437.614	104.38
437.835	85.38
438.057	97.38
438.278	83.38
438.5	101.38
438.721	112.38
438.943	105.38
439.165	101.38
439.386	97.38
439.608	107.38
439.829	106.38
440.05	125.38
440.272	95.38
440.493	109.38
440.715	111.38
440.936	108.38
441.158	111.38
441.379	108.38
441.6	113.38
441.822	115.38
442.043	100.38
442.264	111.38
442.486	109.38
442.707	117.38
442.928	110.38
443.149	103.38
443.371	113.38
443.592	124.38
443.813	124.38
444.034	106.38
444.255	115.38
444.476	119.38
444.698	100.38
444.919	114.38
445.14	244.38
445.361	184.38
445.582	101.38
445.803	87.38
446.024	114.38
446.245	115.38
446.466	104.38
446.687	122.38
446.908	121.38
447.129	117.38
447.35	111.38
447.571	110.38
447.792	105.38
448.013	103.38
448.234	128.38
448.455	116.38
448.675	99.38
448.896	116.38
449.117	122.38
449.338	106.38
449.559	113.38
449.779	95.38
450	95.38
450.221	111.38
450.442	111.38
450.662	121.38
450.883	99.38
451.104	95.38
451.324	91.38
451.545	92.38
451.766	94.38
451.986	107.38
452.207	96.38
452.428	98.38
452.648	105.38
452.869	102.38
453.089	111.38
453.31	86.38
453.53	88.38
453.751	84.38
453.971	89.38
454.192	95.38
454.412	96.38
454.633	100.38
454.853	103.38
455.073	111.38
455.294	103.38
455.514	113.38
455.734	115.38
455.955	103.38
456.175	98.38
456.395	90.38
456.616	89.38
456.836	89.38
457.056	83.38
457.276	99.38
457.497	93.38
457.717	78.38
457.937	84.38
458.157	103.38
458.377	97.38
458.598	96.38
458.818	85.38
459.038	81.38
459.258	83.38
459.478	95.38
459.698	86.38
459.918	89.38
460.138	85.38
460.358	89.38
460.578	90.38
460.798	88.38
461.018	103.38
461.238	100.38
461.458	91.38
461.678	93.38
461.898	88.38
462.118	92.38
462.338	103.38
462.558	94.38
462.777	79.38
462.997	85.38
463.217	92.38
463.437	84.38
463.657	98.38
463.876	83.38
464.096	101.38
464.316	93.38
464.536	101.38
464.755	111.38
464.975	103.38
465.195	94.38
465.414	90.38
465.634	99.38
465.854	83.38
466.073	99.38
466.293	105.38
466.512	113.38
466.732	107.38
466.951	96.38
467.171	108.38
467.391	105.38
467.61	117.38
467.829	106.38
468.049	107.38
468.268	102.38
468.488	120.38
468.707	104.38
468.927	103.38
469.146	121.38
469.365	104.38
469.585	121.38
469.804	115.38
470.023	119.38
470.243	112.38
470.462	123.38
470.681	115.38
470.901	102.38
471.12	96.38
471.339	101.38
471.558	108.38
471.777	108.38
471.997	103.38
472.216	101.38
472.435	83.38
472.654	87.38
472.873	97.38
473.092	89.38
473.311	93.38
473.53	102.38
473.749	106.38
473.968	110.38
474.187	99.38
474.406	98.38
474.625	108.38
474.844	99.38
475.063	91.38
475.282	105.38
475.501	105.38
475.72	106.38
475.939	104.38
476.158	102.38
476.377	118.38
476.596	103.38
476.814	88.38
477.033	92.38
477.252	102.38
477.471	94.38
477.69	113.38
477.908	117.38
478.127	115.38
478.346	101.38
478.564	111.38
478.783	105.38
479.002	107.38
479.22	111.38
479.439	104.38
479.658	99.38
479.876	108.38
480.095	109.38
480.313	104.38
480.532	87.38
480.751	87.38
480.969	83.38
481.188	85.38
481.406	82.38
481.624	87.38
481.843	89.38
482.061	83.38
482.28	109.38
482.498	102.38
482.717	96.38
482.935	102.38
483.153	102.38
483.372	122.38
483.59	115.38
483.808	126.38
484.027	98.38
484.245	101.38
484.463	104.38
484.681	111.38
484.9	117.38
485.118	119.38
485.336	108.38
485.554	85.38
485.772	88.38
485.99	92.38
486.209	90.38
486.427	90.38
486.645	108.38
486.863	105.38
487.081	102.38
487.299	106.38
487.517	115.38
487.735	124.38
487.953	126.38
488.171	129.38
488.389	129.38
488.607	128.38
488.825	96.38
489.043	99.38
489.261	113.38
489.479	97.38
489.696	119.38
489.914	121.38
490.132	106.38
490.35	111.38
490.568	118.38
490.786	111.38
491.003	131.38
491.221	136.38
491.439	113.38
491.657	135.38
491.874	151.38
492.092	150.38
492.31	152.38
492.527	134.38
492.745	140.38
492.963	131.38
493.18	139.38
493.398	144.38
493.615	135.38
493.833	123.38
494.05	119.38
494.268	130.38
494.485	125.38
494.703	133.38
494.92	128.38
495.138	122.38
495.355	134.38
495.573	137.38
495.79	129.38
496.008	139.38
496.225	118.38
496.442	121.38
496.66	134.38
496.877	108.38
497.094	128.38
497.312	123.38
497.529	116.38
497.746	99.38
497.963	106.38
498.181	112.38
498.398	102.38
498.615	98.38
498.832	93.38
499.049	118.38
499.267	109.38
499.484	102.38
499.701	121.38
499.918	94.38
500.135	101.38
500.352	104.38
500.569	107.38
500.786	111.38
501.003	108.38
501.22	106.38
501.437	99.38
501.654	108.38
501.871	117.38
502.088	105.38
502.305	110.38
502.522	107.38
502.739	108.38
502.956	119.38
503.172	100.38
503.389	113.38
503.606	105.38
503.823	103.38
504.04	91.38
504.256	102.38
504.473	96.38
504.69	114.38
504.907	103.38
505.123	100.38
505.34	105.38
505.557	99.38
505.773	100.38
505.99	92.38
506.207	99.38
506.423	100.38
506.64	103.38
506.856	85.38
507.073	92.38
507.289	97.38
507.506	113.38
507.722	104.38
507.939	100.38
508.155	94.38
508.372	96.38
508.588	91.38
508.805	98.38
509.021	85.38
509.238	113.38
509.454	91.38
509.67	82.38
509.887	88.38
510.103	92.38
510.319	95.38
510.536	91.38
510.752	94.38
510.968	79.38
511.184	88.38
511.401	82.38
511.617	85.38
511.833	72.38
512.049	88.38
512.265	104.38
512.481	104.38
512.698	98.38
512.914	84.38
513.13	82.38
513.346	95.38
513.562	89.38
513.778	98.38
513.994	92.38
514.21	86.38
514.426	85.38
514.642	90.38
514.858	91.38
515.074	84.38
515.29	78.38
515.506	93.38
515.721	86.38
515.937	91.38
516.153	75.38
516.369	66.38
516.585	82.38
516.801	84.38
517.016	83.38
517.232	101.38
517.448	91.38
517.664	83.38
517.879	83.38
518.095	93.38
518.311	85.38
518.527	74.38
518.742	74.38
518.958	95.38
519.173	104.38
519.389	101.38
519.605	83.38
519.82	93.38
520.036	102.38
520.251	92.38
520.467	86.38
520.682	103.38
520.898	81.38
521.113	76.38
521.329	105.38
521.544	102.38
521.76	108.38
521.975	91.38
522.19	105.38
522.406	96.38
522.621	85.38
522.836	91.38
523.052	101.38
523.267	101.38
523.482	100.38
523.698	85.38
523.913	85.38
524.128	97.38
524.343	103.38
524.559	100.38
524.774	115.38
524.989	108.38
525.204	100.38
525.419	105.38
525.634	95.38
525.849	82.38
526.064	92.38
526.28	92.38
526.495	92.38
526.71	95.38
526.925	75.38
527.14	86.38
527.355	80.38
527.57	83.38
527.785	74.38
527.999	77.38
528.214	85.38
528.429	93.38
528.644	89.38
528.859	108.38
529.074	112.38
529.289	107.38
529.503	139.38
529.718	109.38
529.933	100.38
530.148	80.38
530.363	88.38
530.577	102.38
530.792	86.38
531.007	84.38
531.221	90.38
531.436	78.38
531.651	79.38
531.865	91.38
532.08	96.38
532.295	89.38
532.509	86.38
532.724	81.38
532.938	83.38
533.153	91.38
533.367	84.38
533.582	104.38
533.796	101.38
534.011	108.38
534.225	93.38
534.44	88.38
534.654	84.38
534.868	88.38
535.083	100.38
535.297	94.38
535.511	100.38
535.726	96.38
535.94	81.38
536.154	89.38
536.369	85.38
536.583	89.38
536.797	92.38
537.011	87.38
537.225	92.38
537.44	83.38
537.654	95.38
537.868	91.38
538.082	73.38
538.296	73.38
538.51	85.38
538.724	102.38
538.938	111.38
539.153	104.38
539.367	122.38
539.581	90.38
539.795	105.38
540.009	99.38
540.222	94.38
540.436	84.38
540.65	107.38
540.864	115.38
541.078	119.38
541.292	127.38
541.506	109.38
541.72	109.38
541.934	132.38
542.147	140.38
542.361	132.38
542.575	129.38
542.789	131.38
543.002	117.38
543.216	123.38
543.43	102.38
543.644	100.38
543.857	111.38
544.071	111.38
544.285	108.38
544.498	113.38
544.712	104.38
544.925	121.38
545.139	113.38
545.352	121.38
545.566	135.38
545.779	120.38
545.993	109.38
546.206	128.38
546.42	143.38
546.633	134.38
546.847	121.38
547.06	120.38
547.274	127.38
547.487	120.38
547.7	125.38
547.914	118.38
548.127	117.38
548.34	116.38
548.554	114.38
548.767	120.38
548.98	117.38
549.193	121.38
549.407	118.38
549.62	115.38
549.833	106.38
550.046	122.38
550.259	131.38
550.473	129.38
550.686	125.38
550.899	117.38
551.112	116.38
551.325	105.38
551.538	108.38
551.751	114.38
551.964	103.38
552.177	103.38
552.39	97.38
552.603	108.38
552.816	125.38
553.029	125.38
553.242	120.38
553.455	116.38
553.667	123.38
553.88	117.38
554.093	125.38
554.306	117.38
554.519	107.38
554.732	105.38
554.944	112.38
555.157	99.38
555.37	109.38
555.583	124.38
555.795	125.38
556.008	109.38
556.221	105.38
556.433	111.38
556.646	115.38
556.859	97.38
557.071	117.38
557.284	117.38
557.496	129.38
557.709	119.38
557.921	120.38
558.134	97.38
558.346	115.38
558.559	120.38
558.771	124.38
558.984	116.38
559.196	118.38
559.409	113.38
559.621	104.38
559.833	99.38
560.046	92.38
560.258	104.38
560.47	99.38
560.683	125.38
560.895	106.38
561.107	126.38
561.32	107.38
561.532	100.38
561.744	106.38
561.956	108.38
562.168	102.38
562.381	95.38
562.593	107.38
562.805	101.38
563.017	100.38
563.229	93.38
563.441	98.38
563.653	111.38
563.865	113.38
564.077	99.38
564.289	102.38
564.501	91.38
564.713	100.38
564.925	117.38
565.137	100.38
565.349	103.38
565.561	102.38
565.773	101.38
565.985	100.38
566.197	84.38
566.408	113.38
566.62	112.38
566.832	88.38
567.044	106.38
567.255	97.38
567.467	104.38
567.679	102.38
567.891	103.38
568.102	108.38
568.314	77.38
568.526	76.38
568.737	73.38
568.949	76.38
569.161	85.38
569.372	77.38
569.584	86.38
569.795	86.38
570.007	71.38
570.218	83.38
570.43	91.38
570.641	91.38
570.853	79.38
571.064	92.38
571.276	84.38
571.487	108.38
571.698	108.38
571.91	103.38
572.121	101.38
572.333	89.38
572.544	88.38
572.755	73.38
572.966	71.38
573.178	84.38
573.389	89.38
573.6	70.38
573.811	84.38
574.023	85.38
574.234	99.38
574.445	87.38
574.656	81.38
574.867	104.38
575.078	94.38
575.289	76.38
575.501	97.38
575.712	100.38
575.923	73.38
576.134	89.38
576.345	80.38
576.556	92.38
576.767	95.38
576.978	96.38
577.188	97.38
577.399	93.38
577.61	89.38
577.821	71.38
578.032	88.38
578.243	88.38
578.454	90.38
578.665	81.38
578.875	78.38
579.086	72.38
579.297	89.38
579.508	83.38
579.718	80.38
579.929	76.38
580.14	81.38
580.35	78.38
580.561	90.38
580.772	91.38
580.982	86.38
581.193	91.38
581.403	92.38
581.614	106.38
581.825	91.38
582.035	83.38
582.246	105.38
582.456	88.38
582.667	79.38
582.877	85.38
583.087	82.38
583.298	103.38
583.508	95.38
583.719	84.38
583.929	87.38
584.139	97.38
584.35	81.38
584.56	98.38
584.77	83.38
584.981	82.38
585.191	84.38
585.401	89.38
585.611	87.38
585.821	76.38
586.032	92.38
586.242	90.38
586.452	92.38
586.662	94.38
586.872	81.38
587.082	81.38
587.292	92.38
587.502	103.38
587.713	85.38
587.923	76.38
588.133	85.38
588.343	80.38
588.553	86.38
588.762	99.38
588.972	77.38
589.182	73.38
589.392	83.38
589.602	82.38
589.812	82.38
590.022	97.38
590.232	88.38
590.441	95.38
590.651	82.38
590.861	76.38
591.071	79.38
591.281	99.38
591.49	67.38
591.7	85.38
591.91	95.38
592.119	74.38
592.329	76.38
592.539	91.38
592.748	91.38
592.958	86.38
593.167	72.38
593.377	83.38
593.587	72.38
593.796	80.38
594.006	84.38
594.215	88.38
594.424	83.38
594.634	82.38
594.843	82.38
595.053	92.38
595.262	93.38
595.472	92.38
595.681	80.38
595.89	95.38
596.1	95.38
596.309	85.38
596.518	82.38
596.727	84.38
596.937	90.38
597.146	91.38
597.355	92.38
597.564	75.38
597.774	85.38
597.983	104.38
598.192	104.38
598.401	80.38
598.61	84.38
598.819	89.38
599.028	96.38
599.237	93.38
599.446	95.38
599.655	96.38
599.864	86.38
600.073	88.38
600.282	105.38
600.491	93.38
600.7	86.38
600.909	82.38
601.118	95.38
601.327	95.38
601.536	92.38
601.745	85.38
601.953	98.38
602.162	93.38
602.371	91.38
602.58	108.38
602.789	91.38
602.997	101.38
603.206	113.38
603.415	95.38
603.623	96.38
603.832	103.38
604.041	88.38
604.249	75.38
604.458	89.38
604.666	81.38
604.875	104.38
605.084	87.38
605.292	91.38
605.501	80.38
605.709	82.38
605.918	113.38
606.126	100.38
606.334	96.38
606.543	106.38
606.751	102.38
606.96	100.38
607.168	92.38
607.376	89.38
607.585	98.38
607.793	89.38
608.001	98.38
608.21	88.38
608.418	96.38
608.626	84.38
608.834	94.38
609.043	96.38
609.251	97.38
609.459	96.38
609.667	89.38
609.875	100.38
610.083	95.38
610.291	113.38
610.499	96.38
610.707	96.38
610.916	110.38
611.124	103.38
611.332	96.38
611.54	100.38
611.748	103.38
611.955	100.38
612.163	103.38
612.371	90.38
612.579	107.38
612.787	94.38
612.995	87.38
613.203	104.38
613.411	105.38
613.618	112.38
613.826	101.38
614.034	94.38
614.242	93.38
614.449	87.38
614.657	113.38
614.865	102.38
615.072	85.38
615.28	101.38
615.488	90.38
615.695	98.38
615.903	98.38
616.111	100.38
616.318	104.38
616.526	98.38
616.733	105.38
616.941	88.38
617.148	78.38
617.356	92.38
617.563	84.38
617.771	99.38
617.978	109.38
618.185	78.38
618.393	105.38
618.6	96.38
618.807	96.38
619.015	107.38
619.222	87.38
619.429	103.38
619.637	95.38
619.844	91.38
620.051	99.38
620.258	92.38
620.466	87.38
620.673	95.38
620.88	85.38
621.087	93.38
621.294	105.38
621.501	94.38
621.708	98.38
621.915	88.38
622.122	111.38
622.329	100.38
622.536	106.38
622.743	97.38
622.95	97.38
623.157	100.38
623.364	91.38
623.571	103.38
623.778	101.38
623.985	104.38
624.192	92.38
624.399	100.38
624.606	106.38
624.812	96.38
625.019	75.38
625.226	94.38
625.433	89.38
625.639	84.38
625.846	94.38
626.053	95.38
626.259	90.38
626.466	92.38
626.673	91.38
626.879	85.38
627.086	89.38
627.293	100.38
627.499	102.38
627.706	91.38
627.912	107.38
628.119	85.38
628.325	91.38
628.532	93.38
628.738	83.38
628.945	82.38
629.151	108.38
629.357	92.38
629.564	88.38
629.77	91.38
629.976	93.38
630.183	82.38
630.389	78.38
630.595	72.38
630.802	77.38
631.008	95.38
631.214	100.38
631.42	90.38
631.627	70.38
631.833	91.38
632.039	107.38
632.245	106.38
632.451	97.38
632.657	94.38
632.863	86.38
633.069	93.38
633.275	92.38
633.481	78.38
633.688	97.38
633.893	97.38
634.099	81.38
634.305	88.38
634.511	93.38
634.717	93.38
634.923	87.38
635.129	95.38
635.335	85.38
635.541	71.38
635.747	89.38
635.952	82.38
636.158	86.38
636.364	86.38
636.57	75.38
636.775	75.38
636.981	83.38
637.187	91.38
637.392	86.38
637.598	95.38
637.804	99.38
638.009	100.38
638.215	89.38
638.421	81.38
638.626	85.38
638.832	89.38
639.037	86.38
639.243	71.38
639.448	89.38
639.654	83.38
639.859	93.38
640.065	96.38
640.27	103.38
640.475	95.38
640.681	85.38
640.886	90.38
641.091	83.38
641.297	82.38
641.502	89.38
641.707	87.38
641.913	91.38
642.118	88.38
642.323	104.38
642.528	101.38
642.733	89.38
642.939	95.38
643.144	95.38
643.349	80.38
643.554	91.38
643.759	93.38
643.964	101.38
644.169	79.38
644.374	85.38
644.579	89.38
644.784	84.38
644.989	94.38
645.194	102.38
645.399	97.38
645.604	82.38
645.809	87.38
646.014	106.38
646.219	89.38
646.423	87.38
646.628	92.38
646.833	82.38
647.038	98.38
647.243	79.38
647.447	90.38
647.652	92.38
647.857	89.38
648.062	102.38
648.266	92.38
648.471	93.38
648.676	85.38
648.88	83.38
649.085	82.38
649.289	76.38
649.494	98.38
649.698	85.38
649.903	84.38
650.107	72.38
650.312	74.38
650.516	79.38
650.721	94.38
650.925	103.38
651.13	93.38
651.334	97.38
651.539	87.38
651.743	86.38
651.947	98.38
652.152	91.38
652.356	95.38
652.56	93.38
652.764	88.38
652.969	81.38
653.173	90.38
653.377	78.38
653.581	98.38
653.785	80.38
653.99	90.38
654.194	89.38
654.398	80.38
654.602	84.38
654.806	96.38
655.01	84.38
655.214	96.38
655.418	90.38
655.622	83.38
655.826	84.38
656.03	93.38
656.234	90.38
656.438	82.38
656.642	86.38
656.846	74.38
657.049	83.38
657.253	80.38
657.457	78.38
657.661	86.38
657.865	84.38
658.068	82.38
658.272	71.38
658.476	79.38
658.68	90.38
658.883	84.38
659.087	90.38
659.291	76.38
659.494	90.38
659.698	80.38
659.901	88.38
660.105	78.38
660.309	85.38
660.512	76.38
660.716	91.38
660.919	75.38
661.123	84.38
661.326	82.38
661.53	92.38
661.733	85.38
661.936	84.38
662.14	89.38
662.343	91.38
662.546	87.38
662.75	85.38
662.953	75.38
663.156	77.38
663.36	56.38
663.563	74.38
663.766	84.38
663.969	83.38
664.173	97.38
664.376	87.38
664.579	80.38
664.782	81.38
664.985	82.38
665.188	81.38
665.391	88.38
665.594	77.38
665.797	75.38
666	81.38
666.203	82.38
666.406	76.38
666.609	75.38
666.812	65.38
667.015	83.38
667.218	83.38
667.421	83.38
667.624	83.38
667.827	93.38
668.03	89.38
668.232	73.38
668.435	80.38
668.638	85.38
668.841	86.38
669.043	79.38
669.246	80.38
669.449	81.38
669.651	79.38
669.854	77.38
670.057	84.38
670.259	74.38
670.462	78.38
670.665	76.38
670.867	73.38
671.07	86.38
671.272	79.38
671.475	83.38
671.677	94.38
671.88	83.38
672.082	98.38
672.284	83.38
672.487	85.38
672.689	81.38
672.892	88.38
