Data from Zn(NO3)2Standard.Agarose3%.GreenCap.LampEnergy10E.O_HRD10591_15-06-22-942.txt Node
Date: Mon Jul 22 15:06:22 EDT 2019
User: cochatt
Spectrometer: HR+D1059
Trigger mode: 1
Integration Time (sec): 1.000000E-1
Scans to average: 1
Electric dark correction enabled: true
Nonlinearity correction enabled: false
Boxcar width: 0
XAxis mode: Wavelengths
Number of Pixels in Spectrum: 2048
>>>>>Begin Spectral Data<<<<<
223.165	-35.31
223.4	-35.31
223.635	-35.31
223.869	-10.31
224.104	-24.31
224.338	-13.31
224.573	-15.31
224.808	-3.31
225.042	-2.31
225.277	-8.31
225.511	-5.31
225.746	7.69
225.98	2.69
226.215	11.69
226.449	16.69
226.683	14.69
226.918	27.69
227.152	36.69
227.387	18.69
227.621	22.69
227.856	20.69
228.09	38.69
228.324	44.69
228.559	43.69
228.793	52.69
229.027	60.69
229.262	52.69
229.496	75.69
229.73	86.69
229.964	68.69
230.199	71.69
230.433	94.69
230.667	78.69
230.901	76.69
231.136	85.69
231.37	70.69
231.604	68.69
231.838	79.69
232.072	76.69
232.306	82.69
232.541	83.69
232.775	75.69
233.009	69.69
233.243	88.69
233.477	83.69
233.711	90.69
233.945	94.69
234.179	86.69
234.413	88.69
234.647	89.69
234.881	76.69
235.115	71.69
235.349	80.69
235.583	79.69
235.817	70.69
236.051	75.69
236.285	72.69
236.519	73.69
236.753	70.69
236.987	97.69
237.221	80.69
237.455	83.69
237.689	65.69
237.922	63.69
238.156	80.69
238.39	71.69
238.624	70.69
238.858	86.69
239.091	61.69
239.325	76.69
239.559	79.69
239.793	76.69
240.027	75.69
240.26	79.69
240.494	76.69
240.728	77.69
240.961	58.69
241.195	66.69
241.429	79.69
241.662	63.69
241.896	74.69
242.13	62.69
242.363	69.69
242.597	77.69
242.83	83.69
243.064	72.69
243.298	61.69
243.531	73.69
243.765	83.69
243.998	94.69
244.232	85.69
244.465	82.69
244.699	78.69
244.932	83.69
245.166	81.69
245.399	91.69
245.633	67.69
245.866	91.69
246.099	78.69
246.333	71.69
246.566	77.69
246.8	68.69
247.033	83.69
247.266	82.69
247.5	74.69
247.733	75.69
247.966	69.69
248.2	74.69
248.433	87.69
248.666	64.69
248.899	81.69
249.133	65.69
249.366	84.69
249.599	67.69
249.832	74.69
250.066	70.69
250.299	67.69
250.532	81.69
250.765	72.69
250.998	66.69
251.231	74.69
251.465	84.69
251.698	92.69
251.931	82.69
252.164	70.69
252.397	70.69
252.63	80.69
252.863	88.69
253.096	73.69
253.329	85.69
253.562	73.69
253.795	80.69
254.028	72.69
254.261	71.69
254.494	71.69
254.727	80.69
254.96	78.69
255.193	74.69
255.426	70.69
255.659	73.69
255.892	97.69
256.124	83.69
256.357	67.69
256.59	81.69
256.823	62.69
257.056	80.69
257.289	76.69
257.521	75.69
257.754	79.69
257.987	78.69
258.22	82.69
258.452	74.69
258.685	78.69
258.918	71.69
259.151	75.69
259.383	72.69
259.616	75.69
259.849	81.69
260.081	81.69
260.314	76.69
260.547	86.69
260.779	83.69
261.012	81.69
261.244	82.69
261.477	79.69
261.71	82.69
261.942	81.69
262.175	94.69
262.407	76.69
262.64	63.69
262.872	76.69
263.105	74.69
263.337	73.69
263.57	87.69
263.802	75.69
264.035	82.69
264.267	83.69
264.499	80.69
264.732	90.69
264.964	93.69
265.197	66.69
265.429	82.69
265.661	79.69
265.894	64.69
266.126	83.69
266.358	80.69
266.591	84.69
266.823	81.69
267.055	67.69
267.287	74.69
267.52	76.69
267.752	86.69
267.984	71.69
268.216	75.69
268.448	76.69
268.681	72.69
268.913	77.69
269.145	76.69
269.377	97.69
269.609	87.69
269.841	97.69
270.073	81.69
270.306	85.69
270.538	76.69
270.77	84.69
271.002	63.69
271.234	69.69
271.466	72.69
271.698	86.69
271.93	76.69
272.162	84.69
272.394	89.69
272.626	83.69
272.858	89.69
273.09	90.69
273.322	77.69
273.553	87.69
273.785	72.69
274.017	84.69
274.249	76.69
274.481	66.69
274.713	85.69
274.945	86.69
275.176	79.69
275.408	89.69
275.64	82.69
275.872	86.69
276.104	74.69
276.335	81.69
276.567	73.69
276.799	83.69
277.031	79.69
277.262	78.69
277.494	89.69
277.726	85.69
277.957	87.69
278.189	89.69
278.421	94.69
278.652	91.69
278.884	88.69
279.115	82.69
279.347	86.69
279.579	80.69
279.81	79.69
280.042	80.69
280.273	77.69
280.505	74.69
280.736	81.69
280.968	88.69
281.199	87.69
281.431	70.69
281.662	80.69
281.894	87.69
282.125	91.69
282.356	89.69
282.588	81.69
282.819	79.69
283.051	80.69
283.282	86.69
283.513	79.69
283.745	87.69
283.976	76.69
284.207	86.69
284.439	84.69
284.67	84.69
284.901	104.69
285.132	90.69
285.364	91.69
285.595	67.69
285.826	100.69
286.057	81.69
286.288	84.69
286.52	75.69
286.751	84.69
286.982	79.69
287.213	72.69
287.444	80.69
287.675	80.69
287.906	87.69
288.138	78.69
288.369	80.69
288.6	73.69
288.831	76.69
289.062	89.69
289.293	90.69
289.524	87.69
289.755	79.69
289.986	79.69
290.217	75.69
290.448	75.69
290.679	82.69
290.91	71.69
291.141	91.69
291.371	90.69
291.602	83.69
291.833	72.69
292.064	85.69
292.295	72.69
292.526	87.69
292.757	88.69
292.987	76.69
293.218	75.69
293.449	69.69
293.68	89.69
293.91	76.69
294.141	77.69
294.372	87.69
294.603	85.69
294.833	78.69
295.064	79.69
295.295	87.69
295.525	82.69
295.756	88.69
295.987	89.69
296.217	97.69
296.448	92.69
296.679	78.69
296.909	90.69
297.14	87.69
297.37	79.69
297.601	83.69
297.831	84.69
298.062	83.69
298.292	72.69
298.523	83.69
298.753	89.69
298.984	74.69
299.214	77.69
299.445	90.69
299.675	72.69
299.905	78.69
300.136	89.69
300.366	78.69
300.597	84.69
300.827	78.69
301.057	80.69
301.288	82.69
301.518	76.69
301.748	78.69
301.979	82.69
302.209	82.69
302.439	81.69
302.669	83.69
302.9	76.69
303.13	75.69
303.36	91.69
303.59	79.69
303.82	80.69
304.051	88.69
304.281	79.69
304.511	84.69
304.741	70.69
304.971	86.69
305.201	101.69
305.431	96.69
305.661	68.69
305.891	80.69
306.121	84.69
306.352	83.69
306.582	88.69
306.812	89.69
307.042	92.69
307.272	85.69
307.502	82.69
307.731	83.69
307.961	100.69
308.191	89.69
308.421	98.69
308.651	77.69
308.881	95.69
309.111	96.69
309.341	92.69
309.571	80.69
309.8	94.69
310.03	84.69
310.26	81.69
310.49	87.69
310.72	78.69
310.949	91.69
311.179	75.69
311.409	86.69
311.639	91.69
311.868	78.69
312.098	80.69
312.328	83.69
312.557	84.69
312.787	86.69
313.017	80.69
313.246	79.69
313.476	79.69
313.706	86.69
313.935	74.69
314.165	75.69
314.394	80.69
314.624	82.69
314.853	87.69
315.083	90.69
315.312	78.69
315.542	88.69
315.771	87.69
316.001	87.69
316.23	96.69
316.46	82.69
316.689	78.69
316.919	88.69
317.148	89.69
317.377	73.69
317.607	81.69
317.836	79.69
318.065	79.69
318.295	84.69
318.524	66.69
318.753	89.69
318.983	79.69
319.212	88.69
319.441	82.69
319.67	76.69
319.9	84.69
320.129	96.69
320.358	87.69
320.587	96.69
320.816	85.69
321.046	79.69
321.275	85.69
321.504	91.69
321.733	76.69
321.962	80.69
322.191	87.69
322.42	91.69
322.649	72.69
322.878	83.69
323.108	89.69
323.337	80.69
323.566	83.69
323.795	90.69
324.024	80.69
324.253	84.69
324.482	94.69
324.71	87.69
324.939	76.69
325.168	90.69
325.397	89.69
325.626	80.69
325.855	70.69
326.084	82.69
326.313	81.69
326.542	71.69
326.77	87.69
326.999	87.69
327.228	84.69
327.457	90.69
327.686	90.69
327.914	89.69
328.143	92.69
328.372	97.69
328.6	97.69
328.829	83.69
329.058	71.69
329.287	79.69
329.515	78.69
329.744	81.69
329.972	90.69
330.201	84.69
330.43	82.69
330.658	81.69
330.887	75.69
331.115	77.69
331.344	91.69
331.572	89.69
331.801	79.69
332.03	73.69
332.258	78.69
332.486	83.69
332.715	76.69
332.943	84.69
333.172	85.69
333.4	97.69
333.629	89.69
333.857	87.69
334.085	83.69
334.314	73.69
334.542	87.69
334.771	71.69
334.999	91.69
335.227	83.69
335.455	88.69
335.684	93.69
335.912	77.69
336.14	79.69
336.369	87.69
336.597	85.69
336.825	64.69
337.053	80.69
337.281	87.69
337.51	72.69
337.738	74.69
337.966	77.69
338.194	82.69
338.422	76.69
338.65	76.69
338.878	87.69
339.106	79.69
339.334	87.69
339.562	80.69
339.79	96.69
340.018	80.69
340.246	92.69
340.474	85.69
340.702	84.69
340.93	60.69
341.158	87.69
341.386	90.69
341.614	78.69
341.842	92.69
342.07	92.69
342.298	74.69
342.526	85.69
342.754	77.69
342.981	81.69
343.209	84.69
343.437	86.69
343.665	74.69
343.893	86.69
344.12	91.69
344.348	75.69
344.576	77.69
344.804	94.69
345.031	72.69
345.259	82.69
345.487	84.69
345.714	91.69
345.942	83.69
346.17	95.69
346.397	71.69
346.625	79.69
346.853	77.69
347.08	88.69
347.308	94.69
347.535	74.69
347.763	89.69
347.99	78.69
348.218	85.69
348.445	80.69
348.673	85.69
348.9	74.69
349.128	87.69
349.355	86.69
349.583	86.69
349.81	79.69
350.037	87.69
350.265	83.69
350.492	79.69
350.72	79.69
350.947	74.69
351.174	80.69
351.402	84.69
351.629	90.69
351.856	75.69
352.083	87.69
352.311	77.69
352.538	72.69
352.765	76.69
352.992	94.69
353.22	76.69
353.447	81.69
353.674	90.69
353.901	82.69
354.128	92.69
354.355	83.69
354.583	75.69
354.81	77.69
355.037	86.69
355.264	85.69
355.491	80.69
355.718	94.69
355.945	75.69
356.172	81.69
356.399	68.69
356.626	98.69
356.853	90.69
357.08	87.69
357.307	84.69
357.534	66.69
357.761	70.69
357.988	79.69
358.215	82.69
358.441	93.69
358.668	80.69
358.895	84.69
359.122	79.69
359.349	67.69
359.576	74.69
359.802	55.69
360.029	79.69
360.256	64.69
360.483	80.69
360.709	74.69
360.936	72.69
361.163	86.69
361.39	83.69
361.616	82.69
361.843	84.69
362.07	93.69
362.296	81.69
362.523	78.69
362.749	68.69
362.976	73.69
363.203	95.69
363.429	90.69
363.656	80.69
363.882	86.69
364.109	83.69
364.335	83.69
364.562	87.69
364.788	90.69
365.015	92.69
365.241	86.69
365.468	72.69
365.694	70.69
365.92	84.69
366.147	73.69
366.373	75.69
366.599	82.69
366.826	85.69
367.052	84.69
367.278	81.69
367.505	87.69
367.731	75.69
367.957	90.69
368.184	83.69
368.41	81.69
368.636	87.69
368.862	86.69
369.089	79.69
369.315	79.69
369.541	87.69
369.767	69.69
369.993	87.69
370.219	83.69
370.445	99.69
370.672	92.69
370.898	76.69
371.124	76.69
371.35	86.69
371.576	86.69
371.802	88.69
372.028	86.69
372.254	75.69
372.48	62.69
372.706	90.69
372.932	94.69
373.158	66.69
373.384	96.69
373.61	81.69
373.835	73.69
374.061	86.69
374.287	75.69
374.513	95.69
374.739	100.69
374.965	82.69
375.191	89.69
375.416	85.69
375.642	77.69
375.868	92.69
376.094	99.69
376.319	76.69
376.545	75.69
376.771	86.69
376.997	80.69
377.222	80.69
377.448	89.69
377.674	84.69
377.899	80.69
378.125	73.69
378.35	95.69
378.576	75.69
378.802	97.69
379.027	113.69
379.253	76.69
379.478	79.69
379.704	88.69
379.929	94.69
380.155	89.69
380.38	84.69
380.606	83.69
380.831	85.69
381.057	81.69
381.282	88.69
381.507	98.69
381.733	94.69
381.958	94.69
382.184	96.69
382.409	90.69
382.634	89.69
382.86	89.69
383.085	90.69
383.31	82.69
383.535	91.69
383.761	86.69
383.986	93.69
384.211	92.69
384.436	87.69
384.662	85.69
384.887	83.69
385.112	81.69
385.337	86.69
385.562	80.69
385.787	82.69
386.013	85.69
386.238	83.69
386.463	84.69
386.688	75.69
386.913	64.69
387.138	68.69
387.363	71.69
387.588	82.69
387.813	77.69
388.038	88.69
388.263	78.69
388.488	92.69
388.713	97.69
388.938	94.69
389.163	87.69
389.387	86.69
389.612	95.69
389.837	84.69
390.062	84.69
390.287	86.69
390.512	103.69
390.736	87.69
390.961	88.69
391.186	94.69
391.411	94.69
391.636	82.69
391.86	81.69
392.085	86.69
392.31	85.69
392.534	93.69
392.759	88.69
392.984	99.69
393.208	82.69
393.433	97.69
393.658	99.69
393.882	84.69
394.107	98.69
394.331	75.69
394.556	74.69
394.78	87.69
395.005	94.69
395.229	78.69
395.454	84.69
395.678	97.69
395.903	106.69
396.127	86.69
396.352	83.69
396.576	98.69
396.801	92.69
397.025	89.69
397.249	104.69
397.474	80.69
397.698	94.69
397.922	96.69
398.147	92.69
398.371	90.69
398.595	87.69
398.82	99.69
399.044	86.69
399.268	85.69
399.492	93.69
399.717	92.69
399.941	79.69
400.165	94.69
400.389	98.69
400.613	78.69
400.837	90.69
401.062	98.69
401.286	100.69
401.51	90.69
401.734	104.69
401.958	90.69
402.182	85.69
402.406	90.69
402.63	99.69
402.854	88.69
403.078	97.69
403.302	87.69
403.526	91.69
403.75	89.69
403.974	93.69
404.198	106.69
404.422	93.69
404.645	101.69
404.869	92.69
405.093	99.69
405.317	111.69
405.541	112.69
405.765	101.69
405.988	91.69
406.212	93.69
406.436	88.69
406.66	101.69
406.883	102.69
407.107	98.69
407.331	96.69
407.555	99.69
407.778	88.69
408.002	91.69
408.226	91.69
408.449	94.69
408.673	95.69
408.896	110.69
409.12	101.69
409.344	90.69
409.567	89.69
409.791	103.69
410.014	89.69
410.238	82.69
410.461	105.69
410.685	91.69
410.908	99.69
411.132	103.69
411.355	110.69
411.578	95.69
411.802	92.69
412.025	102.69
412.249	106.69
412.472	87.69
412.695	105.69
412.919	106.69
413.142	89.69
413.365	94.69
413.589	106.69
413.812	86.69
414.035	111.69
414.258	92.69
414.482	97.69
414.705	98.69
414.928	104.69
415.151	103.69
415.374	94.69
415.597	115.69
415.821	96.69
416.044	110.69
416.267	102.69
416.49	103.69
416.713	89.69
416.936	110.69
417.159	103.69
417.382	101.69
417.605	96.69
417.828	94.69
418.051	86.69
418.274	100.69
418.497	103.69
418.72	93.69
418.943	104.69
419.166	100.69
419.389	113.69
419.611	101.69
419.834	98.69
420.057	103.69
420.28	101.69
420.503	106.69
420.726	98.69
420.948	101.69
421.171	105.69
421.394	103.69
421.617	107.69
421.839	103.69
422.062	101.69
422.285	109.69
422.507	107.69
422.73	116.69
422.953	89.69
423.175	107.69
423.398	100.69
423.621	104.69
423.843	103.69
424.066	89.69
424.288	101.69
424.511	95.69
424.733	107.69
424.956	111.69
425.178	95.69
425.401	104.69
425.623	118.69
425.846	104.69
426.068	104.69
426.291	97.69
426.513	113.69
426.735	92.69
426.958	105.69
427.18	91.69
427.402	107.69
427.625	100.69
427.847	105.69
428.069	107.69
428.292	102.69
428.514	114.69
428.736	89.69
428.958	99.69
429.181	91.69
429.403	91.69
429.625	100.69
429.847	112.69
430.069	106.69
430.292	103.69
430.514	104.69
430.736	109.69
430.958	101.69
431.18	100.69
431.402	102.69
431.624	86.69
431.846	97.69
432.068	88.69
432.29	91.69
432.512	101.69
432.734	100.69
432.956	110.69
433.178	91.69
433.4	112.69
433.622	110.69
433.844	92.69
434.066	99.69
434.287	99.69
434.509	89.69
434.731	92.69
434.953	101.69
435.175	102.69
435.397	107.69
435.618	111.69
435.84	94.69
436.062	92.69
436.284	90.69
436.505	105.69
436.727	104.69
436.949	104.69
437.17	108.69
437.392	101.69
437.614	96.69
437.835	91.69
438.057	84.69
438.278	97.69
438.5	102.69
438.721	112.69
438.943	121.69
439.165	109.69
439.386	97.69
439.608	111.69
439.829	118.69
440.05	93.69
440.272	115.69
440.493	109.69
440.715	115.69
440.936	113.69
441.158	117.69
441.379	115.69
441.6	111.69
441.822	102.69
442.043	121.69
442.264	112.69
442.486	99.69
442.707	124.69
442.928	120.69
443.149	103.69
443.371	106.69
443.592	102.69
443.813	101.69
444.034	112.69
444.255	105.69
444.476	113.69
444.698	117.69
444.919	100.69
445.14	246.69
445.361	174.69
445.582	125.69
445.803	102.69
446.024	104.69
446.245	127.69
446.466	107.69
446.687	107.69
446.908	115.69
447.129	112.69
447.35	108.69
447.571	116.69
447.792	97.69
448.013	117.69
448.234	102.69
448.455	96.69
448.675	118.69
448.896	93.69
449.117	99.69
449.338	105.69
449.559	113.69
449.779	105.69
450	103.69
450.221	107.69
450.442	119.69
450.662	101.69
450.883	110.69
451.104	106.69
451.324	98.69
451.545	111.69
451.766	108.69
451.986	106.69
452.207	99.69
452.428	110.69
452.648	99.69
452.869	92.69
453.089	83.69
453.31	86.69
453.53	87.69
453.751	88.69
453.971	98.69
454.192	87.69
454.412	93.69
454.633	91.69
454.853	116.69
455.073	96.69
455.294	91.69
455.514	104.69
455.734	98.69
455.955	86.69
456.175	102.69
456.395	107.69
456.616	83.69
456.836	97.69
457.056	99.69
457.276	104.69
457.497	90.69
457.717	106.69
457.937	83.69
458.157	99.69
458.377	93.69
458.598	88.69
458.818	92.69
459.038	74.69
459.258	83.69
459.478	92.69
459.698	83.69
459.918	95.69
460.138	86.69
460.358	96.69
460.578	94.69
460.798	85.69
461.018	100.69
461.238	112.69
461.458	89.69
461.678	104.69
461.898	92.69
462.118	101.69
462.338	104.69
462.558	83.69
462.777	82.69
462.997	99.69
463.217	94.69
463.437	86.69
463.657	97.69
463.876	87.69
464.096	97.69
464.316	96.69
464.536	114.69
464.755	115.69
464.975	102.69
465.195	90.69
465.414	100.69
465.634	91.69
465.854	115.69
466.073	88.69
466.293	94.69
466.512	88.69
466.732	100.69
466.951	102.69
467.171	105.69
467.391	114.69
467.61	115.69
467.829	79.69
468.049	116.69
468.268	107.69
468.488	104.69
468.707	106.69
468.927	114.69
469.146	112.69
469.365	118.69
469.585	112.69
469.804	103.69
470.023	112.69
470.243	109.69
470.462	111.69
470.681	111.69
470.901	110.69
471.12	108.69
471.339	104.69
471.558	112.69
471.777	118.69
471.997	112.69
472.216	100.69
472.435	98.69
472.654	96.69
472.873	117.69
473.092	99.69
473.311	106.69
473.53	86.69
473.749	111.69
473.968	123.69
474.187	104.69
474.406	113.69
474.625	102.69
474.844	108.69
475.063	114.69
475.282	111.69
475.501	99.69
475.72	110.69
475.939	113.69
476.158	124.69
476.377	111.69
476.596	104.69
476.814	103.69
477.033	89.69
477.252	81.69
477.471	112.69
477.69	118.69
477.908	99.69
478.127	110.69
478.346	120.69
478.564	107.69
478.783	106.69
479.002	101.69
479.22	102.69
479.439	107.69
479.658	114.69
479.876	93.69
480.095	98.69
480.313	107.69
480.532	100.69
480.751	102.69
480.969	101.69
481.188	83.69
481.406	96.69
481.624	89.69
481.843	87.69
482.061	94.69
482.28	90.69
482.498	97.69
482.717	92.69
482.935	106.69
483.153	105.69
483.372	103.69
483.59	108.69
483.808	111.69
484.027	105.69
484.245	99.69
484.463	104.69
484.681	124.69
484.9	115.69
485.118	109.69
485.336	109.69
485.554	96.69
485.772	83.69
485.99	81.69
486.209	88.69
486.427	94.69
486.645	108.69
486.863	100.69
487.081	109.69
487.299	106.69
487.517	108.69
487.735	110.69
487.953	120.69
488.171	130.69
488.389	129.69
488.607	121.69
488.825	121.69
489.043	104.69
489.261	118.69
489.479	103.69
489.696	97.69
489.914	126.69
490.132	122.69
490.35	123.69
490.568	121.69
490.786	124.69
491.003	131.69
491.221	122.69
491.439	129.69
491.657	132.69
491.874	143.69
492.092	139.69
492.31	160.69
492.527	151.69
492.745	141.69
492.963	139.69
493.18	126.69
493.398	128.69
493.615	127.69
493.833	126.69
494.05	139.69
494.268	115.69
494.485	131.69
494.703	125.69
494.92	122.69
495.138	111.69
495.355	117.69
495.573	122.69
495.79	112.69
496.008	106.69
496.225	118.69
496.442	112.69
496.66	123.69
496.877	111.69
497.094	112.69
497.312	121.69
497.529	117.69
497.746	108.69
497.963	102.69
498.181	107.69
498.398	102.69
498.615	107.69
498.832	113.69
499.049	79.69
499.267	107.69
499.484	102.69
499.701	95.69
499.918	127.69
500.135	120.69
500.352	118.69
500.569	115.69
500.786	116.69
501.003	110.69
501.22	122.69
501.437	103.69
501.654	104.69
501.871	98.69
502.088	97.69
502.305	98.69
502.522	117.69
502.739	108.69
502.956	101.69
503.172	100.69
503.389	89.69
503.606	82.69
503.823	90.69
504.04	91.69
504.256	99.69
504.473	107.69
504.69	98.69
504.907	109.69
505.123	107.69
505.34	106.69
505.557	99.69
505.773	103.69
505.99	93.69
506.207	104.69
506.423	102.69
506.64	111.69
506.856	105.69
507.073	116.69
507.289	114.69
507.506	87.69
507.722	95.69
507.939	105.69
508.155	104.69
508.372	105.69
508.588	89.69
508.805	89.69
509.021	85.69
509.238	93.69
509.454	90.69
509.67	94.69
509.887	94.69
510.103	87.69
510.319	95.69
510.536	99.69
510.752	86.69
510.968	83.69
511.184	81.69
511.401	85.69
511.617	79.69
511.833	85.69
512.049	90.69
512.265	92.69
512.481	88.69
512.698	105.69
512.914	83.69
513.13	102.69
513.346	87.69
513.562	94.69
513.778	77.69
513.994	82.69
514.21	76.69
514.426	94.69
514.642	81.69
514.858	82.69
515.074	95.69
515.29	85.69
515.506	82.69
515.721	90.69
515.937	103.69
516.153	87.69
516.369	76.69
516.585	65.69
516.801	91.69
517.016	90.69
517.232	97.69
517.448	77.69
517.664	91.69
517.879	87.69
518.095	91.69
518.311	95.69
518.527	87.69
518.742	80.69
518.958	91.69
519.173	103.69
519.389	101.69
519.605	96.69
519.82	94.69
520.036	92.69
520.251	95.69
520.467	110.69
520.682	86.69
520.898	94.69
521.113	86.69
521.329	98.69
521.544	82.69
521.76	92.69
521.975	90.69
522.19	89.69
522.406	84.69
522.621	104.69
522.836	88.69
523.052	99.69
523.267	99.69
523.482	89.69
523.698	103.69
523.913	98.69
524.128	100.69
524.343	91.69
524.559	102.69
524.774	96.69
524.989	106.69
525.204	100.69
525.419	103.69
525.634	110.69
525.849	89.69
526.064	92.69
526.28	96.69
526.495	92.69
526.71	75.69
526.925	87.69
527.14	75.69
527.355	89.69
527.57	89.69
527.785	104.69
527.999	83.69
528.214	95.69
528.429	103.69
528.644	91.69
528.859	106.69
529.074	130.69
529.289	116.69
529.503	123.69
529.718	108.69
529.933	87.69
530.148	89.69
530.363	81.69
530.577	87.69
530.792	86.69
531.007	83.69
531.221	89.69
531.436	85.69
531.651	86.69
531.865	90.69
532.08	99.69
532.295	93.69
532.509	85.69
532.724	86.69
532.938	100.69
533.153	85.69
533.367	91.69
533.582	94.69
533.796	100.69
534.011	108.69
534.225	95.69
534.44	86.69
534.654	92.69
534.868	89.69
535.083	94.69
535.297	95.69
535.511	87.69
535.726	84.69
535.94	87.69
536.154	90.69
536.369	85.69
536.583	97.69
536.797	84.69
537.011	89.69
537.225	99.69
537.44	97.69
537.654	87.69
537.868	83.69
538.082	98.69
538.296	93.69
538.51	84.69
538.724	97.69
538.938	120.69
539.153	107.69
539.367	104.69
539.581	104.69
539.795	86.69
540.009	91.69
540.222	83.69
540.436	97.69
540.65	102.69
540.864	115.69
541.078	115.69
541.292	96.69
541.506	120.69
541.72	120.69
541.934	128.69
542.147	139.69
542.361	128.69
542.575	118.69
542.789	106.69
543.002	110.69
543.216	98.69
543.43	92.69
543.644	94.69
543.857	107.69
544.071	122.69
544.285	120.69
544.498	105.69
544.712	103.69
544.925	115.69
545.139	103.69
545.352	107.69
545.566	123.69
545.779	128.69
545.993	135.69
546.206	117.69
546.42	127.69
546.633	120.69
546.847	120.69
547.06	119.69
547.274	111.69
547.487	132.69
547.7	124.69
547.914	134.69
548.127	114.69
548.34	140.69
548.554	120.69
548.767	115.69
548.98	105.69
549.193	115.69
549.407	118.69
549.62	117.69
549.833	124.69
550.046	122.69
550.259	100.69
550.473	108.69
550.686	122.69
550.899	96.69
551.112	114.69
551.325	116.69
551.538	123.69
551.751	112.69
551.964	102.69
552.177	114.69
552.39	126.69
552.603	97.69
552.816	127.69
553.029	126.69
553.242	111.69
553.455	116.69
553.667	119.69
553.88	124.69
554.093	120.69
554.306	119.69
554.519	115.69
554.732	104.69
554.944	120.69
555.157	97.69
555.37	110.69
555.583	116.69
555.795	114.69
556.008	114.69
556.221	114.69
556.433	124.69
556.646	127.69
556.859	118.69
557.071	112.69
557.284	107.69
557.496	120.69
557.709	106.69
557.921	116.69
558.134	106.69
558.346	93.69
558.559	116.69
558.771	93.69
558.984	88.69
559.196	104.69
559.409	101.69
559.621	100.69
559.833	108.69
560.046	112.69
560.258	96.69
560.47	111.69
560.683	103.69
560.895	112.69
561.107	115.69
561.32	106.69
561.532	102.69
561.744	106.69
561.956	103.69
562.168	104.69
562.381	99.69
562.593	103.69
562.805	94.69
563.017	99.69
563.229	96.69
563.441	99.69
563.653	98.69
563.865	102.69
564.077	113.69
564.289	91.69
564.501	102.69
564.713	112.69
564.925	91.69
565.137	117.69
565.349	112.69
565.561	91.69
565.773	108.69
565.985	106.69
566.197	92.69
566.408	93.69
566.62	99.69
566.832	90.69
567.044	95.69
567.255	105.69
567.467	89.69
567.679	95.69
567.891	97.69
568.102	90.69
568.314	102.69
568.526	89.69
568.737	92.69
568.949	101.69
569.161	73.69
569.372	84.69
569.584	72.69
569.795	101.69
570.007	82.69
570.218	83.69
570.43	84.69
570.641	99.69
570.853	83.69
571.064	88.69
571.276	87.69
571.487	87.69
571.698	83.69
571.91	95.69
572.121	78.69
572.333	92.69
572.544	91.69
572.755	98.69
572.966	98.69
573.178	76.69
573.389	75.69
573.6	80.69
573.811	88.69
574.023	97.69
574.234	65.69
574.445	77.69
574.656	91.69
574.867	89.69
575.078	92.69
575.289	96.69
575.501	94.69
575.712	98.69
575.923	86.69
576.134	86.69
576.345	91.69
576.556	101.69
576.767	96.69
576.978	99.69
577.188	98.69
577.399	85.69
577.61	85.69
577.821	98.69
578.032	104.69
578.243	110.69
578.454	78.69
578.665	82.69
578.875	81.69
579.086	89.69
579.297	80.69
579.508	68.69
579.718	83.69
579.929	91.69
580.14	84.69
580.35	99.69
580.561	99.69
580.772	93.69
580.982	81.69
581.193	74.69
581.403	79.69
581.614	86.69
581.825	74.69
582.035	87.69
582.246	94.69
582.456	85.69
582.667	97.69
582.877	80.69
583.087	71.69
583.298	108.69
583.508	93.69
583.719	87.69
583.929	96.69
584.139	94.69
584.35	70.69
584.56	84.69
584.77	84.69
584.981	86.69
585.191	87.69
585.401	96.69
585.611	88.69
585.821	92.69
586.032	102.69
586.242	84.69
586.452	73.69
586.662	100.69
586.872	83.69
587.082	85.69
587.292	85.69
587.502	83.69
587.713	85.69
587.923	87.69
588.133	74.69
588.343	82.69
588.553	77.69
588.762	83.69
588.972	91.69
589.182	105.69
589.392	78.69
589.602	89.69
589.812	81.69
590.022	77.69
590.232	83.69
590.441	76.69
590.651	84.69
590.861	83.69
591.071	82.69
591.281	95.69
591.49	78.69
591.7	103.69
591.91	96.69
592.119	70.69
592.329	78.69
592.539	86.69
592.748	82.69
592.958	76.69
593.167	93.69
593.377	93.69
593.587	81.69
593.796	78.69
594.006	84.69
594.215	82.69
594.424	96.69
594.634	94.69
594.843	92.69
595.053	84.69
595.262	104.69
595.472	72.69
595.681	82.69
595.89	74.69
596.1	80.69
596.309	90.69
596.518	90.69
596.727	83.69
596.937	90.69
597.146	95.69
597.355	80.69
597.564	84.69
597.774	88.69
597.983	80.69
598.192	87.69
598.401	78.69
598.61	85.69
598.819	91.69
599.028	94.69
599.237	74.69
599.446	85.69
599.655	86.69
599.864	73.69
600.073	78.69
600.282	82.69
600.491	85.69
600.7	81.69
600.909	88.69
601.118	85.69
601.327	90.69
601.536	95.69
601.745	92.69
601.953	92.69
602.162	79.69
602.371	83.69
602.58	94.69
602.789	100.69
602.997	85.69
603.206	106.69
603.415	86.69
603.623	91.69
603.832	87.69
604.041	88.69
604.249	102.69
604.458	90.69
604.666	100.69
604.875	77.69
605.084	91.69
605.292	84.69
605.501	94.69
605.709	105.69
605.918	94.69
606.126	92.69
606.334	88.69
606.543	93.69
606.751	93.69
606.96	95.69
607.168	105.69
607.376	94.69
607.585	81.69
607.793	91.69
608.001	102.69
608.21	95.69
608.418	92.69
608.626	83.69
608.834	96.69
609.043	89.69
609.251	97.69
609.459	85.69
609.667	94.69
609.875	99.69
610.083	94.69
610.291	105.69
610.499	97.69
610.707	101.69
610.916	100.69
611.124	87.69
611.332	111.69
611.54	90.69
611.748	94.69
611.955	89.69
612.163	104.69
612.371	109.69
612.579	82.69
612.787	92.69
612.995	100.69
613.203	89.69
613.411	94.69
613.618	108.69
613.826	90.69
614.034	91.69
614.242	76.69
614.449	89.69
614.657	108.69
614.865	89.69
615.072	105.69
615.28	95.69
615.488	103.69
615.695	100.69
615.903	118.69
616.111	105.69
616.318	92.69
616.526	90.69
616.733	91.69
616.941	87.69
617.148	87.69
617.356	93.69
617.563	95.69
617.771	110.69
617.978	91.69
618.185	75.69
618.393	88.69
618.6	102.69
618.807	90.69
619.015	100.69
619.222	91.69
619.429	86.69
619.637	103.69
619.844	90.69
620.051	78.69
620.258	86.69
620.466	97.69
620.673	100.69
620.88	90.69
621.087	94.69
621.294	86.69
621.501	93.69
621.708	102.69
621.915	106.69
622.122	96.69
622.329	96.69
622.536	96.69
622.743	86.69
622.95	107.69
623.157	93.69
623.364	100.69
623.571	90.69
623.778	82.69
623.985	93.69
624.192	86.69
624.399	87.69
624.606	100.69
624.812	101.69
625.019	86.69
625.226	86.69
625.433	86.69
625.639	94.69
625.846	98.69
626.053	86.69
626.259	78.69
626.466	89.69
626.673	98.69
626.879	95.69
627.086	90.69
627.293	97.69
627.499	91.69
627.706	73.69
627.912	88.69
628.119	99.69
628.325	95.69
628.532	94.69
628.738	92.69
628.945	90.69
629.151	105.69
629.357	94.69
629.564	96.69
629.77	97.69
629.976	101.69
630.183	85.69
630.389	90.69
630.595	83.69
630.802	98.69
631.008	96.69
631.214	88.69
631.42	83.69
631.627	92.69
631.833	71.69
632.039	85.69
632.245	97.69
632.451	82.69
632.657	98.69
632.863	87.69
633.069	84.69
633.275	88.69
633.481	94.69
633.688	79.69
633.893	98.69
634.099	101.69
634.305	79.69
634.511	110.69
634.717	104.69
634.923	86.69
635.129	95.69
635.335	76.69
635.541	79.69
635.747	93.69
635.952	100.69
636.158	88.69
636.364	80.69
636.57	87.69
636.775	97.69
636.981	92.69
637.187	85.69
637.392	93.69
637.598	76.69
637.804	80.69
638.009	84.69
638.215	97.69
638.421	94.69
638.626	96.69
638.832	105.69
639.037	82.69
639.243	88.69
639.448	89.69
639.654	93.69
639.859	82.69
640.065	91.69
640.27	94.69
640.475	93.69
640.681	89.69
640.886	87.69
641.091	88.69
641.297	90.69
641.502	82.69
641.707	84.69
641.913	75.69
642.118	85.69
642.323	86.69
642.528	92.69
642.733	99.69
642.939	91.69
643.144	82.69
643.349	96.69
643.554	81.69
643.759	72.69
643.964	83.69
644.169	94.69
644.374	97.69
644.579	94.69
644.784	85.69
644.989	94.69
645.194	95.69
645.399	96.69
645.604	101.69
645.809	96.69
646.014	75.69
646.219	92.69
646.423	91.69
646.628	82.69
646.833	102.69
647.038	96.69
647.243	111.69
647.447	88.69
647.652	71.69
647.857	86.69
648.062	94.69
648.266	95.69
648.471	98.69
648.676	81.69
648.88	91.69
649.085	85.69
649.289	90.69
649.494	91.69
649.698	84.69
649.903	78.69
650.107	108.69
650.312	92.69
650.516	74.69
650.721	86.69
650.925	90.69
651.13	79.69
651.334	75.69
651.539	91.69
651.743	84.69
651.947	93.69
652.152	83.69
652.356	85.69
652.56	79.69
652.764	97.69
652.969	89.69
653.173	77.69
653.377	96.69
653.581	79.69
653.785	86.69
653.99	85.69
654.194	84.69
654.398	75.69
654.602	80.69
654.806	84.69
655.01	81.69
655.214	84.69
655.418	82.69
655.622	80.69
655.826	79.69
656.03	89.69
656.234	68.69
656.438	83.69
656.642	85.69
656.846	72.69
657.049	80.69
657.253	84.69
657.457	98.69
657.661	83.69
657.865	75.69
658.068	84.69
658.272	85.69
658.476	94.69
658.68	75.69
658.883	77.69
659.087	83.69
659.291	76.69
659.494	97.69
659.698	99.69
659.901	88.69
660.105	72.69
660.309	93.69
660.512	72.69
660.716	87.69
660.919	93.69
661.123	75.69
661.326	79.69
661.53	87.69
661.733	76.69
661.936	80.69
662.14	87.69
662.343	80.69
662.546	79.69
662.75	78.69
662.953	70.69
663.156	67.69
663.36	84.69
663.563	95.69
663.766	85.69
663.969	93.69
664.173	72.69
664.376	84.69
664.579	84.69
664.782	73.69
664.985	80.69
665.188	81.69
665.391	80.69
665.594	80.69
665.797	77.69
666	97.69
666.203	89.69
666.406	75.69
666.609	83.69
666.812	80.69
667.015	73.69
667.218	81.69
667.421	99.69
667.624	105.69
667.827	83.69
668.03	83.69
668.232	83.69
668.435	81.69
668.638	79.69
668.841	89.69
669.043	87.69
669.246	88.69
669.449	78.69
669.651	93.69
669.854	76.69
670.057	78.69
670.259	66.69
670.462	82.69
670.665	91.69
670.867	82.69
671.07	89.69
671.272	76.69
671.475	93.69
671.677	94.69
671.88	66.69
672.082	82.69
672.284	77.69
672.487	78.69
672.689	88.69
672.892	100.69
