Data from Zn(NO3)2Standard.Agarose3%.GreenCap.LampEnergy5.5.E.O_HRD10591_15-03-37-768.txt Node
Date: Mon Jul 22 15:03:37 EDT 2019
User: cochatt
Spectrometer: HR+D1059
Trigger mode: 1
Integration Time (sec): 1.000000E-1
Scans to average: 1
Electric dark correction enabled: true
Nonlinearity correction enabled: false
Boxcar width: 0
XAxis mode: Wavelengths
Number of Pixels in Spectrum: 2048
>>>>>Begin Spectral Data<<<<<
223.165	-18.25
223.4	-18.25
223.635	-18.25
223.869	-18.25
224.104	-10.25
224.338	-22.25
224.573	-20.25
224.808	-23.25
225.042	-8.25
225.277	-12.25
225.511	5.75
225.746	-4.25
225.98	13.75
226.215	18.75
226.449	18.75
226.683	21.75
226.918	32.75
227.152	25.75
227.387	20.75
227.621	28.75
227.856	41.75
228.09	53.75
228.324	35.75
228.559	55.75
228.793	57.75
229.027	43.75
229.262	69.75
229.496	61.75
229.73	68.75
229.964	70.75
230.199	72.75
230.433	75.75
230.667	67.75
230.901	77.75
231.136	84.75
231.37	77.75
231.604	66.75
231.838	73.75
232.072	80.75
232.306	75.75
232.541	79.75
232.775	80.75
233.009	82.75
233.243	86.75
233.477	84.75
233.711	74.75
233.945	83.75
234.179	74.75
234.413	77.75
234.647	71.75
234.881	79.75
235.115	76.75
235.349	70.75
235.583	74.75
235.817	49.75
236.051	88.75
236.285	77.75
236.519	73.75
236.753	77.75
236.987	63.75
237.221	73.75
237.455	70.75
237.689	86.75
237.922	70.75
238.156	68.75
238.39	73.75
238.624	77.75
238.858	72.75
239.091	63.75
239.325	74.75
239.559	77.75
239.793	72.75
240.027	65.75
240.26	75.75
240.494	86.75
240.728	71.75
240.961	73.75
241.195	84.75
241.429	70.75
241.662	83.75
241.896	75.75
242.13	68.75
242.363	71.75
242.597	88.75
242.83	67.75
243.064	70.75
243.298	79.75
243.531	74.75
243.765	73.75
243.998	69.75
244.232	89.75
244.465	90.75
244.699	62.75
244.932	80.75
245.166	79.75
245.399	85.75
245.633	59.75
245.866	75.75
246.099	65.75
246.333	83.75
246.566	69.75
246.8	61.75
247.033	92.75
247.266	78.75
247.5	72.75
247.733	79.75
247.966	81.75
248.2	93.75
248.433	82.75
248.666	82.75
248.899	84.75
249.133	72.75
249.366	77.75
249.599	84.75
249.832	79.75
250.066	77.75
250.299	75.75
250.532	83.75
250.765	74.75
250.998	86.75
251.231	74.75
251.465	87.75
251.698	74.75
251.931	81.75
252.164	75.75
252.397	84.75
252.63	85.75
252.863	75.75
253.096	76.75
253.329	86.75
253.562	75.75
253.795	87.75
254.028	72.75
254.261	85.75
254.494	83.75
254.727	85.75
254.96	83.75
255.193	78.75
255.426	74.75
255.659	85.75
255.892	85.75
256.124	89.75
256.357	74.75
256.59	83.75
256.823	84.75
257.056	80.75
257.289	81.75
257.521	90.75
257.754	85.75
257.987	81.75
258.22	80.75
258.452	78.75
258.685	93.75
258.918	76.75
259.151	56.75
259.383	79.75
259.616	76.75
259.849	84.75
260.081	87.75
260.314	64.75
260.547	74.75
260.779	85.75
261.012	86.75
261.244	77.75
261.477	90.75
261.71	72.75
261.942	76.75
262.175	84.75
262.407	77.75
262.64	78.75
262.872	91.75
263.105	82.75
263.337	83.75
263.57	95.75
263.802	81.75
264.035	74.75
264.267	79.75
264.499	74.75
264.732	80.75
264.964	90.75
265.197	77.75
265.429	73.75
265.661	84.75
265.894	65.75
266.126	80.75
266.358	81.75
266.591	88.75
266.823	85.75
267.055	77.75
267.287	82.75
267.52	78.75
267.752	80.75
267.984	87.75
268.216	83.75
268.448	91.75
268.681	92.75
268.913	92.75
269.145	86.75
269.377	75.75
269.609	97.75
269.841	100.75
270.073	94.75
270.306	88.75
270.538	81.75
270.77	96.75
271.002	83.75
271.234	66.75
271.466	74.75
271.698	82.75
271.93	92.75
272.162	80.75
272.394	72.75
272.626	71.75
272.858	78.75
273.09	69.75
273.322	87.75
273.553	87.75
273.785	91.75
274.017	85.75
274.249	83.75
274.481	69.75
274.713	86.75
274.945	82.75
275.176	70.75
275.408	76.75
275.64	66.75
275.872	84.75
276.104	85.75
276.335	86.75
276.567	68.75
276.799	79.75
277.031	83.75
277.262	80.75
277.494	77.75
277.726	85.75
277.957	80.75
278.189	96.75
278.421	87.75
278.652	75.75
278.884	73.75
279.115	79.75
279.347	78.75
279.579	87.75
279.81	64.75
280.042	83.75
280.273	83.75
280.505	88.75
280.736	84.75
280.968	79.75
281.199	74.75
281.431	78.75
281.662	97.75
281.894	78.75
282.125	81.75
282.356	88.75
282.588	90.75
282.819	89.75
283.051	86.75
283.282	88.75
283.513	72.75
283.745	67.75
283.976	87.75
284.207	89.75
284.439	82.75
284.67	93.75
284.901	87.75
285.132	75.75
285.364	90.75
285.595	94.75
285.826	67.75
286.057	93.75
286.288	88.75
286.52	85.75
286.751	102.75
286.982	92.75
287.213	77.75
287.444	84.75
287.675	91.75
287.906	83.75
288.138	76.75
288.369	89.75
288.6	82.75
288.831	74.75
289.062	82.75
289.293	78.75
289.524	90.75
289.755	86.75
289.986	68.75
290.217	88.75
290.448	89.75
290.679	95.75
290.91	97.75
291.141	74.75
291.371	79.75
291.602	82.75
291.833	92.75
292.064	68.75
292.295	78.75
292.526	87.75
292.757	75.75
292.987	85.75
293.218	83.75
293.449	95.75
293.68	71.75
293.91	87.75
294.141	100.75
294.372	87.75
294.603	81.75
294.833	83.75
295.064	90.75
295.295	81.75
295.525	83.75
295.756	80.75
295.987	79.75
296.217	77.75
296.448	76.75
296.679	91.75
296.909	90.75
297.14	81.75
297.37	94.75
297.601	76.75
297.831	85.75
298.062	81.75
298.292	89.75
298.523	81.75
298.753	87.75
298.984	75.75
299.214	90.75
299.445	85.75
299.675	80.75
299.905	81.75
300.136	84.75
300.366	81.75
300.597	89.75
300.827	78.75
301.057	80.75
301.288	84.75
301.518	86.75
301.748	85.75
301.979	85.75
302.209	77.75
302.439	76.75
302.669	78.75
302.9	83.75
303.13	92.75
303.36	76.75
303.59	69.75
303.82	80.75
304.051	85.75
304.281	84.75
304.511	100.75
304.741	90.75
304.971	75.75
305.201	84.75
305.431	88.75
305.661	92.75
305.891	84.75
306.121	92.75
306.352	78.75
306.582	77.75
306.812	88.75
307.042	80.75
307.272	81.75
307.502	88.75
307.731	87.75
307.961	80.75
308.191	87.75
308.421	95.75
308.651	74.75
308.881	97.75
309.111	89.75
309.341	91.75
309.571	95.75
309.8	86.75
310.03	86.75
310.26	81.75
310.49	71.75
310.72	72.75
310.949	62.75
311.179	84.75
311.409	77.75
311.639	97.75
311.868	88.75
312.098	84.75
312.328	83.75
312.557	79.75
312.787	83.75
313.017	80.75
313.246	89.75
313.476	93.75
313.706	98.75
313.935	90.75
314.165	80.75
314.394	81.75
314.624	75.75
314.853	72.75
315.083	74.75
315.312	73.75
315.542	86.75
315.771	82.75
316.001	82.75
316.23	82.75
316.46	85.75
316.689	80.75
316.919	90.75
317.148	87.75
317.377	77.75
317.607	95.75
317.836	89.75
318.065	82.75
318.295	102.75
318.524	99.75
318.753	97.75
318.983	88.75
319.212	88.75
319.441	81.75
319.67	74.75
319.9	82.75
320.129	84.75
320.358	94.75
320.587	79.75
320.816	85.75
321.046	78.75
321.275	85.75
321.504	83.75
321.733	83.75
321.962	99.75
322.191	92.75
322.42	75.75
322.649	99.75
322.878	76.75
323.108	82.75
323.337	102.75
323.566	84.75
323.795	56.75
324.024	95.75
324.253	88.75
324.482	72.75
324.71	92.75
324.939	95.75
325.168	70.75
325.397	77.75
325.626	91.75
325.855	75.75
326.084	74.75
326.313	81.75
326.542	77.75
326.77	81.75
326.999	82.75
327.228	85.75
327.457	90.75
327.686	86.75
327.914	91.75
328.143	80.75
328.372	89.75
328.6	76.75
328.829	72.75
329.058	94.75
329.287	77.75
329.515	71.75
329.744	78.75
329.972	89.75
330.201	88.75
330.43	91.75
330.658	82.75
330.887	74.75
331.115	84.75
331.344	79.75
331.572	79.75
331.801	83.75
332.03	84.75
332.258	80.75
332.486	72.75
332.715	76.75
332.943	88.75
333.172	79.75
333.4	74.75
333.629	77.75
333.857	79.75
334.085	75.75
334.314	86.75
334.542	85.75
334.771	74.75
334.999	87.75
335.227	87.75
335.455	78.75
335.684	95.75
335.912	86.75
336.14	72.75
336.369	71.75
336.597	72.75
336.825	83.75
337.053	93.75
337.281	99.75
337.51	74.75
337.738	83.75
337.966	75.75
338.194	71.75
338.422	88.75
338.65	101.75
338.878	88.75
339.106	85.75
339.334	92.75
339.562	84.75
339.79	80.75
340.018	87.75
340.246	88.75
340.474	95.75
340.702	91.75
340.93	75.75
341.158	88.75
341.386	72.75
341.614	84.75
341.842	73.75
342.07	85.75
342.298	85.75
342.526	81.75
342.754	77.75
342.981	85.75
343.209	89.75
343.437	82.75
343.665	81.75
343.893	89.75
344.12	99.75
344.348	86.75
344.576	71.75
344.804	72.75
345.031	69.75
345.259	91.75
345.487	83.75
345.714	72.75
345.942	81.75
346.17	79.75
346.397	76.75
346.625	88.75
346.853	87.75
347.08	96.75
347.308	78.75
347.535	99.75
347.763	79.75
347.99	85.75
348.218	91.75
348.445	86.75
348.673	82.75
348.9	95.75
349.128	89.75
349.355	76.75
349.583	75.75
349.81	80.75
350.037	81.75
350.265	90.75
350.492	76.75
350.72	87.75
350.947	78.75
351.174	76.75
351.402	61.75
351.629	71.75
351.856	85.75
352.083	75.75
352.311	83.75
352.538	82.75
352.765	77.75
352.992	63.75
353.22	83.75
353.447	78.75
353.674	92.75
353.901	85.75
354.128	89.75
354.355	79.75
354.583	88.75
354.81	87.75
355.037	70.75
355.264	91.75
355.491	80.75
355.718	76.75
355.945	80.75
356.172	76.75
356.399	81.75
356.626	91.75
356.853	87.75
357.08	85.75
357.307	94.75
357.534	79.75
357.761	84.75
357.988	89.75
358.215	69.75
358.441	96.75
358.668	81.75
358.895	70.75
359.122	93.75
359.349	81.75
359.576	83.75
359.802	76.75
360.029	84.75
360.256	81.75
360.483	77.75
360.709	87.75
360.936	106.75
361.163	90.75
361.39	87.75
361.616	90.75
361.843	88.75
362.07	79.75
362.296	72.75
362.523	79.75
362.749	76.75
362.976	98.75
363.203	87.75
363.429	80.75
363.656	90.75
363.882	82.75
364.109	99.75
364.335	97.75
364.562	90.75
364.788	87.75
365.015	74.75
365.241	76.75
365.468	95.75
365.694	84.75
365.92	99.75
366.147	82.75
366.373	90.75
366.599	82.75
366.826	67.75
367.052	70.75
367.278	78.75
367.505	81.75
367.731	88.75
367.957	73.75
368.184	79.75
368.41	87.75
368.636	72.75
368.862	96.75
369.089	74.75
369.315	84.75
369.541	78.75
369.767	87.75
369.993	87.75
370.219	91.75
370.445	82.75
370.672	76.75
370.898	82.75
371.124	78.75
371.35	83.75
371.576	83.75
371.802	79.75
372.028	71.75
372.254	77.75
372.48	83.75
372.706	83.75
372.932	91.75
373.158	83.75
373.384	80.75
373.61	75.75
373.835	84.75
374.061	84.75
374.287	85.75
374.513	93.75
374.739	74.75
374.965	78.75
375.191	73.75
375.416	89.75
375.642	86.75
375.868	83.75
376.094	79.75
376.319	89.75
376.545	91.75
376.771	66.75
376.997	93.75
377.222	86.75
377.448	83.75
377.674	89.75
377.899	74.75
378.125	80.75
378.35	86.75
378.576	83.75
378.802	81.75
379.027	86.75
379.253	70.75
379.478	79.75
379.704	78.75
379.929	68.75
380.155	67.75
380.38	68.75
380.606	71.75
380.831	71.75
381.057	90.75
381.282	79.75
381.507	84.75
381.733	86.75
381.958	83.75
382.184	66.75
382.409	83.75
382.634	79.75
382.86	95.75
383.085	76.75
383.31	75.75
383.535	96.75
383.761	87.75
383.986	98.75
384.211	94.75
384.436	83.75
384.662	73.75
384.887	83.75
385.112	88.75
385.337	85.75
385.562	81.75
385.787	75.75
386.013	88.75
386.238	81.75
386.463	80.75
386.688	87.75
386.913	75.75
387.138	92.75
387.363	84.75
387.588	83.75
387.813	91.75
388.038	87.75
388.263	100.75
388.488	73.75
388.713	87.75
388.938	73.75
389.163	80.75
389.387	91.75
389.612	79.75
389.837	82.75
390.062	78.75
390.287	81.75
390.512	85.75
390.736	72.75
390.961	72.75
391.186	78.75
391.411	72.75
391.636	92.75
391.86	90.75
392.085	83.75
392.31	83.75
392.534	88.75
392.759	86.75
392.984	89.75
393.208	92.75
393.433	77.75
393.658	93.75
393.882	85.75
394.107	76.75
394.331	77.75
394.556	79.75
394.78	68.75
395.005	78.75
395.229	88.75
395.454	66.75
395.678	73.75
395.903	76.75
396.127	83.75
396.352	78.75
396.576	73.75
396.801	87.75
397.025	77.75
397.249	89.75
397.474	76.75
397.698	82.75
397.922	84.75
398.147	81.75
398.371	73.75
398.595	70.75
398.82	81.75
399.044	65.75
399.268	88.75
399.492	67.75
399.717	84.75
399.941	79.75
400.165	79.75
400.389	86.75
400.613	78.75
400.837	88.75
401.062	80.75
401.286	79.75
401.51	95.75
401.734	83.75
401.958	93.75
402.182	87.75
402.406	92.75
402.63	77.75
402.854	73.75
403.078	94.75
403.302	72.75
403.526	89.75
403.75	76.75
403.974	63.75
404.198	82.75
404.422	64.75
404.645	83.75
404.869	67.75
405.093	79.75
405.317	74.75
405.541	76.75
405.765	77.75
405.988	84.75
406.212	95.75
406.436	81.75
406.66	87.75
406.883	84.75
407.107	71.75
407.331	83.75
407.555	73.75
407.778	85.75
408.002	72.75
408.226	87.75
408.449	83.75
408.673	91.75
408.896	70.75
409.12	75.75
409.344	90.75
409.567	83.75
409.791	84.75
410.014	70.75
410.238	91.75
410.461	82.75
410.685	95.75
410.908	77.75
411.132	84.75
411.355	76.75
411.578	87.75
411.802	79.75
412.025	67.75
412.249	92.75
412.472	81.75
412.695	82.75
412.919	91.75
413.142	79.75
413.365	91.75
413.589	98.75
413.812	90.75
414.035	85.75
414.258	70.75
414.482	79.75
414.705	81.75
414.928	102.75
415.151	91.75
415.374	85.75
415.597	81.75
415.821	83.75
416.044	84.75
416.267	83.75
416.49	90.75
416.713	83.75
416.936	84.75
417.159	86.75
417.382	89.75
417.605	95.75
417.828	81.75
418.051	102.75
418.274	90.75
418.497	85.75
418.72	87.75
418.943	85.75
419.166	73.75
419.389	85.75
419.611	73.75
419.834	95.75
420.057	89.75
420.28	78.75
420.503	85.75
420.726	60.75
420.948	70.75
421.171	92.75
421.394	94.75
421.617	80.75
421.839	87.75
422.062	85.75
422.285	69.75
422.507	80.75
422.73	75.75
422.953	92.75
423.175	87.75
423.398	84.75
423.621	90.75
423.843	88.75
424.066	86.75
424.288	104.75
424.511	89.75
424.733	87.75
424.956	92.75
425.178	84.75
425.401	79.75
425.623	84.75
425.846	91.75
426.068	92.75
426.291	84.75
426.513	86.75
426.735	89.75
426.958	83.75
427.18	105.75
427.402	84.75
427.625	101.75
427.847	78.75
428.069	84.75
428.292	71.75
428.514	91.75
428.736	62.75
428.958	83.75
429.181	103.75
429.403	83.75
429.625	77.75
429.847	96.75
430.069	75.75
430.292	95.75
430.514	78.75
430.736	86.75
430.958	75.75
431.18	84.75
431.402	93.75
431.624	99.75
431.846	90.75
432.068	92.75
432.29	87.75
432.512	81.75
432.734	72.75
432.956	79.75
433.178	89.75
433.4	82.75
433.622	100.75
433.844	103.75
434.066	80.75
434.287	83.75
434.509	93.75
434.731	72.75
434.953	92.75
435.175	89.75
435.397	98.75
435.618	87.75
435.84	85.75
436.062	81.75
436.284	77.75
436.505	88.75
436.727	105.75
436.949	92.75
437.17	91.75
437.392	89.75
437.614	98.75
437.835	73.75
438.057	74.75
438.278	91.75
438.5	93.75
438.721	81.75
438.943	95.75
439.165	91.75
439.386	84.75
439.608	94.75
439.829	91.75
440.05	86.75
440.272	85.75
440.493	84.75
440.715	68.75
440.936	95.75
441.158	88.75
441.379	88.75
441.6	87.75
441.822	85.75
442.043	84.75
442.264	95.75
442.486	96.75
442.707	84.75
442.928	106.75
443.149	93.75
443.371	77.75
443.592	73.75
443.813	84.75
444.034	93.75
444.255	90.75
444.476	87.75
444.698	91.75
444.919	73.75
445.14	223.75
445.361	145.75
445.582	79.75
445.803	83.75
446.024	90.75
446.245	89.75
446.466	86.75
446.687	80.75
446.908	92.75
447.129	84.75
447.35	79.75
447.571	101.75
447.792	90.75
448.013	88.75
448.234	91.75
448.455	93.75
448.675	97.75
448.896	78.75
449.117	99.75
449.338	92.75
449.559	90.75
449.779	78.75
450	92.75
450.221	87.75
450.442	77.75
450.662	85.75
450.883	85.75
451.104	91.75
451.324	90.75
451.545	83.75
451.766	82.75
451.986	82.75
452.207	90.75
452.428	78.75
452.648	80.75
452.869	92.75
453.089	81.75
453.31	67.75
453.53	84.75
453.751	72.75
453.971	85.75
454.192	83.75
454.412	67.75
454.633	79.75
454.853	91.75
455.073	80.75
455.294	84.75
455.514	96.75
455.734	77.75
455.955	77.75
456.175	91.75
456.395	76.75
456.616	81.75
456.836	87.75
457.056	75.75
457.276	86.75
457.497	77.75
457.717	74.75
457.937	91.75
458.157	91.75
458.377	80.75
458.598	75.75
458.818	72.75
459.038	79.75
459.258	80.75
459.478	73.75
459.698	87.75
459.918	93.75
460.138	79.75
460.358	69.75
460.578	89.75
460.798	79.75
461.018	89.75
461.238	79.75
461.458	96.75
461.678	90.75
461.898	92.75
462.118	75.75
462.338	102.75
462.558	94.75
462.777	82.75
462.997	82.75
463.217	77.75
463.437	76.75
463.657	86.75
463.876	84.75
464.096	80.75
464.316	81.75
464.536	82.75
464.755	91.75
464.975	91.75
465.195	92.75
465.414	90.75
465.634	96.75
465.854	74.75
466.073	85.75
466.293	77.75
466.512	88.75
466.732	88.75
466.951	95.75
467.171	83.75
467.391	84.75
467.61	92.75
467.829	88.75
468.049	95.75
468.268	85.75
468.488	89.75
468.707	94.75
468.927	85.75
469.146	80.75
469.365	86.75
469.585	86.75
469.804	85.75
470.023	72.75
470.243	85.75
470.462	97.75
470.681	98.75
470.901	85.75
471.12	88.75
471.339	76.75
471.558	91.75
471.777	94.75
471.997	87.75
472.216	88.75
472.435	86.75
472.654	85.75
472.873	80.75
473.092	80.75
473.311	99.75
473.53	83.75
473.749	77.75
473.968	84.75
474.187	85.75
474.406	75.75
474.625	86.75
474.844	97.75
475.063	87.75
475.282	101.75
475.501	98.75
475.72	98.75
475.939	84.75
476.158	82.75
476.377	88.75
476.596	70.75
476.814	71.75
477.033	93.75
477.252	87.75
477.471	85.75
477.69	82.75
477.908	99.75
478.127	97.75
478.346	99.75
478.564	78.75
478.783	74.75
479.002	98.75
479.22	91.75
479.439	81.75
479.658	83.75
479.876	87.75
480.095	80.75
480.313	86.75
480.532	82.75
480.751	80.75
480.969	84.75
481.188	71.75
481.406	68.75
481.624	87.75
481.843	82.75
482.061	84.75
482.28	81.75
482.498	75.75
482.717	82.75
482.935	99.75
483.153	95.75
483.372	82.75
483.59	96.75
483.808	92.75
484.027	89.75
484.245	103.75
484.463	97.75
484.681	89.75
484.9	89.75
485.118	101.75
485.336	72.75
485.554	80.75
485.772	85.75
485.99	86.75
486.209	93.75
486.427	88.75
486.645	81.75
486.863	80.75
487.081	103.75
487.299	92.75
487.517	83.75
487.735	84.75
487.953	89.75
488.171	104.75
488.389	90.75
488.607	86.75
488.825	95.75
489.043	88.75
489.261	95.75
489.479	93.75
489.696	79.75
489.914	88.75
490.132	78.75
490.35	80.75
490.568	80.75
490.786	106.75
491.003	95.75
491.221	99.75
491.439	95.75
491.657	92.75
491.874	79.75
492.092	101.75
492.31	107.75
492.527	106.75
492.745	105.75
492.963	94.75
493.18	112.75
493.398	104.75
493.615	95.75
493.833	104.75
494.05	103.75
494.268	95.75
494.485	103.75
494.703	104.75
494.92	92.75
495.138	89.75
495.355	96.75
495.573	98.75
495.79	85.75
496.008	95.75
496.225	88.75
496.442	83.75
496.66	95.75
496.877	83.75
497.094	88.75
497.312	96.75
497.529	87.75
497.746	81.75
497.963	83.75
498.181	101.75
498.398	76.75
498.615	86.75
498.832	89.75
499.049	75.75
499.267	98.75
499.484	77.75
499.701	83.75
499.918	82.75
500.135	90.75
500.352	89.75
500.569	95.75
500.786	76.75
501.003	94.75
501.22	93.75
501.437	100.75
501.654	96.75
501.871	88.75
502.088	87.75
502.305	98.75
502.522	93.75
502.739	90.75
502.956	85.75
503.172	91.75
503.389	94.75
503.606	96.75
503.823	89.75
504.04	92.75
504.256	72.75
504.473	97.75
504.69	85.75
504.907	92.75
505.123	90.75
505.34	83.75
505.557	92.75
505.773	87.75
505.99	83.75
506.207	90.75
506.423	92.75
506.64	93.75
506.856	75.75
507.073	92.75
507.289	82.75
507.506	89.75
507.722	91.75
507.939	97.75
508.155	89.75
508.372	88.75
508.588	80.75
508.805	89.75
509.021	85.75
509.238	77.75
509.454	83.75
509.67	81.75
509.887	79.75
510.103	88.75
510.319	79.75
510.536	77.75
510.752	76.75
510.968	78.75
511.184	87.75
511.401	74.75
511.617	91.75
511.833	93.75
512.049	77.75
512.265	88.75
512.481	80.75
512.698	81.75
512.914	78.75
513.13	90.75
513.346	82.75
513.562	76.75
513.778	92.75
513.994	81.75
514.21	83.75
514.426	77.75
514.642	75.75
514.858	81.75
515.074	76.75
515.29	79.75
515.506	83.75
515.721	96.75
515.937	78.75
516.153	77.75
516.369	84.75
516.585	83.75
516.801	87.75
517.016	84.75
517.232	91.75
517.448	80.75
517.664	74.75
517.879	85.75
518.095	82.75
518.311	82.75
518.527	74.75
518.742	77.75
518.958	87.75
519.173	84.75
519.389	90.75
519.605	99.75
519.82	75.75
520.036	92.75
520.251	86.75
520.467	89.75
520.682	95.75
520.898	76.75
521.113	78.75
521.329	94.75
521.544	95.75
521.76	81.75
521.975	92.75
522.19	84.75
522.406	83.75
522.621	86.75
522.836	75.75
523.052	89.75
523.267	83.75
523.482	83.75
523.698	77.75
523.913	91.75
524.128	96.75
524.343	89.75
524.559	100.75
524.774	81.75
524.989	85.75
525.204	89.75
525.419	91.75
525.634	75.75
525.849	86.75
526.064	84.75
526.28	88.75
526.495	83.75
526.71	87.75
526.925	92.75
527.14	80.75
527.355	90.75
527.57	87.75
527.785	89.75
527.999	80.75
528.214	78.75
528.429	85.75
528.644	92.75
528.859	85.75
529.074	92.75
529.289	92.75
529.503	88.75
529.718	91.75
529.933	81.75
530.148	93.75
530.363	88.75
530.577	92.75
530.792	84.75
531.007	88.75
531.221	85.75
531.436	77.75
531.651	75.75
531.865	83.75
532.08	76.75
532.295	91.75
532.509	87.75
532.724	83.75
532.938	83.75
533.153	88.75
533.367	83.75
533.582	72.75
533.796	79.75
534.011	80.75
534.225	75.75
534.44	77.75
534.654	91.75
534.868	94.75
535.083	83.75
535.297	92.75
535.511	83.75
535.726	68.75
535.94	88.75
536.154	92.75
536.369	84.75
536.583	83.75
536.797	73.75
537.011	84.75
537.225	82.75
537.44	71.75
537.654	85.75
537.868	90.75
538.082	90.75
538.296	83.75
538.51	79.75
538.724	76.75
538.938	81.75
539.153	77.75
539.367	84.75
539.581	92.75
539.795	90.75
540.009	82.75
540.222	84.75
540.436	75.75
540.65	79.75
540.864	89.75
541.078	97.75
541.292	97.75
541.506	92.75
541.72	100.75
541.934	107.75
542.147	113.75
542.361	93.75
542.575	98.75
542.789	100.75
543.002	90.75
543.216	79.75
543.43	78.75
543.644	99.75
543.857	91.75
544.071	94.75
544.285	96.75
544.498	91.75
544.712	79.75
544.925	84.75
545.139	95.75
545.352	94.75
545.566	87.75
545.779	75.75
545.993	92.75
546.206	98.75
546.42	100.75
546.633	83.75
546.847	91.75
547.06	103.75
547.274	114.75
547.487	112.75
547.7	109.75
547.914	103.75
548.127	97.75
548.34	92.75
548.554	89.75
548.767	95.75
548.98	101.75
549.193	99.75
549.407	107.75
549.62	81.75
549.833	112.75
550.046	106.75
550.259	84.75
550.473	99.75
550.686	106.75
550.899	83.75
551.112	96.75
551.325	88.75
551.538	88.75
551.751	78.75
551.964	96.75
552.177	101.75
552.39	91.75
552.603	88.75
552.816	97.75
553.029	81.75
553.242	96.75
553.455	99.75
553.667	90.75
553.88	98.75
554.093	89.75
554.306	92.75
554.519	89.75
554.732	104.75
554.944	96.75
555.157	83.75
555.37	72.75
555.583	93.75
555.795	82.75
556.008	92.75
556.221	87.75
556.433	98.75
556.646	103.75
556.859	82.75
557.071	94.75
557.284	100.75
557.496	94.75
557.709	78.75
557.921	95.75
558.134	94.75
558.346	97.75
558.559	90.75
558.771	82.75
558.984	86.75
559.196	101.75
559.409	72.75
559.621	102.75
559.833	88.75
560.046	89.75
560.258	98.75
560.47	84.75
560.683	86.75
560.895	93.75
561.107	83.75
561.32	79.75
561.532	91.75
561.744	92.75
561.956	92.75
562.168	97.75
562.381	96.75
562.593	96.75
562.805	91.75
563.017	94.75
563.229	106.75
563.441	104.75
563.653	89.75
563.865	85.75
564.077	96.75
564.289	75.75
564.501	92.75
564.713	105.75
564.925	90.75
565.137	97.75
565.349	100.75
565.561	86.75
565.773	80.75
565.985	74.75
566.197	89.75
566.408	86.75
566.62	102.75
566.832	106.75
567.044	102.75
567.255	93.75
567.467	90.75
567.679	69.75
567.891	95.75
568.102	102.75
568.314	92.75
568.526	94.75
568.737	83.75
568.949	78.75
569.161	79.75
569.372	71.75
569.584	77.75
569.795	80.75
570.007	87.75
570.218	90.75
570.43	95.75
570.641	94.75
570.853	91.75
571.064	77.75
571.276	90.75
571.487	77.75
571.698	86.75
571.91	81.75
572.121	85.75
572.333	95.75
572.544	86.75
572.755	85.75
572.966	72.75
573.178	84.75
573.389	81.75
573.6	90.75
573.811	72.75
574.023	77.75
574.234	74.75
574.445	83.75
574.656	89.75
574.867	84.75
575.078	89.75
575.289	87.75
575.501	84.75
575.712	92.75
575.923	80.75
576.134	88.75
576.345	85.75
576.556	80.75
576.767	85.75
576.978	77.75
577.188	74.75
577.399	90.75
577.61	87.75
577.821	83.75
578.032	90.75
578.243	79.75
578.454	81.75
578.665	93.75
578.875	83.75
579.086	87.75
579.297	92.75
579.508	76.75
579.718	70.75
579.929	81.75
580.14	93.75
580.35	81.75
580.561	92.75
580.772	96.75
580.982	84.75
581.193	85.75
581.403	91.75
581.614	88.75
581.825	85.75
582.035	92.75
582.246	89.75
582.456	83.75
582.667	78.75
582.877	87.75
583.087	76.75
583.298	71.75
583.508	74.75
583.719	83.75
583.929	87.75
584.139	91.75
584.35	95.75
584.56	80.75
584.77	71.75
584.981	96.75
585.191	77.75
585.401	80.75
585.611	78.75
585.821	85.75
586.032	93.75
586.242	77.75
586.452	74.75
586.662	86.75
586.872	85.75
587.082	84.75
587.292	100.75
587.502	89.75
587.713	93.75
587.923	76.75
588.133	80.75
588.343	89.75
588.553	81.75
588.762	72.75
588.972	81.75
589.182	74.75
589.392	77.75
589.602	92.75
589.812	88.75
590.022	78.75
590.232	82.75
590.441	85.75
590.651	80.75
590.861	77.75
591.071	88.75
591.281	80.75
591.49	82.75
591.7	77.75
591.91	88.75
592.119	72.75
592.329	86.75
592.539	86.75
592.748	105.75
592.958	85.75
593.167	74.75
593.377	87.75
593.587	89.75
593.796	92.75
594.006	81.75
594.215	90.75
594.424	82.75
594.634	78.75
594.843	78.75
595.053	79.75
595.262	81.75
595.472	92.75
595.681	83.75
595.89	81.75
596.1	68.75
596.309	89.75
596.518	90.75
596.727	77.75
596.937	85.75
597.146	87.75
597.355	86.75
597.564	95.75
597.774	90.75
597.983	80.75
598.192	84.75
598.401	96.75
598.61	84.75
598.819	74.75
599.028	87.75
599.237	77.75
599.446	93.75
599.655	93.75
599.864	81.75
600.073	74.75
600.282	86.75
600.491	82.75
600.7	83.75
600.909	77.75
601.118	85.75
601.327	75.75
601.536	96.75
601.745	88.75
601.953	93.75
602.162	89.75
602.371	90.75
602.58	87.75
602.789	88.75
602.997	79.75
603.206	65.75
603.415	89.75
603.623	92.75
603.832	95.75
604.041	87.75
604.249	91.75
604.458	92.75
604.666	77.75
604.875	91.75
605.084	83.75
605.292	87.75
605.501	79.75
605.709	87.75
605.918	89.75
606.126	91.75
606.334	88.75
606.543	70.75
606.751	96.75
606.96	79.75
607.168	92.75
607.376	82.75
607.585	75.75
607.793	83.75
608.001	88.75
608.21	84.75
608.418	92.75
608.626	85.75
608.834	95.75
609.043	84.75
609.251	79.75
609.459	91.75
609.667	84.75
609.875	90.75
610.083	96.75
610.291	88.75
610.499	97.75
610.707	94.75
610.916	74.75
611.124	91.75
611.332	88.75
611.54	86.75
611.748	103.75
611.955	91.75
612.163	80.75
612.371	87.75
612.579	93.75
612.787	88.75
612.995	64.75
613.203	96.75
613.411	76.75
613.618	79.75
613.826	91.75
614.034	86.75
614.242	94.75
614.449	94.75
614.657	80.75
614.865	86.75
615.072	91.75
615.28	95.75
615.488	83.75
615.695	87.75
615.903	80.75
616.111	80.75
616.318	84.75
616.526	86.75
616.733	97.75
616.941	86.75
617.148	86.75
617.356	98.75
617.563	83.75
617.771	76.75
617.978	90.75
618.185	92.75
618.393	80.75
618.6	94.75
618.807	90.75
619.015	89.75
619.222	85.75
619.429	89.75
619.637	79.75
619.844	88.75
620.051	78.75
620.258	91.75
620.466	95.75
620.673	82.75
620.88	96.75
621.087	87.75
621.294	82.75
621.501	86.75
621.708	89.75
621.915	86.75
622.122	75.75
622.329	81.75
622.536	88.75
622.743	83.75
622.95	91.75
623.157	84.75
623.364	83.75
623.571	89.75
623.778	88.75
623.985	87.75
624.192	89.75
624.399	92.75
624.606	87.75
624.812	90.75
625.019	87.75
625.226	79.75
625.433	85.75
625.639	79.75
625.846	86.75
626.053	88.75
626.259	87.75
626.466	89.75
626.673	74.75
626.879	91.75
627.086	93.75
627.293	86.75
627.499	82.75
627.706	81.75
627.912	95.75
628.119	85.75
628.325	94.75
628.532	81.75
628.738	84.75
628.945	78.75
629.151	80.75
629.357	86.75
629.564	79.75
629.77	87.75
629.976	85.75
630.183	85.75
630.389	90.75
630.595	86.75
630.802	76.75
631.008	86.75
631.214	82.75
631.42	90.75
631.627	79.75
631.833	96.75
632.039	92.75
632.245	87.75
632.451	91.75
632.657	62.75
632.863	83.75
633.069	67.75
633.275	85.75
633.481	82.75
633.688	95.75
633.893	75.75
634.099	78.75
634.305	88.75
634.511	67.75
634.717	90.75
634.923	85.75
635.129	96.75
635.335	85.75
635.541	72.75
635.747	81.75
635.952	65.75
636.158	104.75
636.364	84.75
636.57	88.75
636.775	78.75
636.981	77.75
637.187	79.75
637.392	84.75
637.598	84.75
637.804	77.75
638.009	77.75
638.215	82.75
638.421	87.75
638.626	79.75
638.832	76.75
639.037	76.75
639.243	84.75
639.448	80.75
639.654	83.75
639.859	74.75
640.065	95.75
640.27	93.75
640.475	88.75
640.681	84.75
640.886	76.75
641.091	79.75
641.297	81.75
641.502	73.75
641.707	84.75
641.913	86.75
642.118	89.75
642.323	80.75
642.528	92.75
642.733	93.75
642.939	83.75
643.144	73.75
643.349	78.75
643.554	70.75
643.759	74.75
643.964	89.75
644.169	87.75
644.374	72.75
644.579	94.75
644.784	89.75
644.989	97.75
645.194	97.75
645.399	88.75
645.604	65.75
645.809	92.75
646.014	87.75
646.219	91.75
646.423	82.75
646.628	103.75
646.833	83.75
647.038	90.75
647.243	82.75
647.447	92.75
647.652	97.75
647.857	81.75
648.062	81.75
648.266	80.75
648.471	84.75
648.676	81.75
648.88	94.75
649.085	82.75
649.289	84.75
649.494	105.75
649.698	75.75
649.903	82.75
650.107	82.75
650.312	88.75
650.516	76.75
650.721	86.75
650.925	93.75
651.13	81.75
651.334	79.75
651.539	84.75
651.743	83.75
651.947	75.75
652.152	91.75
652.356	79.75
652.56	80.75
652.764	77.75
652.969	82.75
653.173	91.75
653.377	93.75
653.581	88.75
653.785	77.75
653.99	72.75
654.194	75.75
654.398	79.75
654.602	75.75
654.806	79.75
655.01	70.75
655.214	87.75
655.418	80.75
655.622	88.75
655.826	83.75
656.03	89.75
656.234	85.75
656.438	88.75
656.642	77.75
656.846	88.75
657.049	84.75
657.253	95.75
657.457	89.75
657.661	89.75
657.865	86.75
658.068	84.75
658.272	76.75
658.476	59.75
658.68	78.75
658.883	96.75
659.087	86.75
659.291	79.75
659.494	68.75
659.698	84.75
659.901	81.75
660.105	87.75
660.309	84.75
660.512	82.75
660.716	85.75
660.919	70.75
661.123	77.75
661.326	82.75
661.53	70.75
661.733	69.75
661.936	87.75
662.14	91.75
662.343	95.75
662.546	74.75
662.75	84.75
662.953	75.75
663.156	80.75
663.36	86.75
663.563	83.75
663.766	81.75
663.969	85.75
664.173	79.75
664.376	67.75
664.579	88.75
664.782	93.75
664.985	83.75
665.188	84.75
665.391	65.75
665.594	85.75
665.797	67.75
666	71.75
666.203	69.75
666.406	81.75
666.609	79.75
666.812	84.75
667.015	69.75
667.218	76.75
667.421	80.75
667.624	86.75
667.827	69.75
668.03	83.75
668.232	75.75
668.435	85.75
668.638	91.75
668.841	79.75
669.043	80.75
669.246	86.75
669.449	79.75
669.651	75.75
669.854	75.75
670.057	76.75
670.259	75.75
670.462	83.75
670.665	65.75
670.867	87.75
671.07	79.75
671.272	90.75
671.475	83.75
671.677	81.75
671.88	77.75
672.082	87.75
672.284	80.75
672.487	77.75
672.689	66.75
672.892	74.75
