Data from Zn(NO3)2Standard.Agarose3%.GreenCap.LampEnergy10E.O_HRD10591_15-06-57-941.txt Node
Date: Mon Jul 22 15:06:57 EDT 2019
User: cochatt
Spectrometer: HR+D1059
Trigger mode: 1
Integration Time (sec): 1.000000E-1
Scans to average: 1
Electric dark correction enabled: true
Nonlinearity correction enabled: false
Boxcar width: 0
XAxis mode: Wavelengths
Number of Pixels in Spectrum: 2048
>>>>>Begin Spectral Data<<<<<
223.165	-14.31
223.4	-14.31
223.635	-14.31
223.869	-27.31
224.104	-21.31
224.338	-14.31
224.573	-22.31
224.808	-0.31
225.042	-22.31
225.277	-10.31
225.511	-4.31
225.746	1.69
225.98	10.69
226.215	24.69
226.449	33.69
226.683	23.69
226.918	15.69
227.152	26.69
227.387	35.69
227.621	23.69
227.856	34.69
228.09	49.69
228.324	40.69
228.559	61.69
228.793	57.69
229.027	77.69
229.262	68.69
229.496	56.69
229.73	63.69
229.964	67.69
230.199	76.69
230.433	73.69
230.667	65.69
230.901	84.69
231.136	77.69
231.37	76.69
231.604	72.69
231.838	68.69
232.072	67.69
232.306	72.69
232.541	69.69
232.775	76.69
233.009	82.69
233.243	77.69
233.477	82.69
233.711	67.69
233.945	81.69
234.179	76.69
234.413	84.69
234.647	67.69
234.881	90.69
235.115	70.69
235.349	82.69
235.583	91.69
235.817	79.69
236.051	67.69
236.285	68.69
236.519	72.69
236.753	69.69
236.987	73.69
237.221	74.69
237.455	62.69
237.689	75.69
237.922	77.69
238.156	71.69
238.39	82.69
238.624	65.69
238.858	85.69
239.091	86.69
239.325	70.69
239.559	75.69
239.793	62.69
240.027	72.69
240.26	61.69
240.494	73.69
240.728	64.69
240.961	74.69
241.195	73.69
241.429	73.69
241.662	58.69
241.896	75.69
242.13	70.69
242.363	74.69
242.597	74.69
242.83	71.69
243.064	55.69
243.298	80.69
243.531	77.69
243.765	72.69
243.998	78.69
244.232	71.69
244.465	60.69
244.699	63.69
244.932	66.69
245.166	69.69
245.399	75.69
245.633	93.69
245.866	55.69
246.099	82.69
246.333	79.69
246.566	74.69
246.8	69.69
247.033	68.69
247.266	85.69
247.5	67.69
247.733	63.69
247.966	65.69
248.2	60.69
248.433	65.69
248.666	72.69
248.899	82.69
249.133	94.69
249.366	73.69
249.599	70.69
249.832	63.69
250.066	78.69
250.299	71.69
250.532	79.69
250.765	84.69
250.998	74.69
251.231	84.69
251.465	69.69
251.698	76.69
251.931	77.69
252.164	84.69
252.397	74.69
252.63	82.69
252.863	81.69
253.096	71.69
253.329	94.69
253.562	85.69
253.795	73.69
254.028	85.69
254.261	71.69
254.494	70.69
254.727	81.69
254.96	82.69
255.193	77.69
255.426	85.69
255.659	83.69
255.892	82.69
256.124	91.69
256.357	83.69
256.59	80.69
256.823	79.69
257.056	65.69
257.289	73.69
257.521	85.69
257.754	83.69
257.987	73.69
258.22	82.69
258.452	79.69
258.685	65.69
258.918	79.69
259.151	72.69
259.383	86.69
259.616	84.69
259.849	98.69
260.081	89.69
260.314	85.69
260.547	72.69
260.779	73.69
261.012	78.69
261.244	95.69
261.477	90.69
261.71	69.69
261.942	72.69
262.175	76.69
262.407	85.69
262.64	72.69
262.872	83.69
263.105	75.69
263.337	84.69
263.57	71.69
263.802	78.69
264.035	84.69
264.267	78.69
264.499	76.69
264.732	70.69
264.964	72.69
265.197	78.69
265.429	70.69
265.661	82.69
265.894	73.69
266.126	77.69
266.358	82.69
266.591	81.69
266.823	79.69
267.055	79.69
267.287	76.69
267.52	82.69
267.752	85.69
267.984	80.69
268.216	70.69
268.448	75.69
268.681	50.69
268.913	64.69
269.145	77.69
269.377	79.69
269.609	71.69
269.841	84.69
270.073	89.69
270.306	70.69
270.538	77.69
270.77	79.69
271.002	65.69
271.234	93.69
271.466	105.69
271.698	94.69
271.93	71.69
272.162	87.69
272.394	91.69
272.626	70.69
272.858	84.69
273.09	93.69
273.322	69.69
273.553	68.69
273.785	74.69
274.017	77.69
274.249	77.69
274.481	82.69
274.713	89.69
274.945	88.69
275.176	68.69
275.408	66.69
275.64	83.69
275.872	80.69
276.104	75.69
276.335	83.69
276.567	96.69
276.799	82.69
277.031	79.69
277.262	69.69
277.494	80.69
277.726	83.69
277.957	86.69
278.189	68.69
278.421	82.69
278.652	92.69
278.884	73.69
279.115	91.69
279.347	78.69
279.579	81.69
279.81	81.69
280.042	88.69
280.273	74.69
280.505	91.69
280.736	75.69
280.968	73.69
281.199	79.69
281.431	81.69
281.662	73.69
281.894	85.69
282.125	66.69
282.356	73.69
282.588	80.69
282.819	74.69
283.051	86.69
283.282	75.69
283.513	88.69
283.745	73.69
283.976	75.69
284.207	76.69
284.439	84.69
284.67	94.69
284.901	67.69
285.132	85.69
285.364	63.69
285.595	93.69
285.826	84.69
286.057	75.69
286.288	80.69
286.52	79.69
286.751	89.69
286.982	83.69
287.213	71.69
287.444	73.69
287.675	79.69
287.906	82.69
288.138	73.69
288.369	77.69
288.6	94.69
288.831	79.69
289.062	84.69
289.293	94.69
289.524	80.69
289.755	83.69
289.986	78.69
290.217	76.69
290.448	77.69
290.679	79.69
290.91	89.69
291.141	64.69
291.371	75.69
291.602	74.69
291.833	80.69
292.064	80.69
292.295	94.69
292.526	93.69
292.757	87.69
292.987	89.69
293.218	78.69
293.449	65.69
293.68	81.69
293.91	78.69
294.141	78.69
294.372	73.69
294.603	77.69
294.833	83.69
295.064	94.69
295.295	82.69
295.525	80.69
295.756	75.69
295.987	80.69
296.217	85.69
296.448	83.69
296.679	83.69
296.909	70.69
297.14	83.69
297.37	82.69
297.601	77.69
297.831	75.69
298.062	73.69
298.292	67.69
298.523	88.69
298.753	81.69
298.984	91.69
299.214	96.69
299.445	83.69
299.675	86.69
299.905	70.69
300.136	67.69
300.366	80.69
300.597	87.69
300.827	84.69
301.057	79.69
301.288	82.69
301.518	96.69
301.748	85.69
301.979	89.69
302.209	91.69
302.439	83.69
302.669	75.69
302.9	92.69
303.13	93.69
303.36	81.69
303.59	91.69
303.82	78.69
304.051	77.69
304.281	85.69
304.511	82.69
304.741	93.69
304.971	78.69
305.201	84.69
305.431	101.69
305.661	87.69
305.891	76.69
306.121	95.69
306.352	72.69
306.582	86.69
306.812	85.69
307.042	87.69
307.272	78.69
307.502	86.69
307.731	76.69
307.961	81.69
308.191	72.69
308.421	96.69
308.651	91.69
308.881	88.69
309.111	80.69
309.341	76.69
309.571	91.69
309.8	90.69
310.03	91.69
310.26	85.69
310.49	85.69
310.72	89.69
310.949	86.69
311.179	75.69
311.409	100.69
311.639	84.69
311.868	84.69
312.098	75.69
312.328	69.69
312.557	81.69
312.787	83.69
313.017	78.69
313.246	79.69
313.476	83.69
313.706	80.69
313.935	73.69
314.165	72.69
314.394	74.69
314.624	81.69
314.853	99.69
315.083	73.69
315.312	90.69
315.542	88.69
315.771	96.69
316.001	74.69
316.23	91.69
316.46	97.69
316.689	78.69
316.919	87.69
317.148	79.69
317.377	81.69
317.607	80.69
317.836	93.69
318.065	93.69
318.295	86.69
318.524	83.69
318.753	73.69
318.983	81.69
319.212	84.69
319.441	75.69
319.67	86.69
319.9	93.69
320.129	85.69
320.358	93.69
320.587	79.69
320.816	79.69
321.046	90.69
321.275	81.69
321.504	81.69
321.733	83.69
321.962	94.69
322.191	78.69
322.42	77.69
322.649	77.69
322.878	77.69
323.108	83.69
323.337	83.69
323.566	78.69
323.795	95.69
324.024	79.69
324.253	78.69
324.482	81.69
324.71	85.69
324.939	74.69
325.168	83.69
325.397	89.69
325.626	87.69
325.855	79.69
326.084	76.69
326.313	83.69
326.542	82.69
326.77	81.69
326.999	77.69
327.228	80.69
327.457	90.69
327.686	91.69
327.914	74.69
328.143	83.69
328.372	86.69
328.6	106.69
328.829	85.69
329.058	78.69
329.287	73.69
329.515	81.69
329.744	83.69
329.972	88.69
330.201	89.69
330.43	74.69
330.658	78.69
330.887	79.69
331.115	81.69
331.344	75.69
331.572	79.69
331.801	88.69
332.03	78.69
332.258	86.69
332.486	83.69
332.715	65.69
332.943	71.69
333.172	69.69
333.4	94.69
333.629	99.69
333.857	83.69
334.085	79.69
334.314	73.69
334.542	77.69
334.771	73.69
334.999	83.69
335.227	89.69
335.455	80.69
335.684	79.69
335.912	98.69
336.14	74.69
336.369	95.69
336.597	89.69
336.825	84.69
337.053	88.69
337.281	79.69
337.51	90.69
337.738	80.69
337.966	78.69
338.194	80.69
338.422	73.69
338.65	58.69
338.878	83.69
339.106	84.69
339.334	94.69
339.562	91.69
339.79	78.69
340.018	75.69
340.246	73.69
340.474	79.69
340.702	77.69
340.93	80.69
341.158	76.69
341.386	65.69
341.614	76.69
341.842	90.69
342.07	89.69
342.298	82.69
342.526	77.69
342.754	75.69
342.981	85.69
343.209	78.69
343.437	76.69
343.665	81.69
343.893	73.69
344.12	83.69
344.348	84.69
344.576	88.69
344.804	78.69
345.031	81.69
345.259	82.69
345.487	80.69
345.714	82.69
345.942	74.69
346.17	70.69
346.397	94.69
346.625	72.69
346.853	78.69
347.08	86.69
347.308	83.69
347.535	87.69
347.763	80.69
347.99	85.69
348.218	98.69
348.445	73.69
348.673	88.69
348.9	90.69
349.128	85.69
349.355	90.69
349.583	88.69
349.81	73.69
350.037	82.69
350.265	76.69
350.492	79.69
350.72	83.69
350.947	89.69
351.174	82.69
351.402	80.69
351.629	77.69
351.856	80.69
352.083	81.69
352.311	77.69
352.538	86.69
352.765	85.69
352.992	66.69
353.22	85.69
353.447	73.69
353.674	83.69
353.901	83.69
354.128	75.69
354.355	79.69
354.583	74.69
354.81	86.69
355.037	79.69
355.264	79.69
355.491	70.69
355.718	94.69
355.945	88.69
356.172	67.69
356.399	80.69
356.626	74.69
356.853	91.69
357.08	100.69
357.307	89.69
357.534	75.69
357.761	85.69
357.988	71.69
358.215	87.69
358.441	75.69
358.668	80.69
358.895	81.69
359.122	83.69
359.349	75.69
359.576	89.69
359.802	83.69
360.029	84.69
360.256	83.69
360.483	87.69
360.709	76.69
360.936	85.69
361.163	86.69
361.39	85.69
361.616	80.69
361.843	89.69
362.07	84.69
362.296	93.69
362.523	70.69
362.749	80.69
362.976	90.69
363.203	69.69
363.429	92.69
363.656	78.69
363.882	88.69
364.109	70.69
364.335	87.69
364.562	84.69
364.788	83.69
365.015	77.69
365.241	79.69
365.468	89.69
365.694	72.69
365.92	87.69
366.147	88.69
366.373	76.69
366.599	89.69
366.826	80.69
367.052	78.69
367.278	83.69
367.505	92.69
367.731	94.69
367.957	79.69
368.184	84.69
368.41	72.69
368.636	89.69
368.862	91.69
369.089	85.69
369.315	78.69
369.541	83.69
369.767	87.69
369.993	83.69
370.219	75.69
370.445	95.69
370.672	80.69
370.898	85.69
371.124	89.69
371.35	85.69
371.576	101.69
371.802	75.69
372.028	89.69
372.254	88.69
372.48	77.69
372.706	91.69
372.932	81.69
373.158	95.69
373.384	91.69
373.61	78.69
373.835	66.69
374.061	77.69
374.287	74.69
374.513	75.69
374.739	84.69
374.965	84.69
375.191	75.69
375.416	86.69
375.642	77.69
375.868	81.69
376.094	83.69
376.319	86.69
376.545	77.69
376.771	85.69
376.997	68.69
377.222	88.69
377.448	72.69
377.674	74.69
377.899	65.69
378.125	74.69
378.35	76.69
378.576	70.69
378.802	82.69
379.027	81.69
379.253	78.69
379.478	69.69
379.704	57.69
379.929	84.69
380.155	98.69
380.38	85.69
380.606	79.69
380.831	78.69
381.057	78.69
381.282	86.69
381.507	70.69
381.733	88.69
381.958	93.69
382.184	84.69
382.409	98.69
382.634	102.69
382.86	86.69
383.085	78.69
383.31	70.69
383.535	87.69
383.761	87.69
383.986	81.69
384.211	93.69
384.436	86.69
384.662	80.69
384.887	93.69
385.112	82.69
385.337	91.69
385.562	83.69
385.787	82.69
386.013	83.69
386.238	88.69
386.463	76.69
386.688	99.69
386.913	105.69
387.138	79.69
387.363	81.69
387.588	93.69
387.813	94.69
388.038	87.69
388.263	92.69
388.488	102.69
388.713	87.69
388.938	87.69
389.163	94.69
389.387	89.69
389.612	95.69
389.837	90.69
390.062	80.69
390.287	89.69
390.512	75.69
390.736	99.69
390.961	85.69
391.186	76.69
391.411	82.69
391.636	96.69
391.86	82.69
392.085	107.69
392.31	97.69
392.534	75.69
392.759	97.69
392.984	91.69
393.208	87.69
393.433	86.69
393.658	91.69
393.882	79.69
394.107	67.69
394.331	89.69
394.556	94.69
394.78	89.69
395.005	97.69
395.229	90.69
395.454	68.69
395.678	87.69
395.903	90.69
396.127	83.69
396.352	90.69
396.576	97.69
396.801	86.69
397.025	105.69
397.249	80.69
397.474	87.69
397.698	98.69
397.922	106.69
398.147	87.69
398.371	97.69
398.595	94.69
398.82	79.69
399.044	87.69
399.268	82.69
399.492	98.69
399.717	94.69
399.941	87.69
400.165	93.69
400.389	90.69
400.613	96.69
400.837	82.69
401.062	85.69
401.286	95.69
401.51	96.69
401.734	88.69
401.958	90.69
402.182	90.69
402.406	93.69
402.63	89.69
402.854	88.69
403.078	90.69
403.302	91.69
403.526	84.69
403.75	96.69
403.974	89.69
404.198	94.69
404.422	89.69
404.645	95.69
404.869	96.69
405.093	90.69
405.317	93.69
405.541	100.69
405.765	97.69
405.988	104.69
406.212	107.69
406.436	96.69
406.66	106.69
406.883	90.69
407.107	88.69
407.331	102.69
407.555	97.69
407.778	96.69
408.002	97.69
408.226	80.69
408.449	84.69
408.673	88.69
408.896	97.69
409.12	103.69
409.344	82.69
409.567	83.69
409.791	100.69
410.014	111.69
410.238	102.69
410.461	93.69
410.685	104.69
410.908	103.69
411.132	82.69
411.355	88.69
411.578	104.69
411.802	90.69
412.025	97.69
412.249	101.69
412.472	97.69
412.695	84.69
412.919	81.69
413.142	90.69
413.365	100.69
413.589	91.69
413.812	99.69
414.035	101.69
414.258	89.69
414.482	101.69
414.705	97.69
414.928	83.69
415.151	95.69
415.374	96.69
415.597	92.69
415.821	106.69
416.044	102.69
416.267	91.69
416.49	96.69
416.713	89.69
416.936	94.69
417.159	100.69
417.382	94.69
417.605	96.69
417.828	95.69
418.051	94.69
418.274	99.69
418.497	99.69
418.72	107.69
418.943	100.69
419.166	103.69
419.389	94.69
419.611	97.69
419.834	81.69
420.057	100.69
420.28	102.69
420.503	106.69
420.726	105.69
420.948	111.69
421.171	101.69
421.394	96.69
421.617	105.69
421.839	106.69
422.062	118.69
422.285	101.69
422.507	93.69
422.73	122.69
422.953	101.69
423.175	104.69
423.398	93.69
423.621	111.69
423.843	110.69
424.066	96.69
424.288	97.69
424.511	95.69
424.733	85.69
424.956	99.69
425.178	96.69
425.401	107.69
425.623	106.69
425.846	108.69
426.068	106.69
426.291	109.69
426.513	99.69
426.735	116.69
426.958	99.69
427.18	95.69
427.402	102.69
427.625	106.69
427.847	97.69
428.069	101.69
428.292	83.69
428.514	100.69
428.736	86.69
428.958	104.69
429.181	107.69
429.403	114.69
429.625	109.69
429.847	107.69
430.069	95.69
430.292	112.69
430.514	99.69
430.736	93.69
430.958	92.69
431.18	94.69
431.402	99.69
431.624	105.69
431.846	96.69
432.068	87.69
432.29	91.69
432.512	78.69
432.734	92.69
432.956	91.69
433.178	111.69
433.4	115.69
433.622	109.69
433.844	102.69
434.066	100.69
434.287	101.69
434.509	87.69
434.731	87.69
434.953	90.69
435.175	96.69
435.397	102.69
435.618	102.69
435.84	97.69
436.062	103.69
436.284	104.69
436.505	101.69
436.727	102.69
436.949	111.69
437.17	105.69
437.392	111.69
437.614	93.69
437.835	97.69
438.057	89.69
438.278	98.69
438.5	100.69
438.721	106.69
438.943	104.69
439.165	100.69
439.386	103.69
439.608	120.69
439.829	125.69
440.05	131.69
440.272	111.69
440.493	118.69
440.715	117.69
440.936	113.69
441.158	95.69
441.379	107.69
441.6	109.69
441.822	100.69
442.043	121.69
442.264	107.69
442.486	89.69
442.707	103.69
442.928	111.69
443.149	103.69
443.371	103.69
443.592	105.69
443.813	101.69
444.034	109.69
444.255	117.69
444.476	121.69
444.698	104.69
444.919	109.69
445.14	231.69
445.361	173.69
445.582	97.69
445.803	91.69
446.024	110.69
446.245	114.69
446.466	115.69
446.687	123.69
446.908	114.69
447.129	114.69
447.35	120.69
447.571	111.69
447.792	114.69
448.013	112.69
448.234	102.69
448.455	120.69
448.675	108.69
448.896	94.69
449.117	115.69
449.338	109.69
449.559	114.69
449.779	105.69
450	111.69
450.221	99.69
450.442	95.69
450.662	119.69
450.883	103.69
451.104	114.69
451.324	109.69
451.545	111.69
451.766	109.69
451.986	110.69
452.207	97.69
452.428	92.69
452.648	100.69
452.869	101.69
453.089	104.69
453.31	98.69
453.53	90.69
453.751	95.69
453.971	94.69
454.192	81.69
454.412	98.69
454.633	94.69
454.853	112.69
455.073	93.69
455.294	91.69
455.514	96.69
455.734	95.69
455.955	103.69
456.175	84.69
456.395	88.69
456.616	89.69
456.836	99.69
457.056	98.69
457.276	86.69
457.497	95.69
457.717	83.69
457.937	113.69
458.157	104.69
458.377	97.69
458.598	89.69
458.818	85.69
459.038	75.69
459.258	79.69
459.478	87.69
459.698	66.69
459.918	75.69
460.138	88.69
460.358	98.69
460.578	91.69
460.798	87.69
461.018	94.69
461.238	103.69
461.458	101.69
461.678	88.69
461.898	77.69
462.118	87.69
462.338	101.69
462.558	86.69
462.777	102.69
462.997	87.69
463.217	81.69
463.437	96.69
463.657	87.69
463.876	105.69
464.096	95.69
464.316	79.69
464.536	98.69
464.755	104.69
464.975	105.69
465.195	104.69
465.414	102.69
465.634	98.69
465.854	99.69
466.073	103.69
466.293	93.69
466.512	93.69
466.732	104.69
466.951	98.69
467.171	111.69
467.391	99.69
467.61	107.69
467.829	103.69
468.049	102.69
468.268	99.69
468.488	104.69
468.707	103.69
468.927	114.69
469.146	105.69
469.365	102.69
469.585	93.69
469.804	106.69
470.023	110.69
470.243	106.69
470.462	109.69
470.681	101.69
470.901	118.69
471.12	105.69
471.339	115.69
471.558	109.69
471.777	114.69
471.997	111.69
472.216	112.69
472.435	99.69
472.654	95.69
472.873	92.69
473.092	109.69
473.311	85.69
473.53	107.69
473.749	100.69
473.968	118.69
474.187	102.69
474.406	87.69
474.625	109.69
474.844	117.69
475.063	107.69
475.282	107.69
475.501	104.69
475.72	94.69
475.939	106.69
476.158	94.69
476.377	101.69
476.596	93.69
476.814	85.69
477.033	98.69
477.252	95.69
477.471	100.69
477.69	113.69
477.908	109.69
478.127	117.69
478.346	102.69
478.564	111.69
478.783	101.69
479.002	102.69
479.22	103.69
479.439	127.69
479.658	98.69
479.876	94.69
480.095	98.69
480.313	115.69
480.532	97.69
480.751	107.69
480.969	93.69
481.188	97.69
481.406	80.69
481.624	81.69
481.843	74.69
482.061	93.69
482.28	90.69
482.498	98.69
482.717	87.69
482.935	100.69
483.153	114.69
483.372	106.69
483.59	106.69
483.808	121.69
484.027	111.69
484.245	110.69
484.463	101.69
484.681	121.69
484.9	123.69
485.118	123.69
485.336	102.69
485.554	79.69
485.772	91.69
485.99	95.69
486.209	83.69
486.427	98.69
486.645	106.69
486.863	95.69
487.081	113.69
487.299	93.69
487.517	106.69
487.735	131.69
487.953	142.69
488.171	117.69
488.389	121.69
488.607	128.69
488.825	118.69
489.043	112.69
489.261	99.69
489.479	98.69
489.696	108.69
489.914	111.69
490.132	106.69
490.35	99.69
490.568	114.69
490.786	120.69
491.003	135.69
491.221	123.69
491.439	127.69
491.657	129.69
491.874	135.69
492.092	143.69
492.31	145.69
492.527	145.69
492.745	145.69
492.963	123.69
493.18	138.69
493.398	122.69
493.615	124.69
493.833	121.69
494.05	135.69
494.268	113.69
494.485	128.69
494.703	125.69
494.92	117.69
495.138	110.69
495.355	118.69
495.573	119.69
495.79	120.69
496.008	114.69
496.225	107.69
496.442	123.69
496.66	126.69
496.877	123.69
497.094	129.69
497.312	121.69
497.529	122.69
497.746	122.69
497.963	104.69
498.181	121.69
498.398	97.69
498.615	103.69
498.832	107.69
499.049	91.69
499.267	101.69
499.484	99.69
499.701	108.69
499.918	110.69
500.135	103.69
500.352	97.69
500.569	98.69
500.786	108.69
501.003	90.69
501.22	111.69
501.437	111.69
501.654	114.69
501.871	111.69
502.088	91.69
502.305	110.69
502.522	109.69
502.739	99.69
502.956	99.69
503.172	93.69
503.389	96.69
503.606	98.69
503.823	91.69
504.04	114.69
504.256	93.69
504.473	95.69
504.69	94.69
504.907	109.69
505.123	91.69
505.34	102.69
505.557	110.69
505.773	100.69
505.99	104.69
506.207	108.69
506.423	94.69
506.64	104.69
506.856	89.69
507.073	103.69
507.289	100.69
507.506	89.69
507.722	102.69
507.939	88.69
508.155	93.69
508.372	99.69
508.588	101.69
508.805	103.69
509.021	89.69
509.238	86.69
509.454	90.69
509.67	113.69
509.887	90.69
510.103	98.69
510.319	80.69
510.536	79.69
510.752	75.69
510.968	93.69
511.184	86.69
511.401	74.69
511.617	100.69
511.833	88.69
512.049	78.69
512.265	81.69
512.481	74.69
512.698	88.69
512.914	75.69
513.13	87.69
513.346	102.69
513.562	95.69
513.778	92.69
513.994	88.69
514.21	86.69
514.426	80.69
514.642	93.69
514.858	85.69
515.074	86.69
515.29	75.69
515.506	78.69
515.721	68.69
515.937	82.69
516.153	98.69
516.369	81.69
516.585	74.69
516.801	80.69
517.016	81.69
517.232	87.69
517.448	97.69
517.664	85.69
517.879	93.69
518.095	98.69
518.311	87.69
518.527	89.69
518.742	96.69
518.958	103.69
519.173	96.69
519.389	111.69
519.605	90.69
519.82	91.69
520.036	108.69
520.251	90.69
520.467	100.69
520.682	92.69
520.898	90.69
521.113	88.69
521.329	81.69
521.544	98.69
521.76	84.69
521.975	75.69
522.19	88.69
522.406	87.69
522.621	85.69
522.836	91.69
523.052	95.69
523.267	86.69
523.482	84.69
523.698	102.69
523.913	111.69
524.128	94.69
524.343	95.69
524.559	99.69
524.774	105.69
524.989	101.69
525.204	105.69
525.419	105.69
525.634	99.69
525.849	97.69
526.064	94.69
526.28	93.69
526.495	76.69
526.71	90.69
526.925	88.69
527.14	79.69
527.355	79.69
527.57	81.69
527.785	76.69
527.999	91.69
528.214	82.69
528.429	88.69
528.644	89.69
528.859	106.69
529.074	113.69
529.289	121.69
529.503	121.69
529.718	113.69
529.933	110.69
530.148	82.69
530.363	94.69
530.577	83.69
530.792	95.69
531.007	74.69
531.221	76.69
531.436	94.69
531.651	86.69
531.865	86.69
532.08	81.69
532.295	85.69
532.509	86.69
532.724	83.69
532.938	89.69
533.153	80.69
533.367	95.69
533.582	84.69
533.796	95.69
534.011	83.69
534.225	84.69
534.44	81.69
534.654	82.69
534.868	114.69
535.083	88.69
535.297	78.69
535.511	94.69
535.726	95.69
535.94	100.69
536.154	88.69
536.369	66.69
536.583	72.69
536.797	85.69
537.011	84.69
537.225	74.69
537.44	86.69
537.654	86.69
537.868	101.69
538.082	99.69
538.296	86.69
538.51	86.69
538.724	87.69
538.938	97.69
539.153	109.69
539.367	99.69
539.581	104.69
539.795	96.69
540.009	92.69
540.222	85.69
540.436	69.69
540.65	96.69
540.864	93.69
541.078	115.69
541.292	110.69
541.506	121.69
541.72	124.69
541.934	138.69
542.147	140.69
542.361	146.69
542.575	122.69
542.789	122.69
543.002	111.69
543.216	99.69
543.43	102.69
543.644	107.69
543.857	99.69
544.071	132.69
544.285	127.69
544.498	122.69
544.712	112.69
544.925	115.69
545.139	113.69
545.352	110.69
545.566	112.69
545.779	120.69
545.993	129.69
546.206	129.69
546.42	114.69
546.633	106.69
546.847	124.69
547.06	115.69
547.274	125.69
547.487	130.69
547.7	124.69
547.914	116.69
548.127	136.69
548.34	110.69
548.554	123.69
548.767	118.69
548.98	134.69
549.193	115.69
549.407	104.69
549.62	113.69
549.833	114.69
550.046	120.69
550.259	114.69
550.473	105.69
550.686	119.69
550.899	111.69
551.112	104.69
551.325	107.69
551.538	110.69
551.751	111.69
551.964	96.69
552.177	95.69
552.39	116.69
552.603	105.69
552.816	111.69
553.029	131.69
553.242	136.69
553.455	123.69
553.667	110.69
553.88	132.69
554.093	105.69
554.306	104.69
554.519	110.69
554.732	109.69
554.944	111.69
555.157	106.69
555.37	121.69
555.583	117.69
555.795	117.69
556.008	106.69
556.221	102.69
556.433	115.69
556.646	107.69
556.859	108.69
557.071	102.69
557.284	118.69
557.496	112.69
557.709	112.69
557.921	110.69
558.134	113.69
558.346	111.69
558.559	88.69
558.771	103.69
558.984	117.69
559.196	121.69
559.409	106.69
559.621	115.69
559.833	97.69
560.046	98.69
560.258	115.69
560.47	104.69
560.683	109.69
560.895	105.69
561.107	106.69
561.32	110.69
561.532	115.69
561.744	110.69
561.956	102.69
562.168	97.69
562.381	101.69
562.593	110.69
562.805	94.69
563.017	99.69
563.229	96.69
563.441	90.69
563.653	97.69
563.865	99.69
564.077	109.69
564.289	105.69
564.501	95.69
564.713	93.69
564.925	92.69
565.137	96.69
565.349	94.69
565.561	102.69
565.773	105.69
565.985	88.69
566.197	95.69
566.408	87.69
566.62	94.69
566.832	112.69
567.044	95.69
567.255	85.69
567.467	87.69
567.679	102.69
567.891	89.69
568.102	83.69
568.314	79.69
568.526	85.69
568.737	91.69
568.949	72.69
569.161	88.69
569.372	74.69
569.584	71.69
569.795	90.69
570.007	86.69
570.218	78.69
570.43	95.69
570.641	91.69
570.853	89.69
571.064	86.69
571.276	71.69
571.487	89.69
571.698	81.69
571.91	83.69
572.121	95.69
572.333	95.69
572.544	77.69
572.755	86.69
572.966	81.69
573.178	83.69
573.389	81.69
573.6	81.69
573.811	94.69
574.023	75.69
574.234	88.69
574.445	88.69
574.656	84.69
574.867	72.69
575.078	87.69
575.289	96.69
575.501	100.69
575.712	80.69
575.923	92.69
576.134	86.69
576.345	86.69
576.556	76.69
576.767	80.69
576.978	88.69
577.188	101.69
577.399	85.69
577.61	89.69
577.821	87.69
578.032	90.69
578.243	95.69
578.454	92.69
578.665	95.69
578.875	83.69
579.086	94.69
579.297	79.69
579.508	79.69
579.718	92.69
579.929	96.69
580.14	88.69
580.35	102.69
580.561	84.69
580.772	90.69
580.982	85.69
581.193	83.69
581.403	85.69
581.614	94.69
581.825	75.69
582.035	89.69
582.246	82.69
582.456	68.69
582.667	85.69
582.877	78.69
583.087	85.69
583.298	85.69
583.508	91.69
583.719	85.69
583.929	94.69
584.139	82.69
584.35	81.69
584.56	90.69
584.77	72.69
584.981	85.69
585.191	93.69
585.401	71.69
585.611	87.69
585.821	89.69
586.032	86.69
586.242	74.69
586.452	80.69
586.662	82.69
586.872	67.69
587.082	79.69
587.292	75.69
587.502	89.69
587.713	85.69
587.923	90.69
588.133	82.69
588.343	67.69
588.553	88.69
588.762	74.69
588.972	84.69
589.182	80.69
589.392	73.69
589.602	95.69
589.812	76.69
590.022	90.69
590.232	91.69
590.441	83.69
590.651	72.69
590.861	81.69
591.071	77.69
591.281	71.69
591.49	82.69
591.7	75.69
591.91	85.69
592.119	71.69
592.329	92.69
592.539	96.69
592.748	89.69
592.958	89.69
593.167	77.69
593.377	88.69
593.587	74.69
593.796	84.69
594.006	68.69
594.215	76.69
594.424	88.69
594.634	80.69
594.843	77.69
595.053	94.69
595.262	78.69
595.472	85.69
595.681	74.69
595.89	90.69
596.1	87.69
596.309	98.69
596.518	78.69
596.727	82.69
596.937	89.69
597.146	84.69
597.355	96.69
597.564	82.69
597.774	74.69
597.983	86.69
598.192	87.69
598.401	79.69
598.61	81.69
598.819	86.69
599.028	72.69
599.237	71.69
599.446	94.69
599.655	79.69
599.864	89.69
600.073	84.69
600.282	73.69
600.491	74.69
600.7	86.69
600.909	79.69
601.118	84.69
601.327	90.69
601.536	93.69
601.745	93.69
601.953	85.69
602.162	100.69
602.371	96.69
602.58	101.69
602.789	94.69
602.997	89.69
603.206	96.69
603.415	84.69
603.623	87.69
603.832	93.69
604.041	91.69
604.249	101.69
604.458	85.69
604.666	88.69
604.875	93.69
605.084	83.69
605.292	95.69
605.501	93.69
605.709	104.69
605.918	90.69
606.126	101.69
606.334	94.69
606.543	102.69
606.751	93.69
606.96	98.69
607.168	99.69
607.376	90.69
607.585	102.69
607.793	79.69
608.001	82.69
608.21	96.69
608.418	93.69
608.626	100.69
608.834	90.69
609.043	97.69
609.251	96.69
609.459	90.69
609.667	92.69
609.875	105.69
610.083	100.69
610.291	105.69
610.499	98.69
610.707	95.69
610.916	94.69
611.124	103.69
611.332	94.69
611.54	102.69
611.748	96.69
611.955	92.69
612.163	78.69
612.371	85.69
612.579	93.69
612.787	91.69
612.995	99.69
613.203	99.69
613.411	93.69
613.618	96.69
613.826	103.69
614.034	102.69
614.242	97.69
614.449	94.69
614.657	82.69
614.865	97.69
615.072	107.69
615.28	90.69
615.488	98.69
615.695	102.69
615.903	86.69
616.111	90.69
616.318	90.69
616.526	96.69
616.733	98.69
616.941	98.69
617.148	103.69
617.356	107.69
617.563	83.69
617.771	98.69
617.978	79.69
618.185	86.69
618.393	75.69
618.6	91.69
618.807	99.69
619.015	96.69
619.222	100.69
619.429	90.69
619.637	97.69
619.844	86.69
620.051	91.69
620.258	92.69
620.466	81.69
620.673	85.69
620.88	95.69
621.087	103.69
621.294	95.69
621.501	82.69
621.708	96.69
621.915	92.69
622.122	94.69
622.329	92.69
622.536	94.69
622.743	89.69
622.95	89.69
623.157	87.69
623.364	89.69
623.571	88.69
623.778	100.69
623.985	100.69
624.192	92.69
624.399	83.69
624.606	86.69
624.812	90.69
625.019	89.69
625.226	97.69
625.433	88.69
625.639	80.69
625.846	73.69
626.053	89.69
626.259	94.69
626.466	98.69
626.673	93.69
626.879	84.69
627.086	87.69
627.293	90.69
627.499	105.69
627.706	96.69
627.912	79.69
628.119	96.69
628.325	90.69
628.532	85.69
628.738	92.69
628.945	102.69
629.151	109.69
629.357	87.69
629.564	77.69
629.77	85.69
629.976	86.69
630.183	87.69
630.389	79.69
630.595	76.69
630.802	99.69
631.008	84.69
631.214	85.69
631.42	90.69
631.627	94.69
631.833	89.69
632.039	86.69
632.245	83.69
632.451	85.69
632.657	80.69
632.863	98.69
633.069	92.69
633.275	101.69
633.481	86.69
633.688	99.69
633.893	103.69
634.099	90.69
634.305	87.69
634.511	91.69
634.717	83.69
634.923	97.69
635.129	114.69
635.335	93.69
635.541	85.69
635.747	85.69
635.952	82.69
636.158	93.69
636.364	87.69
636.57	120.69
636.775	72.69
636.981	91.69
637.187	98.69
637.392	96.69
637.598	90.69
637.804	91.69
638.009	86.69
638.215	84.69
638.421	76.69
638.626	90.69
638.832	82.69
639.037	73.69
639.243	84.69
639.448	102.69
639.654	101.69
639.859	92.69
640.065	78.69
640.27	110.69
640.475	96.69
640.681	97.69
640.886	91.69
641.091	74.69
641.297	90.69
641.502	81.69
641.707	75.69
641.913	87.69
642.118	95.69
642.323	90.69
642.528	99.69
642.733	90.69
642.939	92.69
643.144	93.69
643.349	90.69
643.554	86.69
643.759	84.69
643.964	83.69
644.169	84.69
644.374	100.69
644.579	97.69
644.784	83.69
644.989	79.69
645.194	97.69
645.399	97.69
645.604	87.69
645.809	75.69
646.014	86.69
646.219	106.69
646.423	82.69
646.628	78.69
646.833	85.69
647.038	100.69
647.243	74.69
647.447	108.69
647.652	87.69
647.857	85.69
648.062	90.69
648.266	74.69
648.471	85.69
648.676	69.69
648.88	88.69
649.085	78.69
649.289	83.69
649.494	91.69
649.698	85.69
649.903	90.69
650.107	99.69
650.312	89.69
650.516	96.69
650.721	78.69
650.925	99.69
651.13	82.69
651.334	89.69
651.539	89.69
651.743	90.69
651.947	91.69
652.152	98.69
652.356	89.69
652.56	90.69
652.764	86.69
652.969	65.69
653.173	82.69
653.377	82.69
653.581	83.69
653.785	89.69
653.99	87.69
654.194	83.69
654.398	87.69
654.602	67.69
654.806	87.69
655.01	87.69
655.214	73.69
655.418	84.69
655.622	69.69
655.826	84.69
656.03	93.69
656.234	70.69
656.438	81.69
656.642	79.69
656.846	78.69
657.049	90.69
657.253	87.69
657.457	84.69
657.661	81.69
657.865	86.69
658.068	74.69
658.272	80.69
658.476	87.69
658.68	79.69
658.883	88.69
659.087	86.69
659.291	78.69
659.494	76.69
659.698	83.69
659.901	90.69
660.105	89.69
660.309	87.69
660.512	88.69
660.716	74.69
660.919	83.69
661.123	83.69
661.326	82.69
661.53	84.69
661.733	78.69
661.936	83.69
662.14	83.69
662.343	85.69
662.546	71.69
662.75	80.69
662.953	66.69
663.156	76.69
663.36	76.69
663.563	85.69
663.766	64.69
663.969	73.69
664.173	81.69
664.376	67.69
664.579	78.69
664.782	68.69
664.985	67.69
665.188	61.69
665.391	83.69
665.594	79.69
665.797	85.69
666	86.69
666.203	82.69
666.406	62.69
666.609	77.69
666.812	85.69
667.015	94.69
667.218	86.69
667.421	88.69
667.624	75.69
667.827	80.69
668.03	72.69
668.232	79.69
668.435	76.69
668.638	77.69
668.841	66.69
669.043	77.69
669.246	85.69
669.449	90.69
669.651	85.69
669.854	73.69
670.057	84.69
670.259	75.69
670.462	89.69
670.665	78.69
670.867	67.69
671.07	67.69
671.272	74.69
671.475	78.69
671.677	81.69
671.88	68.69
672.082	92.69
672.284	66.69
672.487	86.69
672.689	83.69
672.892	75.69
