Data from Zn(NO3)2Standard.Agarose3%.GreenCap.LampEnergy10E.O_HRD10591_15-07-07-943.txt Node
Date: Mon Jul 22 15:07:07 EDT 2019
User: cochatt
Spectrometer: HR+D1059
Trigger mode: 1
Integration Time (sec): 1.000000E-1
Scans to average: 1
Electric dark correction enabled: true
Nonlinearity correction enabled: false
Boxcar width: 0
XAxis mode: Wavelengths
Number of Pixels in Spectrum: 2048
>>>>>Begin Spectral Data<<<<<
223.165	-19.62
223.4	-19.62
223.635	-19.62
223.869	-24.62
224.104	-25.62
224.338	-12.62
224.573	-9.62
224.808	-10.62
225.042	-11.62
225.277	-16.62
225.511	-0.62
225.746	-1.62
225.98	7.38
226.215	9.38
226.449	18.38
226.683	28.38
226.918	40.38
227.152	29.38
227.387	32.38
227.621	31.38
227.856	52.38
228.09	50.38
228.324	46.38
228.559	42.38
228.793	60.38
229.027	63.38
229.262	59.38
229.496	68.38
229.73	57.38
229.964	81.38
230.199	62.38
230.433	78.38
230.667	56.38
230.901	73.38
231.136	66.38
231.37	79.38
231.604	87.38
231.838	94.38
232.072	87.38
232.306	102.38
232.541	95.38
232.775	78.38
233.009	102.38
233.243	75.38
233.477	104.38
233.711	98.38
233.945	80.38
234.179	85.38
234.413	81.38
234.647	68.38
234.881	95.38
235.115	68.38
235.349	72.38
235.583	91.38
235.817	90.38
236.051	80.38
236.285	72.38
236.519	91.38
236.753	87.38
236.987	83.38
237.221	73.38
237.455	81.38
237.689	74.38
237.922	75.38
238.156	87.38
238.39	77.38
238.624	84.38
238.858	80.38
239.091	78.38
239.325	86.38
239.559	76.38
239.793	83.38
240.027	75.38
240.26	70.38
240.494	73.38
240.728	71.38
240.961	71.38
241.195	79.38
241.429	81.38
241.662	72.38
241.896	75.38
242.13	85.38
242.363	76.38
242.597	81.38
242.83	71.38
243.064	76.38
243.298	76.38
243.531	70.38
243.765	75.38
243.998	82.38
244.232	76.38
244.465	82.38
244.699	76.38
244.932	78.38
245.166	85.38
245.399	82.38
245.633	81.38
245.866	84.38
246.099	78.38
246.333	76.38
246.566	89.38
246.8	83.38
247.033	90.38
247.266	80.38
247.5	83.38
247.733	73.38
247.966	79.38
248.2	89.38
248.433	90.38
248.666	92.38
248.899	77.38
249.133	92.38
249.366	89.38
249.599	87.38
249.832	88.38
250.066	108.38
250.299	68.38
250.532	81.38
250.765	90.38
250.998	80.38
251.231	90.38
251.465	77.38
251.698	82.38
251.931	92.38
252.164	76.38
252.397	82.38
252.63	75.38
252.863	76.38
253.096	84.38
253.329	97.38
253.562	79.38
253.795	88.38
254.028	85.38
254.261	90.38
254.494	84.38
254.727	76.38
254.96	95.38
255.193	85.38
255.426	82.38
255.659	75.38
255.892	92.38
256.124	73.38
256.357	73.38
256.59	80.38
256.823	80.38
257.056	89.38
257.289	91.38
257.521	93.38
257.754	86.38
257.987	66.38
258.22	72.38
258.452	98.38
258.685	94.38
258.918	75.38
259.151	80.38
259.383	77.38
259.616	87.38
259.849	84.38
260.081	79.38
260.314	61.38
260.547	76.38
260.779	85.38
261.012	89.38
261.244	83.38
261.477	85.38
261.71	77.38
261.942	76.38
262.175	85.38
262.407	83.38
262.64	78.38
262.872	79.38
263.105	77.38
263.337	81.38
263.57	89.38
263.802	95.38
264.035	74.38
264.267	76.38
264.499	80.38
264.732	79.38
264.964	88.38
265.197	90.38
265.429	93.38
265.661	95.38
265.894	68.38
266.126	91.38
266.358	86.38
266.591	81.38
266.823	102.38
267.055	82.38
267.287	93.38
267.52	85.38
267.752	93.38
267.984	86.38
268.216	80.38
268.448	74.38
268.681	90.38
268.913	75.38
269.145	67.38
269.377	82.38
269.609	81.38
269.841	85.38
270.073	88.38
270.306	87.38
270.538	99.38
270.77	91.38
271.002	81.38
271.234	88.38
271.466	89.38
271.698	84.38
271.93	83.38
272.162	86.38
272.394	88.38
272.626	75.38
272.858	77.38
273.09	76.38
273.322	95.38
273.553	91.38
273.785	82.38
274.017	89.38
274.249	76.38
274.481	84.38
274.713	83.38
274.945	89.38
275.176	83.38
275.408	73.38
275.64	85.38
275.872	88.38
276.104	89.38
276.335	87.38
276.567	81.38
276.799	72.38
277.031	82.38
277.262	76.38
277.494	81.38
277.726	92.38
277.957	82.38
278.189	93.38
278.421	79.38
278.652	96.38
278.884	82.38
279.115	85.38
279.347	89.38
279.579	85.38
279.81	91.38
280.042	80.38
280.273	91.38
280.505	80.38
280.736	79.38
280.968	66.38
281.199	75.38
281.431	99.38
281.662	92.38
281.894	90.38
282.125	83.38
282.356	87.38
282.588	71.38
282.819	81.38
283.051	85.38
283.282	86.38
283.513	85.38
283.745	83.38
283.976	90.38
284.207	98.38
284.439	85.38
284.67	83.38
284.901	91.38
285.132	93.38
285.364	86.38
285.595	78.38
285.826	86.38
286.057	86.38
286.288	87.38
286.52	85.38
286.751	84.38
286.982	88.38
287.213	86.38
287.444	90.38
287.675	86.38
287.906	87.38
288.138	82.38
288.369	81.38
288.6	72.38
288.831	79.38
289.062	96.38
289.293	93.38
289.524	100.38
289.755	86.38
289.986	88.38
290.217	78.38
290.448	92.38
290.679	84.38
290.91	90.38
291.141	80.38
291.371	86.38
291.602	91.38
291.833	90.38
292.064	71.38
292.295	82.38
292.526	83.38
292.757	83.38
292.987	79.38
293.218	85.38
293.449	92.38
293.68	84.38
293.91	88.38
294.141	79.38
294.372	98.38
294.603	106.38
294.833	91.38
295.064	91.38
295.295	86.38
295.525	90.38
295.756	82.38
295.987	81.38
296.217	82.38
296.448	80.38
296.679	96.38
296.909	87.38
297.14	79.38
297.37	90.38
297.601	87.38
297.831	92.38
298.062	88.38
298.292	89.38
298.523	91.38
298.753	103.38
298.984	90.38
299.214	96.38
299.445	119.38
299.675	80.38
299.905	82.38
300.136	85.38
300.366	78.38
300.597	79.38
300.827	89.38
301.057	80.38
301.288	78.38
301.518	101.38
301.748	91.38
301.979	86.38
302.209	98.38
302.439	97.38
302.669	89.38
302.9	100.38
303.13	92.38
303.36	95.38
303.59	85.38
303.82	86.38
304.051	88.38
304.281	97.38
304.511	93.38
304.741	79.38
304.971	97.38
305.201	82.38
305.431	94.38
305.661	85.38
305.891	84.38
306.121	95.38
306.352	77.38
306.582	77.38
306.812	84.38
307.042	86.38
307.272	77.38
307.502	90.38
307.731	87.38
307.961	83.38
308.191	86.38
308.421	88.38
308.651	84.38
308.881	93.38
309.111	98.38
309.341	86.38
309.571	92.38
309.8	102.38
310.03	80.38
310.26	77.38
310.49	97.38
310.72	88.38
310.949	80.38
311.179	91.38
311.409	92.38
311.639	84.38
311.868	85.38
312.098	94.38
312.328	81.38
312.557	87.38
312.787	84.38
313.017	69.38
313.246	90.38
313.476	98.38
313.706	86.38
313.935	98.38
314.165	95.38
314.394	90.38
314.624	99.38
314.853	110.38
315.083	87.38
315.312	87.38
315.542	80.38
315.771	82.38
316.001	81.38
316.23	93.38
316.46	86.38
316.689	106.38
316.919	94.38
317.148	96.38
317.377	86.38
317.607	89.38
317.836	77.38
318.065	95.38
318.295	87.38
318.524	87.38
318.753	104.38
318.983	78.38
319.212	70.38
319.441	83.38
319.67	82.38
319.9	84.38
320.129	74.38
320.358	79.38
320.587	94.38
320.816	82.38
321.046	100.38
321.275	101.38
321.504	83.38
321.733	78.38
321.962	92.38
322.191	91.38
322.42	84.38
322.649	94.38
322.878	84.38
323.108	95.38
323.337	83.38
323.566	80.38
323.795	90.38
324.024	91.38
324.253	83.38
324.482	80.38
324.71	74.38
324.939	97.38
325.168	91.38
325.397	101.38
325.626	82.38
325.855	95.38
326.084	92.38
326.313	88.38
326.542	84.38
326.77	87.38
326.999	87.38
327.228	88.38
327.457	95.38
327.686	90.38
327.914	88.38
328.143	87.38
328.372	84.38
328.6	78.38
328.829	92.38
329.058	83.38
329.287	90.38
329.515	87.38
329.744	82.38
329.972	79.38
330.201	86.38
330.43	89.38
330.658	88.38
330.887	88.38
331.115	92.38
331.344	87.38
331.572	98.38
331.801	68.38
332.03	84.38
332.258	82.38
332.486	83.38
332.715	84.38
332.943	79.38
333.172	89.38
333.4	97.38
333.629	79.38
333.857	91.38
334.085	77.38
334.314	86.38
334.542	98.38
334.771	83.38
334.999	98.38
335.227	81.38
335.455	91.38
335.684	91.38
335.912	95.38
336.14	91.38
336.369	84.38
336.597	83.38
336.825	91.38
337.053	93.38
337.281	79.38
337.51	90.38
337.738	82.38
337.966	73.38
338.194	85.38
338.422	74.38
338.65	91.38
338.878	94.38
339.106	86.38
339.334	84.38
339.562	79.38
339.79	96.38
340.018	93.38
340.246	84.38
340.474	92.38
340.702	99.38
340.93	84.38
341.158	87.38
341.386	87.38
341.614	87.38
341.842	87.38
342.07	81.38
342.298	80.38
342.526	80.38
342.754	90.38
342.981	84.38
343.209	91.38
343.437	92.38
343.665	81.38
343.893	85.38
344.12	93.38
344.348	91.38
344.576	95.38
344.804	83.38
345.031	74.38
345.259	86.38
345.487	88.38
345.714	80.38
345.942	72.38
346.17	81.38
346.397	94.38
346.625	86.38
346.853	87.38
347.08	86.38
347.308	88.38
347.535	75.38
347.763	89.38
347.99	94.38
348.218	87.38
348.445	84.38
348.673	93.38
348.9	92.38
349.128	102.38
349.355	80.38
349.583	98.38
349.81	93.38
350.037	88.38
350.265	79.38
350.492	74.38
350.72	89.38
350.947	71.38
351.174	89.38
351.402	86.38
351.629	94.38
351.856	84.38
352.083	86.38
352.311	77.38
352.538	82.38
352.765	94.38
352.992	84.38
353.22	81.38
353.447	84.38
353.674	82.38
353.901	89.38
354.128	75.38
354.355	75.38
354.583	84.38
354.81	92.38
355.037	86.38
355.264	101.38
355.491	80.38
355.718	102.38
355.945	86.38
356.172	97.38
356.399	76.38
356.626	90.38
356.853	95.38
357.08	74.38
357.307	80.38
357.534	87.38
357.761	86.38
357.988	80.38
358.215	93.38
358.441	75.38
358.668	70.38
358.895	96.38
359.122	83.38
359.349	90.38
359.576	80.38
359.802	91.38
360.029	83.38
360.256	86.38
360.483	88.38
360.709	93.38
360.936	89.38
361.163	89.38
361.39	85.38
361.616	87.38
361.843	90.38
362.07	84.38
362.296	76.38
362.523	81.38
362.749	85.38
362.976	94.38
363.203	91.38
363.429	99.38
363.656	93.38
363.882	75.38
364.109	83.38
364.335	74.38
364.562	97.38
364.788	83.38
365.015	86.38
365.241	96.38
365.468	91.38
365.694	92.38
365.92	89.38
366.147	97.38
366.373	85.38
366.599	81.38
366.826	103.38
367.052	87.38
367.278	73.38
367.505	78.38
367.731	99.38
367.957	88.38
368.184	106.38
368.41	82.38
368.636	82.38
368.862	99.38
369.089	91.38
369.315	98.38
369.541	103.38
369.767	104.38
369.993	95.38
370.219	71.38
370.445	91.38
370.672	75.38
370.898	87.38
371.124	99.38
371.35	86.38
371.576	90.38
371.802	88.38
372.028	83.38
372.254	78.38
372.48	93.38
372.706	86.38
372.932	107.38
373.158	98.38
373.384	98.38
373.61	93.38
373.835	94.38
374.061	94.38
374.287	89.38
374.513	77.38
374.739	84.38
374.965	93.38
375.191	81.38
375.416	81.38
375.642	79.38
375.868	86.38
376.094	87.38
376.319	94.38
376.545	99.38
376.771	83.38
376.997	82.38
377.222	80.38
377.448	99.38
377.674	91.38
377.899	91.38
378.125	85.38
378.35	82.38
378.576	90.38
378.802	84.38
379.027	85.38
379.253	82.38
379.478	80.38
379.704	89.38
379.929	83.38
380.155	97.38
380.38	83.38
380.606	79.38
380.831	84.38
381.057	101.38
381.282	87.38
381.507	88.38
381.733	87.38
381.958	96.38
382.184	88.38
382.409	77.38
382.634	84.38
382.86	93.38
383.085	86.38
383.31	100.38
383.535	89.38
383.761	88.38
383.986	108.38
384.211	90.38
384.436	77.38
384.662	105.38
384.887	86.38
385.112	98.38
385.337	87.38
385.562	87.38
385.787	79.38
386.013	104.38
386.238	93.38
386.463	95.38
386.688	94.38
386.913	88.38
387.138	83.38
387.363	89.38
387.588	97.38
387.813	104.38
388.038	91.38
388.263	86.38
388.488	94.38
388.713	81.38
388.938	87.38
389.163	99.38
389.387	98.38
389.612	97.38
389.837	75.38
390.062	88.38
390.287	81.38
390.512	79.38
390.736	86.38
390.961	105.38
391.186	95.38
391.411	95.38
391.636	87.38
391.86	88.38
392.085	96.38
392.31	91.38
392.534	89.38
392.759	96.38
392.984	83.38
393.208	92.38
393.433	99.38
393.658	111.38
393.882	107.38
394.107	106.38
394.331	106.38
394.556	91.38
394.78	96.38
395.005	104.38
395.229	90.38
395.454	100.38
395.678	102.38
395.903	88.38
396.127	92.38
396.352	93.38
396.576	97.38
396.801	88.38
397.025	84.38
397.249	96.38
397.474	94.38
397.698	83.38
397.922	83.38
398.147	94.38
398.371	104.38
398.595	95.38
398.82	86.38
399.044	102.38
399.268	93.38
399.492	120.38
399.717	116.38
399.941	97.38
400.165	81.38
400.389	90.38
400.613	95.38
400.837	80.38
401.062	91.38
401.286	98.38
401.51	101.38
401.734	99.38
401.958	93.38
402.182	98.38
402.406	86.38
402.63	115.38
402.854	100.38
403.078	97.38
403.302	91.38
403.526	99.38
403.75	79.38
403.974	106.38
404.198	91.38
404.422	106.38
404.645	95.38
404.869	95.38
405.093	95.38
405.317	98.38
405.541	93.38
405.765	113.38
405.988	95.38
406.212	100.38
406.436	101.38
406.66	94.38
406.883	82.38
407.107	115.38
407.331	92.38
407.555	95.38
407.778	104.38
408.002	100.38
408.226	87.38
408.449	96.38
408.673	96.38
408.896	111.38
409.12	91.38
409.344	98.38
409.567	93.38
409.791	96.38
410.014	92.38
410.238	87.38
410.461	89.38
410.685	97.38
410.908	88.38
411.132	99.38
411.355	103.38
411.578	106.38
411.802	103.38
412.025	99.38
412.249	100.38
412.472	99.38
412.695	90.38
412.919	100.38
413.142	103.38
413.365	108.38
413.589	111.38
413.812	110.38
414.035	103.38
414.258	91.38
414.482	106.38
414.705	102.38
414.928	113.38
415.151	92.38
415.374	92.38
415.597	111.38
415.821	102.38
416.044	94.38
416.267	88.38
416.49	100.38
416.713	94.38
416.936	92.38
417.159	114.38
417.382	110.38
417.605	94.38
417.828	99.38
418.051	104.38
418.274	111.38
418.497	111.38
418.72	119.38
418.943	115.38
419.166	106.38
419.389	116.38
419.611	100.38
419.834	104.38
420.057	95.38
420.28	100.38
420.503	108.38
420.726	98.38
420.948	99.38
421.171	108.38
421.394	110.38
421.617	120.38
421.839	122.38
422.062	113.38
422.285	112.38
422.507	103.38
422.73	100.38
422.953	97.38
423.175	95.38
423.398	108.38
423.621	110.38
423.843	108.38
424.066	110.38
424.288	95.38
424.511	107.38
424.733	111.38
424.956	100.38
425.178	122.38
425.401	122.38
425.623	120.38
425.846	117.38
426.068	103.38
426.291	96.38
426.513	101.38
426.735	96.38
426.958	103.38
427.18	110.38
427.402	96.38
427.625	99.38
427.847	97.38
428.069	96.38
428.292	100.38
428.514	111.38
428.736	89.38
428.958	98.38
429.181	102.38
429.403	96.38
429.625	111.38
429.847	102.38
430.069	103.38
430.292	102.38
430.514	103.38
430.736	100.38
430.958	115.38
431.18	104.38
431.402	120.38
431.624	106.38
431.846	90.38
432.068	96.38
432.29	75.38
432.512	89.38
432.734	100.38
432.956	102.38
433.178	120.38
433.4	111.38
433.622	115.38
433.844	91.38
434.066	98.38
434.287	104.38
434.509	84.38
434.731	97.38
434.953	105.38
435.175	94.38
435.397	105.38
435.618	104.38
435.84	85.38
436.062	94.38
436.284	116.38
436.505	115.38
436.727	105.38
436.949	124.38
437.17	101.38
437.392	111.38
437.614	99.38
437.835	106.38
438.057	101.38
438.278	110.38
438.5	98.38
438.721	94.38
438.943	106.38
439.165	114.38
439.386	115.38
439.608	117.38
439.829	128.38
440.05	108.38
440.272	107.38
440.493	96.38
440.715	117.38
440.936	111.38
441.158	118.38
441.379	115.38
441.6	105.38
441.822	120.38
442.043	111.38
442.264	107.38
442.486	108.38
442.707	94.38
442.928	112.38
443.149	111.38
443.371	120.38
443.592	109.38
443.813	98.38
444.034	106.38
444.255	120.38
444.476	114.38
444.698	119.38
444.919	103.38
445.14	236.38
445.361	162.38
445.582	131.38
445.803	118.38
446.024	122.38
446.245	113.38
446.466	101.38
446.687	125.38
446.908	126.38
447.129	104.38
447.35	116.38
447.571	125.38
447.792	116.38
448.013	106.38
448.234	107.38
448.455	107.38
448.675	101.38
448.896	107.38
449.117	107.38
449.338	119.38
449.559	114.38
449.779	105.38
450	106.38
450.221	114.38
450.442	117.38
450.662	109.38
450.883	112.38
451.104	105.38
451.324	117.38
451.545	111.38
451.766	108.38
451.986	104.38
452.207	106.38
452.428	108.38
452.648	127.38
452.869	97.38
453.089	100.38
453.31	102.38
453.53	111.38
453.751	94.38
453.971	95.38
454.192	100.38
454.412	109.38
454.633	94.38
454.853	121.38
455.073	94.38
455.294	102.38
455.514	109.38
455.734	105.38
455.955	100.38
456.175	108.38
456.395	92.38
456.616	96.38
456.836	107.38
457.056	95.38
457.276	87.38
457.497	95.38
457.717	89.38
457.937	102.38
458.157	98.38
458.377	101.38
458.598	94.38
458.818	79.38
459.038	92.38
459.258	93.38
459.478	86.38
459.698	83.38
459.918	90.38
460.138	93.38
460.358	107.38
460.578	102.38
460.798	101.38
461.018	105.38
461.238	101.38
461.458	102.38
461.678	110.38
461.898	97.38
462.118	91.38
462.338	92.38
462.558	107.38
462.777	107.38
462.997	100.38
463.217	90.38
463.437	89.38
463.657	94.38
463.876	116.38
464.096	95.38
464.316	102.38
464.536	101.38
464.755	99.38
464.975	86.38
465.195	105.38
465.414	99.38
465.634	95.38
465.854	94.38
466.073	99.38
466.293	98.38
466.512	114.38
466.732	120.38
466.951	120.38
467.171	112.38
467.391	103.38
467.61	105.38
467.829	123.38
468.049	106.38
468.268	99.38
468.488	111.38
468.707	102.38
468.927	117.38
469.146	105.38
469.365	128.38
469.585	107.38
469.804	116.38
470.023	118.38
470.243	107.38
470.462	104.38
470.681	109.38
470.901	119.38
471.12	109.38
471.339	116.38
471.558	112.38
471.777	120.38
471.997	107.38
472.216	102.38
472.435	116.38
472.654	96.38
472.873	105.38
473.092	100.38
473.311	114.38
473.53	107.38
473.749	108.38
473.968	104.38
474.187	108.38
474.406	99.38
474.625	100.38
474.844	107.38
475.063	98.38
475.282	93.38
475.501	112.38
475.72	105.38
475.939	88.38
476.158	122.38
476.377	108.38
476.596	114.38
476.814	97.38
477.033	90.38
477.252	96.38
477.471	95.38
477.69	116.38
477.908	109.38
478.127	109.38
478.346	119.38
478.564	102.38
478.783	109.38
479.002	105.38
479.22	119.38
479.439	120.38
479.658	98.38
479.876	84.38
480.095	96.38
480.313	102.38
480.532	111.38
480.751	113.38
480.969	91.38
481.188	81.38
481.406	92.38
481.624	86.38
481.843	96.38
482.061	98.38
482.28	98.38
482.498	110.38
482.717	108.38
482.935	97.38
483.153	120.38
483.372	126.38
483.59	110.38
483.808	115.38
484.027	101.38
484.245	120.38
484.463	107.38
484.681	124.38
484.9	114.38
485.118	114.38
485.336	109.38
485.554	98.38
485.772	108.38
485.99	92.38
486.209	104.38
486.427	103.38
486.645	91.38
486.863	107.38
487.081	124.38
487.299	99.38
487.517	107.38
487.735	132.38
487.953	149.38
488.171	139.38
488.389	131.38
488.607	126.38
488.825	108.38
489.043	101.38
489.261	112.38
489.479	119.38
489.696	114.38
489.914	104.38
490.132	108.38
490.35	128.38
490.568	108.38
490.786	133.38
491.003	130.38
491.221	140.38
491.439	134.38
491.657	146.38
491.874	136.38
492.092	144.38
492.31	147.38
492.527	150.38
492.745	138.38
492.963	152.38
493.18	131.38
493.398	118.38
493.615	141.38
493.833	126.38
494.05	136.38
494.268	136.38
494.485	128.38
494.703	136.38
494.92	135.38
495.138	126.38
495.355	134.38
495.573	130.38
495.79	114.38
496.008	125.38
496.225	114.38
496.442	125.38
496.66	121.38
496.877	113.38
497.094	134.38
497.312	128.38
497.529	118.38
497.746	122.38
497.963	111.38
498.181	101.38
498.398	116.38
498.615	97.38
498.832	89.38
499.049	97.38
499.267	105.38
499.484	122.38
499.701	122.38
499.918	126.38
500.135	110.38
500.352	120.38
500.569	104.38
500.786	109.38
501.003	108.38
501.22	114.38
501.437	120.38
501.654	108.38
501.871	102.38
502.088	108.38
502.305	117.38
502.522	95.38
502.739	122.38
502.956	96.38
503.172	93.38
503.389	93.38
503.606	96.38
503.823	104.38
504.04	106.38
504.256	115.38
504.473	93.38
504.69	100.38
504.907	111.38
505.123	119.38
505.34	107.38
505.557	106.38
505.773	107.38
505.99	99.38
506.207	109.38
506.423	101.38
506.64	101.38
506.856	104.38
507.073	105.38
507.289	103.38
507.506	116.38
507.722	110.38
507.939	86.38
508.155	96.38
508.372	97.38
508.588	101.38
508.805	105.38
509.021	100.38
509.238	96.38
509.454	85.38
509.67	98.38
509.887	89.38
510.103	86.38
510.319	91.38
510.536	87.38
510.752	89.38
510.968	97.38
511.184	87.38
511.401	84.38
511.617	105.38
511.833	71.38
512.049	86.38
512.265	90.38
512.481	77.38
512.698	81.38
512.914	102.38
513.13	90.38
513.346	86.38
513.562	80.38
513.778	95.38
513.994	91.38
514.21	85.38
514.426	84.38
514.642	93.38
514.858	94.38
515.074	90.38
515.29	91.38
515.506	89.38
515.721	79.38
515.937	79.38
516.153	80.38
516.369	91.38
516.585	85.38
516.801	82.38
517.016	76.38
517.232	79.38
517.448	84.38
517.664	79.38
517.879	78.38
518.095	98.38
518.311	95.38
518.527	89.38
518.742	89.38
518.958	91.38
519.173	105.38
519.389	101.38
519.605	99.38
519.82	98.38
520.036	104.38
520.251	102.38
520.467	94.38
520.682	90.38
520.898	91.38
521.113	81.38
521.329	94.38
521.544	70.38
521.76	90.38
521.975	94.38
522.19	101.38
522.406	99.38
522.621	92.38
522.836	92.38
523.052	109.38
523.267	100.38
523.482	100.38
523.698	94.38
523.913	106.38
524.128	98.38
524.343	110.38
524.559	112.38
524.774	100.38
524.989	104.38
525.204	105.38
525.419	96.38
525.634	91.38
525.849	91.38
526.064	92.38
526.28	99.38
526.495	95.38
526.71	84.38
526.925	92.38
527.14	86.38
527.355	83.38
527.57	80.38
527.785	98.38
527.999	93.38
528.214	110.38
528.429	112.38
528.644	106.38
528.859	106.38
529.074	122.38
529.289	124.38
529.503	144.38
529.718	127.38
529.933	121.38
530.148	105.38
530.363	106.38
530.577	83.38
530.792	82.38
531.007	91.38
531.221	105.38
531.436	104.38
531.651	99.38
531.865	99.38
532.08	83.38
532.295	102.38
532.509	93.38
532.724	86.38
532.938	93.38
533.153	79.38
533.367	100.38
533.582	98.38
533.796	110.38
534.011	107.38
534.225	89.38
534.44	90.38
534.654	80.38
534.868	96.38
535.083	98.38
535.297	109.38
535.511	99.38
535.726	93.38
535.94	86.38
536.154	104.38
536.369	77.38
536.583	76.38
536.797	90.38
537.011	79.38
537.225	93.38
537.44	91.38
537.654	94.38
537.868	95.38
538.082	80.38
538.296	100.38
538.51	98.38
538.724	91.38
538.938	101.38
539.153	100.38
539.367	114.38
539.581	112.38
539.795	95.38
540.009	90.38
540.222	92.38
540.436	96.38
540.65	99.38
540.864	104.38
541.078	125.38
541.292	122.38
541.506	135.38
541.72	128.38
541.934	126.38
542.147	141.38
542.361	142.38
542.575	121.38
542.789	122.38
543.002	102.38
543.216	103.38
543.43	107.38
543.644	123.38
543.857	112.38
544.071	128.38
544.285	117.38
544.498	131.38
544.712	119.38
544.925	110.38
545.139	123.38
545.352	120.38
545.566	127.38
545.779	134.38
545.993	127.38
546.206	126.38
546.42	136.38
546.633	121.38
546.847	136.38
547.06	117.38
547.274	131.38
547.487	123.38
547.7	141.38
547.914	119.38
548.127	127.38
548.34	140.38
548.554	132.38
548.767	120.38
548.98	121.38
549.193	114.38
549.407	127.38
549.62	130.38
549.833	123.38
550.046	128.38
550.259	118.38
550.473	130.38
550.686	116.38
550.899	123.38
551.112	117.38
551.325	112.38
551.538	118.38
551.751	111.38
551.964	91.38
552.177	116.38
552.39	115.38
552.603	116.38
552.816	117.38
553.029	124.38
553.242	114.38
553.455	119.38
553.667	123.38
553.88	125.38
554.093	121.38
554.306	109.38
554.519	111.38
554.732	114.38
554.944	118.38
555.157	111.38
555.37	122.38
555.583	119.38
555.795	119.38
556.008	106.38
556.221	120.38
556.433	106.38
556.646	107.38
556.859	109.38
557.071	126.38
557.284	111.38
557.496	119.38
557.709	102.38
557.921	128.38
558.134	105.38
558.346	115.38
558.559	116.38
558.771	114.38
558.984	107.38
559.196	108.38
559.409	105.38
559.621	103.38
559.833	108.38
560.046	96.38
560.258	116.38
560.47	108.38
560.683	98.38
560.895	107.38
561.107	101.38
561.32	112.38
561.532	95.38
561.744	120.38
561.956	114.38
562.168	115.38
562.381	130.38
562.593	128.38
562.805	115.38
563.017	114.38
563.229	127.38
563.441	115.38
563.653	102.38
563.865	119.38
564.077	112.38
564.289	104.38
564.501	88.38
564.713	116.38
564.925	113.38
565.137	89.38
565.349	120.38
565.561	107.38
565.773	82.38
565.985	103.38
566.197	97.38
566.408	106.38
566.62	95.38
566.832	89.38
567.044	94.38
567.255	91.38
567.467	115.38
567.679	104.38
567.891	101.38
568.102	106.38
568.314	90.38
568.526	102.38
568.737	93.38
568.949	75.38
569.161	86.38
569.372	95.38
569.584	86.38
569.795	90.38
570.007	91.38
570.218	98.38
570.43	77.38
570.641	78.38
570.853	88.38
571.064	103.38
571.276	86.38
571.487	78.38
571.698	91.38
571.91	92.38
572.121	96.38
572.333	103.38
572.544	98.38
572.755	92.38
572.966	74.38
573.178	98.38
573.389	94.38
573.6	84.38
573.811	89.38
574.023	96.38
574.234	100.38
574.445	80.38
574.656	86.38
574.867	86.38
575.078	80.38
575.289	87.38
575.501	88.38
575.712	85.38
575.923	84.38
576.134	98.38
576.345	84.38
576.556	93.38
576.767	88.38
576.978	99.38
577.188	89.38
577.399	100.38
577.61	100.38
577.821	81.38
578.032	85.38
578.243	92.38
578.454	94.38
578.665	85.38
578.875	75.38
579.086	91.38
579.297	100.38
579.508	88.38
579.718	99.38
579.929	88.38
580.14	97.38
580.35	94.38
580.561	95.38
580.772	95.38
580.982	94.38
581.193	88.38
581.403	100.38
581.614	75.38
581.825	73.38
582.035	79.38
582.246	88.38
582.456	87.38
582.667	86.38
582.877	86.38
583.087	99.38
583.298	108.38
583.508	82.38
583.719	90.38
583.929	87.38
584.139	98.38
584.35	84.38
584.56	87.38
584.77	91.38
584.981	94.38
585.191	83.38
585.401	100.38
585.611	84.38
585.821	86.38
586.032	79.38
586.242	91.38
586.452	83.38
586.662	88.38
586.872	85.38
587.082	84.38
587.292	103.38
587.502	93.38
587.713	96.38
587.923	73.38
588.133	86.38
588.343	87.38
588.553	77.38
588.762	107.38
588.972	88.38
589.182	92.38
589.392	90.38
589.602	80.38
589.812	74.38
590.022	87.38
590.232	93.38
590.441	88.38
590.651	89.38
590.861	96.38
591.071	94.38
591.281	85.38
591.49	80.38
591.7	101.38
591.91	94.38
592.119	95.38
592.329	82.38
592.539	98.38
592.748	94.38
592.958	84.38
593.167	96.38
593.377	89.38
593.587	94.38
593.796	87.38
594.006	81.38
594.215	100.38
594.424	86.38
594.634	96.38
594.843	90.38
595.053	94.38
595.262	79.38
595.472	86.38
595.681	93.38
595.89	100.38
596.1	97.38
596.309	87.38
596.518	90.38
596.727	98.38
596.937	97.38
597.146	98.38
597.355	96.38
597.564	91.38
597.774	81.38
597.983	89.38
598.192	95.38
598.401	84.38
598.61	103.38
598.819	100.38
599.028	87.38
599.237	86.38
599.446	90.38
599.655	90.38
599.864	82.38
600.073	81.38
600.282	91.38
600.491	104.38
600.7	105.38
600.909	85.38
601.118	95.38
601.327	97.38
601.536	100.38
601.745	85.38
601.953	111.38
602.162	97.38
602.371	96.38
602.58	106.38
602.789	105.38
602.997	111.38
603.206	101.38
603.415	110.38
603.623	122.38
603.832	100.38
604.041	101.38
604.249	100.38
604.458	94.38
604.666	106.38
604.875	106.38
605.084	103.38
605.292	84.38
605.501	100.38
605.709	98.38
605.918	103.38
606.126	99.38
606.334	107.38
606.543	108.38
606.751	99.38
606.96	103.38
607.168	104.38
607.376	100.38
607.585	94.38
607.793	98.38
608.001	104.38
608.21	96.38
608.418	105.38
608.626	101.38
608.834	91.38
609.043	111.38
609.251	116.38
609.459	100.38
609.667	111.38
609.875	95.38
610.083	93.38
610.291	107.38
610.499	97.38
610.707	92.38
610.916	100.38
611.124	108.38
611.332	110.38
611.54	110.38
611.748	98.38
611.955	95.38
612.163	110.38
612.371	99.38
612.579	92.38
612.787	97.38
612.995	94.38
613.203	105.38
613.411	98.38
613.618	102.38
613.826	100.38
614.034	99.38
614.242	110.38
614.449	105.38
614.657	88.38
614.865	107.38
615.072	96.38
615.28	99.38
615.488	96.38
615.695	95.38
615.903	83.38
616.111	93.38
616.318	114.38
616.526	91.38
616.733	99.38
616.941	85.38
617.148	85.38
617.356	91.38
617.563	79.38
617.771	97.38
617.978	95.38
618.185	100.38
618.393	97.38
618.6	94.38
618.807	105.38
619.015	84.38
619.222	104.38
619.429	96.38
619.637	103.38
619.844	100.38
620.051	98.38
620.258	94.38
620.466	88.38
620.673	92.38
620.88	95.38
621.087	96.38
621.294	93.38
621.501	88.38
621.708	90.38
621.915	96.38
622.122	105.38
622.329	102.38
622.536	108.38
622.743	94.38
622.95	99.38
623.157	115.38
623.364	100.38
623.571	105.38
623.778	94.38
623.985	107.38
624.192	91.38
624.399	94.38
624.606	92.38
624.812	94.38
625.019	92.38
625.226	95.38
625.433	106.38
625.639	102.38
625.846	104.38
626.053	94.38
626.259	96.38
626.466	96.38
626.673	82.38
626.879	91.38
627.086	88.38
627.293	98.38
627.499	102.38
627.706	91.38
627.912	106.38
628.119	99.38
628.325	110.38
628.532	101.38
628.738	98.38
628.945	84.38
629.151	91.38
629.357	102.38
629.564	93.38
629.77	92.38
629.976	108.38
630.183	107.38
630.389	88.38
630.595	92.38
630.802	88.38
631.008	101.38
631.214	99.38
631.42	102.38
631.627	89.38
631.833	63.38
632.039	98.38
632.245	85.38
632.451	100.38
632.657	93.38
632.863	88.38
633.069	101.38
633.275	91.38
633.481	87.38
633.688	93.38
633.893	121.38
634.099	74.38
634.305	89.38
634.511	88.38
634.717	89.38
634.923	95.38
635.129	107.38
635.335	91.38
635.541	96.38
635.747	96.38
635.952	101.38
636.158	103.38
636.364	103.38
636.57	95.38
636.775	97.38
636.981	100.38
637.187	105.38
637.392	98.38
637.598	110.38
637.804	78.38
638.009	92.38
638.215	103.38
638.421	90.38
638.626	87.38
638.832	84.38
639.037	99.38
639.243	84.38
639.448	87.38
639.654	93.38
639.859	95.38
640.065	98.38
640.27	109.38
640.475	98.38
640.681	107.38
640.886	90.38
641.091	70.38
641.297	89.38
641.502	97.38
641.707	86.38
641.913	88.38
642.118	105.38
642.323	94.38
642.528	112.38
642.733	100.38
642.939	97.38
643.144	104.38
643.349	94.38
643.554	94.38
643.759	102.38
643.964	97.38
644.169	92.38
644.374	95.38
644.579	106.38
644.784	88.38
644.989	96.38
645.194	79.38
645.399	93.38
645.604	92.38
645.809	81.38
646.014	94.38
646.219	77.38
646.423	83.38
646.628	87.38
646.833	101.38
647.038	80.38
647.243	98.38
647.447	82.38
647.652	96.38
647.857	97.38
648.062	88.38
648.266	90.38
648.471	114.38
648.676	107.38
648.88	95.38
649.085	112.38
649.289	81.38
649.494	94.38
649.698	90.38
649.903	94.38
650.107	98.38
650.312	107.38
650.516	91.38
650.721	76.38
650.925	101.38
651.13	92.38
651.334	87.38
651.539	91.38
651.743	95.38
651.947	86.38
652.152	93.38
652.356	94.38
652.56	75.38
652.764	88.38
652.969	102.38
653.173	103.38
653.377	83.38
653.581	88.38
653.785	101.38
653.99	90.38
654.194	90.38
654.398	99.38
654.602	96.38
654.806	90.38
655.01	84.38
655.214	108.38
655.418	98.38
655.622	85.38
655.826	74.38
656.03	68.38
656.234	95.38
656.438	85.38
656.642	87.38
656.846	87.38
657.049	95.38
657.253	91.38
657.457	78.38
657.661	94.38
657.865	84.38
658.068	95.38
658.272	90.38
658.476	86.38
658.68	92.38
658.883	91.38
659.087	87.38
659.291	93.38
659.494	80.38
659.698	92.38
659.901	78.38
660.105	86.38
660.309	74.38
660.512	75.38
660.716	95.38
660.919	104.38
661.123	87.38
661.326	77.38
661.53	79.38
661.733	95.38
661.936	87.38
662.14	85.38
662.343	92.38
662.546	86.38
662.75	90.38
662.953	79.38
663.156	81.38
663.36	90.38
663.563	83.38
663.766	83.38
663.969	87.38
664.173	90.38
664.376	84.38
664.579	85.38
664.782	84.38
664.985	80.38
665.188	88.38
665.391	74.38
665.594	74.38
665.797	83.38
666	94.38
666.203	87.38
666.406	82.38
666.609	79.38
666.812	76.38
667.015	89.38
667.218	90.38
667.421	83.38
667.624	76.38
667.827	92.38
668.03	84.38
668.232	85.38
668.435	83.38
668.638	86.38
668.841	87.38
669.043	82.38
669.246	86.38
669.449	72.38
669.651	70.38
669.854	81.38
670.057	76.38
670.259	106.38
670.462	80.38
670.665	68.38
670.867	71.38
671.07	91.38
671.272	94.38
671.475	94.38
671.677	78.38
671.88	80.38
672.082	87.38
672.284	83.38
672.487	76.38
672.689	86.38
672.892	70.38
