Data from Zn(NO3)2Standard.Agarose3%.GreenCap.LampEnergy5.5.E.O_HRD10591_15-03-49-767.txt Node
Date: Mon Jul 22 15:03:49 EDT 2019
User: cochatt
Spectrometer: HR+D1059
Trigger mode: 1
Integration Time (sec): 1.000000E-1
Scans to average: 1
Electric dark correction enabled: true
Nonlinearity correction enabled: false
Boxcar width: 0
XAxis mode: Wavelengths
Number of Pixels in Spectrum: 2048
>>>>>Begin Spectral Data<<<<<
223.165	-15.31
223.4	-15.31
223.635	-15.31
223.869	-20.31
224.104	-25.31
224.338	-13.31
224.573	-0.31
224.808	-26.31
225.042	-8.31
225.277	-11.31
225.511	10.69
225.746	-8.31
225.98	16.69
226.215	-3.31
226.449	23.69
226.683	17.69
226.918	26.69
227.152	36.69
227.387	40.69
227.621	22.69
227.856	53.69
228.09	47.69
228.324	57.69
228.559	69.69
228.793	68.69
229.027	44.69
229.262	76.69
229.496	70.69
229.73	65.69
229.964	71.69
230.199	81.69
230.433	72.69
230.667	68.69
230.901	69.69
231.136	74.69
231.37	82.69
231.604	77.69
231.838	77.69
232.072	85.69
232.306	80.69
232.541	87.69
232.775	84.69
233.009	93.69
233.243	95.69
233.477	82.69
233.711	72.69
233.945	78.69
234.179	78.69
234.413	84.69
234.647	86.69
234.881	78.69
235.115	77.69
235.349	91.69
235.583	79.69
235.817	74.69
236.051	72.69
236.285	82.69
236.519	81.69
236.753	96.69
236.987	77.69
237.221	61.69
237.455	83.69
237.689	78.69
237.922	76.69
238.156	75.69
238.39	73.69
238.624	83.69
238.858	72.69
239.091	70.69
239.325	82.69
239.559	77.69
239.793	74.69
240.027	79.69
240.26	81.69
240.494	82.69
240.728	96.69
240.961	74.69
241.195	81.69
241.429	70.69
241.662	72.69
241.896	75.69
242.13	73.69
242.363	68.69
242.597	80.69
242.83	83.69
243.064	80.69
243.298	75.69
243.531	69.69
243.765	75.69
243.998	84.69
244.232	75.69
244.465	79.69
244.699	77.69
244.932	73.69
245.166	91.69
245.399	81.69
245.633	85.69
245.866	66.69
246.099	82.69
246.333	66.69
246.566	72.69
246.8	79.69
247.033	79.69
247.266	73.69
247.5	78.69
247.733	89.69
247.966	72.69
248.2	78.69
248.433	78.69
248.666	76.69
248.899	85.69
249.133	78.69
249.366	72.69
249.599	80.69
249.832	95.69
250.066	83.69
250.299	78.69
250.532	73.69
250.765	82.69
250.998	78.69
251.231	81.69
251.465	79.69
251.698	83.69
251.931	70.69
252.164	91.69
252.397	79.69
252.63	83.69
252.863	70.69
253.096	75.69
253.329	69.69
253.562	74.69
253.795	89.69
254.028	68.69
254.261	79.69
254.494	66.69
254.727	85.69
254.96	71.69
255.193	84.69
255.426	71.69
255.659	69.69
255.892	67.69
256.124	93.69
256.357	84.69
256.59	77.69
256.823	82.69
257.056	87.69
257.289	85.69
257.521	83.69
257.754	87.69
257.987	77.69
258.22	71.69
258.452	65.69
258.685	76.69
258.918	71.69
259.151	78.69
259.383	86.69
259.616	78.69
259.849	74.69
260.081	85.69
260.314	74.69
260.547	74.69
260.779	76.69
261.012	72.69
261.244	75.69
261.477	62.69
261.71	90.69
261.942	79.69
262.175	80.69
262.407	61.69
262.64	63.69
262.872	98.69
263.105	76.69
263.337	87.69
263.57	90.69
263.802	83.69
264.035	86.69
264.267	66.69
264.499	73.69
264.732	96.69
264.964	90.69
265.197	80.69
265.429	83.69
265.661	86.69
265.894	85.69
266.126	86.69
266.358	70.69
266.591	85.69
266.823	80.69
267.055	78.69
267.287	96.69
267.52	85.69
267.752	74.69
267.984	86.69
268.216	75.69
268.448	82.69
268.681	82.69
268.913	75.69
269.145	85.69
269.377	89.69
269.609	68.69
269.841	82.69
270.073	80.69
270.306	84.69
270.538	83.69
270.77	90.69
271.002	92.69
271.234	83.69
271.466	92.69
271.698	91.69
271.93	78.69
272.162	88.69
272.394	80.69
272.626	74.69
272.858	82.69
273.09	78.69
273.322	82.69
273.553	92.69
273.785	80.69
274.017	80.69
274.249	69.69
274.481	98.69
274.713	98.69
274.945	92.69
275.176	72.69
275.408	75.69
275.64	77.69
275.872	94.69
276.104	99.69
276.335	86.69
276.567	84.69
276.799	79.69
277.031	87.69
277.262	79.69
277.494	90.69
277.726	94.69
277.957	86.69
278.189	86.69
278.421	77.69
278.652	79.69
278.884	75.69
279.115	81.69
279.347	72.69
279.579	83.69
279.81	86.69
280.042	83.69
280.273	84.69
280.505	82.69
280.736	79.69
280.968	79.69
281.199	96.69
281.431	80.69
281.662	87.69
281.894	86.69
282.125	90.69
282.356	70.69
282.588	85.69
282.819	84.69
283.051	84.69
283.282	90.69
283.513	79.69
283.745	76.69
283.976	83.69
284.207	86.69
284.439	95.69
284.67	86.69
284.901	96.69
285.132	92.69
285.364	79.69
285.595	92.69
285.826	95.69
286.057	90.69
286.288	89.69
286.52	73.69
286.751	84.69
286.982	75.69
287.213	81.69
287.444	69.69
287.675	85.69
287.906	86.69
288.138	88.69
288.369	80.69
288.6	78.69
288.831	83.69
289.062	86.69
289.293	92.69
289.524	91.69
289.755	91.69
289.986	84.69
290.217	77.69
290.448	80.69
290.679	77.69
290.91	84.69
291.141	78.69
291.371	67.69
291.602	83.69
291.833	78.69
292.064	89.69
292.295	81.69
292.526	74.69
292.757	81.69
292.987	88.69
293.218	90.69
293.449	95.69
293.68	84.69
293.91	86.69
294.141	86.69
294.372	75.69
294.603	87.69
294.833	87.69
295.064	86.69
295.295	83.69
295.525	80.69
295.756	87.69
295.987	82.69
296.217	88.69
296.448	84.69
296.679	79.69
296.909	82.69
297.14	87.69
297.37	85.69
297.601	68.69
297.831	90.69
298.062	86.69
298.292	96.69
298.523	85.69
298.753	84.69
298.984	71.69
299.214	79.69
299.445	95.69
299.675	83.69
299.905	88.69
300.136	78.69
300.366	77.69
300.597	78.69
300.827	92.69
301.057	80.69
301.288	82.69
301.518	89.69
301.748	74.69
301.979	77.69
302.209	91.69
302.439	82.69
302.669	88.69
302.9	92.69
303.13	82.69
303.36	101.69
303.59	91.69
303.82	82.69
304.051	74.69
304.281	95.69
304.511	79.69
304.741	80.69
304.971	91.69
305.201	84.69
305.431	83.69
305.661	82.69
305.891	102.69
306.121	87.69
306.352	78.69
306.582	84.69
306.812	87.69
307.042	88.69
307.272	92.69
307.502	88.69
307.731	90.69
307.961	80.69
308.191	78.69
308.421	98.69
308.651	86.69
308.881	99.69
309.111	80.69
309.341	88.69
309.571	80.69
309.8	84.69
310.03	92.69
310.26	79.69
310.49	88.69
310.72	83.69
310.949	77.69
311.179	66.69
311.409	68.69
311.639	93.69
311.868	83.69
312.098	69.69
312.328	91.69
312.557	89.69
312.787	90.69
313.017	88.69
313.246	89.69
313.476	84.69
313.706	76.69
313.935	83.69
314.165	91.69
314.394	87.69
314.624	81.69
314.853	86.69
315.083	72.69
315.312	91.69
315.542	82.69
315.771	94.69
316.001	89.69
316.23	76.69
316.46	82.69
316.689	84.69
316.919	92.69
317.148	82.69
317.377	96.69
317.607	94.69
317.836	78.69
318.065	77.69
318.295	90.69
318.524	89.69
318.753	73.69
318.983	80.69
319.212	80.69
319.441	83.69
319.67	82.69
319.9	78.69
320.129	74.69
320.358	95.69
320.587	81.69
320.816	84.69
321.046	81.69
321.275	104.69
321.504	98.69
321.733	94.69
321.962	78.69
322.191	85.69
322.42	99.69
322.649	100.69
322.878	97.69
323.108	94.69
323.337	78.69
323.566	76.69
323.795	107.69
324.024	93.69
324.253	76.69
324.482	80.69
324.71	71.69
324.939	84.69
325.168	86.69
325.397	84.69
325.626	90.69
325.855	81.69
326.084	83.69
326.313	84.69
326.542	72.69
326.77	88.69
326.999	100.69
327.228	79.69
327.457	102.69
327.686	88.69
327.914	83.69
328.143	86.69
328.372	95.69
328.6	80.69
328.829	85.69
329.058	92.69
329.287	99.69
329.515	88.69
329.744	83.69
329.972	94.69
330.201	83.69
330.43	79.69
330.658	79.69
330.887	84.69
331.115	81.69
331.344	92.69
331.572	79.69
331.801	90.69
332.03	79.69
332.258	84.69
332.486	80.69
332.715	86.69
332.943	95.69
333.172	85.69
333.4	95.69
333.629	94.69
333.857	88.69
334.085	89.69
334.314	86.69
334.542	91.69
334.771	80.69
334.999	89.69
335.227	74.69
335.455	87.69
335.684	89.69
335.912	76.69
336.14	87.69
336.369	79.69
336.597	93.69
336.825	115.69
337.053	96.69
337.281	91.69
337.51	92.69
337.738	87.69
337.966	66.69
338.194	75.69
338.422	82.69
338.65	80.69
338.878	88.69
339.106	89.69
339.334	82.69
339.562	90.69
339.79	76.69
340.018	77.69
340.246	96.69
340.474	87.69
340.702	79.69
340.93	76.69
341.158	72.69
341.386	81.69
341.614	84.69
341.842	83.69
342.07	77.69
342.298	92.69
342.526	85.69
342.754	85.69
342.981	77.69
343.209	93.69
343.437	92.69
343.665	75.69
343.893	88.69
344.12	79.69
344.348	102.69
344.576	78.69
344.804	86.69
345.031	77.69
345.259	88.69
345.487	80.69
345.714	85.69
345.942	84.69
346.17	91.69
346.397	87.69
346.625	84.69
346.853	85.69
347.08	86.69
347.308	70.69
347.535	86.69
347.763	85.69
347.99	76.69
348.218	85.69
348.445	91.69
348.673	85.69
348.9	99.69
349.128	87.69
349.355	76.69
349.583	88.69
349.81	83.69
350.037	63.69
350.265	91.69
350.492	82.69
350.72	84.69
350.947	87.69
351.174	77.69
351.402	89.69
351.629	70.69
351.856	86.69
352.083	83.69
352.311	86.69
352.538	91.69
352.765	88.69
352.992	89.69
353.22	83.69
353.447	88.69
353.674	85.69
353.901	87.69
354.128	90.69
354.355	79.69
354.583	88.69
354.81	92.69
355.037	76.69
355.264	95.69
355.491	90.69
355.718	88.69
355.945	86.69
356.172	101.69
356.399	77.69
356.626	76.69
356.853	83.69
357.08	98.69
357.307	86.69
357.534	77.69
357.761	76.69
357.988	84.69
358.215	95.69
358.441	86.69
358.668	85.69
358.895	79.69
359.122	83.69
359.349	93.69
359.576	82.69
359.802	80.69
360.029	88.69
360.256	84.69
360.483	89.69
360.709	96.69
360.936	83.69
361.163	77.69
361.39	77.69
361.616	74.69
361.843	78.69
362.07	97.69
362.296	78.69
362.523	80.69
362.749	84.69
362.976	84.69
363.203	79.69
363.429	83.69
363.656	84.69
363.882	96.69
364.109	86.69
364.335	73.69
364.562	77.69
364.788	102.69
365.015	87.69
365.241	86.69
365.468	79.69
365.694	77.69
365.92	90.69
366.147	88.69
366.373	69.69
366.599	92.69
366.826	72.69
367.052	84.69
367.278	91.69
367.505	85.69
367.731	98.69
367.957	87.69
368.184	77.69
368.41	86.69
368.636	82.69
368.862	97.69
369.089	90.69
369.315	92.69
369.541	89.69
369.767	87.69
369.993	86.69
370.219	87.69
370.445	91.69
370.672	95.69
370.898	73.69
371.124	96.69
371.35	78.69
371.576	94.69
371.802	97.69
372.028	95.69
372.254	78.69
372.48	82.69
372.706	74.69
372.932	87.69
373.158	79.69
373.384	82.69
373.61	83.69
373.835	97.69
374.061	84.69
374.287	95.69
374.513	84.69
374.739	89.69
374.965	87.69
375.191	94.69
375.416	92.69
375.642	87.69
375.868	89.69
376.094	96.69
376.319	82.69
376.545	78.69
376.771	83.69
376.997	86.69
377.222	88.69
377.448	94.69
377.674	83.69
377.899	77.69
378.125	89.69
378.35	79.69
378.576	92.69
378.802	78.69
379.027	95.69
379.253	91.69
379.478	93.69
379.704	81.69
379.929	95.69
380.155	88.69
380.38	71.69
380.606	83.69
380.831	77.69
381.057	85.69
381.282	71.69
381.507	100.69
381.733	90.69
381.958	80.69
382.184	68.69
382.409	87.69
382.634	90.69
382.86	93.69
383.085	76.69
383.31	83.69
383.535	98.69
383.761	86.69
383.986	80.69
384.211	71.69
384.436	73.69
384.662	91.69
384.887	81.69
385.112	93.69
385.337	81.69
385.562	81.69
385.787	85.69
386.013	76.69
386.238	99.69
386.463	76.69
386.688	81.69
386.913	87.69
387.138	75.69
387.363	94.69
387.588	95.69
387.813	87.69
388.038	92.69
388.263	78.69
388.488	84.69
388.713	80.69
388.938	77.69
389.163	94.69
389.387	79.69
389.612	79.69
389.837	79.69
390.062	83.69
390.287	86.69
390.512	89.69
390.736	74.69
390.961	75.69
391.186	83.69
391.411	86.69
391.636	83.69
391.86	88.69
392.085	66.69
392.31	79.69
392.534	86.69
392.759	78.69
392.984	74.69
393.208	88.69
393.433	90.69
393.658	96.69
393.882	90.69
394.107	89.69
394.331	86.69
394.556	84.69
394.78	91.69
395.005	92.69
395.229	98.69
395.454	95.69
395.678	100.69
395.903	78.69
396.127	70.69
396.352	92.69
396.576	95.69
396.801	82.69
397.025	98.69
397.249	90.69
397.474	93.69
397.698	86.69
397.922	88.69
398.147	77.69
398.371	92.69
398.595	90.69
398.82	87.69
399.044	76.69
399.268	80.69
399.492	82.69
399.717	84.69
399.941	71.69
400.165	87.69
400.389	108.69
400.613	92.69
400.837	91.69
401.062	92.69
401.286	82.69
401.51	93.69
401.734	87.69
401.958	91.69
402.182	76.69
402.406	86.69
402.63	93.69
402.854	79.69
403.078	85.69
403.302	94.69
403.526	80.69
403.75	76.69
403.974	72.69
404.198	83.69
404.422	102.69
404.645	85.69
404.869	99.69
405.093	93.69
405.317	85.69
405.541	93.69
405.765	91.69
405.988	92.69
406.212	98.69
406.436	89.69
406.66	86.69
406.883	74.69
407.107	83.69
407.331	80.69
407.555	84.69
407.778	77.69
408.002	87.69
408.226	82.69
408.449	90.69
408.673	93.69
408.896	80.69
409.12	97.69
409.344	80.69
409.567	92.69
409.791	91.69
410.014	94.69
410.238	78.69
410.461	93.69
410.685	98.69
410.908	83.69
411.132	87.69
411.355	86.69
411.578	91.69
411.802	85.69
412.025	92.69
412.249	84.69
412.472	87.69
412.695	82.69
412.919	92.69
413.142	92.69
413.365	82.69
413.589	100.69
413.812	89.69
414.035	75.69
414.258	71.69
414.482	96.69
414.705	82.69
414.928	75.69
415.151	88.69
415.374	88.69
415.597	106.69
415.821	79.69
416.044	94.69
416.267	87.69
416.49	90.69
416.713	79.69
416.936	88.69
417.159	84.69
417.382	92.69
417.605	95.69
417.828	88.69
418.051	84.69
418.274	80.69
418.497	81.69
418.72	90.69
418.943	89.69
419.166	97.69
419.389	92.69
419.611	98.69
419.834	95.69
420.057	93.69
420.28	92.69
420.503	89.69
420.726	85.69
420.948	93.69
421.171	80.69
421.394	88.69
421.617	99.69
421.839	96.69
422.062	101.69
422.285	98.69
422.507	92.69
422.73	80.69
422.953	93.69
423.175	86.69
423.398	98.69
423.621	89.69
423.843	79.69
424.066	86.69
424.288	92.69
424.511	79.69
424.733	88.69
424.956	90.69
425.178	90.69
425.401	85.69
425.623	87.69
425.846	84.69
426.068	102.69
426.291	85.69
426.513	85.69
426.735	99.69
426.958	77.69
427.18	88.69
427.402	125.69
427.625	89.69
427.847	80.69
428.069	90.69
428.292	84.69
428.514	87.69
428.736	89.69
428.958	88.69
429.181	88.69
429.403	91.69
429.625	92.69
429.847	81.69
430.069	82.69
430.292	83.69
430.514	87.69
430.736	79.69
430.958	94.69
431.18	101.69
431.402	88.69
431.624	87.69
431.846	87.69
432.068	89.69
432.29	91.69
432.512	78.69
432.734	96.69
432.956	77.69
433.178	88.69
433.4	93.69
433.622	100.69
433.844	89.69
434.066	83.69
434.287	83.69
434.509	76.69
434.731	74.69
434.953	87.69
435.175	93.69
435.397	92.69
435.618	88.69
435.84	79.69
436.062	92.69
436.284	82.69
436.505	91.69
436.727	79.69
436.949	87.69
437.17	91.69
437.392	86.69
437.614	88.69
437.835	81.69
438.057	94.69
438.278	87.69
438.5	78.69
438.721	88.69
438.943	84.69
439.165	80.69
439.386	92.69
439.608	88.69
439.829	88.69
440.05	83.69
440.272	103.69
440.493	104.69
440.715	98.69
440.936	94.69
441.158	87.69
441.379	92.69
441.6	95.69
441.822	92.69
442.043	88.69
442.264	94.69
442.486	103.69
442.707	99.69
442.928	98.69
443.149	86.69
443.371	90.69
443.592	89.69
443.813	88.69
444.034	90.69
444.255	91.69
444.476	93.69
444.698	89.69
444.919	78.69
445.14	219.69
445.361	145.69
445.582	103.69
445.803	90.69
446.024	95.69
446.245	87.69
446.466	99.69
446.687	97.69
446.908	86.69
447.129	90.69
447.35	100.69
447.571	88.69
447.792	90.69
448.013	94.69
448.234	80.69
448.455	82.69
448.675	86.69
448.896	91.69
449.117	91.69
449.338	83.69
449.559	95.69
449.779	82.69
450	94.69
450.221	101.69
450.442	69.69
450.662	91.69
450.883	85.69
451.104	105.69
451.324	99.69
451.545	102.69
451.766	72.69
451.986	93.69
452.207	84.69
452.428	88.69
452.648	100.69
452.869	96.69
453.089	87.69
453.31	94.69
453.53	71.69
453.751	83.69
453.971	90.69
454.192	90.69
454.412	80.69
454.633	78.69
454.853	91.69
455.073	81.69
455.294	74.69
455.514	90.69
455.734	90.69
455.955	100.69
456.175	93.69
456.395	102.69
456.616	80.69
456.836	77.69
457.056	91.69
457.276	79.69
457.497	86.69
457.717	69.69
457.937	80.69
458.157	88.69
458.377	84.69
458.598	82.69
458.818	76.69
459.038	83.69
459.258	80.69
459.478	83.69
459.698	88.69
459.918	76.69
460.138	88.69
460.358	87.69
460.578	91.69
460.798	88.69
461.018	76.69
461.238	82.69
461.458	104.69
461.678	79.69
461.898	70.69
462.118	94.69
462.338	88.69
462.558	68.69
462.777	90.69
462.997	85.69
463.217	85.69
463.437	76.69
463.657	78.69
463.876	80.69
464.096	88.69
464.316	93.69
464.536	84.69
464.755	87.69
464.975	71.69
465.195	91.69
465.414	93.69
465.634	85.69
465.854	86.69
466.073	80.69
466.293	92.69
466.512	76.69
466.732	93.69
466.951	101.69
467.171	93.69
467.391	82.69
467.61	83.69
467.829	89.69
468.049	75.69
468.268	83.69
468.488	97.69
468.707	94.69
468.927	94.69
469.146	94.69
469.365	92.69
469.585	95.69
469.804	88.69
470.023	84.69
470.243	80.69
470.462	96.69
470.681	82.69
470.901	86.69
471.12	103.69
471.339	103.69
471.558	99.69
471.777	85.69
471.997	88.69
472.216	86.69
472.435	77.69
472.654	91.69
472.873	86.69
473.092	97.69
473.311	95.69
473.53	92.69
473.749	93.69
473.968	87.69
474.187	69.69
474.406	87.69
474.625	90.69
474.844	90.69
475.063	80.69
475.282	81.69
475.501	94.69
475.72	80.69
475.939	91.69
476.158	95.69
476.377	105.69
476.596	88.69
476.814	96.69
477.033	91.69
477.252	83.69
477.471	86.69
477.69	90.69
477.908	100.69
478.127	103.69
478.346	89.69
478.564	96.69
478.783	98.69
479.002	99.69
479.22	88.69
479.439	96.69
479.658	85.69
479.876	92.69
480.095	96.69
480.313	87.69
480.532	86.69
480.751	97.69
480.969	79.69
481.188	98.69
481.406	95.69
481.624	93.69
481.843	93.69
482.061	87.69
482.28	90.69
482.498	86.69
482.717	79.69
482.935	87.69
483.153	90.69
483.372	98.69
483.59	90.69
483.808	82.69
484.027	106.69
484.245	89.69
484.463	84.69
484.681	99.69
484.9	94.69
485.118	84.69
485.336	99.69
485.554	90.69
485.772	86.69
485.99	99.69
486.209	79.69
486.427	76.69
486.645	84.69
486.863	84.69
487.081	94.69
487.299	110.69
487.517	77.69
487.735	87.69
487.953	103.69
488.171	106.69
488.389	85.69
488.607	85.69
488.825	93.69
489.043	91.69
489.261	89.69
489.479	89.69
489.696	94.69
489.914	83.69
490.132	110.69
490.35	87.69
490.568	84.69
490.786	93.69
491.003	90.69
491.221	102.69
491.439	76.69
491.657	99.69
491.874	90.69
492.092	111.69
492.31	115.69
492.527	107.69
492.745	104.69
492.963	99.69
493.18	95.69
493.398	104.69
493.615	99.69
493.833	99.69
494.05	83.69
494.268	99.69
494.485	92.69
494.703	98.69
494.92	115.69
495.138	101.69
495.355	93.69
495.573	98.69
495.79	104.69
496.008	118.69
496.225	105.69
496.442	82.69
496.66	97.69
496.877	76.69
497.094	91.69
497.312	99.69
497.529	96.69
497.746	99.69
497.963	95.69
498.181	100.69
498.398	88.69
498.615	87.69
498.832	86.69
499.049	75.69
499.267	87.69
499.484	87.69
499.701	90.69
499.918	84.69
500.135	86.69
500.352	90.69
500.569	88.69
500.786	91.69
501.003	96.69
501.22	92.69
501.437	87.69
501.654	89.69
501.871	90.69
502.088	98.69
502.305	100.69
502.522	94.69
502.739	90.69
502.956	91.69
503.172	90.69
503.389	88.69
503.606	93.69
503.823	89.69
504.04	93.69
504.256	90.69
504.473	83.69
504.69	89.69
504.907	105.69
505.123	94.69
505.34	100.69
505.557	94.69
505.773	84.69
505.99	73.69
506.207	85.69
506.423	82.69
506.64	93.69
506.856	93.69
507.073	93.69
507.289	80.69
507.506	80.69
507.722	90.69
507.939	90.69
508.155	95.69
508.372	88.69
508.588	84.69
508.805	82.69
509.021	84.69
509.238	90.69
509.454	62.69
509.67	80.69
509.887	69.69
510.103	67.69
510.319	87.69
510.536	85.69
510.752	94.69
510.968	80.69
511.184	79.69
511.401	75.69
511.617	91.69
511.833	74.69
512.049	93.69
512.265	97.69
512.481	72.69
512.698	101.69
512.914	84.69
513.13	84.69
513.346	88.69
513.562	87.69
513.778	69.69
513.994	86.69
514.21	88.69
514.426	77.69
514.642	90.69
514.858	102.69
515.074	80.69
515.29	76.69
515.506	81.69
515.721	103.69
515.937	94.69
516.153	86.69
516.369	71.69
516.585	73.69
516.801	91.69
517.016	88.69
517.232	89.69
517.448	101.69
517.664	86.69
517.879	69.69
518.095	74.69
518.311	98.69
518.527	93.69
518.742	95.69
518.958	79.69
519.173	89.69
519.389	83.69
519.605	79.69
519.82	85.69
520.036	85.69
520.251	91.69
520.467	89.69
520.682	77.69
520.898	79.69
521.113	89.69
521.329	93.69
521.544	74.69
521.76	79.69
521.975	84.69
522.19	88.69
522.406	87.69
522.621	88.69
522.836	98.69
523.052	84.69
523.267	87.69
523.482	80.69
523.698	81.69
523.913	93.69
524.128	74.69
524.343	90.69
524.559	86.69
524.774	82.69
524.989	84.69
525.204	98.69
525.419	87.69
525.634	76.69
525.849	77.69
526.064	83.69
526.28	99.69
526.495	87.69
526.71	67.69
526.925	85.69
527.14	83.69
527.355	79.69
527.57	76.69
527.785	84.69
527.999	71.69
528.214	92.69
528.429	86.69
528.644	78.69
528.859	81.69
529.074	85.69
529.289	88.69
529.503	91.69
529.718	94.69
529.933	97.69
530.148	92.69
530.363	88.69
530.577	82.69
530.792	85.69
531.007	80.69
531.221	89.69
531.436	91.69
531.651	76.69
531.865	66.69
532.08	84.69
532.295	99.69
532.509	75.69
532.724	78.69
532.938	77.69
533.153	90.69
533.367	89.69
533.582	85.69
533.796	100.69
534.011	88.69
534.225	79.69
534.44	81.69
534.654	76.69
534.868	84.69
535.083	74.69
535.297	86.69
535.511	82.69
535.726	84.69
535.94	80.69
536.154	93.69
536.369	88.69
536.583	75.69
536.797	65.69
537.011	89.69
537.225	83.69
537.44	100.69
537.654	88.69
537.868	94.69
538.082	90.69
538.296	83.69
538.51	92.69
538.724	76.69
538.938	87.69
539.153	97.69
539.367	95.69
539.581	90.69
539.795	80.69
540.009	79.69
540.222	92.69
540.436	79.69
540.65	90.69
540.864	82.69
541.078	83.69
541.292	106.69
541.506	112.69
541.72	123.69
541.934	116.69
542.147	109.69
542.361	103.69
542.575	103.69
542.789	95.69
543.002	88.69
543.216	99.69
543.43	82.69
543.644	93.69
543.857	89.69
544.071	104.69
544.285	86.69
544.498	105.69
544.712	100.69
544.925	97.69
545.139	87.69
545.352	102.69
545.566	100.69
545.779	102.69
545.993	99.69
546.206	79.69
546.42	110.69
546.633	99.69
546.847	93.69
547.06	97.69
547.274	111.69
547.487	99.69
547.7	99.69
547.914	107.69
548.127	80.69
548.34	93.69
548.554	105.69
548.767	87.69
548.98	96.69
549.193	103.69
549.407	104.69
549.62	81.69
549.833	89.69
550.046	99.69
550.259	95.69
550.473	94.69
550.686	104.69
550.899	95.69
551.112	95.69
551.325	91.69
551.538	92.69
551.751	96.69
551.964	76.69
552.177	95.69
552.39	95.69
552.603	96.69
552.816	104.69
553.029	93.69
553.242	95.69
553.455	97.69
553.667	98.69
553.88	108.69
554.093	95.69
554.306	90.69
554.519	92.69
554.732	84.69
554.944	96.69
555.157	91.69
555.37	87.69
555.583	92.69
555.795	86.69
556.008	99.69
556.221	96.69
556.433	93.69
556.646	90.69
556.859	102.69
557.071	98.69
557.284	107.69
557.496	97.69
557.709	80.69
557.921	88.69
558.134	107.69
558.346	97.69
558.559	84.69
558.771	101.69
558.984	93.69
559.196	94.69
559.409	87.69
559.621	95.69
559.833	81.69
560.046	96.69
560.258	88.69
560.47	92.69
560.683	108.69
560.895	95.69
561.107	82.69
561.32	100.69
561.532	95.69
561.744	100.69
561.956	90.69
562.168	101.69
562.381	105.69
562.593	93.69
562.805	92.69
563.017	81.69
563.229	97.69
563.441	84.69
563.653	102.69
563.865	90.69
564.077	94.69
564.289	90.69
564.501	88.69
564.713	103.69
564.925	94.69
565.137	90.69
565.349	85.69
565.561	90.69
565.773	100.69
565.985	94.69
566.197	86.69
566.408	73.69
566.62	74.69
566.832	91.69
567.044	86.69
567.255	93.69
567.467	108.69
567.679	81.69
567.891	87.69
568.102	84.69
568.314	71.69
568.526	89.69
568.737	92.69
568.949	91.69
569.161	81.69
569.372	88.69
569.584	77.69
569.795	88.69
570.007	83.69
570.218	92.69
570.43	95.69
570.641	85.69
570.853	72.69
571.064	87.69
571.276	86.69
571.487	92.69
571.698	93.69
571.91	90.69
572.121	94.69
572.333	89.69
572.544	90.69
572.755	85.69
572.966	76.69
573.178	94.69
573.389	77.69
573.6	70.69
573.811	96.69
574.023	87.69
574.234	86.69
574.445	80.69
574.656	75.69
574.867	86.69
575.078	95.69
575.289	84.69
575.501	104.69
575.712	92.69
575.923	91.69
576.134	83.69
576.345	88.69
576.556	74.69
576.767	93.69
576.978	80.69
577.188	98.69
577.399	94.69
577.61	85.69
577.821	96.69
578.032	79.69
578.243	78.69
578.454	92.69
578.665	105.69
578.875	91.69
579.086	78.69
579.297	86.69
579.508	90.69
579.718	87.69
579.929	91.69
580.14	92.69
580.35	78.69
580.561	96.69
580.772	76.69
580.982	91.69
581.193	94.69
581.403	88.69
581.614	111.69
581.825	88.69
582.035	77.69
582.246	92.69
582.456	91.69
582.667	82.69
582.877	81.69
583.087	69.69
583.298	86.69
583.508	103.69
583.719	91.69
583.929	94.69
584.139	76.69
584.35	82.69
584.56	74.69
584.77	81.69
584.981	90.69
585.191	85.69
585.401	68.69
585.611	78.69
585.821	86.69
586.032	99.69
586.242	89.69
586.452	82.69
586.662	72.69
586.872	86.69
587.082	90.69
587.292	85.69
587.502	77.69
587.713	86.69
587.923	86.69
588.133	78.69
588.343	94.69
588.553	83.69
588.762	94.69
588.972	89.69
589.182	84.69
589.392	89.69
589.602	92.69
589.812	94.69
590.022	88.69
590.232	85.69
590.441	78.69
590.651	92.69
590.861	90.69
591.071	91.69
591.281	81.69
591.49	82.69
591.7	87.69
591.91	94.69
592.119	85.69
592.329	88.69
592.539	89.69
592.748	95.69
592.958	85.69
593.167	85.69
593.377	86.69
593.587	88.69
593.796	90.69
594.006	94.69
594.215	78.69
594.424	105.69
594.634	92.69
594.843	88.69
595.053	81.69
595.262	81.69
595.472	78.69
595.681	89.69
595.89	90.69
596.1	89.69
596.309	85.69
596.518	75.69
596.727	91.69
596.937	96.69
597.146	89.69
597.355	77.69
597.564	88.69
597.774	91.69
597.983	82.69
598.192	93.69
598.401	75.69
598.61	91.69
598.819	79.69
599.028	77.69
599.237	87.69
599.446	89.69
599.655	93.69
599.864	86.69
600.073	80.69
600.282	98.69
600.491	95.69
600.7	83.69
600.909	71.69
601.118	87.69
601.327	100.69
601.536	93.69
601.745	91.69
601.953	107.69
602.162	94.69
602.371	104.69
602.58	114.69
602.789	91.69
602.997	104.69
603.206	94.69
603.415	94.69
603.623	79.69
603.832	98.69
604.041	91.69
604.249	91.69
604.458	92.69
604.666	96.69
604.875	77.69
605.084	92.69
605.292	102.69
605.501	84.69
605.709	110.69
605.918	92.69
606.126	92.69
606.334	86.69
606.543	89.69
606.751	85.69
606.96	109.69
607.168	83.69
607.376	86.69
607.585	88.69
607.793	93.69
608.001	70.69
608.21	88.69
608.418	77.69
608.626	86.69
608.834	101.69
609.043	99.69
609.251	89.69
609.459	101.69
609.667	98.69
609.875	93.69
610.083	98.69
610.291	87.69
610.499	86.69
610.707	92.69
610.916	92.69
611.124	88.69
611.332	92.69
611.54	95.69
611.748	91.69
611.955	99.69
612.163	88.69
612.371	95.69
612.579	98.69
612.787	92.69
612.995	94.69
613.203	97.69
613.411	91.69
613.618	99.69
613.826	84.69
614.034	92.69
614.242	85.69
614.449	90.69
614.657	103.69
614.865	85.69
615.072	88.69
615.28	93.69
615.488	95.69
615.695	94.69
615.903	103.69
616.111	95.69
616.318	90.69
616.526	95.69
616.733	84.69
616.941	85.69
617.148	88.69
617.356	94.69
617.563	80.69
617.771	86.69
617.978	79.69
618.185	96.69
618.393	97.69
618.6	82.69
618.807	88.69
619.015	81.69
619.222	98.69
619.429	86.69
619.637	87.69
619.844	82.69
620.051	99.69
620.258	94.69
620.466	94.69
620.673	85.69
620.88	98.69
621.087	87.69
621.294	89.69
621.501	81.69
621.708	93.69
621.915	86.69
622.122	88.69
622.329	91.69
622.536	87.69
622.743	86.69
622.95	80.69
623.157	80.69
623.364	98.69
623.571	100.69
623.778	103.69
623.985	93.69
624.192	95.69
624.399	105.69
624.606	89.69
624.812	89.69
625.019	86.69
625.226	95.69
625.433	106.69
625.639	100.69
625.846	89.69
626.053	84.69
626.259	84.69
626.466	80.69
626.673	89.69
626.879	90.69
627.086	95.69
627.293	93.69
627.499	77.69
627.706	105.69
627.912	89.69
628.119	99.69
628.325	102.69
628.532	97.69
628.738	80.69
628.945	87.69
629.151	82.69
629.357	92.69
629.564	69.69
629.77	88.69
629.976	90.69
630.183	91.69
630.389	78.69
630.595	86.69
630.802	95.69
631.008	81.69
631.214	90.69
631.42	100.69
631.627	88.69
631.833	88.69
632.039	79.69
632.245	84.69
632.451	85.69
632.657	93.69
632.863	97.69
633.069	88.69
633.275	102.69
633.481	101.69
633.688	101.69
633.893	84.69
634.099	107.69
634.305	80.69
634.511	93.69
634.717	90.69
634.923	85.69
635.129	82.69
635.335	102.69
635.541	81.69
635.747	93.69
635.952	97.69
636.158	89.69
636.364	88.69
636.57	90.69
636.775	84.69
636.981	91.69
637.187	87.69
637.392	89.69
637.598	87.69
637.804	62.69
638.009	99.69
638.215	91.69
638.421	91.69
638.626	84.69
638.832	84.69
639.037	68.69
639.243	74.69
639.448	88.69
639.654	103.69
639.859	82.69
640.065	86.69
640.27	84.69
640.475	94.69
640.681	82.69
640.886	96.69
641.091	78.69
641.297	83.69
641.502	90.69
641.707	91.69
641.913	91.69
642.118	80.69
642.323	84.69
642.528	90.69
642.733	88.69
642.939	88.69
643.144	85.69
643.349	87.69
643.554	75.69
643.759	110.69
643.964	82.69
644.169	77.69
644.374	78.69
644.579	84.69
644.784	75.69
644.989	85.69
645.194	95.69
645.399	91.69
645.604	82.69
645.809	88.69
646.014	88.69
646.219	92.69
646.423	75.69
646.628	88.69
646.833	100.69
647.038	98.69
647.243	110.69
647.447	78.69
647.652	92.69
647.857	85.69
648.062	75.69
648.266	77.69
648.471	78.69
648.676	80.69
648.88	92.69
649.085	82.69
649.289	84.69
649.494	81.69
649.698	98.69
649.903	90.69
650.107	86.69
650.312	88.69
650.516	101.69
650.721	101.69
650.925	94.69
651.13	83.69
651.334	80.69
651.539	90.69
651.743	88.69
651.947	80.69
652.152	89.69
652.356	89.69
652.56	77.69
652.764	93.69
652.969	85.69
653.173	80.69
653.377	83.69
653.581	93.69
653.785	95.69
653.99	79.69
654.194	69.69
654.398	71.69
654.602	81.69
654.806	90.69
655.01	88.69
655.214	96.69
655.418	88.69
655.622	82.69
655.826	78.69
656.03	77.69
656.234	82.69
656.438	71.69
656.642	82.69
656.846	80.69
657.049	79.69
657.253	76.69
657.457	95.69
657.661	76.69
657.865	89.69
658.068	82.69
658.272	77.69
658.476	93.69
658.68	83.69
658.883	79.69
659.087	82.69
659.291	98.69
659.494	78.69
659.698	90.69
659.901	84.69
660.105	82.69
660.309	96.69
660.512	90.69
660.716	101.69
660.919	81.69
661.123	88.69
661.326	87.69
661.53	92.69
661.733	79.69
661.936	93.69
662.14	76.69
662.343	76.69
662.546	89.69
662.75	84.69
662.953	75.69
663.156	95.69
663.36	87.69
663.563	87.69
663.766	78.69
663.969	82.69
664.173	83.69
664.376	76.69
664.579	74.69
664.782	88.69
664.985	75.69
665.188	86.69
665.391	80.69
665.594	97.69
665.797	83.69
666	84.69
666.203	86.69
666.406	81.69
666.609	79.69
666.812	80.69
667.015	78.69
667.218	87.69
667.421	91.69
667.624	75.69
667.827	102.69
668.03	77.69
668.232	76.69
668.435	78.69
668.638	77.69
668.841	80.69
669.043	84.69
669.246	84.69
669.449	80.69
669.651	79.69
669.854	77.69
670.057	105.69
670.259	85.69
670.462	79.69
670.665	90.69
670.867	105.69
671.07	102.69
671.272	95.69
671.475	83.69
671.677	95.69
671.88	92.69
672.082	81.69
672.284	79.69
672.487	80.69
672.689	62.69
672.892	83.69
