Data from Zn(NO3)2Standard.Agarose3%.GreenCap.LampEnergy5.5.E.O_HRD10591_15-02-02-767.txt Node
Date: Mon Jul 22 15:02:02 EDT 2019
User: cochatt
Spectrometer: HR+D1059
Trigger mode: 1
Integration Time (sec): 1.000000E-1
Scans to average: 1
Electric dark correction enabled: true
Nonlinearity correction enabled: false
Boxcar width: 0
XAxis mode: Wavelengths
Number of Pixels in Spectrum: 2048
>>>>>Begin Spectral Data<<<<<
223.165	-23.25
223.4	-23.25
223.635	-23.25
223.869	-26.25
224.104	-21.25
224.338	-25.25
224.573	-6.25
224.808	-7.25
225.042	7.75
225.277	-10.25
225.511	-0.25
225.746	4.75
225.98	-2.25
226.215	21.75
226.449	17.75
226.683	22.75
226.918	27.75
227.152	19.75
227.387	31.75
227.621	52.75
227.856	53.75
228.09	43.75
228.324	52.75
228.559	62.75
228.793	58.75
229.027	55.75
229.262	64.75
229.496	64.75
229.73	61.75
229.964	61.75
230.199	80.75
230.433	80.75
230.667	77.75
230.901	72.75
231.136	88.75
231.37	73.75
231.604	90.75
231.838	76.75
232.072	66.75
232.306	64.75
232.541	68.75
232.775	83.75
233.009	87.75
233.243	80.75
233.477	87.75
233.711	91.75
233.945	82.75
234.179	88.75
234.413	90.75
234.647	87.75
234.881	78.75
235.115	72.75
235.349	74.75
235.583	78.75
235.817	76.75
236.051	80.75
236.285	73.75
236.519	75.75
236.753	72.75
236.987	85.75
237.221	77.75
237.455	81.75
237.689	83.75
237.922	81.75
238.156	83.75
238.39	74.75
238.624	72.75
238.858	75.75
239.091	74.75
239.325	70.75
239.559	84.75
239.793	70.75
240.027	78.75
240.26	77.75
240.494	71.75
240.728	82.75
240.961	78.75
241.195	76.75
241.429	65.75
241.662	78.75
241.896	65.75
242.13	76.75
242.363	73.75
242.597	72.75
242.83	74.75
243.064	70.75
243.298	82.75
243.531	78.75
243.765	85.75
243.998	92.75
244.232	59.75
244.465	73.75
244.699	85.75
244.932	67.75
245.166	90.75
245.399	74.75
245.633	73.75
245.866	67.75
246.099	75.75
246.333	67.75
246.566	83.75
246.8	80.75
247.033	70.75
247.266	77.75
247.5	76.75
247.733	80.75
247.966	76.75
248.2	60.75
248.433	64.75
248.666	84.75
248.899	84.75
249.133	69.75
249.366	65.75
249.599	75.75
249.832	68.75
250.066	84.75
250.299	102.75
250.532	79.75
250.765	77.75
250.998	85.75
251.231	85.75
251.465	85.75
251.698	84.75
251.931	76.75
252.164	81.75
252.397	92.75
252.63	80.75
252.863	75.75
253.096	66.75
253.329	76.75
253.562	83.75
253.795	82.75
254.028	57.75
254.261	82.75
254.494	71.75
254.727	76.75
254.96	86.75
255.193	87.75
255.426	60.75
255.659	89.75
255.892	85.75
256.124	70.75
256.357	85.75
256.59	84.75
256.823	66.75
257.056	78.75
257.289	85.75
257.521	80.75
257.754	69.75
257.987	77.75
258.22	71.75
258.452	81.75
258.685	70.75
258.918	92.75
259.151	77.75
259.383	70.75
259.616	80.75
259.849	81.75
260.081	84.75
260.314	84.75
260.547	83.75
260.779	80.75
261.012	74.75
261.244	79.75
261.477	94.75
261.71	72.75
261.942	83.75
262.175	78.75
262.407	80.75
262.64	73.75
262.872	84.75
263.105	76.75
263.337	84.75
263.57	95.75
263.802	79.75
264.035	75.75
264.267	91.75
264.499	82.75
264.732	81.75
264.964	95.75
265.197	79.75
265.429	96.75
265.661	87.75
265.894	76.75
266.126	82.75
266.358	88.75
266.591	76.75
266.823	72.75
267.055	84.75
267.287	82.75
267.52	86.75
267.752	88.75
267.984	85.75
268.216	86.75
268.448	96.75
268.681	79.75
268.913	79.75
269.145	81.75
269.377	76.75
269.609	72.75
269.841	85.75
270.073	88.75
270.306	92.75
270.538	74.75
270.77	72.75
271.002	87.75
271.234	92.75
271.466	79.75
271.698	83.75
271.93	80.75
272.162	83.75
272.394	92.75
272.626	78.75
272.858	89.75
273.09	76.75
273.322	84.75
273.553	84.75
273.785	92.75
274.017	78.75
274.249	83.75
274.481	77.75
274.713	79.75
274.945	75.75
275.176	77.75
275.408	91.75
275.64	87.75
275.872	85.75
276.104	95.75
276.335	85.75
276.567	82.75
276.799	88.75
277.031	84.75
277.262	76.75
277.494	67.75
277.726	79.75
277.957	84.75
278.189	73.75
278.421	82.75
278.652	76.75
278.884	90.75
279.115	74.75
279.347	65.75
279.579	85.75
279.81	86.75
280.042	88.75
280.273	81.75
280.505	77.75
280.736	100.75
280.968	97.75
281.199	87.75
281.431	80.75
281.662	89.75
281.894	80.75
282.125	86.75
282.356	112.75
282.588	78.75
282.819	97.75
283.051	79.75
283.282	92.75
283.513	69.75
283.745	77.75
283.976	71.75
284.207	74.75
284.439	96.75
284.67	90.75
284.901	83.75
285.132	76.75
285.364	92.75
285.595	70.75
285.826	80.75
286.057	86.75
286.288	86.75
286.52	89.75
286.751	85.75
286.982	86.75
287.213	81.75
287.444	99.75
287.675	78.75
287.906	88.75
288.138	101.75
288.369	79.75
288.6	102.75
288.831	82.75
289.062	79.75
289.293	82.75
289.524	79.75
289.755	88.75
289.986	74.75
290.217	96.75
290.448	87.75
290.679	96.75
290.91	88.75
291.141	86.75
291.371	75.75
291.602	93.75
291.833	91.75
292.064	93.75
292.295	92.75
292.526	82.75
292.757	86.75
292.987	75.75
293.218	91.75
293.449	76.75
293.68	90.75
293.91	77.75
294.141	81.75
294.372	94.75
294.603	86.75
294.833	85.75
295.064	83.75
295.295	84.75
295.525	73.75
295.756	83.75
295.987	82.75
296.217	77.75
296.448	81.75
296.679	89.75
296.909	84.75
297.14	91.75
297.37	84.75
297.601	72.75
297.831	67.75
298.062	70.75
298.292	90.75
298.523	96.75
298.753	97.75
298.984	73.75
299.214	92.75
299.445	84.75
299.675	81.75
299.905	84.75
300.136	89.75
300.366	101.75
300.597	90.75
300.827	91.75
301.057	94.75
301.288	94.75
301.518	100.75
301.748	80.75
301.979	98.75
302.209	92.75
302.439	65.75
302.669	90.75
302.9	103.75
303.13	90.75
303.36	104.75
303.59	92.75
303.82	86.75
304.051	91.75
304.281	77.75
304.511	92.75
304.741	83.75
304.971	75.75
305.201	96.75
305.431	84.75
305.661	85.75
305.891	77.75
306.121	66.75
306.352	84.75
306.582	96.75
306.812	75.75
307.042	85.75
307.272	81.75
307.502	94.75
307.731	93.75
307.961	89.75
308.191	80.75
308.421	91.75
308.651	76.75
308.881	69.75
309.111	77.75
309.341	88.75
309.571	84.75
309.8	87.75
310.03	93.75
310.26	90.75
310.49	82.75
310.72	84.75
310.949	100.75
311.179	85.75
311.409	85.75
311.639	85.75
311.868	88.75
312.098	88.75
312.328	85.75
312.557	89.75
312.787	90.75
313.017	89.75
313.246	78.75
313.476	82.75
313.706	90.75
313.935	74.75
314.165	78.75
314.394	86.75
314.624	101.75
314.853	80.75
315.083	92.75
315.312	102.75
315.542	81.75
315.771	80.75
316.001	74.75
316.23	95.75
316.46	100.75
316.689	83.75
316.919	70.75
317.148	91.75
317.377	85.75
317.607	81.75
317.836	82.75
318.065	78.75
318.295	103.75
318.524	89.75
318.753	85.75
318.983	98.75
319.212	71.75
319.441	71.75
319.67	84.75
319.9	87.75
320.129	75.75
320.358	90.75
320.587	76.75
320.816	73.75
321.046	82.75
321.275	92.75
321.504	90.75
321.733	82.75
321.962	87.75
322.191	85.75
322.42	71.75
322.649	93.75
322.878	82.75
323.108	87.75
323.337	86.75
323.566	108.75
323.795	78.75
324.024	86.75
324.253	93.75
324.482	84.75
324.71	87.75
324.939	85.75
325.168	89.75
325.397	72.75
325.626	83.75
325.855	92.75
326.084	84.75
326.313	73.75
326.542	80.75
326.77	96.75
326.999	95.75
327.228	86.75
327.457	68.75
327.686	84.75
327.914	93.75
328.143	96.75
328.372	105.75
328.6	93.75
328.829	99.75
329.058	91.75
329.287	81.75
329.515	73.75
329.744	92.75
329.972	84.75
330.201	78.75
330.43	96.75
330.658	88.75
330.887	81.75
331.115	72.75
331.344	87.75
331.572	85.75
331.801	84.75
332.03	85.75
332.258	86.75
332.486	88.75
332.715	84.75
332.943	75.75
333.172	91.75
333.4	85.75
333.629	80.75
333.857	96.75
334.085	92.75
334.314	77.75
334.542	84.75
334.771	66.75
334.999	73.75
335.227	81.75
335.455	92.75
335.684	83.75
335.912	82.75
336.14	84.75
336.369	87.75
336.597	80.75
336.825	82.75
337.053	86.75
337.281	91.75
337.51	85.75
337.738	94.75
337.966	82.75
338.194	65.75
338.422	77.75
338.65	89.75
338.878	69.75
339.106	90.75
339.334	93.75
339.562	84.75
339.79	82.75
340.018	91.75
340.246	82.75
340.474	92.75
340.702	81.75
340.93	78.75
341.158	86.75
341.386	98.75
341.614	84.75
341.842	77.75
342.07	92.75
342.298	97.75
342.526	89.75
342.754	92.75
342.981	93.75
343.209	81.75
343.437	93.75
343.665	98.75
343.893	94.75
344.12	84.75
344.348	87.75
344.576	85.75
344.804	73.75
345.031	83.75
345.259	97.75
345.487	74.75
345.714	91.75
345.942	84.75
346.17	88.75
346.397	90.75
346.625	94.75
346.853	84.75
347.08	74.75
347.308	74.75
347.535	88.75
347.763	75.75
347.99	100.75
348.218	93.75
348.445	85.75
348.673	75.75
348.9	90.75
349.128	78.75
349.355	85.75
349.583	88.75
349.81	78.75
350.037	86.75
350.265	83.75
350.492	86.75
350.72	85.75
350.947	86.75
351.174	85.75
351.402	76.75
351.629	98.75
351.856	104.75
352.083	75.75
352.311	90.75
352.538	82.75
352.765	81.75
352.992	66.75
353.22	81.75
353.447	84.75
353.674	97.75
353.901	88.75
354.128	75.75
354.355	78.75
354.583	76.75
354.81	74.75
355.037	91.75
355.264	76.75
355.491	75.75
355.718	79.75
355.945	82.75
356.172	83.75
356.399	81.75
356.626	94.75
356.853	80.75
357.08	79.75
357.307	88.75
357.534	90.75
357.761	89.75
357.988	77.75
358.215	92.75
358.441	78.75
358.668	93.75
358.895	72.75
359.122	114.75
359.349	96.75
359.576	96.75
359.802	77.75
360.029	97.75
360.256	89.75
360.483	83.75
360.709	80.75
360.936	93.75
361.163	85.75
361.39	89.75
361.616	84.75
361.843	85.75
362.07	88.75
362.296	69.75
362.523	86.75
362.749	87.75
362.976	82.75
363.203	91.75
363.429	84.75
363.656	83.75
363.882	83.75
364.109	82.75
364.335	87.75
364.562	84.75
364.788	81.75
365.015	74.75
365.241	84.75
365.468	88.75
365.694	78.75
365.92	72.75
366.147	82.75
366.373	81.75
366.599	73.75
366.826	81.75
367.052	86.75
367.278	86.75
367.505	84.75
367.731	97.75
367.957	86.75
368.184	97.75
368.41	82.75
368.636	86.75
368.862	91.75
369.089	77.75
369.315	77.75
369.541	87.75
369.767	92.75
369.993	90.75
370.219	94.75
370.445	84.75
370.672	74.75
370.898	76.75
371.124	88.75
371.35	84.75
371.576	93.75
371.802	78.75
372.028	69.75
372.254	86.75
372.48	87.75
372.706	87.75
372.932	88.75
373.158	94.75
373.384	77.75
373.61	101.75
373.835	88.75
374.061	99.75
374.287	94.75
374.513	89.75
374.739	78.75
374.965	88.75
375.191	75.75
375.416	76.75
375.642	83.75
375.868	90.75
376.094	69.75
376.319	84.75
376.545	88.75
376.771	82.75
376.997	92.75
377.222	75.75
377.448	99.75
377.674	72.75
377.899	68.75
378.125	80.75
378.35	78.75
378.576	82.75
378.802	76.75
379.027	85.75
379.253	88.75
379.478	80.75
379.704	67.75
379.929	85.75
380.155	87.75
380.38	97.75
380.606	82.75
380.831	81.75
381.057	87.75
381.282	78.75
381.507	97.75
381.733	84.75
381.958	86.75
382.184	96.75
382.409	92.75
382.634	82.75
382.86	72.75
383.085	88.75
383.31	83.75
383.535	83.75
383.761	87.75
383.986	97.75
384.211	73.75
384.436	82.75
384.662	71.75
384.887	84.75
385.112	85.75
385.337	89.75
385.562	86.75
385.787	95.75
386.013	78.75
386.238	83.75
386.463	88.75
386.688	85.75
386.913	84.75
387.138	76.75
387.363	87.75
387.588	84.75
387.813	95.75
388.038	78.75
388.263	85.75
388.488	77.75
388.713	77.75
388.938	67.75
389.163	102.75
389.387	66.75
389.612	92.75
389.837	86.75
390.062	76.75
390.287	83.75
390.512	86.75
390.736	99.75
390.961	76.75
391.186	93.75
391.411	85.75
391.636	82.75
391.86	92.75
392.085	80.75
392.31	87.75
392.534	78.75
392.759	89.75
392.984	86.75
393.208	84.75
393.433	95.75
393.658	73.75
393.882	81.75
394.107	85.75
394.331	74.75
394.556	86.75
394.78	94.75
395.005	92.75
395.229	81.75
395.454	66.75
395.678	91.75
395.903	92.75
396.127	86.75
396.352	82.75
396.576	88.75
396.801	93.75
397.025	77.75
397.249	88.75
397.474	91.75
397.698	85.75
397.922	93.75
398.147	97.75
398.371	96.75
398.595	76.75
398.82	70.75
399.044	86.75
399.268	76.75
399.492	84.75
399.717	82.75
399.941	94.75
400.165	82.75
400.389	78.75
400.613	90.75
400.837	100.75
401.062	75.75
401.286	95.75
401.51	99.75
401.734	85.75
401.958	86.75
402.182	66.75
402.406	73.75
402.63	91.75
402.854	94.75
403.078	86.75
403.302	76.75
403.526	88.75
403.75	96.75
403.974	86.75
404.198	85.75
404.422	90.75
404.645	75.75
404.869	85.75
405.093	88.75
405.317	94.75
405.541	97.75
405.765	74.75
405.988	80.75
406.212	85.75
406.436	92.75
406.66	95.75
406.883	81.75
407.107	74.75
407.331	70.75
407.555	87.75
407.778	86.75
408.002	82.75
408.226	98.75
408.449	79.75
408.673	86.75
408.896	71.75
409.12	88.75
409.344	93.75
409.567	82.75
409.791	79.75
410.014	78.75
410.238	81.75
410.461	88.75
410.685	78.75
410.908	73.75
411.132	81.75
411.355	87.75
411.578	97.75
411.802	95.75
412.025	86.75
412.249	82.75
412.472	82.75
412.695	72.75
412.919	84.75
413.142	84.75
413.365	87.75
413.589	93.75
413.812	91.75
414.035	96.75
414.258	87.75
414.482	77.75
414.705	94.75
414.928	90.75
415.151	80.75
415.374	96.75
415.597	97.75
415.821	77.75
416.044	98.75
416.267	86.75
416.49	93.75
416.713	84.75
416.936	70.75
417.159	96.75
417.382	91.75
417.605	82.75
417.828	89.75
418.051	86.75
418.274	92.75
418.497	84.75
418.72	83.75
418.943	102.75
419.166	91.75
419.389	91.75
419.611	86.75
419.834	94.75
420.057	94.75
420.28	79.75
420.503	79.75
420.726	72.75
420.948	84.75
421.171	86.75
421.394	81.75
421.617	102.75
421.839	102.75
422.062	83.75
422.285	86.75
422.507	89.75
422.73	93.75
422.953	86.75
423.175	98.75
423.398	87.75
423.621	101.75
423.843	91.75
424.066	96.75
424.288	92.75
424.511	97.75
424.733	88.75
424.956	82.75
425.178	71.75
425.401	82.75
425.623	80.75
425.846	83.75
426.068	78.75
426.291	96.75
426.513	78.75
426.735	72.75
426.958	97.75
427.18	86.75
427.402	88.75
427.625	99.75
427.847	87.75
428.069	88.75
428.292	90.75
428.514	97.75
428.736	94.75
428.958	69.75
429.181	88.75
429.403	92.75
429.625	78.75
429.847	84.75
430.069	83.75
430.292	100.75
430.514	98.75
430.736	91.75
430.958	75.75
431.18	82.75
431.402	77.75
431.624	94.75
431.846	81.75
432.068	85.75
432.29	71.75
432.512	89.75
432.734	88.75
432.956	85.75
433.178	86.75
433.4	98.75
433.622	82.75
433.844	107.75
434.066	75.75
434.287	80.75
434.509	80.75
434.731	80.75
434.953	91.75
435.175	72.75
435.397	91.75
435.618	84.75
435.84	86.75
436.062	92.75
436.284	102.75
436.505	92.75
436.727	83.75
436.949	85.75
437.17	92.75
437.392	99.75
437.614	83.75
437.835	80.75
438.057	98.75
438.278	82.75
438.5	93.75
438.721	90.75
438.943	94.75
439.165	92.75
439.386	77.75
439.608	72.75
439.829	103.75
440.05	97.75
440.272	82.75
440.493	87.75
440.715	84.75
440.936	84.75
441.158	80.75
441.379	99.75
441.6	101.75
441.822	93.75
442.043	84.75
442.264	96.75
442.486	86.75
442.707	92.75
442.928	78.75
443.149	98.75
443.371	91.75
443.592	96.75
443.813	67.75
444.034	90.75
444.255	88.75
444.476	106.75
444.698	91.75
444.919	86.75
445.14	228.75
445.361	161.75
445.582	91.75
445.803	84.75
446.024	84.75
446.245	94.75
446.466	94.75
446.687	86.75
446.908	103.75
447.129	96.75
447.35	88.75
447.571	94.75
447.792	89.75
448.013	88.75
448.234	81.75
448.455	106.75
448.675	87.75
448.896	85.75
449.117	109.75
449.338	94.75
449.559	87.75
449.779	99.75
450	92.75
450.221	71.75
450.442	97.75
450.662	97.75
450.883	89.75
451.104	101.75
451.324	89.75
451.545	81.75
451.766	91.75
451.986	92.75
452.207	76.75
452.428	84.75
452.648	86.75
452.869	84.75
453.089	101.75
453.31	78.75
453.53	95.75
453.751	87.75
453.971	79.75
454.192	71.75
454.412	78.75
454.633	82.75
454.853	83.75
455.073	89.75
455.294	96.75
455.514	87.75
455.734	86.75
455.955	100.75
456.175	92.75
456.395	77.75
456.616	93.75
456.836	75.75
457.056	87.75
457.276	86.75
457.497	77.75
457.717	94.75
457.937	103.75
458.157	84.75
458.377	89.75
458.598	65.75
458.818	89.75
459.038	89.75
459.258	85.75
459.478	76.75
459.698	84.75
459.918	83.75
460.138	69.75
460.358	80.75
460.578	94.75
460.798	113.75
461.018	101.75
461.238	88.75
461.458	90.75
461.678	89.75
461.898	78.75
462.118	88.75
462.338	80.75
462.558	88.75
462.777	93.75
462.997	95.75
463.217	85.75
463.437	82.75
463.657	91.75
463.876	80.75
464.096	87.75
464.316	76.75
464.536	92.75
464.755	85.75
464.975	77.75
465.195	89.75
465.414	72.75
465.634	94.75
465.854	93.75
466.073	85.75
466.293	85.75
466.512	83.75
466.732	80.75
466.951	90.75
467.171	83.75
467.391	85.75
467.61	88.75
467.829	100.75
468.049	92.75
468.268	103.75
468.488	79.75
468.707	87.75
468.927	89.75
469.146	85.75
469.365	92.75
469.585	89.75
469.804	87.75
470.023	81.75
470.243	94.75
470.462	87.75
470.681	90.75
470.901	103.75
471.12	91.75
471.339	98.75
471.558	103.75
471.777	80.75
471.997	95.75
472.216	100.75
472.435	91.75
472.654	82.75
472.873	90.75
473.092	97.75
473.311	100.75
473.53	90.75
473.749	92.75
473.968	84.75
474.187	83.75
474.406	89.75
474.625	86.75
474.844	90.75
475.063	88.75
475.282	79.75
475.501	77.75
475.72	75.75
475.939	86.75
476.158	89.75
476.377	82.75
476.596	92.75
476.814	82.75
477.033	95.75
477.252	92.75
477.471	82.75
477.69	96.75
477.908	91.75
478.127	86.75
478.346	98.75
478.564	92.75
478.783	97.75
479.002	92.75
479.22	92.75
479.439	77.75
479.658	89.75
479.876	85.75
480.095	70.75
480.313	81.75
480.532	84.75
480.751	75.75
480.969	90.75
481.188	83.75
481.406	79.75
481.624	82.75
481.843	68.75
482.061	85.75
482.28	88.75
482.498	78.75
482.717	84.75
482.935	84.75
483.153	93.75
483.372	85.75
483.59	108.75
483.808	101.75
484.027	99.75
484.245	80.75
484.463	96.75
484.681	102.75
484.9	102.75
485.118	93.75
485.336	99.75
485.554	82.75
485.772	90.75
485.99	69.75
486.209	89.75
486.427	77.75
486.645	90.75
486.863	89.75
487.081	102.75
487.299	92.75
487.517	100.75
487.735	97.75
487.953	92.75
488.171	96.75
488.389	102.75
488.607	98.75
488.825	88.75
489.043	79.75
489.261	74.75
489.479	94.75
489.696	93.75
489.914	79.75
490.132	93.75
490.35	89.75
490.568	86.75
490.786	91.75
491.003	103.75
491.221	84.75
491.439	106.75
491.657	104.75
491.874	101.75
492.092	100.75
492.31	102.75
492.527	101.75
492.745	113.75
492.963	105.75
493.18	82.75
493.398	100.75
493.615	103.75
493.833	100.75
494.05	101.75
494.268	101.75
494.485	104.75
494.703	108.75
494.92	100.75
495.138	84.75
495.355	98.75
495.573	100.75
495.79	93.75
496.008	102.75
496.225	74.75
496.442	98.75
496.66	97.75
496.877	95.75
497.094	101.75
497.312	88.75
497.529	98.75
497.746	93.75
497.963	85.75
498.181	83.75
498.398	102.75
498.615	84.75
498.832	87.75
499.049	83.75
499.267	83.75
499.484	84.75
499.701	85.75
499.918	95.75
500.135	86.75
500.352	98.75
500.569	98.75
500.786	91.75
501.003	92.75
501.22	86.75
501.437	93.75
501.654	93.75
501.871	81.75
502.088	86.75
502.305	89.75
502.522	88.75
502.739	93.75
502.956	69.75
503.172	89.75
503.389	96.75
503.606	100.75
503.823	98.75
504.04	77.75
504.256	86.75
504.473	88.75
504.69	98.75
504.907	86.75
505.123	87.75
505.34	86.75
505.557	99.75
505.773	74.75
505.99	91.75
506.207	90.75
506.423	89.75
506.64	91.75
506.856	82.75
507.073	89.75
507.289	91.75
507.506	93.75
507.722	95.75
507.939	79.75
508.155	79.75
508.372	76.75
508.588	79.75
508.805	82.75
509.021	94.75
509.238	89.75
509.454	89.75
509.67	81.75
509.887	86.75
510.103	84.75
510.319	93.75
510.536	86.75
510.752	83.75
510.968	76.75
511.184	85.75
511.401	85.75
511.617	84.75
511.833	88.75
512.049	73.75
512.265	89.75
512.481	79.75
512.698	91.75
512.914	91.75
513.13	85.75
513.346	71.75
513.562	85.75
513.778	87.75
513.994	76.75
514.21	84.75
514.426	82.75
514.642	83.75
514.858	95.75
515.074	82.75
515.29	95.75
515.506	92.75
515.721	73.75
515.937	72.75
516.153	76.75
516.369	80.75
516.585	84.75
516.801	88.75
517.016	95.75
517.232	68.75
517.448	84.75
517.664	93.75
517.879	82.75
518.095	85.75
518.311	84.75
518.527	94.75
518.742	85.75
518.958	73.75
519.173	103.75
519.389	86.75
519.605	90.75
519.82	92.75
520.036	88.75
520.251	91.75
520.467	82.75
520.682	80.75
520.898	99.75
521.113	82.75
521.329	85.75
521.544	68.75
521.76	92.75
521.975	70.75
522.19	72.75
522.406	76.75
522.621	90.75
522.836	72.75
523.052	90.75
523.267	98.75
523.482	74.75
523.698	83.75
523.913	88.75
524.128	94.75
524.343	85.75
524.559	93.75
524.774	93.75
524.989	94.75
525.204	82.75
525.419	90.75
525.634	84.75
525.849	89.75
526.064	79.75
526.28	85.75
526.495	76.75
526.71	78.75
526.925	76.75
527.14	101.75
527.355	82.75
527.57	93.75
527.785	89.75
527.999	83.75
528.214	90.75
528.429	93.75
528.644	82.75
528.859	88.75
529.074	103.75
529.289	113.75
529.503	90.75
529.718	98.75
529.933	97.75
530.148	89.75
530.363	85.75
530.577	86.75
530.792	93.75
531.007	70.75
531.221	75.75
531.436	70.75
531.651	64.75
531.865	79.75
532.08	77.75
532.295	85.75
532.509	86.75
532.724	86.75
532.938	84.75
533.153	76.75
533.367	86.75
533.582	91.75
533.796	94.75
534.011	83.75
534.225	73.75
534.44	82.75
534.654	90.75
534.868	88.75
535.083	77.75
535.297	84.75
535.511	88.75
535.726	94.75
535.94	81.75
536.154	82.75
536.369	82.75
536.583	81.75
536.797	82.75
537.011	81.75
537.225	77.75
537.44	88.75
537.654	97.75
537.868	90.75
538.082	100.75
538.296	86.75
538.51	92.75
538.724	77.75
538.938	85.75
539.153	87.75
539.367	98.75
539.581	89.75
539.795	92.75
540.009	87.75
540.222	85.75
540.436	83.75
540.65	98.75
540.864	85.75
541.078	92.75
541.292	92.75
541.506	115.75
541.72	103.75
541.934	96.75
542.147	111.75
542.361	102.75
542.575	94.75
542.789	105.75
543.002	69.75
543.216	104.75
543.43	87.75
543.644	95.75
543.857	95.75
544.071	88.75
544.285	98.75
544.498	104.75
544.712	86.75
544.925	112.75
545.139	96.75
545.352	111.75
545.566	97.75
545.779	97.75
545.993	108.75
546.206	100.75
546.42	102.75
546.633	101.75
546.847	104.75
547.06	97.75
547.274	99.75
547.487	90.75
547.7	107.75
547.914	103.75
548.127	94.75
548.34	89.75
548.554	107.75
548.767	112.75
548.98	89.75
549.193	89.75
549.407	97.75
549.62	78.75
549.833	87.75
550.046	104.75
550.259	90.75
550.473	98.75
550.686	94.75
550.899	102.75
551.112	88.75
551.325	89.75
551.538	81.75
551.751	104.75
551.964	85.75
552.177	86.75
552.39	86.75
552.603	87.75
552.816	88.75
553.029	100.75
553.242	109.75
553.455	90.75
553.667	103.75
553.88	113.75
554.093	103.75
554.306	94.75
554.519	108.75
554.732	96.75
554.944	91.75
555.157	100.75
555.37	95.75
555.583	102.75
555.795	95.75
556.008	90.75
556.221	109.75
556.433	86.75
556.646	84.75
556.859	106.75
557.071	94.75
557.284	82.75
557.496	87.75
557.709	93.75
557.921	88.75
558.134	94.75
558.346	99.75
558.559	97.75
558.771	100.75
558.984	85.75
559.196	85.75
559.409	87.75
559.621	102.75
559.833	95.75
560.046	95.75
560.258	102.75
560.47	85.75
560.683	83.75
560.895	97.75
561.107	100.75
561.32	86.75
561.532	101.75
561.744	96.75
561.956	89.75
562.168	99.75
562.381	82.75
562.593	92.75
562.805	101.75
563.017	105.75
563.229	93.75
563.441	85.75
563.653	91.75
563.865	88.75
564.077	93.75
564.289	99.75
564.501	105.75
564.713	97.75
564.925	92.75
565.137	77.75
565.349	95.75
565.561	80.75
565.773	95.75
565.985	101.75
566.197	91.75
566.408	94.75
566.62	86.75
566.832	92.75
567.044	85.75
567.255	84.75
567.467	101.75
567.679	97.75
567.891	75.75
568.102	100.75
568.314	81.75
568.526	80.75
568.737	83.75
568.949	79.75
569.161	82.75
569.372	96.75
569.584	78.75
569.795	94.75
570.007	83.75
570.218	89.75
570.43	77.75
570.641	68.75
570.853	85.75
571.064	98.75
571.276	99.75
571.487	74.75
571.698	95.75
571.91	92.75
572.121	86.75
572.333	92.75
572.544	81.75
572.755	84.75
572.966	78.75
573.178	91.75
573.389	93.75
573.6	77.75
573.811	88.75
574.023	89.75
574.234	82.75
574.445	79.75
574.656	76.75
574.867	99.75
575.078	82.75
575.289	93.75
575.501	94.75
575.712	82.75
575.923	92.75
576.134	73.75
576.345	91.75
576.556	84.75
576.767	84.75
576.978	80.75
577.188	98.75
577.399	92.75
577.61	82.75
577.821	80.75
578.032	78.75
578.243	83.75
578.454	84.75
578.665	82.75
578.875	88.75
579.086	75.75
579.297	83.75
579.508	85.75
579.718	84.75
579.929	88.75
580.14	104.75
580.35	89.75
580.561	91.75
580.772	89.75
580.982	89.75
581.193	72.75
581.403	85.75
581.614	82.75
581.825	90.75
582.035	77.75
582.246	90.75
582.456	86.75
582.667	84.75
582.877	85.75
583.087	86.75
583.298	82.75
583.508	82.75
583.719	86.75
583.929	85.75
584.139	88.75
584.35	87.75
584.56	91.75
584.77	97.75
584.981	90.75
585.191	80.75
585.401	96.75
585.611	82.75
585.821	86.75
586.032	84.75
586.242	93.75
586.452	91.75
586.662	93.75
586.872	77.75
587.082	83.75
587.292	81.75
587.502	83.75
587.713	94.75
587.923	86.75
588.133	83.75
588.343	82.75
588.553	93.75
588.762	94.75
588.972	87.75
589.182	91.75
589.392	84.75
589.602	94.75
589.812	76.75
590.022	92.75
590.232	90.75
590.441	84.75
590.651	76.75
590.861	88.75
591.071	88.75
591.281	79.75
591.49	87.75
591.7	93.75
591.91	81.75
592.119	76.75
592.329	93.75
592.539	96.75
592.748	99.75
592.958	81.75
593.167	83.75
593.377	77.75
593.587	83.75
593.796	85.75
594.006	80.75
594.215	83.75
594.424	77.75
594.634	80.75
594.843	78.75
595.053	75.75
595.262	97.75
595.472	89.75
595.681	79.75
595.89	80.75
596.1	86.75
596.309	92.75
596.518	84.75
596.727	98.75
596.937	77.75
597.146	71.75
597.355	92.75
597.564	75.75
597.774	76.75
597.983	78.75
598.192	98.75
598.401	86.75
598.61	84.75
598.819	74.75
599.028	77.75
599.237	83.75
599.446	97.75
599.655	73.75
599.864	100.75
600.073	71.75
600.282	92.75
600.491	83.75
600.7	78.75
600.909	85.75
601.118	91.75
601.327	80.75
601.536	85.75
601.745	80.75
601.953	107.75
602.162	99.75
602.371	89.75
602.58	78.75
602.789	85.75
602.997	86.75
603.206	91.75
603.415	90.75
603.623	80.75
603.832	102.75
604.041	87.75
604.249	89.75
604.458	90.75
604.666	78.75
604.875	77.75
605.084	86.75
605.292	80.75
605.501	94.75
605.709	89.75
605.918	84.75
606.126	77.75
606.334	97.75
606.543	89.75
606.751	100.75
606.96	87.75
607.168	79.75
607.376	83.75
607.585	89.75
607.793	93.75
608.001	99.75
608.21	88.75
608.418	75.75
608.626	90.75
608.834	93.75
609.043	70.75
609.251	88.75
609.459	97.75
609.667	100.75
609.875	95.75
610.083	87.75
610.291	84.75
610.499	92.75
610.707	86.75
610.916	85.75
611.124	99.75
611.332	75.75
611.54	88.75
611.748	84.75
611.955	100.75
612.163	82.75
612.371	105.75
612.579	89.75
612.787	94.75
612.995	88.75
613.203	89.75
613.411	89.75
613.618	100.75
613.826	93.75
614.034	82.75
614.242	83.75
614.449	65.75
614.657	96.75
614.865	96.75
615.072	101.75
615.28	98.75
615.488	88.75
615.695	87.75
615.903	87.75
616.111	81.75
616.318	87.75
616.526	89.75
616.733	88.75
616.941	89.75
617.148	84.75
617.356	97.75
617.563	84.75
617.771	82.75
617.978	91.75
618.185	84.75
618.393	78.75
618.6	78.75
618.807	95.75
619.015	77.75
619.222	86.75
619.429	80.75
619.637	78.75
619.844	100.75
620.051	91.75
620.258	90.75
620.466	87.75
620.673	88.75
620.88	96.75
621.087	84.75
621.294	98.75
621.501	77.75
621.708	89.75
621.915	90.75
622.122	88.75
622.329	96.75
622.536	89.75
622.743	91.75
622.95	99.75
623.157	89.75
623.364	93.75
623.571	82.75
623.778	89.75
623.985	94.75
624.192	90.75
624.399	87.75
624.606	84.75
624.812	88.75
625.019	95.75
625.226	86.75
625.433	82.75
625.639	93.75
625.846	81.75
626.053	75.75
626.259	76.75
626.466	85.75
626.673	81.75
626.879	85.75
627.086	85.75
627.293	89.75
627.499	89.75
627.706	85.75
627.912	90.75
628.119	90.75
628.325	102.75
628.532	90.75
628.738	92.75
628.945	89.75
629.151	87.75
629.357	91.75
629.564	92.75
629.77	78.75
629.976	76.75
630.183	96.75
630.389	89.75
630.595	80.75
630.802	85.75
631.008	80.75
631.214	89.75
631.42	92.75
631.627	90.75
631.833	96.75
632.039	83.75
632.245	92.75
632.451	89.75
632.657	96.75
632.863	75.75
633.069	89.75
633.275	87.75
633.481	81.75
633.688	88.75
633.893	98.75
634.099	76.75
634.305	76.75
634.511	89.75
634.717	88.75
634.923	80.75
635.129	102.75
635.335	93.75
635.541	89.75
635.747	87.75
635.952	73.75
636.158	89.75
636.364	83.75
636.57	78.75
636.775	99.75
636.981	87.75
637.187	76.75
637.392	78.75
637.598	66.75
637.804	93.75
638.009	78.75
638.215	86.75
638.421	82.75
638.626	78.75
638.832	91.75
639.037	89.75
639.243	65.75
639.448	74.75
639.654	80.75
639.859	104.75
640.065	80.75
640.27	98.75
640.475	78.75
640.681	90.75
640.886	75.75
641.091	84.75
641.297	92.75
641.502	86.75
641.707	77.75
641.913	91.75
642.118	83.75
642.323	82.75
642.528	92.75
642.733	75.75
642.939	87.75
643.144	89.75
643.349	62.75
643.554	91.75
643.759	96.75
643.964	93.75
644.169	94.75
644.374	89.75
644.579	82.75
644.784	91.75
644.989	77.75
645.194	91.75
645.399	88.75
645.604	82.75
645.809	88.75
646.014	85.75
646.219	89.75
646.423	89.75
646.628	80.75
646.833	90.75
647.038	93.75
647.243	93.75
647.447	87.75
647.652	88.75
647.857	92.75
648.062	93.75
648.266	90.75
648.471	96.75
648.676	80.75
648.88	79.75
649.085	80.75
649.289	77.75
649.494	72.75
649.698	75.75
649.903	90.75
650.107	73.75
650.312	89.75
650.516	88.75
650.721	93.75
650.925	83.75
651.13	78.75
651.334	88.75
651.539	82.75
651.743	90.75
651.947	89.75
652.152	94.75
652.356	80.75
652.56	87.75
652.764	88.75
652.969	77.75
653.173	84.75
653.377	73.75
653.581	82.75
653.785	85.75
653.99	91.75
654.194	84.75
654.398	92.75
654.602	73.75
654.806	88.75
655.01	76.75
655.214	91.75
655.418	80.75
655.622	81.75
655.826	80.75
656.03	75.75
656.234	82.75
656.438	78.75
656.642	82.75
656.846	81.75
657.049	80.75
657.253	69.75
657.457	88.75
657.661	87.75
657.865	79.75
658.068	97.75
658.272	78.75
658.476	92.75
658.68	79.75
658.883	79.75
659.087	87.75
659.291	75.75
659.494	70.75
659.698	71.75
659.901	76.75
660.105	85.75
660.309	87.75
660.512	93.75
660.716	77.75
660.919	82.75
661.123	92.75
661.326	96.75
661.53	93.75
661.733	81.75
661.936	93.75
662.14	90.75
662.343	89.75
662.546	96.75
662.75	74.75
662.953	93.75
663.156	78.75
663.36	89.75
663.563	89.75
663.766	80.75
663.969	97.75
664.173	77.75
664.376	82.75
664.579	70.75
664.782	90.75
664.985	71.75
665.188	85.75
665.391	78.75
665.594	85.75
665.797	87.75
666	80.75
666.203	89.75
666.406	75.75
666.609	88.75
666.812	88.75
667.015	84.75
667.218	87.75
667.421	83.75
667.624	82.75
667.827	88.75
668.03	83.75
668.232	90.75
668.435	92.75
668.638	96.75
668.841	94.75
669.043	86.75
669.246	74.75
669.449	92.75
669.651	87.75
669.854	85.75
670.057	81.75
670.259	84.75
670.462	88.75
670.665	95.75
670.867	82.75
671.07	83.75
671.272	78.75
671.475	80.75
671.677	78.75
671.88	81.75
672.082	83.75
672.284	88.75
672.487	86.75
672.689	82.75
672.892	81.75
