Data from Zn(NO3)2Standard.Agarose3%.GreenCap.LampEnergy5.5.E.O_HRD10591_15-02-08-767.txt Node
Date: Mon Jul 22 15:02:08 EDT 2019
User: cochatt
Spectrometer: HR+D1059
Trigger mode: 1
Integration Time (sec): 1.000000E-1
Scans to average: 1
Electric dark correction enabled: true
Nonlinearity correction enabled: false
Boxcar width: 0
XAxis mode: Wavelengths
Number of Pixels in Spectrum: 2048
>>>>>Begin Spectral Data<<<<<
223.165	-15.62
223.4	-15.62
223.635	-15.62
223.869	-8.62
224.104	-12.62
224.338	-31.62
224.573	-6.62
224.808	-0.62
225.042	-5.62
225.277	2.38
225.511	-7.62
225.746	-15.62
225.98	13.38
226.215	19.38
226.449	2.38
226.683	12.38
226.918	32.38
227.152	22.38
227.387	38.38
227.621	32.38
227.856	51.38
228.09	50.38
228.324	40.38
228.559	55.38
228.793	50.38
229.027	49.38
229.262	62.38
229.496	69.38
229.73	71.38
229.964	71.38
230.199	68.38
230.433	69.38
230.667	67.38
230.901	64.38
231.136	86.38
231.37	79.38
231.604	66.38
231.838	76.38
232.072	61.38
232.306	86.38
232.541	91.38
232.775	81.38
233.009	82.38
233.243	89.38
233.477	75.38
233.711	83.38
233.945	87.38
234.179	75.38
234.413	71.38
234.647	95.38
234.881	87.38
235.115	75.38
235.349	75.38
235.583	76.38
235.817	72.38
236.051	77.38
236.285	86.38
236.519	80.38
236.753	78.38
236.987	73.38
237.221	74.38
237.455	82.38
237.689	63.38
237.922	68.38
238.156	75.38
238.39	75.38
238.624	72.38
238.858	67.38
239.091	71.38
239.325	59.38
239.559	67.38
239.793	57.38
240.027	74.38
240.26	60.38
240.494	66.38
240.728	82.38
240.961	73.38
241.195	72.38
241.429	74.38
241.662	87.38
241.896	78.38
242.13	76.38
242.363	80.38
242.597	75.38
242.83	66.38
243.064	74.38
243.298	85.38
243.531	82.38
243.765	80.38
243.998	93.38
244.232	82.38
244.465	79.38
244.699	71.38
244.932	91.38
245.166	97.38
245.399	67.38
245.633	87.38
245.866	81.38
246.099	71.38
246.333	83.38
246.566	75.38
246.8	81.38
247.033	77.38
247.266	79.38
247.5	84.38
247.733	65.38
247.966	70.38
248.2	82.38
248.433	67.38
248.666	86.38
248.899	71.38
249.133	84.38
249.366	83.38
249.599	79.38
249.832	79.38
250.066	71.38
250.299	83.38
250.532	80.38
250.765	81.38
250.998	90.38
251.231	84.38
251.465	93.38
251.698	67.38
251.931	80.38
252.164	80.38
252.397	83.38
252.63	69.38
252.863	92.38
253.096	87.38
253.329	89.38
253.562	79.38
253.795	91.38
254.028	66.38
254.261	61.38
254.494	68.38
254.727	69.38
254.96	73.38
255.193	94.38
255.426	78.38
255.659	71.38
255.892	79.38
256.124	72.38
256.357	82.38
256.59	79.38
256.823	66.38
257.056	80.38
257.289	81.38
257.521	74.38
257.754	88.38
257.987	92.38
258.22	67.38
258.452	77.38
258.685	84.38
258.918	80.38
259.151	83.38
259.383	96.38
259.616	78.38
259.849	95.38
260.081	82.38
260.314	86.38
260.547	74.38
260.779	74.38
261.012	75.38
261.244	73.38
261.477	92.38
261.71	80.38
261.942	82.38
262.175	83.38
262.407	57.38
262.64	76.38
262.872	84.38
263.105	88.38
263.337	70.38
263.57	77.38
263.802	82.38
264.035	90.38
264.267	86.38
264.499	73.38
264.732	84.38
264.964	91.38
265.197	75.38
265.429	72.38
265.661	81.38
265.894	86.38
266.126	70.38
266.358	82.38
266.591	80.38
266.823	74.38
267.055	76.38
267.287	73.38
267.52	93.38
267.752	80.38
267.984	84.38
268.216	81.38
268.448	86.38
268.681	75.38
268.913	98.38
269.145	88.38
269.377	78.38
269.609	67.38
269.841	90.38
270.073	89.38
270.306	89.38
270.538	89.38
270.77	88.38
271.002	87.38
271.234	79.38
271.466	90.38
271.698	88.38
271.93	96.38
272.162	83.38
272.394	88.38
272.626	77.38
272.858	70.38
273.09	80.38
273.322	83.38
273.553	80.38
273.785	94.38
274.017	93.38
274.249	82.38
274.481	90.38
274.713	87.38
274.945	69.38
275.176	83.38
275.408	87.38
275.64	76.38
275.872	91.38
276.104	79.38
276.335	72.38
276.567	74.38
276.799	81.38
277.031	67.38
277.262	90.38
277.494	89.38
277.726	88.38
277.957	71.38
278.189	92.38
278.421	86.38
278.652	93.38
278.884	79.38
279.115	80.38
279.347	90.38
279.579	98.38
279.81	86.38
280.042	85.38
280.273	89.38
280.505	87.38
280.736	77.38
280.968	83.38
281.199	95.38
281.431	71.38
281.662	96.38
281.894	82.38
282.125	83.38
282.356	96.38
282.588	79.38
282.819	72.38
283.051	87.38
283.282	91.38
283.513	91.38
283.745	77.38
283.976	90.38
284.207	83.38
284.439	84.38
284.67	81.38
284.901	101.38
285.132	88.38
285.364	91.38
285.595	84.38
285.826	69.38
286.057	97.38
286.288	92.38
286.52	95.38
286.751	72.38
286.982	89.38
287.213	87.38
287.444	75.38
287.675	83.38
287.906	76.38
288.138	86.38
288.369	78.38
288.6	80.38
288.831	76.38
289.062	68.38
289.293	89.38
289.524	74.38
289.755	72.38
289.986	83.38
290.217	86.38
290.448	82.38
290.679	98.38
290.91	80.38
291.141	83.38
291.371	84.38
291.602	92.38
291.833	87.38
292.064	93.38
292.295	80.38
292.526	88.38
292.757	74.38
292.987	83.38
293.218	74.38
293.449	71.38
293.68	74.38
293.91	76.38
294.141	90.38
294.372	90.38
294.603	79.38
294.833	90.38
295.064	90.38
295.295	91.38
295.525	82.38
295.756	78.38
295.987	75.38
296.217	82.38
296.448	81.38
296.679	83.38
296.909	74.38
297.14	85.38
297.37	94.38
297.601	85.38
297.831	84.38
298.062	75.38
298.292	86.38
298.523	96.38
298.753	77.38
298.984	98.38
299.214	76.38
299.445	76.38
299.675	81.38
299.905	85.38
300.136	83.38
300.366	98.38
300.597	82.38
300.827	92.38
301.057	72.38
301.288	85.38
301.518	88.38
301.748	83.38
301.979	85.38
302.209	87.38
302.439	100.38
302.669	78.38
302.9	88.38
303.13	65.38
303.36	85.38
303.59	82.38
303.82	87.38
304.051	77.38
304.281	76.38
304.511	86.38
304.741	83.38
304.971	92.38
305.201	80.38
305.431	87.38
305.661	82.38
305.891	84.38
306.121	90.38
306.352	93.38
306.582	86.38
306.812	86.38
307.042	78.38
307.272	69.38
307.502	104.38
307.731	72.38
307.961	83.38
308.191	88.38
308.421	92.38
308.651	77.38
308.881	82.38
309.111	92.38
309.341	79.38
309.571	70.38
309.8	85.38
310.03	83.38
310.26	76.38
310.49	85.38
310.72	80.38
310.949	80.38
311.179	88.38
311.409	76.38
311.639	75.38
311.868	74.38
312.098	80.38
312.328	81.38
312.557	77.38
312.787	66.38
313.017	76.38
313.246	82.38
313.476	85.38
313.706	84.38
313.935	80.38
314.165	85.38
314.394	84.38
314.624	85.38
314.853	91.38
315.083	81.38
315.312	89.38
315.542	98.38
315.771	79.38
316.001	92.38
316.23	91.38
316.46	76.38
316.689	77.38
316.919	79.38
317.148	84.38
317.377	88.38
317.607	80.38
317.836	83.38
318.065	65.38
318.295	79.38
318.524	86.38
318.753	85.38
318.983	84.38
319.212	85.38
319.441	86.38
319.67	90.38
319.9	80.38
320.129	91.38
320.358	82.38
320.587	96.38
320.816	68.38
321.046	79.38
321.275	94.38
321.504	77.38
321.733	89.38
321.962	88.38
322.191	90.38
322.42	85.38
322.649	92.38
322.878	91.38
323.108	89.38
323.337	82.38
323.566	80.38
323.795	62.38
324.024	79.38
324.253	76.38
324.482	87.38
324.71	91.38
324.939	90.38
325.168	85.38
325.397	94.38
325.626	74.38
325.855	81.38
326.084	84.38
326.313	72.38
326.542	82.38
326.77	74.38
326.999	80.38
327.228	76.38
327.457	75.38
327.686	93.38
327.914	72.38
328.143	74.38
328.372	82.38
328.6	90.38
328.829	81.38
329.058	92.38
329.287	89.38
329.515	72.38
329.744	98.38
329.972	86.38
330.201	92.38
330.43	82.38
330.658	82.38
330.887	90.38
331.115	87.38
331.344	66.38
331.572	86.38
331.801	74.38
332.03	67.38
332.258	83.38
332.486	89.38
332.715	84.38
332.943	81.38
333.172	83.38
333.4	79.38
333.629	85.38
333.857	94.38
334.085	84.38
334.314	82.38
334.542	96.38
334.771	75.38
334.999	72.38
335.227	95.38
335.455	90.38
335.684	84.38
335.912	96.38
336.14	93.38
336.369	89.38
336.597	91.38
336.825	79.38
337.053	86.38
337.281	88.38
337.51	81.38
337.738	88.38
337.966	81.38
338.194	90.38
338.422	74.38
338.65	89.38
338.878	89.38
339.106	83.38
339.334	79.38
339.562	87.38
339.79	90.38
340.018	71.38
340.246	80.38
340.474	81.38
340.702	99.38
340.93	90.38
341.158	85.38
341.386	67.38
341.614	80.38
341.842	83.38
342.07	86.38
342.298	86.38
342.526	87.38
342.754	87.38
342.981	91.38
343.209	73.38
343.437	89.38
343.665	83.38
343.893	88.38
344.12	72.38
344.348	96.38
344.576	77.38
344.804	88.38
345.031	72.38
345.259	79.38
345.487	80.38
345.714	70.38
345.942	96.38
346.17	87.38
346.397	93.38
346.625	90.38
346.853	84.38
347.08	79.38
347.308	80.38
347.535	79.38
347.763	85.38
347.99	78.38
348.218	83.38
348.445	71.38
348.673	86.38
348.9	87.38
349.128	84.38
349.355	92.38
349.583	82.38
349.81	80.38
350.037	74.38
350.265	90.38
350.492	83.38
350.72	91.38
350.947	70.38
351.174	74.38
351.402	83.38
351.629	88.38
351.856	82.38
352.083	73.38
352.311	78.38
352.538	88.38
352.765	75.38
352.992	98.38
353.22	73.38
353.447	64.38
353.674	73.38
353.901	84.38
354.128	82.38
354.355	70.38
354.583	84.38
354.81	91.38
355.037	83.38
355.264	82.38
355.491	76.38
355.718	87.38
355.945	81.38
356.172	85.38
356.399	78.38
356.626	86.38
356.853	83.38
357.08	76.38
357.307	75.38
357.534	94.38
357.761	95.38
357.988	90.38
358.215	69.38
358.441	77.38
358.668	82.38
358.895	76.38
359.122	79.38
359.349	81.38
359.576	80.38
359.802	86.38
360.029	81.38
360.256	72.38
360.483	79.38
360.709	82.38
360.936	92.38
361.163	90.38
361.39	74.38
361.616	87.38
361.843	74.38
362.07	73.38
362.296	70.38
362.523	78.38
362.749	80.38
362.976	82.38
363.203	79.38
363.429	74.38
363.656	88.38
363.882	75.38
364.109	80.38
364.335	87.38
364.562	82.38
364.788	69.38
365.015	95.38
365.241	76.38
365.468	72.38
365.694	76.38
365.92	86.38
366.147	85.38
366.373	70.38
366.599	90.38
366.826	74.38
367.052	81.38
367.278	83.38
367.505	74.38
367.731	83.38
367.957	73.38
368.184	77.38
368.41	67.38
368.636	95.38
368.862	98.38
369.089	74.38
369.315	79.38
369.541	82.38
369.767	70.38
369.993	70.38
370.219	83.38
370.445	89.38
370.672	84.38
370.898	85.38
371.124	89.38
371.35	92.38
371.576	82.38
371.802	70.38
372.028	76.38
372.254	73.38
372.48	75.38
372.706	81.38
372.932	88.38
373.158	75.38
373.384	91.38
373.61	80.38
373.835	89.38
374.061	83.38
374.287	80.38
374.513	93.38
374.739	82.38
374.965	81.38
375.191	101.38
375.416	79.38
375.642	77.38
375.868	84.38
376.094	77.38
376.319	80.38
376.545	70.38
376.771	77.38
376.997	89.38
377.222	82.38
377.448	81.38
377.674	80.38
377.899	92.38
378.125	85.38
378.35	85.38
378.576	86.38
378.802	90.38
379.027	82.38
379.253	89.38
379.478	76.38
379.704	80.38
379.929	91.38
380.155	86.38
380.38	86.38
380.606	104.38
380.831	90.38
381.057	99.38
381.282	83.38
381.507	70.38
381.733	75.38
381.958	78.38
382.184	85.38
382.409	89.38
382.634	92.38
382.86	72.38
383.085	98.38
383.31	77.38
383.535	76.38
383.761	83.38
383.986	71.38
384.211	86.38
384.436	83.38
384.662	90.38
384.887	92.38
385.112	89.38
385.337	84.38
385.562	80.38
385.787	82.38
386.013	103.38
386.238	78.38
386.463	88.38
386.688	77.38
386.913	83.38
387.138	84.38
387.363	76.38
387.588	89.38
387.813	96.38
388.038	64.38
388.263	80.38
388.488	69.38
388.713	85.38
388.938	86.38
389.163	79.38
389.387	80.38
389.612	75.38
389.837	81.38
390.062	87.38
390.287	81.38
390.512	80.38
390.736	83.38
390.961	74.38
391.186	86.38
391.411	76.38
391.636	88.38
391.86	65.38
392.085	76.38
392.31	68.38
392.534	91.38
392.759	90.38
392.984	90.38
393.208	93.38
393.433	78.38
393.658	79.38
393.882	87.38
394.107	82.38
394.331	78.38
394.556	90.38
394.78	87.38
395.005	86.38
395.229	71.38
395.454	85.38
395.678	79.38
395.903	76.38
396.127	95.38
396.352	70.38
396.576	71.38
396.801	79.38
397.025	89.38
397.249	95.38
397.474	83.38
397.698	75.38
397.922	76.38
398.147	72.38
398.371	84.38
398.595	83.38
398.82	87.38
399.044	90.38
399.268	71.38
399.492	81.38
399.717	80.38
399.941	79.38
400.165	76.38
400.389	91.38
400.613	80.38
400.837	70.38
401.062	84.38
401.286	69.38
401.51	79.38
401.734	76.38
401.958	71.38
402.182	85.38
402.406	73.38
402.63	76.38
402.854	91.38
403.078	78.38
403.302	90.38
403.526	79.38
403.75	75.38
403.974	82.38
404.198	78.38
404.422	99.38
404.645	84.38
404.869	94.38
405.093	76.38
405.317	82.38
405.541	82.38
405.765	80.38
405.988	81.38
406.212	75.38
406.436	95.38
406.66	73.38
406.883	75.38
407.107	74.38
407.331	88.38
407.555	74.38
407.778	90.38
408.002	94.38
408.226	77.38
408.449	69.38
408.673	79.38
408.896	94.38
409.12	86.38
409.344	82.38
409.567	77.38
409.791	90.38
410.014	91.38
410.238	94.38
410.461	76.38
410.685	80.38
410.908	94.38
411.132	84.38
411.355	78.38
411.578	106.38
411.802	87.38
412.025	83.38
412.249	89.38
412.472	79.38
412.695	77.38
412.919	91.38
413.142	89.38
413.365	75.38
413.589	68.38
413.812	82.38
414.035	92.38
414.258	88.38
414.482	79.38
414.705	84.38
414.928	86.38
415.151	96.38
415.374	80.38
415.597	70.38
415.821	90.38
416.044	75.38
416.267	95.38
416.49	85.38
416.713	82.38
416.936	96.38
417.159	97.38
417.382	105.38
417.605	88.38
417.828	83.38
418.051	79.38
418.274	67.38
418.497	90.38
418.72	92.38
418.943	92.38
419.166	99.38
419.389	87.38
419.611	95.38
419.834	75.38
420.057	85.38
420.28	88.38
420.503	95.38
420.726	87.38
420.948	87.38
421.171	83.38
421.394	91.38
421.617	88.38
421.839	75.38
422.062	77.38
422.285	89.38
422.507	79.38
422.73	66.38
422.953	82.38
423.175	74.38
423.398	86.38
423.621	84.38
423.843	76.38
424.066	89.38
424.288	83.38
424.511	102.38
424.733	94.38
424.956	92.38
425.178	67.38
425.401	63.38
425.623	89.38
425.846	75.38
426.068	81.38
426.291	71.38
426.513	78.38
426.735	84.38
426.958	99.38
427.18	95.38
427.402	87.38
427.625	85.38
427.847	91.38
428.069	84.38
428.292	79.38
428.514	89.38
428.736	86.38
428.958	86.38
429.181	71.38
429.403	76.38
429.625	78.38
429.847	81.38
430.069	81.38
430.292	76.38
430.514	91.38
430.736	84.38
430.958	93.38
431.18	74.38
431.402	85.38
431.624	81.38
431.846	82.38
432.068	73.38
432.29	74.38
432.512	83.38
432.734	79.38
432.956	87.38
433.178	89.38
433.4	101.38
433.622	95.38
433.844	90.38
434.066	82.38
434.287	81.38
434.509	75.38
434.731	78.38
434.953	81.38
435.175	88.38
435.397	79.38
435.618	76.38
435.84	62.38
436.062	71.38
436.284	92.38
436.505	87.38
436.727	82.38
436.949	90.38
437.17	87.38
437.392	84.38
437.614	89.38
437.835	82.38
438.057	95.38
438.278	92.38
438.5	80.38
438.721	75.38
438.943	86.38
439.165	92.38
439.386	92.38
439.608	76.38
439.829	75.38
440.05	87.38
440.272	99.38
440.493	91.38
440.715	84.38
440.936	92.38
441.158	87.38
441.379	88.38
441.6	87.38
441.822	87.38
442.043	86.38
442.264	90.38
442.486	86.38
442.707	95.38
442.928	93.38
443.149	92.38
443.371	87.38
443.592	92.38
443.813	85.38
444.034	95.38
444.255	81.38
444.476	97.38
444.698	101.38
444.919	77.38
445.14	239.38
445.361	161.38
445.582	96.38
445.803	87.38
446.024	91.38
446.245	98.38
446.466	95.38
446.687	95.38
446.908	88.38
447.129	90.38
447.35	82.38
447.571	96.38
447.792	90.38
448.013	97.38
448.234	94.38
448.455	99.38
448.675	90.38
448.896	80.38
449.117	88.38
449.338	96.38
449.559	82.38
449.779	84.38
450	96.38
450.221	85.38
450.442	91.38
450.662	90.38
450.883	91.38
451.104	97.38
451.324	83.38
451.545	81.38
451.766	106.38
451.986	87.38
452.207	90.38
452.428	88.38
452.648	79.38
452.869	84.38
453.089	93.38
453.31	82.38
453.53	87.38
453.751	81.38
453.971	96.38
454.192	80.38
454.412	85.38
454.633	82.38
454.853	78.38
455.073	88.38
455.294	93.38
455.514	91.38
455.734	68.38
455.955	90.38
456.175	90.38
456.395	79.38
456.616	75.38
456.836	80.38
457.056	82.38
457.276	71.38
457.497	87.38
457.717	76.38
457.937	86.38
458.157	87.38
458.377	79.38
458.598	71.38
458.818	75.38
459.038	81.38
459.258	83.38
459.478	65.38
459.698	82.38
459.918	77.38
460.138	91.38
460.358	78.38
460.578	82.38
460.798	87.38
461.018	94.38
461.238	82.38
461.458	76.38
461.678	77.38
461.898	87.38
462.118	80.38
462.338	80.38
462.558	87.38
462.777	90.38
462.997	83.38
463.217	89.38
463.437	94.38
463.657	100.38
463.876	74.38
464.096	90.38
464.316	94.38
464.536	98.38
464.755	100.38
464.975	89.38
465.195	98.38
465.414	88.38
465.634	84.38
465.854	82.38
466.073	83.38
466.293	96.38
466.512	76.38
466.732	98.38
466.951	77.38
467.171	75.38
467.391	78.38
467.61	82.38
467.829	83.38
468.049	94.38
468.268	81.38
468.488	100.38
468.707	87.38
468.927	88.38
469.146	90.38
469.365	76.38
469.585	70.38
469.804	99.38
470.023	72.38
470.243	79.38
470.462	84.38
470.681	83.38
470.901	87.38
471.12	72.38
471.339	76.38
471.558	93.38
471.777	80.38
471.997	94.38
472.216	94.38
472.435	91.38
472.654	98.38
472.873	86.38
473.092	83.38
473.311	71.38
473.53	84.38
473.749	93.38
473.968	101.38
474.187	87.38
474.406	87.38
474.625	97.38
474.844	94.38
475.063	100.38
475.282	93.38
475.501	87.38
475.72	89.38
475.939	84.38
476.158	75.38
476.377	91.38
476.596	78.38
476.814	78.38
477.033	95.38
477.252	84.38
477.471	91.38
477.69	95.38
477.908	99.38
478.127	91.38
478.346	99.38
478.564	80.38
478.783	94.38
479.002	87.38
479.22	84.38
479.439	87.38
479.658	84.38
479.876	86.38
480.095	98.38
480.313	77.38
480.532	87.38
480.751	82.38
480.969	93.38
481.188	84.38
481.406	85.38
481.624	81.38
481.843	76.38
482.061	85.38
482.28	82.38
482.498	77.38
482.717	82.38
482.935	83.38
483.153	99.38
483.372	99.38
483.59	95.38
483.808	85.38
484.027	82.38
484.245	86.38
484.463	99.38
484.681	92.38
484.9	99.38
485.118	80.38
485.336	84.38
485.554	78.38
485.772	75.38
485.99	80.38
486.209	98.38
486.427	83.38
486.645	84.38
486.863	100.38
487.081	99.38
487.299	82.38
487.517	92.38
487.735	97.38
487.953	98.38
488.171	99.38
488.389	94.38
488.607	86.38
488.825	87.38
489.043	95.38
489.261	102.38
489.479	95.38
489.696	88.38
489.914	92.38
490.132	97.38
490.35	101.38
490.568	82.38
490.786	110.38
491.003	96.38
491.221	100.38
491.439	82.38
491.657	90.38
491.874	107.38
492.092	110.38
492.31	115.38
492.527	106.38
492.745	96.38
492.963	83.38
493.18	105.38
493.398	104.38
493.615	98.38
493.833	90.38
494.05	94.38
494.268	105.38
494.485	96.38
494.703	92.38
494.92	99.38
495.138	87.38
495.355	98.38
495.573	90.38
495.79	83.38
496.008	99.38
496.225	104.38
496.442	96.38
496.66	92.38
496.877	99.38
497.094	100.38
497.312	94.38
497.529	90.38
497.746	89.38
497.963	96.38
498.181	91.38
498.398	78.38
498.615	73.38
498.832	80.38
499.049	78.38
499.267	85.38
499.484	93.38
499.701	87.38
499.918	93.38
500.135	85.38
500.352	86.38
500.569	91.38
500.786	87.38
501.003	98.38
501.22	97.38
501.437	103.38
501.654	93.38
501.871	83.38
502.088	84.38
502.305	87.38
502.522	96.38
502.739	90.38
502.956	87.38
503.172	94.38
503.389	90.38
503.606	104.38
503.823	98.38
504.04	82.38
504.256	90.38
504.473	72.38
504.69	82.38
504.907	78.38
505.123	98.38
505.34	89.38
505.557	88.38
505.773	81.38
505.99	75.38
506.207	76.38
506.423	86.38
506.64	102.38
506.856	90.38
507.073	90.38
507.289	90.38
507.506	83.38
507.722	78.38
507.939	85.38
508.155	81.38
508.372	87.38
508.588	86.38
508.805	84.38
509.021	103.38
509.238	90.38
509.454	95.38
509.67	87.38
509.887	72.38
510.103	82.38
510.319	80.38
510.536	92.38
510.752	89.38
510.968	87.38
511.184	79.38
511.401	81.38
511.617	67.38
511.833	78.38
512.049	93.38
512.265	82.38
512.481	105.38
512.698	84.38
512.914	95.38
513.13	92.38
513.346	98.38
513.562	85.38
513.778	87.38
513.994	78.38
514.21	89.38
514.426	83.38
514.642	85.38
514.858	93.38
515.074	81.38
515.29	91.38
515.506	81.38
515.721	85.38
515.937	81.38
516.153	91.38
516.369	87.38
516.585	93.38
516.801	88.38
517.016	83.38
517.232	80.38
517.448	71.38
517.664	81.38
517.879	99.38
518.095	92.38
518.311	79.38
518.527	75.38
518.742	80.38
518.958	80.38
519.173	95.38
519.389	89.38
519.605	78.38
519.82	86.38
520.036	84.38
520.251	90.38
520.467	100.38
520.682	79.38
520.898	67.38
521.113	80.38
521.329	80.38
521.544	99.38
521.76	88.38
521.975	83.38
522.19	98.38
522.406	90.38
522.621	87.38
522.836	75.38
523.052	81.38
523.267	79.38
523.482	88.38
523.698	81.38
523.913	91.38
524.128	79.38
524.343	81.38
524.559	88.38
524.774	92.38
524.989	84.38
525.204	94.38
525.419	90.38
525.634	84.38
525.849	87.38
526.064	94.38
526.28	90.38
526.495	73.38
526.71	86.38
526.925	76.38
527.14	77.38
527.355	80.38
527.57	84.38
527.785	75.38
527.999	76.38
528.214	93.38
528.429	85.38
528.644	82.38
528.859	73.38
529.074	89.38
529.289	90.38
529.503	88.38
529.718	86.38
529.933	88.38
530.148	84.38
530.363	87.38
530.577	80.38
530.792	75.38
531.007	74.38
531.221	84.38
531.436	73.38
531.651	87.38
531.865	88.38
532.08	98.38
532.295	101.38
532.509	94.38
532.724	70.38
532.938	75.38
533.153	85.38
533.367	81.38
533.582	90.38
533.796	94.38
534.011	84.38
534.225	70.38
534.44	88.38
534.654	96.38
534.868	84.38
535.083	94.38
535.297	67.38
535.511	93.38
535.726	87.38
535.94	86.38
536.154	82.38
536.369	72.38
536.583	94.38
536.797	79.38
537.011	79.38
537.225	82.38
537.44	77.38
537.654	90.38
537.868	99.38
538.082	90.38
538.296	86.38
538.51	92.38
538.724	78.38
538.938	99.38
539.153	83.38
539.367	100.38
539.581	78.38
539.795	82.38
540.009	92.38
540.222	84.38
540.436	97.38
540.65	98.38
540.864	92.38
541.078	110.38
541.292	87.38
541.506	81.38
541.72	95.38
541.934	95.38
542.147	95.38
542.361	106.38
542.575	90.38
542.789	91.38
543.002	83.38
543.216	86.38
543.43	92.38
543.644	95.38
543.857	100.38
544.071	91.38
544.285	98.38
544.498	107.38
544.712	97.38
544.925	90.38
545.139	102.38
545.352	90.38
545.566	104.38
545.779	96.38
545.993	91.38
546.206	102.38
546.42	104.38
546.633	102.38
546.847	94.38
547.06	107.38
547.274	82.38
547.487	92.38
547.7	106.38
547.914	96.38
548.127	87.38
548.34	108.38
548.554	98.38
548.767	102.38
548.98	115.38
549.193	86.38
549.407	106.38
549.62	104.38
549.833	92.38
550.046	105.38
550.259	108.38
550.473	102.38
550.686	99.38
550.899	97.38
551.112	83.38
551.325	89.38
551.538	96.38
551.751	95.38
551.964	86.38
552.177	106.38
552.39	92.38
552.603	86.38
552.816	104.38
553.029	99.38
553.242	98.38
553.455	89.38
553.667	97.38
553.88	96.38
554.093	89.38
554.306	90.38
554.519	79.38
554.732	87.38
554.944	97.38
555.157	86.38
555.37	96.38
555.583	93.38
555.795	95.38
556.008	85.38
556.221	87.38
556.433	93.38
556.646	105.38
556.859	89.38
557.071	83.38
557.284	81.38
557.496	91.38
557.709	90.38
557.921	98.38
558.134	93.38
558.346	96.38
558.559	97.38
558.771	91.38
558.984	92.38
559.196	78.38
559.409	80.38
559.621	82.38
559.833	110.38
560.046	95.38
560.258	101.38
560.47	94.38
560.683	88.38
560.895	101.38
561.107	85.38
561.32	78.38
561.532	96.38
561.744	96.38
561.956	89.38
562.168	90.38
562.381	97.38
562.593	93.38
562.805	89.38
563.017	98.38
563.229	98.38
563.441	88.38
563.653	95.38
563.865	90.38
564.077	82.38
564.289	95.38
564.501	96.38
564.713	98.38
564.925	78.38
565.137	95.38
565.349	87.38
565.561	92.38
565.773	96.38
565.985	91.38
566.197	96.38
566.408	89.38
566.62	84.38
566.832	82.38
567.044	93.38
567.255	87.38
567.467	101.38
567.679	85.38
567.891	83.38
568.102	99.38
568.314	85.38
568.526	71.38
568.737	95.38
568.949	82.38
569.161	81.38
569.372	89.38
569.584	74.38
569.795	82.38
570.007	78.38
570.218	74.38
570.43	80.38
570.641	78.38
570.853	87.38
571.064	89.38
571.276	83.38
571.487	75.38
571.698	80.38
571.91	95.38
572.121	94.38
572.333	80.38
572.544	85.38
572.755	89.38
572.966	75.38
573.178	100.38
573.389	83.38
573.6	76.38
573.811	95.38
574.023	94.38
574.234	73.38
574.445	80.38
574.656	83.38
574.867	98.38
575.078	80.38
575.289	96.38
575.501	74.38
575.712	86.38
575.923	67.38
576.134	75.38
576.345	91.38
576.556	95.38
576.767	87.38
576.978	87.38
577.188	93.38
577.399	93.38
577.61	98.38
577.821	102.38
578.032	76.38
578.243	83.38
578.454	77.38
578.665	88.38
578.875	82.38
579.086	84.38
579.297	79.38
579.508	76.38
579.718	95.38
579.929	80.38
580.14	80.38
580.35	78.38
580.561	100.38
580.772	98.38
580.982	76.38
581.193	91.38
581.403	80.38
581.614	85.38
581.825	89.38
582.035	64.38
582.246	78.38
582.456	88.38
582.667	93.38
582.877	83.38
583.087	88.38
583.298	79.38
583.508	89.38
583.719	95.38
583.929	88.38
584.139	82.38
584.35	84.38
584.56	74.38
584.77	77.38
584.981	78.38
585.191	78.38
585.401	80.38
585.611	94.38
585.821	96.38
586.032	76.38
586.242	92.38
586.452	92.38
586.662	83.38
586.872	91.38
587.082	65.38
587.292	72.38
587.502	80.38
587.713	73.38
587.923	80.38
588.133	89.38
588.343	80.38
588.553	94.38
588.762	82.38
588.972	89.38
589.182	89.38
589.392	75.38
589.602	87.38
589.812	87.38
590.022	83.38
590.232	73.38
590.441	77.38
590.651	78.38
590.861	82.38
591.071	70.38
591.281	77.38
591.49	78.38
591.7	80.38
591.91	76.38
592.119	80.38
592.329	82.38
592.539	72.38
592.748	84.38
592.958	82.38
593.167	92.38
593.377	73.38
593.587	90.38
593.796	85.38
594.006	100.38
594.215	94.38
594.424	82.38
594.634	71.38
594.843	87.38
595.053	88.38
595.262	77.38
595.472	87.38
595.681	88.38
595.89	80.38
596.1	87.38
596.309	79.38
596.518	89.38
596.727	81.38
596.937	82.38
597.146	76.38
597.355	88.38
597.564	87.38
597.774	93.38
597.983	83.38
598.192	70.38
598.401	80.38
598.61	73.38
598.819	82.38
599.028	78.38
599.237	95.38
599.446	84.38
599.655	76.38
599.864	94.38
600.073	85.38
600.282	71.38
600.491	86.38
600.7	85.38
600.909	88.38
601.118	101.38
601.327	88.38
601.536	105.38
601.745	95.38
601.953	92.38
602.162	77.38
602.371	74.38
602.58	83.38
602.789	89.38
602.997	93.38
603.206	94.38
603.415	81.38
603.623	93.38
603.832	96.38
604.041	87.38
604.249	99.38
604.458	81.38
604.666	81.38
604.875	83.38
605.084	79.38
605.292	80.38
605.501	76.38
605.709	91.38
605.918	88.38
606.126	88.38
606.334	79.38
606.543	84.38
606.751	86.38
606.96	83.38
607.168	102.38
607.376	85.38
607.585	85.38
607.793	93.38
608.001	89.38
608.21	85.38
608.418	98.38
608.626	75.38
608.834	90.38
609.043	86.38
609.251	84.38
609.459	90.38
609.667	89.38
609.875	94.38
610.083	82.38
610.291	94.38
610.499	90.38
610.707	79.38
610.916	99.38
611.124	85.38
611.332	99.38
611.54	94.38
611.748	97.38
611.955	81.38
612.163	85.38
612.371	94.38
612.579	100.38
612.787	90.38
612.995	74.38
613.203	94.38
613.411	97.38
613.618	88.38
613.826	86.38
614.034	92.38
614.242	82.38
614.449	88.38
614.657	88.38
614.865	94.38
615.072	87.38
615.28	91.38
615.488	84.38
615.695	83.38
615.903	85.38
616.111	95.38
616.318	102.38
616.526	80.38
616.733	84.38
616.941	76.38
617.148	91.38
617.356	85.38
617.563	92.38
617.771	78.38
617.978	103.38
618.185	102.38
618.393	90.38
618.6	98.38
618.807	78.38
619.015	88.38
619.222	83.38
619.429	89.38
619.637	88.38
619.844	84.38
620.051	87.38
620.258	96.38
620.466	79.38
620.673	97.38
620.88	89.38
621.087	92.38
621.294	84.38
621.501	98.38
621.708	83.38
621.915	86.38
622.122	87.38
622.329	89.38
622.536	79.38
622.743	89.38
622.95	82.38
623.157	83.38
623.364	102.38
623.571	89.38
623.778	86.38
623.985	84.38
624.192	91.38
624.399	90.38
624.606	85.38
624.812	82.38
625.019	82.38
625.226	78.38
625.433	87.38
625.639	94.38
625.846	91.38
626.053	82.38
626.259	89.38
626.466	88.38
626.673	82.38
626.879	90.38
627.086	77.38
627.293	80.38
627.499	81.38
627.706	75.38
627.912	74.38
628.119	97.38
628.325	89.38
628.532	90.38
628.738	100.38
628.945	75.38
629.151	70.38
629.357	88.38
629.564	83.38
629.77	87.38
629.976	76.38
630.183	82.38
630.389	75.38
630.595	91.38
630.802	80.38
631.008	89.38
631.214	83.38
631.42	81.38
631.627	93.38
631.833	95.38
632.039	90.38
632.245	86.38
632.451	80.38
632.657	84.38
632.863	80.38
633.069	92.38
633.275	87.38
633.481	70.38
633.688	87.38
633.893	88.38
634.099	86.38
634.305	93.38
634.511	85.38
634.717	82.38
634.923	83.38
635.129	89.38
635.335	83.38
635.541	80.38
635.747	73.38
635.952	91.38
636.158	79.38
636.364	75.38
636.57	111.38
636.775	76.38
636.981	71.38
637.187	72.38
637.392	99.38
637.598	100.38
637.804	80.38
638.009	87.38
638.215	79.38
638.421	85.38
638.626	73.38
638.832	89.38
639.037	65.38
639.243	92.38
639.448	94.38
639.654	81.38
639.859	82.38
640.065	83.38
640.27	89.38
640.475	81.38
640.681	86.38
640.886	74.38
641.091	80.38
641.297	79.38
641.502	86.38
641.707	67.38
641.913	91.38
642.118	74.38
642.323	95.38
642.528	85.38
642.733	75.38
642.939	85.38
643.144	84.38
643.349	80.38
643.554	82.38
643.759	95.38
643.964	95.38
644.169	90.38
644.374	79.38
644.579	68.38
644.784	75.38
644.989	67.38
645.194	90.38
645.399	95.38
645.604	90.38
645.809	88.38
646.014	89.38
646.219	87.38
646.423	83.38
646.628	88.38
646.833	82.38
647.038	66.38
647.243	80.38
647.447	75.38
647.652	96.38
647.857	89.38
648.062	76.38
648.266	81.38
648.471	84.38
648.676	80.38
648.88	72.38
649.085	94.38
649.289	77.38
649.494	84.38
649.698	82.38
649.903	71.38
650.107	84.38
650.312	85.38
650.516	96.38
650.721	77.38
650.925	79.38
651.13	74.38
651.334	77.38
651.539	75.38
651.743	83.38
651.947	84.38
652.152	84.38
652.356	79.38
652.56	91.38
652.764	79.38
652.969	93.38
653.173	82.38
653.377	75.38
653.581	86.38
653.785	70.38
653.99	64.38
654.194	72.38
654.398	85.38
654.602	92.38
654.806	80.38
655.01	86.38
655.214	90.38
655.418	87.38
655.622	78.38
655.826	72.38
656.03	76.38
656.234	76.38
656.438	75.38
656.642	82.38
656.846	77.38
657.049	84.38
657.253	74.38
657.457	88.38
657.661	75.38
657.865	83.38
658.068	94.38
658.272	68.38
658.476	71.38
658.68	62.38
658.883	90.38
659.087	85.38
659.291	95.38
659.494	89.38
659.698	89.38
659.901	82.38
660.105	87.38
660.309	81.38
660.512	73.38
660.716	72.38
660.919	77.38
661.123	102.38
661.326	83.38
661.53	74.38
661.733	101.38
661.936	76.38
662.14	76.38
662.343	71.38
662.546	70.38
662.75	81.38
662.953	83.38
663.156	80.38
663.36	83.38
663.563	97.38
663.766	74.38
663.969	79.38
664.173	86.38
664.376	70.38
664.579	87.38
664.782	76.38
664.985	66.38
665.188	83.38
665.391	86.38
665.594	77.38
665.797	77.38
666	80.38
666.203	72.38
666.406	87.38
666.609	68.38
666.812	90.38
667.015	76.38
667.218	77.38
667.421	71.38
667.624	72.38
667.827	85.38
668.03	71.38
668.232	81.38
668.435	80.38
668.638	84.38
668.841	72.38
669.043	87.38
669.246	81.38
669.449	83.38
669.651	94.38
669.854	91.38
670.057	79.38
670.259	79.38
670.462	70.38
670.665	81.38
670.867	76.38
671.07	85.38
671.272	81.38
671.475	75.38
671.677	81.38
671.88	86.38
672.082	83.38
672.284	75.38
672.487	89.38
672.689	73.38
672.892	72.38
