Data from Zn(NO3)2Standard.Agarose3%.GreenCap.LampEnergy10E.O_HRD10591_15-06-26-942.txt Node
Date: Mon Jul 22 15:06:26 EDT 2019
User: cochatt
Spectrometer: HR+D1059
Trigger mode: 1
Integration Time (sec): 1.000000E-1
Scans to average: 1
Electric dark correction enabled: true
Nonlinearity correction enabled: false
Boxcar width: 0
XAxis mode: Wavelengths
Number of Pixels in Spectrum: 2048
>>>>>Begin Spectral Data<<<<<
223.165	-23.25
223.4	-23.25
223.635	-23.25
223.869	-26.25
224.104	-19.25
224.338	-15.25
224.573	-9.25
224.808	-13.25
225.042	-6.25
225.277	-20.25
225.511	11.75
225.746	8.75
225.98	4.75
226.215	15.75
226.449	15.75
226.683	11.75
226.918	24.75
227.152	39.75
227.387	38.75
227.621	29.75
227.856	36.75
228.09	38.75
228.324	56.75
228.559	61.75
228.793	61.75
229.027	63.75
229.262	75.75
229.496	63.75
229.73	73.75
229.964	79.75
230.199	73.75
230.433	74.75
230.667	77.75
230.901	63.75
231.136	82.75
231.37	81.75
231.604	67.75
231.838	102.75
232.072	73.75
232.306	83.75
232.541	81.75
232.775	75.75
233.009	81.75
233.243	82.75
233.477	78.75
233.711	86.75
233.945	86.75
234.179	85.75
234.413	86.75
234.647	74.75
234.881	74.75
235.115	78.75
235.349	88.75
235.583	78.75
235.817	74.75
236.051	90.75
236.285	76.75
236.519	72.75
236.753	81.75
236.987	85.75
237.221	77.75
237.455	92.75
237.689	83.75
237.922	91.75
238.156	67.75
238.39	79.75
238.624	82.75
238.858	90.75
239.091	77.75
239.325	80.75
239.559	100.75
239.793	81.75
240.027	68.75
240.26	88.75
240.494	82.75
240.728	71.75
240.961	80.75
241.195	74.75
241.429	68.75
241.662	85.75
241.896	78.75
242.13	84.75
242.363	82.75
242.597	72.75
242.83	79.75
243.064	79.75
243.298	66.75
243.531	65.75
243.765	77.75
243.998	89.75
244.232	78.75
244.465	73.75
244.699	85.75
244.932	76.75
245.166	75.75
245.399	71.75
245.633	98.75
245.866	79.75
246.099	75.75
246.333	85.75
246.566	80.75
246.8	79.75
247.033	84.75
247.266	84.75
247.5	82.75
247.733	78.75
247.966	87.75
248.2	83.75
248.433	91.75
248.666	67.75
248.899	83.75
249.133	77.75
249.366	86.75
249.599	100.75
249.832	81.75
250.066	82.75
250.299	80.75
250.532	89.75
250.765	76.75
250.998	74.75
251.231	74.75
251.465	94.75
251.698	75.75
251.931	80.75
252.164	62.75
252.397	72.75
252.63	78.75
252.863	79.75
253.096	74.75
253.329	79.75
253.562	73.75
253.795	96.75
254.028	74.75
254.261	73.75
254.494	75.75
254.727	84.75
254.96	76.75
255.193	80.75
255.426	82.75
255.659	85.75
255.892	91.75
256.124	73.75
256.357	76.75
256.59	73.75
256.823	77.75
257.056	81.75
257.289	72.75
257.521	87.75
257.754	77.75
257.987	72.75
258.22	67.75
258.452	68.75
258.685	72.75
258.918	77.75
259.151	77.75
259.383	82.75
259.616	95.75
259.849	73.75
260.081	93.75
260.314	78.75
260.547	72.75
260.779	93.75
261.012	86.75
261.244	73.75
261.477	87.75
261.71	100.75
261.942	85.75
262.175	80.75
262.407	80.75
262.64	80.75
262.872	77.75
263.105	98.75
263.337	80.75
263.57	90.75
263.802	75.75
264.035	83.75
264.267	83.75
264.499	87.75
264.732	82.75
264.964	85.75
265.197	77.75
265.429	91.75
265.661	84.75
265.894	78.75
266.126	79.75
266.358	90.75
266.591	83.75
266.823	80.75
267.055	80.75
267.287	90.75
267.52	77.75
267.752	92.75
267.984	90.75
268.216	68.75
268.448	81.75
268.681	88.75
268.913	86.75
269.145	83.75
269.377	78.75
269.609	86.75
269.841	94.75
270.073	83.75
270.306	76.75
270.538	86.75
270.77	91.75
271.002	80.75
271.234	80.75
271.466	90.75
271.698	75.75
271.93	83.75
272.162	83.75
272.394	81.75
272.626	70.75
272.858	91.75
273.09	87.75
273.322	75.75
273.553	84.75
273.785	84.75
274.017	71.75
274.249	78.75
274.481	87.75
274.713	92.75
274.945	77.75
275.176	78.75
275.408	82.75
275.64	81.75
275.872	79.75
276.104	93.75
276.335	82.75
276.567	75.75
276.799	89.75
277.031	80.75
277.262	90.75
277.494	86.75
277.726	82.75
277.957	91.75
278.189	82.75
278.421	81.75
278.652	85.75
278.884	82.75
279.115	85.75
279.347	81.75
279.579	70.75
279.81	86.75
280.042	84.75
280.273	89.75
280.505	84.75
280.736	78.75
280.968	77.75
281.199	99.75
281.431	84.75
281.662	79.75
281.894	81.75
282.125	84.75
282.356	87.75
282.588	92.75
282.819	87.75
283.051	81.75
283.282	82.75
283.513	98.75
283.745	88.75
283.976	86.75
284.207	84.75
284.439	100.75
284.67	78.75
284.901	93.75
285.132	85.75
285.364	80.75
285.595	92.75
285.826	89.75
286.057	86.75
286.288	78.75
286.52	83.75
286.751	87.75
286.982	62.75
287.213	76.75
287.444	102.75
287.675	102.75
287.906	79.75
288.138	84.75
288.369	86.75
288.6	82.75
288.831	92.75
289.062	84.75
289.293	82.75
289.524	92.75
289.755	92.75
289.986	88.75
290.217	83.75
290.448	71.75
290.679	91.75
290.91	82.75
291.141	96.75
291.371	85.75
291.602	82.75
291.833	79.75
292.064	86.75
292.295	92.75
292.526	90.75
292.757	88.75
292.987	84.75
293.218	77.75
293.449	82.75
293.68	87.75
293.91	79.75
294.141	89.75
294.372	87.75
294.603	89.75
294.833	82.75
295.064	90.75
295.295	87.75
295.525	84.75
295.756	92.75
295.987	93.75
296.217	86.75
296.448	93.75
296.679	87.75
296.909	76.75
297.14	91.75
297.37	80.75
297.601	84.75
297.831	97.75
298.062	102.75
298.292	74.75
298.523	78.75
298.753	77.75
298.984	86.75
299.214	88.75
299.445	93.75
299.675	91.75
299.905	88.75
300.136	75.75
300.366	91.75
300.597	86.75
300.827	82.75
301.057	86.75
301.288	81.75
301.518	76.75
301.748	93.75
301.979	87.75
302.209	82.75
302.439	90.75
302.669	68.75
302.9	89.75
303.13	102.75
303.36	92.75
303.59	102.75
303.82	84.75
304.051	86.75
304.281	82.75
304.511	87.75
304.741	80.75
304.971	70.75
305.201	87.75
305.431	87.75
305.661	85.75
305.891	78.75
306.121	88.75
306.352	89.75
306.582	92.75
306.812	74.75
307.042	93.75
307.272	80.75
307.502	78.75
307.731	82.75
307.961	90.75
308.191	86.75
308.421	72.75
308.651	85.75
308.881	89.75
309.111	88.75
309.341	78.75
309.571	90.75
309.8	87.75
310.03	81.75
310.26	82.75
310.49	88.75
310.72	85.75
310.949	91.75
311.179	99.75
311.409	85.75
311.639	84.75
311.868	90.75
312.098	98.75
312.328	86.75
312.557	89.75
312.787	88.75
313.017	66.75
313.246	95.75
313.476	89.75
313.706	77.75
313.935	77.75
314.165	80.75
314.394	88.75
314.624	84.75
314.853	79.75
315.083	91.75
315.312	98.75
315.542	84.75
315.771	97.75
316.001	80.75
316.23	80.75
316.46	79.75
316.689	97.75
316.919	74.75
317.148	85.75
317.377	84.75
317.607	86.75
317.836	77.75
318.065	81.75
318.295	89.75
318.524	78.75
318.753	100.75
318.983	79.75
319.212	82.75
319.441	83.75
319.67	79.75
319.9	81.75
320.129	89.75
320.358	93.75
320.587	80.75
320.816	92.75
321.046	91.75
321.275	89.75
321.504	91.75
321.733	86.75
321.962	84.75
322.191	68.75
322.42	86.75
322.649	70.75
322.878	86.75
323.108	95.75
323.337	90.75
323.566	95.75
323.795	100.75
324.024	91.75
324.253	66.75
324.482	91.75
324.71	85.75
324.939	97.75
325.168	86.75
325.397	90.75
325.626	93.75
325.855	72.75
326.084	87.75
326.313	83.75
326.542	94.75
326.77	85.75
326.999	83.75
327.228	88.75
327.457	91.75
327.686	82.75
327.914	71.75
328.143	100.75
328.372	89.75
328.6	87.75
328.829	86.75
329.058	87.75
329.287	77.75
329.515	90.75
329.744	95.75
329.972	89.75
330.201	89.75
330.43	93.75
330.658	97.75
330.887	87.75
331.115	86.75
331.344	82.75
331.572	74.75
331.801	75.75
332.03	82.75
332.258	78.75
332.486	93.75
332.715	84.75
332.943	71.75
333.172	87.75
333.4	89.75
333.629	70.75
333.857	74.75
334.085	91.75
334.314	78.75
334.542	87.75
334.771	82.75
334.999	70.75
335.227	88.75
335.455	78.75
335.684	93.75
335.912	86.75
336.14	95.75
336.369	87.75
336.597	82.75
336.825	77.75
337.053	81.75
337.281	90.75
337.51	70.75
337.738	71.75
337.966	96.75
338.194	85.75
338.422	76.75
338.65	85.75
338.878	90.75
339.106	84.75
339.334	82.75
339.562	97.75
339.79	74.75
340.018	88.75
340.246	81.75
340.474	98.75
340.702	88.75
340.93	82.75
341.158	65.75
341.386	89.75
341.614	87.75
341.842	88.75
342.07	96.75
342.298	88.75
342.526	96.75
342.754	89.75
342.981	91.75
343.209	84.75
343.437	94.75
343.665	78.75
343.893	76.75
344.12	100.75
344.348	81.75
344.576	91.75
344.804	86.75
345.031	93.75
345.259	78.75
345.487	88.75
345.714	83.75
345.942	81.75
346.17	86.75
346.397	87.75
346.625	84.75
346.853	75.75
347.08	84.75
347.308	90.75
347.535	94.75
347.763	89.75
347.99	96.75
348.218	98.75
348.445	67.75
348.673	92.75
348.9	88.75
349.128	75.75
349.355	81.75
349.583	91.75
349.81	99.75
350.037	73.75
350.265	85.75
350.492	89.75
350.72	75.75
350.947	93.75
351.174	91.75
351.402	91.75
351.629	95.75
351.856	87.75
352.083	98.75
352.311	71.75
352.538	85.75
352.765	85.75
352.992	86.75
353.22	82.75
353.447	75.75
353.674	75.75
353.901	80.75
354.128	84.75
354.355	86.75
354.583	81.75
354.81	88.75
355.037	96.75
355.264	89.75
355.491	89.75
355.718	86.75
355.945	66.75
356.172	80.75
356.399	82.75
356.626	82.75
356.853	80.75
357.08	97.75
357.307	80.75
357.534	77.75
357.761	82.75
357.988	83.75
358.215	72.75
358.441	85.75
358.668	84.75
358.895	89.75
359.122	82.75
359.349	87.75
359.576	72.75
359.802	78.75
360.029	85.75
360.256	88.75
360.483	90.75
360.709	71.75
360.936	91.75
361.163	84.75
361.39	75.75
361.616	83.75
361.843	82.75
362.07	73.75
362.296	87.75
362.523	84.75
362.749	90.75
362.976	92.75
363.203	87.75
363.429	95.75
363.656	94.75
363.882	81.75
364.109	87.75
364.335	77.75
364.562	80.75
364.788	74.75
365.015	93.75
365.241	86.75
365.468	86.75
365.694	81.75
365.92	81.75
366.147	93.75
366.373	86.75
366.599	82.75
366.826	95.75
367.052	81.75
367.278	75.75
367.505	75.75
367.731	101.75
367.957	81.75
368.184	86.75
368.41	75.75
368.636	85.75
368.862	78.75
369.089	86.75
369.315	91.75
369.541	84.75
369.767	83.75
369.993	80.75
370.219	99.75
370.445	94.75
370.672	81.75
370.898	94.75
371.124	82.75
371.35	71.75
371.576	87.75
371.802	89.75
372.028	92.75
372.254	96.75
372.48	75.75
372.706	77.75
372.932	92.75
373.158	76.75
373.384	87.75
373.61	100.75
373.835	93.75
374.061	90.75
374.287	83.75
374.513	82.75
374.739	96.75
374.965	86.75
375.191	90.75
375.416	98.75
375.642	87.75
375.868	82.75
376.094	95.75
376.319	82.75
376.545	82.75
376.771	97.75
376.997	86.75
377.222	86.75
377.448	101.75
377.674	82.75
377.899	85.75
378.125	83.75
378.35	82.75
378.576	85.75
378.802	88.75
379.027	74.75
379.253	87.75
379.478	78.75
379.704	84.75
379.929	88.75
380.155	83.75
380.38	90.75
380.606	84.75
380.831	88.75
381.057	89.75
381.282	83.75
381.507	85.75
381.733	84.75
381.958	92.75
382.184	89.75
382.409	97.75
382.634	82.75
382.86	92.75
383.085	98.75
383.31	85.75
383.535	92.75
383.761	88.75
383.986	77.75
384.211	90.75
384.436	73.75
384.662	81.75
384.887	83.75
385.112	89.75
385.337	102.75
385.562	84.75
385.787	76.75
386.013	108.75
386.238	97.75
386.463	102.75
386.688	95.75
386.913	102.75
387.138	84.75
387.363	76.75
387.588	87.75
387.813	84.75
388.038	86.75
388.263	99.75
388.488	83.75
388.713	106.75
388.938	92.75
389.163	82.75
389.387	88.75
389.612	86.75
389.837	88.75
390.062	99.75
390.287	82.75
390.512	96.75
390.736	96.75
390.961	84.75
391.186	101.75
391.411	102.75
391.636	89.75
391.86	102.75
392.085	92.75
392.31	92.75
392.534	99.75
392.759	104.75
392.984	102.75
393.208	85.75
393.433	91.75
393.658	84.75
393.882	80.75
394.107	82.75
394.331	105.75
394.556	87.75
394.78	86.75
395.005	99.75
395.229	85.75
395.454	101.75
395.678	89.75
395.903	80.75
396.127	90.75
396.352	105.75
396.576	105.75
396.801	94.75
397.025	87.75
397.249	93.75
397.474	99.75
397.698	98.75
397.922	84.75
398.147	93.75
398.371	85.75
398.595	86.75
398.82	92.75
399.044	83.75
399.268	102.75
399.492	91.75
399.717	90.75
399.941	98.75
400.165	96.75
400.389	94.75
400.613	84.75
400.837	103.75
401.062	105.75
401.286	90.75
401.51	93.75
401.734	99.75
401.958	106.75
402.182	96.75
402.406	96.75
402.63	94.75
402.854	87.75
403.078	98.75
403.302	92.75
403.526	93.75
403.75	95.75
403.974	96.75
404.198	91.75
404.422	100.75
404.645	97.75
404.869	81.75
405.093	105.75
405.317	92.75
405.541	109.75
405.765	85.75
405.988	87.75
406.212	93.75
406.436	104.75
406.66	106.75
406.883	109.75
407.107	92.75
407.331	99.75
407.555	101.75
407.778	102.75
408.002	98.75
408.226	96.75
408.449	92.75
408.673	101.75
408.896	93.75
409.12	102.75
409.344	101.75
409.567	105.75
409.791	100.75
410.014	108.75
410.238	100.75
410.461	106.75
410.685	86.75
410.908	99.75
411.132	98.75
411.355	90.75
411.578	100.75
411.802	98.75
412.025	84.75
412.249	98.75
412.472	97.75
412.695	106.75
412.919	97.75
413.142	102.75
413.365	98.75
413.589	108.75
413.812	114.75
414.035	90.75
414.258	98.75
414.482	104.75
414.705	104.75
414.928	109.75
415.151	103.75
415.374	98.75
415.597	84.75
415.821	122.75
416.044	91.75
416.267	100.75
416.49	113.75
416.713	98.75
416.936	118.75
417.159	99.75
417.382	96.75
417.605	116.75
417.828	109.75
418.051	114.75
418.274	117.75
418.497	107.75
418.72	112.75
418.943	102.75
419.166	108.75
419.389	117.75
419.611	106.75
419.834	104.75
420.057	100.75
420.28	104.75
420.503	106.75
420.726	108.75
420.948	117.75
421.171	117.75
421.394	107.75
421.617	108.75
421.839	117.75
422.062	110.75
422.285	110.75
422.507	96.75
422.73	108.75
422.953	106.75
423.175	108.75
423.398	98.75
423.621	99.75
423.843	97.75
424.066	109.75
424.288	110.75
424.511	100.75
424.733	119.75
424.956	105.75
425.178	106.75
425.401	110.75
425.623	108.75
425.846	104.75
426.068	98.75
426.291	101.75
426.513	108.75
426.735	113.75
426.958	106.75
427.18	107.75
427.402	118.75
427.625	99.75
427.847	117.75
428.069	104.75
428.292	114.75
428.514	97.75
428.736	106.75
428.958	117.75
429.181	112.75
429.403	108.75
429.625	98.75
429.847	116.75
430.069	106.75
430.292	93.75
430.514	103.75
430.736	98.75
430.958	102.75
431.18	114.75
431.402	117.75
431.624	103.75
431.846	100.75
432.068	85.75
432.29	88.75
432.512	104.75
432.734	112.75
432.956	100.75
433.178	121.75
433.4	109.75
433.622	90.75
433.844	110.75
434.066	117.75
434.287	107.75
434.509	87.75
434.731	103.75
434.953	98.75
435.175	99.75
435.397	108.75
435.618	98.75
435.84	91.75
436.062	104.75
436.284	104.75
436.505	98.75
436.727	116.75
436.949	106.75
437.17	120.75
437.392	114.75
437.614	104.75
437.835	99.75
438.057	100.75
438.278	87.75
438.5	103.75
438.721	110.75
438.943	107.75
439.165	121.75
439.386	107.75
439.608	113.75
439.829	105.75
440.05	104.75
440.272	106.75
440.493	108.75
440.715	105.75
440.936	107.75
441.158	112.75
441.379	121.75
441.6	99.75
441.822	118.75
442.043	106.75
442.264	116.75
442.486	119.75
442.707	109.75
442.928	115.75
443.149	107.75
443.371	128.75
443.592	105.75
443.813	107.75
444.034	106.75
444.255	104.75
444.476	104.75
444.698	119.75
444.919	126.75
445.14	237.75
445.361	160.75
445.582	110.75
445.803	104.75
446.024	98.75
446.245	116.75
446.466	131.75
446.687	127.75
446.908	116.75
447.129	98.75
447.35	123.75
447.571	118.75
447.792	119.75
448.013	126.75
448.234	127.75
448.455	114.75
448.675	112.75
448.896	117.75
449.117	122.75
449.338	113.75
449.559	113.75
449.779	128.75
450	101.75
450.221	112.75
450.442	117.75
450.662	124.75
450.883	112.75
451.104	94.75
451.324	104.75
451.545	101.75
451.766	107.75
451.986	112.75
452.207	118.75
452.428	94.75
452.648	105.75
452.869	111.75
453.089	100.75
453.31	108.75
453.53	88.75
453.751	91.75
453.971	85.75
454.192	103.75
454.412	96.75
454.633	88.75
454.853	116.75
455.073	99.75
455.294	99.75
455.514	104.75
455.734	100.75
455.955	96.75
456.175	101.75
456.395	96.75
456.616	101.75
456.836	85.75
457.056	102.75
457.276	101.75
457.497	87.75
457.717	90.75
457.937	102.75
458.157	107.75
458.377	93.75
458.598	90.75
458.818	85.75
459.038	89.75
459.258	89.75
459.478	84.75
459.698	94.75
459.918	96.75
460.138	84.75
460.358	101.75
460.578	107.75
460.798	96.75
461.018	109.75
461.238	113.75
461.458	98.75
461.678	86.75
461.898	98.75
462.118	103.75
462.338	105.75
462.558	98.75
462.777	104.75
462.997	107.75
463.217	91.75
463.437	103.75
463.657	82.75
463.876	91.75
464.096	88.75
464.316	97.75
464.536	97.75
464.755	116.75
464.975	82.75
465.195	105.75
465.414	109.75
465.634	105.75
465.854	100.75
466.073	92.75
466.293	115.75
466.512	105.75
466.732	108.75
466.951	95.75
467.171	94.75
467.391	108.75
467.61	91.75
467.829	111.75
468.049	98.75
468.268	103.75
468.488	101.75
468.707	108.75
468.927	113.75
469.146	113.75
469.365	113.75
469.585	116.75
469.804	115.75
470.023	112.75
470.243	123.75
470.462	123.75
470.681	108.75
470.901	106.75
471.12	107.75
471.339	105.75
471.558	103.75
471.777	119.75
471.997	114.75
472.216	97.75
472.435	94.75
472.654	92.75
472.873	98.75
473.092	106.75
473.311	91.75
473.53	97.75
473.749	109.75
473.968	96.75
474.187	97.75
474.406	113.75
474.625	103.75
474.844	98.75
475.063	108.75
475.282	116.75
475.501	95.75
475.72	110.75
475.939	88.75
476.158	108.75
476.377	92.75
476.596	114.75
476.814	99.75
477.033	95.75
477.252	96.75
477.471	90.75
477.69	107.75
477.908	102.75
478.127	113.75
478.346	97.75
478.564	99.75
478.783	102.75
479.002	111.75
479.22	106.75
479.439	116.75
479.658	121.75
479.876	89.75
480.095	101.75
480.313	111.75
480.532	88.75
480.751	92.75
480.969	92.75
481.188	96.75
481.406	84.75
481.624	95.75
481.843	94.75
482.061	91.75
482.28	106.75
482.498	95.75
482.717	81.75
482.935	104.75
483.153	109.75
483.372	105.75
483.59	131.75
483.808	104.75
484.027	108.75
484.245	104.75
484.463	124.75
484.681	117.75
484.9	128.75
485.118	117.75
485.336	110.75
485.554	113.75
485.772	92.75
485.99	88.75
486.209	85.75
486.427	103.75
486.645	97.75
486.863	106.75
487.081	100.75
487.299	108.75
487.517	103.75
487.735	121.75
487.953	138.75
488.171	131.75
488.389	128.75
488.607	116.75
488.825	109.75
489.043	98.75
489.261	97.75
489.479	121.75
489.696	120.75
489.914	107.75
490.132	104.75
490.35	109.75
490.568	116.75
490.786	113.75
491.003	132.75
491.221	133.75
491.439	137.75
491.657	145.75
491.874	149.75
492.092	137.75
492.31	161.75
492.527	145.75
492.745	142.75
492.963	140.75
493.18	143.75
493.398	134.75
493.615	130.75
493.833	130.75
494.05	130.75
494.268	134.75
494.485	133.75
494.703	114.75
494.92	136.75
495.138	127.75
495.355	130.75
495.573	128.75
495.79	123.75
496.008	124.75
496.225	127.75
496.442	123.75
496.66	128.75
496.877	117.75
497.094	125.75
497.312	114.75
497.529	123.75
497.746	109.75
497.963	122.75
498.181	104.75
498.398	103.75
498.615	100.75
498.832	107.75
499.049	101.75
499.267	102.75
499.484	108.75
499.701	112.75
499.918	115.75
500.135	98.75
500.352	105.75
500.569	105.75
500.786	127.75
501.003	108.75
501.22	95.75
501.437	110.75
501.654	103.75
501.871	102.75
502.088	116.75
502.305	120.75
502.522	103.75
502.739	114.75
502.956	102.75
503.172	99.75
503.389	101.75
503.606	99.75
503.823	89.75
504.04	94.75
504.256	106.75
504.473	102.75
504.69	99.75
504.907	114.75
505.123	116.75
505.34	116.75
505.557	101.75
505.773	107.75
505.99	102.75
506.207	115.75
506.423	93.75
506.64	114.75
506.856	100.75
507.073	128.75
507.289	106.75
507.506	100.75
507.722	94.75
507.939	95.75
508.155	90.75
508.372	92.75
508.588	103.75
508.805	97.75
509.021	92.75
509.238	109.75
509.454	83.75
509.67	101.75
509.887	85.75
510.103	92.75
510.319	76.75
510.536	92.75
510.752	73.75
510.968	88.75
511.184	92.75
511.401	88.75
511.617	85.75
511.833	92.75
512.049	82.75
512.265	87.75
512.481	98.75
512.698	77.75
512.914	90.75
513.13	88.75
513.346	84.75
513.562	90.75
513.778	86.75
513.994	79.75
514.21	96.75
514.426	94.75
514.642	93.75
514.858	94.75
515.074	109.75
515.29	94.75
515.506	87.75
515.721	83.75
515.937	84.75
516.153	101.75
516.369	94.75
516.585	93.75
516.801	92.75
517.016	71.75
517.232	79.75
517.448	85.75
517.664	80.75
517.879	98.75
518.095	97.75
518.311	92.75
518.527	80.75
518.742	97.75
518.958	89.75
519.173	97.75
519.389	74.75
519.605	85.75
519.82	97.75
520.036	105.75
520.251	82.75
520.467	90.75
520.682	89.75
520.898	89.75
521.113	76.75
521.329	78.75
521.544	79.75
521.76	87.75
521.975	104.75
522.19	89.75
522.406	83.75
522.621	92.75
522.836	103.75
523.052	87.75
523.267	81.75
523.482	95.75
523.698	99.75
523.913	102.75
524.128	93.75
524.343	122.75
524.559	111.75
524.774	95.75
524.989	97.75
525.204	103.75
525.419	105.75
525.634	98.75
525.849	93.75
526.064	88.75
526.28	99.75
526.495	88.75
526.71	91.75
526.925	82.75
527.14	93.75
527.355	78.75
527.57	91.75
527.785	110.75
527.999	90.75
528.214	92.75
528.429	89.75
528.644	107.75
528.859	109.75
529.074	112.75
529.289	115.75
529.503	124.75
529.718	108.75
529.933	92.75
530.148	104.75
530.363	94.75
530.577	83.75
530.792	79.75
531.007	87.75
531.221	75.75
531.436	92.75
531.651	90.75
531.865	79.75
532.08	87.75
532.295	93.75
532.509	83.75
532.724	80.75
532.938	93.75
533.153	101.75
533.367	96.75
533.582	112.75
533.796	94.75
534.011	97.75
534.225	99.75
534.44	86.75
534.654	100.75
534.868	84.75
535.083	103.75
535.297	101.75
535.511	105.75
535.726	91.75
535.94	100.75
536.154	99.75
536.369	83.75
536.583	74.75
536.797	89.75
537.011	87.75
537.225	95.75
537.44	84.75
537.654	92.75
537.868	103.75
538.082	85.75
538.296	86.75
538.51	103.75
538.724	109.75
538.938	92.75
539.153	97.75
539.367	108.75
539.581	96.75
539.795	88.75
540.009	98.75
540.222	89.75
540.436	91.75
540.65	97.75
540.864	101.75
541.078	113.75
541.292	117.75
541.506	107.75
541.72	114.75
541.934	129.75
542.147	138.75
542.361	128.75
542.575	118.75
542.789	127.75
543.002	103.75
543.216	104.75
543.43	104.75
543.644	120.75
543.857	112.75
544.071	114.75
544.285	105.75
544.498	122.75
544.712	112.75
544.925	109.75
545.139	123.75
545.352	131.75
545.566	116.75
545.779	121.75
545.993	114.75
546.206	136.75
546.42	123.75
546.633	134.75
546.847	127.75
547.06	134.75
547.274	119.75
547.487	128.75
547.7	116.75
547.914	128.75
548.127	119.75
548.34	114.75
548.554	120.75
548.767	126.75
548.98	120.75
549.193	120.75
549.407	122.75
549.62	120.75
549.833	135.75
550.046	119.75
550.259	123.75
550.473	121.75
550.686	133.75
550.899	130.75
551.112	136.75
551.325	113.75
551.538	101.75
551.751	117.75
551.964	102.75
552.177	112.75
552.39	118.75
552.603	120.75
552.816	132.75
553.029	105.75
553.242	115.75
553.455	142.75
553.667	131.75
553.88	110.75
554.093	122.75
554.306	125.75
554.519	123.75
554.732	117.75
554.944	119.75
555.157	110.75
555.37	118.75
555.583	106.75
555.795	120.75
556.008	108.75
556.221	93.75
556.433	100.75
556.646	122.75
556.859	109.75
557.071	112.75
557.284	120.75
557.496	108.75
557.709	106.75
557.921	102.75
558.134	108.75
558.346	119.75
558.559	102.75
558.771	112.75
558.984	113.75
559.196	111.75
559.409	98.75
559.621	116.75
559.833	112.75
560.046	93.75
560.258	104.75
560.47	109.75
560.683	114.75
560.895	93.75
561.107	106.75
561.32	94.75
561.532	99.75
561.744	120.75
561.956	123.75
562.168	103.75
562.381	106.75
562.593	101.75
562.805	100.75
563.017	103.75
563.229	105.75
563.441	106.75
563.653	99.75
563.865	110.75
564.077	87.75
564.289	103.75
564.501	100.75
564.713	104.75
564.925	106.75
565.137	92.75
565.349	102.75
565.561	111.75
565.773	105.75
565.985	102.75
566.197	93.75
566.408	97.75
566.62	95.75
566.832	107.75
567.044	91.75
567.255	115.75
567.467	102.75
567.679	106.75
567.891	95.75
568.102	100.75
568.314	106.75
568.526	89.75
568.737	96.75
568.949	80.75
569.161	95.75
569.372	81.75
569.584	82.75
569.795	83.75
570.007	87.75
570.218	97.75
570.43	89.75
570.641	84.75
570.853	84.75
571.064	105.75
571.276	101.75
571.487	104.75
571.698	92.75
571.91	99.75
572.121	90.75
572.333	81.75
572.544	97.75
572.755	88.75
572.966	90.75
573.178	103.75
573.389	100.75
573.6	90.75
573.811	86.75
574.023	89.75
574.234	81.75
574.445	91.75
574.656	93.75
574.867	93.75
575.078	93.75
575.289	92.75
575.501	99.75
575.712	92.75
575.923	98.75
576.134	90.75
576.345	100.75
576.556	94.75
576.767	98.75
576.978	98.75
577.188	96.75
577.399	88.75
577.61	86.75
577.821	96.75
578.032	82.75
578.243	86.75
578.454	98.75
578.665	95.75
578.875	98.75
579.086	82.75
579.297	89.75
579.508	90.75
579.718	84.75
579.929	91.75
580.14	84.75
580.35	83.75
580.561	84.75
580.772	74.75
580.982	90.75
581.193	88.75
581.403	87.75
581.614	94.75
581.825	92.75
582.035	97.75
582.246	90.75
582.456	93.75
582.667	85.75
582.877	105.75
583.087	89.75
583.298	97.75
583.508	84.75
583.719	59.75
583.929	79.75
584.139	88.75
584.35	92.75
584.56	73.75
584.77	84.75
584.981	76.75
585.191	94.75
585.401	90.75
585.611	80.75
585.821	91.75
586.032	78.75
586.242	91.75
586.452	78.75
586.662	90.75
586.872	85.75
587.082	72.75
587.292	86.75
587.502	81.75
587.713	88.75
587.923	84.75
588.133	89.75
588.343	94.75
588.553	85.75
588.762	89.75
588.972	95.75
589.182	89.75
589.392	86.75
589.602	78.75
589.812	85.75
590.022	81.75
590.232	92.75
590.441	98.75
590.651	95.75
590.861	93.75
591.071	84.75
591.281	88.75
591.49	79.75
591.7	96.75
591.91	92.75
592.119	80.75
592.329	87.75
592.539	94.75
592.748	92.75
592.958	102.75
593.167	80.75
593.377	89.75
593.587	99.75
593.796	98.75
594.006	88.75
594.215	84.75
594.424	84.75
594.634	88.75
594.843	92.75
595.053	92.75
595.262	87.75
595.472	93.75
595.681	78.75
595.89	92.75
596.1	95.75
596.309	90.75
596.518	82.75
596.727	98.75
596.937	91.75
597.146	89.75
597.355	94.75
597.564	100.75
597.774	96.75
597.983	86.75
598.192	80.75
598.401	78.75
598.61	95.75
598.819	77.75
599.028	92.75
599.237	87.75
599.446	103.75
599.655	96.75
599.864	96.75
600.073	79.75
600.282	99.75
600.491	84.75
600.7	94.75
600.909	86.75
601.118	78.75
601.327	91.75
601.536	91.75
601.745	102.75
601.953	99.75
602.162	83.75
602.371	83.75
602.58	86.75
602.789	90.75
602.997	93.75
603.206	101.75
603.415	95.75
603.623	99.75
603.832	102.75
604.041	96.75
604.249	102.75
604.458	80.75
604.666	90.75
604.875	80.75
605.084	88.75
605.292	83.75
605.501	97.75
605.709	83.75
605.918	108.75
606.126	103.75
606.334	106.75
606.543	104.75
606.751	97.75
606.96	97.75
607.168	96.75
607.376	97.75
607.585	103.75
607.793	96.75
608.001	95.75
608.21	98.75
608.418	95.75
608.626	98.75
608.834	89.75
609.043	96.75
609.251	109.75
609.459	104.75
609.667	96.75
609.875	95.75
610.083	100.75
610.291	87.75
610.499	105.75
610.707	99.75
610.916	113.75
611.124	108.75
611.332	95.75
611.54	97.75
611.748	105.75
611.955	93.75
612.163	98.75
612.371	109.75
612.579	98.75
612.787	102.75
612.995	119.75
613.203	110.75
613.411	100.75
613.618	108.75
613.826	90.75
614.034	106.75
614.242	104.75
614.449	87.75
614.657	101.75
614.865	104.75
615.072	94.75
615.28	96.75
615.488	88.75
615.695	101.75
615.903	104.75
616.111	99.75
616.318	112.75
616.526	91.75
616.733	99.75
616.941	99.75
617.148	108.75
617.356	97.75
617.563	83.75
617.771	94.75
617.978	89.75
618.185	98.75
618.393	104.75
618.6	101.75
618.807	92.75
619.015	94.75
619.222	110.75
619.429	92.75
619.637	108.75
619.844	92.75
620.051	104.75
620.258	97.75
620.466	96.75
620.673	99.75
620.88	107.75
621.087	97.75
621.294	105.75
621.501	113.75
621.708	93.75
621.915	85.75
622.122	90.75
622.329	92.75
622.536	103.75
622.743	90.75
622.95	97.75
623.157	106.75
623.364	90.75
623.571	87.75
623.778	99.75
623.985	88.75
624.192	100.75
624.399	95.75
624.606	106.75
624.812	100.75
625.019	96.75
625.226	84.75
625.433	81.75
625.639	88.75
625.846	97.75
626.053	81.75
626.259	72.75
626.466	99.75
626.673	83.75
626.879	82.75
627.086	85.75
627.293	94.75
627.499	97.75
627.706	62.75
627.912	102.75
628.119	94.75
628.325	86.75
628.532	96.75
628.738	91.75
628.945	99.75
629.151	103.75
629.357	93.75
629.564	114.75
629.77	97.75
629.976	91.75
630.183	87.75
630.389	92.75
630.595	90.75
630.802	109.75
631.008	104.75
631.214	94.75
631.42	82.75
631.627	87.75
631.833	96.75
632.039	95.75
632.245	93.75
632.451	91.75
632.657	95.75
632.863	92.75
633.069	102.75
633.275	82.75
633.481	98.75
633.688	96.75
633.893	99.75
634.099	96.75
634.305	92.75
634.511	96.75
634.717	96.75
634.923	90.75
635.129	89.75
635.335	90.75
635.541	83.75
635.747	97.75
635.952	86.75
636.158	92.75
636.364	96.75
636.57	109.75
636.775	85.75
636.981	85.75
637.187	105.75
637.392	105.75
637.598	87.75
637.804	90.75
638.009	87.75
638.215	90.75
638.421	88.75
638.626	86.75
638.832	101.75
639.037	88.75
639.243	89.75
639.448	89.75
639.654	93.75
639.859	87.75
640.065	94.75
640.27	96.75
640.475	93.75
640.681	93.75
640.886	90.75
641.091	88.75
641.297	109.75
641.502	83.75
641.707	97.75
641.913	94.75
642.118	101.75
642.323	78.75
642.528	98.75
642.733	93.75
642.939	99.75
643.144	87.75
643.349	80.75
643.554	91.75
643.759	92.75
643.964	91.75
644.169	97.75
644.374	94.75
644.579	101.75
644.784	101.75
644.989	93.75
645.194	91.75
645.399	90.75
645.604	102.75
645.809	95.75
646.014	92.75
646.219	81.75
646.423	90.75
646.628	90.75
646.833	80.75
647.038	96.75
647.243	81.75
647.447	90.75
647.652	89.75
647.857	91.75
648.062	101.75
648.266	85.75
648.471	102.75
648.676	95.75
648.88	100.75
649.085	88.75
649.289	92.75
649.494	106.75
649.698	104.75
649.903	87.75
650.107	97.75
650.312	104.75
650.516	93.75
650.721	89.75
650.925	90.75
651.13	96.75
651.334	74.75
651.539	101.75
651.743	84.75
651.947	81.75
652.152	93.75
652.356	101.75
652.56	89.75
652.764	94.75
652.969	88.75
653.173	87.75
653.377	93.75
653.581	96.75
653.785	78.75
653.99	78.75
654.194	84.75
654.398	93.75
654.602	92.75
654.806	95.75
655.01	87.75
655.214	88.75
655.418	85.75
655.622	84.75
655.826	91.75
656.03	88.75
656.234	85.75
656.438	95.75
656.642	88.75
656.846	84.75
657.049	89.75
657.253	77.75
657.457	85.75
657.661	98.75
657.865	85.75
658.068	87.75
658.272	99.75
658.476	100.75
658.68	85.75
658.883	86.75
659.087	75.75
659.291	75.75
659.494	84.75
659.698	81.75
659.901	64.75
660.105	72.75
660.309	70.75
660.512	76.75
660.716	95.75
660.919	88.75
661.123	101.75
661.326	84.75
661.53	96.75
661.733	102.75
661.936	91.75
662.14	100.75
662.343	86.75
662.546	74.75
662.75	85.75
662.953	85.75
663.156	88.75
663.36	77.75
663.563	83.75
663.766	97.75
663.969	95.75
664.173	94.75
664.376	85.75
664.579	81.75
664.782	85.75
664.985	83.75
665.188	87.75
665.391	78.75
665.594	78.75
665.797	90.75
666	89.75
666.203	78.75
666.406	78.75
666.609	99.75
666.812	86.75
667.015	83.75
667.218	88.75
667.421	86.75
667.624	82.75
667.827	81.75
668.03	79.75
668.232	81.75
668.435	88.75
668.638	85.75
668.841	77.75
669.043	89.75
669.246	84.75
669.449	68.75
669.651	94.75
669.854	80.75
670.057	90.75
670.259	74.75
670.462	107.75
670.665	91.75
670.867	88.75
671.07	82.75
671.272	78.75
671.475	90.75
671.677	83.75
671.88	89.75
672.082	83.75
672.284	84.75
672.487	81.75
672.689	94.75
672.892	98.75
