Data from Zn(NO3)2Standard.Agarose3%.GreenCap.LampEnergy5.5.E.O_HRD10591_15-02-19-767.txt Node
Date: Mon Jul 22 15:02:19 EDT 2019
User: cochatt
Spectrometer: HR+D1059
Trigger mode: 1
Integration Time (sec): 1.000000E-1
Scans to average: 1
Electric dark correction enabled: true
Nonlinearity correction enabled: false
Boxcar width: 0
XAxis mode: Wavelengths
Number of Pixels in Spectrum: 2048
>>>>>Begin Spectral Data<<<<<
223.165	-8.25
223.4	-8.25
223.635	-8.25
223.869	-13.25
224.104	-30.25
224.338	-4.25
224.573	-23.25
224.808	-16.25
225.042	-10.25
225.277	0.75
225.511	3.75
225.746	1.75
225.98	-6.25
226.215	10.75
226.449	14.75
226.683	6.75
226.918	40.75
227.152	32.75
227.387	37.75
227.621	31.75
227.856	45.75
228.09	55.75
228.324	47.75
228.559	45.75
228.793	60.75
229.027	67.75
229.262	49.75
229.496	65.75
229.73	75.75
229.964	75.75
230.199	78.75
230.433	77.75
230.667	81.75
230.901	77.75
231.136	77.75
231.37	80.75
231.604	73.75
231.838	87.75
232.072	89.75
232.306	96.75
232.541	94.75
232.775	92.75
233.009	88.75
233.243	80.75
233.477	83.75
233.711	88.75
233.945	90.75
234.179	71.75
234.413	73.75
234.647	80.75
234.881	79.75
235.115	84.75
235.349	91.75
235.583	88.75
235.817	87.75
236.051	81.75
236.285	80.75
236.519	73.75
236.753	79.75
236.987	69.75
237.221	75.75
237.455	68.75
237.689	82.75
237.922	86.75
238.156	77.75
238.39	89.75
238.624	88.75
238.858	70.75
239.091	72.75
239.325	74.75
239.559	79.75
239.793	80.75
240.027	81.75
240.26	77.75
240.494	80.75
240.728	74.75
240.961	81.75
241.195	85.75
241.429	78.75
241.662	63.75
241.896	86.75
242.13	75.75
242.363	77.75
242.597	74.75
242.83	73.75
243.064	78.75
243.298	75.75
243.531	79.75
243.765	68.75
243.998	73.75
244.232	79.75
244.465	88.75
244.699	74.75
244.932	81.75
245.166	75.75
245.399	90.75
245.633	74.75
245.866	75.75
246.099	75.75
246.333	82.75
246.566	75.75
246.8	94.75
247.033	77.75
247.266	77.75
247.5	76.75
247.733	88.75
247.966	88.75
248.2	77.75
248.433	73.75
248.666	80.75
248.899	92.75
249.133	75.75
249.366	82.75
249.599	83.75
249.832	75.75
250.066	67.75
250.299	93.75
250.532	87.75
250.765	73.75
250.998	84.75
251.231	91.75
251.465	76.75
251.698	94.75
251.931	91.75
252.164	77.75
252.397	73.75
252.63	80.75
252.863	75.75
253.096	88.75
253.329	76.75
253.562	89.75
253.795	77.75
254.028	83.75
254.261	96.75
254.494	85.75
254.727	102.75
254.96	82.75
255.193	82.75
255.426	87.75
255.659	83.75
255.892	72.75
256.124	87.75
256.357	87.75
256.59	102.75
256.823	88.75
257.056	79.75
257.289	84.75
257.521	79.75
257.754	94.75
257.987	80.75
258.22	96.75
258.452	85.75
258.685	72.75
258.918	94.75
259.151	96.75
259.383	82.75
259.616	93.75
259.849	79.75
260.081	92.75
260.314	92.75
260.547	88.75
260.779	93.75
261.012	75.75
261.244	79.75
261.477	78.75
261.71	87.75
261.942	60.75
262.175	94.75
262.407	92.75
262.64	86.75
262.872	70.75
263.105	86.75
263.337	75.75
263.57	85.75
263.802	85.75
264.035	91.75
264.267	73.75
264.499	87.75
264.732	78.75
264.964	87.75
265.197	86.75
265.429	87.75
265.661	91.75
265.894	88.75
266.126	84.75
266.358	74.75
266.591	87.75
266.823	79.75
267.055	81.75
267.287	86.75
267.52	79.75
267.752	81.75
267.984	90.75
268.216	86.75
268.448	80.75
268.681	83.75
268.913	77.75
269.145	76.75
269.377	82.75
269.609	86.75
269.841	93.75
270.073	92.75
270.306	90.75
270.538	76.75
270.77	90.75
271.002	83.75
271.234	78.75
271.466	70.75
271.698	78.75
271.93	75.75
272.162	93.75
272.394	73.75
272.626	76.75
272.858	85.75
273.09	86.75
273.322	91.75
273.553	85.75
273.785	100.75
274.017	84.75
274.249	85.75
274.481	85.75
274.713	83.75
274.945	92.75
275.176	88.75
275.408	85.75
275.64	79.75
275.872	78.75
276.104	67.75
276.335	86.75
276.567	87.75
276.799	89.75
277.031	79.75
277.262	92.75
277.494	90.75
277.726	92.75
277.957	94.75
278.189	75.75
278.421	75.75
278.652	87.75
278.884	91.75
279.115	77.75
279.347	82.75
279.579	77.75
279.81	77.75
280.042	84.75
280.273	89.75
280.505	92.75
280.736	86.75
280.968	85.75
281.199	85.75
281.431	84.75
281.662	89.75
281.894	88.75
282.125	90.75
282.356	80.75
282.588	88.75
282.819	87.75
283.051	95.75
283.282	88.75
283.513	94.75
283.745	88.75
283.976	82.75
284.207	91.75
284.439	92.75
284.67	87.75
284.901	75.75
285.132	97.75
285.364	93.75
285.595	105.75
285.826	79.75
286.057	92.75
286.288	95.75
286.52	88.75
286.751	90.75
286.982	98.75
287.213	88.75
287.444	87.75
287.675	90.75
287.906	87.75
288.138	93.75
288.369	95.75
288.6	97.75
288.831	87.75
289.062	93.75
289.293	83.75
289.524	82.75
289.755	81.75
289.986	92.75
290.217	86.75
290.448	87.75
290.679	81.75
290.91	82.75
291.141	92.75
291.371	97.75
291.602	73.75
291.833	85.75
292.064	89.75
292.295	85.75
292.526	94.75
292.757	89.75
292.987	89.75
293.218	86.75
293.449	88.75
293.68	87.75
293.91	91.75
294.141	80.75
294.372	91.75
294.603	87.75
294.833	92.75
295.064	72.75
295.295	93.75
295.525	102.75
295.756	94.75
295.987	92.75
296.217	96.75
296.448	93.75
296.679	99.75
296.909	107.75
297.14	102.75
297.37	94.75
297.601	96.75
297.831	88.75
298.062	101.75
298.292	88.75
298.523	81.75
298.753	87.75
298.984	79.75
299.214	87.75
299.445	84.75
299.675	80.75
299.905	86.75
300.136	101.75
300.366	86.75
300.597	87.75
300.827	89.75
301.057	79.75
301.288	90.75
301.518	86.75
301.748	79.75
301.979	98.75
302.209	92.75
302.439	87.75
302.669	85.75
302.9	89.75
303.13	87.75
303.36	91.75
303.59	96.75
303.82	86.75
304.051	98.75
304.281	95.75
304.511	100.75
304.741	86.75
304.971	87.75
305.201	84.75
305.431	88.75
305.661	100.75
305.891	100.75
306.121	96.75
306.352	95.75
306.582	87.75
306.812	85.75
307.042	96.75
307.272	88.75
307.502	74.75
307.731	90.75
307.961	91.75
308.191	96.75
308.421	90.75
308.651	99.75
308.881	73.75
309.111	94.75
309.341	85.75
309.571	99.75
309.8	97.75
310.03	87.75
310.26	71.75
310.49	87.75
310.72	84.75
310.949	84.75
311.179	84.75
311.409	94.75
311.639	93.75
311.868	79.75
312.098	80.75
312.328	86.75
312.557	73.75
312.787	88.75
313.017	87.75
313.246	95.75
313.476	80.75
313.706	88.75
313.935	88.75
314.165	79.75
314.394	86.75
314.624	80.75
314.853	96.75
315.083	76.75
315.312	90.75
315.542	91.75
315.771	97.75
316.001	94.75
316.23	83.75
316.46	88.75
316.689	104.75
316.919	85.75
317.148	99.75
317.377	93.75
317.607	86.75
317.836	87.75
318.065	86.75
318.295	93.75
318.524	93.75
318.753	77.75
318.983	92.75
319.212	87.75
319.441	77.75
319.67	84.75
319.9	87.75
320.129	89.75
320.358	93.75
320.587	101.75
320.816	85.75
321.046	96.75
321.275	85.75
321.504	85.75
321.733	97.75
321.962	95.75
322.191	96.75
322.42	92.75
322.649	91.75
322.878	108.75
323.108	91.75
323.337	72.75
323.566	82.75
323.795	92.75
324.024	94.75
324.253	82.75
324.482	94.75
324.71	89.75
324.939	102.75
325.168	84.75
325.397	73.75
325.626	91.75
325.855	85.75
326.084	83.75
326.313	87.75
326.542	81.75
326.77	95.75
326.999	81.75
327.228	86.75
327.457	92.75
327.686	88.75
327.914	79.75
328.143	85.75
328.372	85.75
328.6	95.75
328.829	88.75
329.058	86.75
329.287	63.75
329.515	78.75
329.744	80.75
329.972	82.75
330.201	100.75
330.43	87.75
330.658	81.75
330.887	92.75
331.115	92.75
331.344	84.75
331.572	102.75
331.801	96.75
332.03	90.75
332.258	85.75
332.486	99.75
332.715	87.75
332.943	100.75
333.172	93.75
333.4	70.75
333.629	84.75
333.857	86.75
334.085	81.75
334.314	86.75
334.542	89.75
334.771	105.75
334.999	83.75
335.227	81.75
335.455	80.75
335.684	81.75
335.912	90.75
336.14	81.75
336.369	88.75
336.597	86.75
336.825	86.75
337.053	87.75
337.281	76.75
337.51	87.75
337.738	99.75
337.966	82.75
338.194	75.75
338.422	101.75
338.65	82.75
338.878	93.75
339.106	91.75
339.334	76.75
339.562	86.75
339.79	88.75
340.018	93.75
340.246	98.75
340.474	83.75
340.702	83.75
340.93	102.75
341.158	79.75
341.386	111.75
341.614	90.75
341.842	94.75
342.07	68.75
342.298	88.75
342.526	82.75
342.754	87.75
342.981	88.75
343.209	94.75
343.437	85.75
343.665	76.75
343.893	77.75
344.12	95.75
344.348	86.75
344.576	94.75
344.804	76.75
345.031	84.75
345.259	80.75
345.487	78.75
345.714	79.75
345.942	85.75
346.17	94.75
346.397	110.75
346.625	94.75
346.853	77.75
347.08	79.75
347.308	100.75
347.535	95.75
347.763	87.75
347.99	89.75
348.218	94.75
348.445	77.75
348.673	84.75
348.9	85.75
349.128	98.75
349.355	100.75
349.583	91.75
349.81	83.75
350.037	86.75
350.265	100.75
350.492	84.75
350.72	86.75
350.947	75.75
351.174	99.75
351.402	107.75
351.629	91.75
351.856	84.75
352.083	92.75
352.311	80.75
352.538	82.75
352.765	92.75
352.992	78.75
353.22	86.75
353.447	93.75
353.674	83.75
353.901	74.75
354.128	95.75
354.355	80.75
354.583	103.75
354.81	88.75
355.037	93.75
355.264	90.75
355.491	80.75
355.718	75.75
355.945	82.75
356.172	76.75
356.399	91.75
356.626	96.75
356.853	82.75
357.08	96.75
357.307	91.75
357.534	89.75
357.761	74.75
357.988	67.75
358.215	83.75
358.441	77.75
358.668	80.75
358.895	91.75
359.122	78.75
359.349	79.75
359.576	79.75
359.802	72.75
360.029	84.75
360.256	81.75
360.483	81.75
360.709	99.75
360.936	82.75
361.163	82.75
361.39	92.75
361.616	93.75
361.843	87.75
362.07	89.75
362.296	80.75
362.523	67.75
362.749	83.75
362.976	84.75
363.203	85.75
363.429	81.75
363.656	85.75
363.882	79.75
364.109	85.75
364.335	90.75
364.562	92.75
364.788	95.75
365.015	80.75
365.241	80.75
365.468	95.75
365.694	94.75
365.92	94.75
366.147	91.75
366.373	87.75
366.599	82.75
366.826	95.75
367.052	82.75
367.278	80.75
367.505	95.75
367.731	77.75
367.957	83.75
368.184	82.75
368.41	72.75
368.636	96.75
368.862	99.75
369.089	91.75
369.315	94.75
369.541	89.75
369.767	74.75
369.993	81.75
370.219	92.75
370.445	86.75
370.672	87.75
370.898	82.75
371.124	77.75
371.35	96.75
371.576	90.75
371.802	80.75
372.028	75.75
372.254	79.75
372.48	79.75
372.706	93.75
372.932	82.75
373.158	88.75
373.384	84.75
373.61	102.75
373.835	83.75
374.061	72.75
374.287	73.75
374.513	71.75
374.739	77.75
374.965	89.75
375.191	95.75
375.416	90.75
375.642	83.75
375.868	94.75
376.094	74.75
376.319	97.75
376.545	74.75
376.771	72.75
376.997	93.75
377.222	85.75
377.448	88.75
377.674	90.75
377.899	93.75
378.125	82.75
378.35	86.75
378.576	99.75
378.802	71.75
379.027	78.75
379.253	96.75
379.478	100.75
379.704	88.75
379.929	98.75
380.155	71.75
380.38	88.75
380.606	88.75
380.831	84.75
381.057	96.75
381.282	80.75
381.507	92.75
381.733	78.75
381.958	79.75
382.184	98.75
382.409	81.75
382.634	85.75
382.86	87.75
383.085	84.75
383.31	91.75
383.535	90.75
383.761	84.75
383.986	100.75
384.211	76.75
384.436	96.75
384.662	86.75
384.887	94.75
385.112	97.75
385.337	89.75
385.562	86.75
385.787	103.75
386.013	99.75
386.238	86.75
386.463	85.75
386.688	81.75
386.913	78.75
387.138	84.75
387.363	88.75
387.588	85.75
387.813	70.75
388.038	77.75
388.263	103.75
388.488	94.75
388.713	100.75
388.938	78.75
389.163	89.75
389.387	81.75
389.612	89.75
389.837	89.75
390.062	78.75
390.287	90.75
390.512	109.75
390.736	93.75
390.961	100.75
391.186	81.75
391.411	88.75
391.636	91.75
391.86	78.75
392.085	84.75
392.31	83.75
392.534	84.75
392.759	104.75
392.984	73.75
393.208	91.75
393.433	91.75
393.658	94.75
393.882	77.75
394.107	75.75
394.331	88.75
394.556	98.75
394.78	91.75
395.005	82.75
395.229	89.75
395.454	81.75
395.678	99.75
395.903	61.75
396.127	81.75
396.352	95.75
396.576	76.75
396.801	103.75
397.025	77.75
397.249	87.75
397.474	85.75
397.698	89.75
397.922	83.75
398.147	88.75
398.371	93.75
398.595	100.75
398.82	88.75
399.044	79.75
399.268	88.75
399.492	89.75
399.717	90.75
399.941	85.75
400.165	85.75
400.389	88.75
400.613	77.75
400.837	93.75
401.062	88.75
401.286	103.75
401.51	84.75
401.734	100.75
401.958	85.75
402.182	93.75
402.406	84.75
402.63	90.75
402.854	92.75
403.078	90.75
403.302	84.75
403.526	74.75
403.75	93.75
403.974	70.75
404.198	88.75
404.422	89.75
404.645	81.75
404.869	88.75
405.093	79.75
405.317	83.75
405.541	86.75
405.765	104.75
405.988	87.75
406.212	85.75
406.436	81.75
406.66	104.75
406.883	115.75
407.107	81.75
407.331	77.75
407.555	87.75
407.778	89.75
408.002	87.75
408.226	79.75
408.449	94.75
408.673	86.75
408.896	78.75
409.12	97.75
409.344	81.75
409.567	95.75
409.791	86.75
410.014	86.75
410.238	85.75
410.461	96.75
410.685	90.75
410.908	106.75
411.132	109.75
411.355	99.75
411.578	97.75
411.802	105.75
412.025	82.75
412.249	88.75
412.472	87.75
412.695	87.75
412.919	94.75
413.142	92.75
413.365	105.75
413.589	80.75
413.812	75.75
414.035	105.75
414.258	73.75
414.482	88.75
414.705	95.75
414.928	99.75
415.151	86.75
415.374	83.75
415.597	92.75
415.821	93.75
416.044	89.75
416.267	96.75
416.49	85.75
416.713	75.75
416.936	103.75
417.159	98.75
417.382	93.75
417.605	78.75
417.828	91.75
418.051	82.75
418.274	81.75
418.497	104.75
418.72	84.75
418.943	91.75
419.166	97.75
419.389	94.75
419.611	93.75
419.834	95.75
420.057	95.75
420.28	80.75
420.503	102.75
420.726	84.75
420.948	81.75
421.171	93.75
421.394	93.75
421.617	93.75
421.839	92.75
422.062	102.75
422.285	103.75
422.507	102.75
422.73	92.75
422.953	89.75
423.175	95.75
423.398	95.75
423.621	84.75
423.843	80.75
424.066	89.75
424.288	98.75
424.511	77.75
424.733	100.75
424.956	95.75
425.178	100.75
425.401	91.75
425.623	91.75
425.846	80.75
426.068	92.75
426.291	84.75
426.513	101.75
426.735	103.75
426.958	79.75
427.18	99.75
427.402	89.75
427.625	77.75
427.847	96.75
428.069	85.75
428.292	94.75
428.514	83.75
428.736	83.75
428.958	97.75
429.181	79.75
429.403	88.75
429.625	94.75
429.847	91.75
430.069	87.75
430.292	87.75
430.514	88.75
430.736	87.75
430.958	91.75
431.18	93.75
431.402	77.75
431.624	75.75
431.846	82.75
432.068	91.75
432.29	76.75
432.512	87.75
432.734	103.75
432.956	89.75
433.178	94.75
433.4	85.75
433.622	102.75
433.844	116.75
434.066	100.75
434.287	93.75
434.509	77.75
434.731	96.75
434.953	90.75
435.175	94.75
435.397	99.75
435.618	82.75
435.84	104.75
436.062	84.75
436.284	93.75
436.505	111.75
436.727	96.75
436.949	102.75
437.17	87.75
437.392	85.75
437.614	89.75
437.835	87.75
438.057	103.75
438.278	87.75
438.5	87.75
438.721	93.75
438.943	88.75
439.165	90.75
439.386	95.75
439.608	100.75
439.829	96.75
440.05	85.75
440.272	101.75
440.493	97.75
440.715	92.75
440.936	95.75
441.158	86.75
441.379	95.75
441.6	89.75
441.822	93.75
442.043	86.75
442.264	90.75
442.486	91.75
442.707	86.75
442.928	102.75
443.149	95.75
443.371	85.75
443.592	110.75
443.813	85.75
444.034	76.75
444.255	83.75
444.476	102.75
444.698	99.75
444.919	105.75
445.14	231.75
445.361	155.75
445.582	99.75
445.803	100.75
446.024	88.75
446.245	101.75
446.466	102.75
446.687	103.75
446.908	95.75
447.129	95.75
447.35	93.75
447.571	100.75
447.792	106.75
448.013	101.75
448.234	101.75
448.455	86.75
448.675	99.75
448.896	93.75
449.117	89.75
449.338	88.75
449.559	90.75
449.779	94.75
450	94.75
450.221	96.75
450.442	87.75
450.662	90.75
450.883	78.75
451.104	90.75
451.324	105.75
451.545	87.75
451.766	82.75
451.986	110.75
452.207	87.75
452.428	91.75
452.648	99.75
452.869	93.75
453.089	79.75
453.31	88.75
453.53	84.75
453.751	94.75
453.971	87.75
454.192	84.75
454.412	80.75
454.633	93.75
454.853	103.75
455.073	96.75
455.294	83.75
455.514	81.75
455.734	88.75
455.955	115.75
456.175	102.75
456.395	88.75
456.616	87.75
456.836	97.75
457.056	81.75
457.276	103.75
457.497	82.75
457.717	94.75
457.937	77.75
458.157	100.75
458.377	85.75
458.598	90.75
458.818	76.75
459.038	76.75
459.258	91.75
459.478	81.75
459.698	100.75
459.918	88.75
460.138	91.75
460.358	91.75
460.578	86.75
460.798	89.75
461.018	81.75
461.238	71.75
461.458	87.75
461.678	81.75
461.898	82.75
462.118	84.75
462.338	95.75
462.558	98.75
462.777	82.75
462.997	100.75
463.217	87.75
463.437	89.75
463.657	82.75
463.876	91.75
464.096	93.75
464.316	87.75
464.536	94.75
464.755	96.75
464.975	87.75
465.195	92.75
465.414	90.75
465.634	90.75
465.854	97.75
466.073	96.75
466.293	87.75
466.512	91.75
466.732	86.75
466.951	89.75
467.171	104.75
467.391	100.75
467.61	87.75
467.829	89.75
468.049	94.75
468.268	91.75
468.488	93.75
468.707	96.75
468.927	81.75
469.146	103.75
469.365	93.75
469.585	103.75
469.804	95.75
470.023	96.75
470.243	72.75
470.462	99.75
470.681	90.75
470.901	96.75
471.12	109.75
471.339	98.75
471.558	84.75
471.777	84.75
471.997	92.75
472.216	78.75
472.435	100.75
472.654	100.75
472.873	94.75
473.092	90.75
473.311	75.75
473.53	107.75
473.749	95.75
473.968	79.75
474.187	82.75
474.406	87.75
474.625	87.75
474.844	105.75
475.063	96.75
475.282	91.75
475.501	94.75
475.72	92.75
475.939	101.75
476.158	95.75
476.377	90.75
476.596	96.75
476.814	93.75
477.033	86.75
477.252	83.75
477.471	87.75
477.69	101.75
477.908	92.75
478.127	103.75
478.346	107.75
478.564	92.75
478.783	100.75
479.002	92.75
479.22	80.75
479.439	100.75
479.658	97.75
479.876	95.75
480.095	96.75
480.313	94.75
480.532	103.75
480.751	88.75
480.969	86.75
481.188	96.75
481.406	92.75
481.624	85.75
481.843	88.75
482.061	94.75
482.28	78.75
482.498	88.75
482.717	80.75
482.935	101.75
483.153	89.75
483.372	99.75
483.59	95.75
483.808	87.75
484.027	80.75
484.245	100.75
484.463	106.75
484.681	96.75
484.9	92.75
485.118	92.75
485.336	84.75
485.554	103.75
485.772	90.75
485.99	97.75
486.209	87.75
486.427	70.75
486.645	82.75
486.863	93.75
487.081	104.75
487.299	93.75
487.517	94.75
487.735	95.75
487.953	99.75
488.171	74.75
488.389	106.75
488.607	96.75
488.825	87.75
489.043	107.75
489.261	110.75
489.479	95.75
489.696	103.75
489.914	99.75
490.132	79.75
490.35	102.75
490.568	101.75
490.786	112.75
491.003	104.75
491.221	113.75
491.439	91.75
491.657	111.75
491.874	104.75
492.092	114.75
492.31	117.75
492.527	103.75
492.745	106.75
492.963	105.75
493.18	103.75
493.398	109.75
493.615	97.75
493.833	94.75
494.05	86.75
494.268	92.75
494.485	87.75
494.703	99.75
494.92	99.75
495.138	115.75
495.355	99.75
495.573	102.75
495.79	106.75
496.008	92.75
496.225	99.75
496.442	85.75
496.66	95.75
496.877	110.75
497.094	102.75
497.312	114.75
497.529	107.75
497.746	106.75
497.963	83.75
498.181	80.75
498.398	95.75
498.615	87.75
498.832	105.75
499.049	105.75
499.267	90.75
499.484	98.75
499.701	92.75
499.918	93.75
500.135	87.75
500.352	97.75
500.569	99.75
500.786	115.75
501.003	103.75
501.22	95.75
501.437	87.75
501.654	102.75
501.871	85.75
502.088	96.75
502.305	88.75
502.522	86.75
502.739	108.75
502.956	81.75
503.172	103.75
503.389	86.75
503.606	105.75
503.823	88.75
504.04	110.75
504.256	86.75
504.473	88.75
504.69	76.75
504.907	89.75
505.123	86.75
505.34	93.75
505.557	95.75
505.773	101.75
505.99	93.75
506.207	91.75
506.423	107.75
506.64	97.75
506.856	88.75
507.073	92.75
507.289	79.75
507.506	103.75
507.722	98.75
507.939	89.75
508.155	104.75
508.372	91.75
508.588	91.75
508.805	80.75
509.021	85.75
509.238	92.75
509.454	86.75
509.67	82.75
509.887	95.75
510.103	91.75
510.319	79.75
510.536	100.75
510.752	81.75
510.968	95.75
511.184	91.75
511.401	88.75
511.617	95.75
511.833	73.75
512.049	94.75
512.265	75.75
512.481	78.75
512.698	96.75
512.914	71.75
513.13	75.75
513.346	75.75
513.562	83.75
513.778	91.75
513.994	83.75
514.21	92.75
514.426	93.75
514.642	94.75
514.858	80.75
515.074	81.75
515.29	82.75
515.506	89.75
515.721	94.75
515.937	88.75
516.153	93.75
516.369	94.75
516.585	87.75
516.801	84.75
517.016	78.75
517.232	79.75
517.448	87.75
517.664	80.75
517.879	76.75
518.095	93.75
518.311	89.75
518.527	92.75
518.742	92.75
518.958	96.75
519.173	94.75
519.389	91.75
519.605	81.75
519.82	95.75
520.036	94.75
520.251	75.75
520.467	82.75
520.682	89.75
520.898	80.75
521.113	76.75
521.329	86.75
521.544	73.75
521.76	87.75
521.975	83.75
522.19	90.75
522.406	92.75
522.621	85.75
522.836	80.75
523.052	83.75
523.267	94.75
523.482	93.75
523.698	95.75
523.913	88.75
524.128	99.75
524.343	100.75
524.559	100.75
524.774	82.75
524.989	89.75
525.204	102.75
525.419	93.75
525.634	101.75
525.849	89.75
526.064	90.75
526.28	80.75
526.495	85.75
526.71	71.75
526.925	81.75
527.14	80.75
527.355	81.75
527.57	94.75
527.785	85.75
527.999	90.75
528.214	78.75
528.429	96.75
528.644	91.75
528.859	92.75
529.074	103.75
529.289	81.75
529.503	100.75
529.718	100.75
529.933	99.75
530.148	69.75
530.363	97.75
530.577	80.75
530.792	80.75
531.007	75.75
531.221	87.75
531.436	98.75
531.651	82.75
531.865	75.75
532.08	95.75
532.295	101.75
532.509	95.75
532.724	82.75
532.938	94.75
533.153	98.75
533.367	85.75
533.582	88.75
533.796	105.75
534.011	88.75
534.225	92.75
534.44	101.75
534.654	90.75
534.868	86.75
535.083	81.75
535.297	82.75
535.511	84.75
535.726	83.75
535.94	90.75
536.154	92.75
536.369	92.75
536.583	84.75
536.797	83.75
537.011	95.75
537.225	79.75
537.44	99.75
537.654	85.75
537.868	84.75
538.082	77.75
538.296	103.75
538.51	93.75
538.724	89.75
538.938	90.75
539.153	92.75
539.367	99.75
539.581	100.75
539.795	90.75
540.009	71.75
540.222	94.75
540.436	99.75
540.65	110.75
540.864	80.75
541.078	89.75
541.292	96.75
541.506	100.75
541.72	101.75
541.934	108.75
542.147	108.75
542.361	89.75
542.575	103.75
542.789	103.75
543.002	91.75
543.216	97.75
543.43	86.75
543.644	91.75
543.857	95.75
544.071	95.75
544.285	105.75
544.498	114.75
544.712	110.75
544.925	111.75
545.139	108.75
545.352	108.75
545.566	102.75
545.779	96.75
545.993	95.75
546.206	96.75
546.42	101.75
546.633	112.75
546.847	105.75
547.06	96.75
547.274	97.75
547.487	97.75
547.7	105.75
547.914	99.75
548.127	92.75
548.34	91.75
548.554	102.75
548.767	109.75
548.98	90.75
549.193	102.75
549.407	89.75
549.62	89.75
549.833	94.75
550.046	89.75
550.259	98.75
550.473	101.75
550.686	107.75
550.899	101.75
551.112	100.75
551.325	99.75
551.538	89.75
551.751	97.75
551.964	96.75
552.177	88.75
552.39	91.75
552.603	94.75
552.816	118.75
553.029	96.75
553.242	102.75
553.455	105.75
553.667	110.75
553.88	103.75
554.093	113.75
554.306	108.75
554.519	105.75
554.732	102.75
554.944	99.75
555.157	87.75
555.37	87.75
555.583	93.75
555.795	99.75
556.008	108.75
556.221	103.75
556.433	93.75
556.646	99.75
556.859	85.75
557.071	96.75
557.284	108.75
557.496	94.75
557.709	96.75
557.921	87.75
558.134	85.75
558.346	105.75
558.559	108.75
558.771	92.75
558.984	82.75
559.196	94.75
559.409	97.75
559.621	103.75
559.833	84.75
560.046	95.75
560.258	105.75
560.47	99.75
560.683	89.75
560.895	89.75
561.107	93.75
561.32	94.75
561.532	92.75
561.744	84.75
561.956	88.75
562.168	99.75
562.381	78.75
562.593	101.75
562.805	76.75
563.017	101.75
563.229	100.75
563.441	84.75
563.653	96.75
563.865	99.75
564.077	95.75
564.289	102.75
564.501	104.75
564.713	98.75
564.925	104.75
565.137	85.75
565.349	91.75
565.561	98.75
565.773	91.75
565.985	104.75
566.197	90.75
566.408	83.75
566.62	96.75
566.832	84.75
567.044	94.75
567.255	94.75
567.467	95.75
567.679	93.75
567.891	87.75
568.102	103.75
568.314	86.75
568.526	97.75
568.737	75.75
568.949	82.75
569.161	78.75
569.372	90.75
569.584	80.75
569.795	91.75
570.007	98.75
570.218	88.75
570.43	84.75
570.641	102.75
570.853	86.75
571.064	91.75
571.276	88.75
571.487	94.75
571.698	83.75
571.91	75.75
572.121	91.75
572.333	80.75
572.544	94.75
572.755	88.75
572.966	78.75
573.178	84.75
573.389	87.75
573.6	90.75
573.811	81.75
574.023	81.75
574.234	82.75
574.445	80.75
574.656	89.75
574.867	95.75
575.078	98.75
575.289	90.75
575.501	90.75
575.712	78.75
575.923	85.75
576.134	87.75
576.345	90.75
576.556	85.75
576.767	98.75
576.978	90.75
577.188	100.75
577.399	90.75
577.61	85.75
577.821	80.75
578.032	92.75
578.243	87.75
578.454	76.75
578.665	68.75
578.875	88.75
579.086	92.75
579.297	85.75
579.508	79.75
579.718	92.75
579.929	89.75
580.14	87.75
580.35	101.75
580.561	81.75
580.772	96.75
580.982	90.75
581.193	92.75
581.403	82.75
581.614	77.75
581.825	91.75
582.035	96.75
582.246	94.75
582.456	99.75
582.667	85.75
582.877	100.75
583.087	92.75
583.298	84.75
583.508	79.75
583.719	92.75
583.929	75.75
584.139	100.75
584.35	89.75
584.56	82.75
584.77	94.75
584.981	94.75
585.191	78.75
585.401	80.75
585.611	88.75
585.821	88.75
586.032	92.75
586.242	91.75
586.452	81.75
586.662	101.75
586.872	81.75
587.082	64.75
587.292	75.75
587.502	87.75
587.713	99.75
587.923	93.75
588.133	97.75
588.343	81.75
588.553	84.75
588.762	78.75
588.972	101.75
589.182	87.75
589.392	96.75
589.602	80.75
589.812	90.75
590.022	92.75
590.232	90.75
590.441	93.75
590.651	93.75
590.861	72.75
591.071	88.75
591.281	93.75
591.49	80.75
591.7	92.75
591.91	94.75
592.119	73.75
592.329	82.75
592.539	104.75
592.748	95.75
592.958	84.75
593.167	83.75
593.377	85.75
593.587	102.75
593.796	83.75
594.006	88.75
594.215	97.75
594.424	96.75
594.634	81.75
594.843	89.75
595.053	96.75
595.262	89.75
595.472	85.75
595.681	82.75
595.89	96.75
596.1	90.75
596.309	79.75
596.518	83.75
596.727	93.75
596.937	90.75
597.146	79.75
597.355	88.75
597.564	88.75
597.774	87.75
597.983	81.75
598.192	90.75
598.401	80.75
598.61	104.75
598.819	88.75
599.028	97.75
599.237	85.75
599.446	97.75
599.655	97.75
599.864	89.75
600.073	74.75
600.282	82.75
600.491	93.75
600.7	85.75
600.909	79.75
601.118	88.75
601.327	87.75
601.536	104.75
601.745	98.75
601.953	89.75
602.162	84.75
602.371	80.75
602.58	87.75
602.789	94.75
602.997	101.75
603.206	100.75
603.415	103.75
603.623	90.75
603.832	94.75
604.041	88.75
604.249	84.75
604.458	103.75
604.666	86.75
604.875	92.75
605.084	98.75
605.292	98.75
605.501	90.75
605.709	90.75
605.918	87.75
606.126	89.75
606.334	90.75
606.543	101.75
606.751	103.75
606.96	104.75
607.168	95.75
607.376	95.75
607.585	83.75
607.793	101.75
608.001	96.75
608.21	90.75
608.418	81.75
608.626	91.75
608.834	99.75
609.043	94.75
609.251	97.75
609.459	84.75
609.667	82.75
609.875	97.75
610.083	90.75
610.291	87.75
610.499	84.75
610.707	81.75
610.916	87.75
611.124	82.75
611.332	85.75
611.54	90.75
611.748	93.75
611.955	83.75
612.163	91.75
612.371	100.75
612.579	91.75
612.787	100.75
612.995	82.75
613.203	99.75
613.411	85.75
613.618	87.75
613.826	92.75
614.034	83.75
614.242	97.75
614.449	103.75
614.657	96.75
614.865	89.75
615.072	104.75
615.28	101.75
615.488	99.75
615.695	100.75
615.903	91.75
616.111	84.75
616.318	83.75
616.526	98.75
616.733	96.75
616.941	105.75
617.148	105.75
617.356	77.75
617.563	85.75
617.771	82.75
617.978	99.75
618.185	84.75
618.393	83.75
618.6	83.75
618.807	89.75
619.015	81.75
619.222	99.75
619.429	90.75
619.637	109.75
619.844	96.75
620.051	93.75
620.258	85.75
620.466	101.75
620.673	92.75
620.88	89.75
621.087	96.75
621.294	99.75
621.501	89.75
621.708	95.75
621.915	92.75
622.122	101.75
622.329	72.75
622.536	99.75
622.743	87.75
622.95	85.75
623.157	104.75
623.364	88.75
623.571	81.75
623.778	90.75
623.985	94.75
624.192	101.75
624.399	98.75
624.606	97.75
624.812	87.75
625.019	85.75
625.226	93.75
625.433	93.75
625.639	101.75
625.846	94.75
626.053	91.75
626.259	91.75
626.466	84.75
626.673	90.75
626.879	96.75
627.086	80.75
627.293	105.75
627.499	92.75
627.706	79.75
627.912	85.75
628.119	101.75
628.325	78.75
628.532	77.75
628.738	88.75
628.945	82.75
629.151	92.75
629.357	95.75
629.564	79.75
629.77	84.75
629.976	95.75
630.183	92.75
630.389	99.75
630.595	92.75
630.802	94.75
631.008	84.75
631.214	89.75
631.42	94.75
631.627	94.75
631.833	100.75
632.039	88.75
632.245	78.75
632.451	78.75
632.657	87.75
632.863	84.75
633.069	89.75
633.275	105.75
633.481	79.75
633.688	86.75
633.893	78.75
634.099	88.75
634.305	96.75
634.511	104.75
634.717	85.75
634.923	96.75
635.129	93.75
635.335	85.75
635.541	85.75
635.747	83.75
635.952	96.75
636.158	97.75
636.364	88.75
636.57	88.75
636.775	84.75
636.981	92.75
637.187	98.75
637.392	83.75
637.598	95.75
637.804	96.75
638.009	91.75
638.215	90.75
638.421	92.75
638.626	79.75
638.832	81.75
639.037	91.75
639.243	84.75
639.448	83.75
639.654	77.75
639.859	84.75
640.065	77.75
640.27	88.75
640.475	94.75
640.681	106.75
640.886	113.75
641.091	75.75
641.297	93.75
641.502	76.75
641.707	95.75
641.913	104.75
642.118	83.75
642.323	74.75
642.528	85.75
642.733	99.75
642.939	95.75
643.144	91.75
643.349	93.75
643.554	91.75
643.759	93.75
643.964	94.75
644.169	89.75
644.374	80.75
644.579	84.75
644.784	85.75
644.989	97.75
645.194	96.75
645.399	97.75
645.604	94.75
645.809	95.75
646.014	84.75
646.219	93.75
646.423	88.75
646.628	91.75
646.833	80.75
647.038	79.75
647.243	102.75
647.447	91.75
647.652	81.75
647.857	87.75
648.062	85.75
648.266	86.75
648.471	95.75
648.676	87.75
648.88	79.75
649.085	78.75
649.289	108.75
649.494	96.75
649.698	72.75
649.903	88.75
650.107	100.75
650.312	110.75
650.516	104.75
650.721	91.75
650.925	82.75
651.13	96.75
651.334	88.75
651.539	84.75
651.743	82.75
651.947	94.75
652.152	87.75
652.356	92.75
652.56	82.75
652.764	89.75
652.969	81.75
653.173	93.75
653.377	88.75
653.581	103.75
653.785	87.75
653.99	102.75
654.194	88.75
654.398	83.75
654.602	81.75
654.806	94.75
655.01	94.75
655.214	85.75
655.418	94.75
655.622	81.75
655.826	84.75
656.03	77.75
656.234	92.75
656.438	89.75
656.642	84.75
656.846	91.75
657.049	88.75
657.253	96.75
657.457	86.75
657.661	96.75
657.865	84.75
658.068	94.75
658.272	83.75
658.476	84.75
658.68	88.75
658.883	85.75
659.087	82.75
659.291	91.75
659.494	95.75
659.698	92.75
659.901	80.75
660.105	94.75
660.309	93.75
660.512	85.75
660.716	73.75
660.919	95.75
661.123	78.75
661.326	94.75
661.53	79.75
661.733	88.75
661.936	90.75
662.14	95.75
662.343	95.75
662.546	88.75
662.75	94.75
662.953	84.75
663.156	92.75
663.36	91.75
663.563	89.75
663.766	81.75
663.969	89.75
664.173	77.75
664.376	95.75
664.579	85.75
664.782	93.75
664.985	76.75
665.188	84.75
665.391	70.75
665.594	87.75
665.797	84.75
666	96.75
666.203	82.75
666.406	72.75
666.609	76.75
666.812	79.75
667.015	78.75
667.218	91.75
667.421	86.75
667.624	91.75
667.827	86.75
668.03	96.75
668.232	86.75
668.435	101.75
668.638	96.75
668.841	87.75
669.043	92.75
669.246	85.75
669.449	81.75
669.651	79.75
669.854	86.75
670.057	83.75
670.259	84.75
670.462	81.75
670.665	88.75
670.867	89.75
671.07	89.75
671.272	91.75
671.475	80.75
671.677	78.75
671.88	87.75
672.082	81.75
672.284	86.75
672.487	81.75
672.689	95.75
672.892	81.75
