Data from Zn(NO3)2Standard.Agarose3%.GreenCap.LampEnergy10E.O_HRD10591_15-07-33-946.txt Node
Date: Mon Jul 22 15:07:33 EDT 2019
User: cochatt
Spectrometer: HR+D1059
Trigger mode: 1
Integration Time (sec): 1.000000E-1
Scans to average: 1
Electric dark correction enabled: true
Nonlinearity correction enabled: false
Boxcar width: 0
XAxis mode: Wavelengths
Number of Pixels in Spectrum: 2048
>>>>>Begin Spectral Data<<<<<
223.165	-4.62
223.4	-4.62
223.635	-4.62
223.869	-20.62
224.104	-22.62
224.338	-22.62
224.573	-13.62
224.808	-8.62
225.042	-18.62
225.277	2.38
225.511	2.38
225.746	-2.62
225.98	-5.62
226.215	19.38
226.449	24.38
226.683	18.38
226.918	28.38
227.152	24.38
227.387	35.38
227.621	22.38
227.856	53.38
228.09	29.38
228.324	56.38
228.559	57.38
228.793	69.38
229.027	69.38
229.262	68.38
229.496	70.38
229.73	69.38
229.964	79.38
230.199	71.38
230.433	83.38
230.667	87.38
230.901	82.38
231.136	75.38
231.37	87.38
231.604	60.38
231.838	73.38
232.072	75.38
232.306	84.38
232.541	96.38
232.775	80.38
233.009	75.38
233.243	84.38
233.477	93.38
233.711	77.38
233.945	76.38
234.179	62.38
234.413	77.38
234.647	89.38
234.881	81.38
235.115	77.38
235.349	82.38
235.583	66.38
235.817	69.38
236.051	66.38
236.285	82.38
236.519	78.38
236.753	70.38
236.987	88.38
237.221	73.38
237.455	70.38
237.689	69.38
237.922	65.38
238.156	78.38
238.39	69.38
238.624	75.38
238.858	82.38
239.091	60.38
239.325	83.38
239.559	77.38
239.793	66.38
240.027	75.38
240.26	68.38
240.494	81.38
240.728	75.38
240.961	77.38
241.195	79.38
241.429	85.38
241.662	79.38
241.896	85.38
242.13	81.38
242.363	60.38
242.597	72.38
242.83	76.38
243.064	65.38
243.298	77.38
243.531	79.38
243.765	71.38
243.998	98.38
244.232	68.38
244.465	76.38
244.699	81.38
244.932	95.38
245.166	88.38
245.399	90.38
245.633	77.38
245.866	79.38
246.099	70.38
246.333	75.38
246.566	67.38
246.8	85.38
247.033	85.38
247.266	73.38
247.5	94.38
247.733	76.38
247.966	79.38
248.2	83.38
248.433	67.38
248.666	78.38
248.899	78.38
249.133	84.38
249.366	80.38
249.599	82.38
249.832	83.38
250.066	82.38
250.299	71.38
250.532	79.38
250.765	71.38
250.998	75.38
251.231	85.38
251.465	87.38
251.698	76.38
251.931	74.38
252.164	60.38
252.397	78.38
252.63	73.38
252.863	83.38
253.096	77.38
253.329	75.38
253.562	84.38
253.795	85.38
254.028	82.38
254.261	92.38
254.494	71.38
254.727	72.38
254.96	104.38
255.193	88.38
255.426	89.38
255.659	72.38
255.892	88.38
256.124	65.38
256.357	81.38
256.59	75.38
256.823	80.38
257.056	71.38
257.289	74.38
257.521	76.38
257.754	79.38
257.987	91.38
258.22	92.38
258.452	67.38
258.685	67.38
258.918	71.38
259.151	84.38
259.383	92.38
259.616	69.38
259.849	89.38
260.081	74.38
260.314	70.38
260.547	77.38
260.779	83.38
261.012	76.38
261.244	84.38
261.477	78.38
261.71	77.38
261.942	78.38
262.175	90.38
262.407	94.38
262.64	77.38
262.872	86.38
263.105	81.38
263.337	96.38
263.57	88.38
263.802	82.38
264.035	75.38
264.267	70.38
264.499	84.38
264.732	77.38
264.964	84.38
265.197	83.38
265.429	84.38
265.661	75.38
265.894	76.38
266.126	77.38
266.358	88.38
266.591	83.38
266.823	82.38
267.055	80.38
267.287	77.38
267.52	75.38
267.752	87.38
267.984	81.38
268.216	94.38
268.448	92.38
268.681	84.38
268.913	85.38
269.145	95.38
269.377	80.38
269.609	70.38
269.841	76.38
270.073	79.38
270.306	80.38
270.538	82.38
270.77	97.38
271.002	88.38
271.234	85.38
271.466	70.38
271.698	74.38
271.93	82.38
272.162	80.38
272.394	82.38
272.626	88.38
272.858	85.38
273.09	87.38
273.322	83.38
273.553	76.38
273.785	94.38
274.017	82.38
274.249	80.38
274.481	77.38
274.713	89.38
274.945	86.38
275.176	69.38
275.408	85.38
275.64	77.38
275.872	99.38
276.104	86.38
276.335	100.38
276.567	87.38
276.799	90.38
277.031	87.38
277.262	86.38
277.494	73.38
277.726	80.38
277.957	87.38
278.189	80.38
278.421	97.38
278.652	80.38
278.884	82.38
279.115	84.38
279.347	76.38
279.579	76.38
279.81	93.38
280.042	84.38
280.273	77.38
280.505	83.38
280.736	82.38
280.968	77.38
281.199	69.38
281.431	93.38
281.662	68.38
281.894	78.38
282.125	85.38
282.356	89.38
282.588	75.38
282.819	81.38
283.051	81.38
283.282	73.38
283.513	78.38
283.745	76.38
283.976	70.38
284.207	86.38
284.439	102.38
284.67	65.38
284.901	72.38
285.132	75.38
285.364	77.38
285.595	92.38
285.826	84.38
286.057	85.38
286.288	75.38
286.52	84.38
286.751	81.38
286.982	89.38
287.213	86.38
287.444	90.38
287.675	83.38
287.906	67.38
288.138	92.38
288.369	97.38
288.6	99.38
288.831	88.38
289.062	90.38
289.293	79.38
289.524	76.38
289.755	90.38
289.986	87.38
290.217	80.38
290.448	93.38
290.679	87.38
290.91	74.38
291.141	80.38
291.371	87.38
291.602	84.38
291.833	91.38
292.064	76.38
292.295	90.38
292.526	83.38
292.757	87.38
292.987	93.38
293.218	80.38
293.449	101.38
293.68	84.38
293.91	81.38
294.141	92.38
294.372	90.38
294.603	94.38
294.833	95.38
295.064	79.38
295.295	79.38
295.525	75.38
295.756	79.38
295.987	87.38
296.217	90.38
296.448	89.38
296.679	76.38
296.909	81.38
297.14	87.38
297.37	84.38
297.601	79.38
297.831	75.38
298.062	82.38
298.292	84.38
298.523	93.38
298.753	80.38
298.984	97.38
299.214	79.38
299.445	71.38
299.675	86.38
299.905	90.38
300.136	71.38
300.366	90.38
300.597	81.38
300.827	83.38
301.057	75.38
301.288	79.38
301.518	86.38
301.748	89.38
301.979	81.38
302.209	72.38
302.439	70.38
302.669	88.38
302.9	95.38
303.13	88.38
303.36	89.38
303.59	98.38
303.82	97.38
304.051	90.38
304.281	92.38
304.511	87.38
304.741	97.38
304.971	106.38
305.201	77.38
305.431	79.38
305.661	86.38
305.891	100.38
306.121	83.38
306.352	88.38
306.582	77.38
306.812	90.38
307.042	81.38
307.272	88.38
307.502	90.38
307.731	93.38
307.961	83.38
308.191	78.38
308.421	89.38
308.651	80.38
308.881	83.38
309.111	87.38
309.341	88.38
309.571	75.38
309.8	76.38
310.03	81.38
310.26	77.38
310.49	75.38
310.72	87.38
310.949	71.38
311.179	91.38
311.409	99.38
311.639	83.38
311.868	83.38
312.098	76.38
312.328	86.38
312.557	73.38
312.787	94.38
313.017	86.38
313.246	87.38
313.476	84.38
313.706	75.38
313.935	82.38
314.165	95.38
314.394	80.38
314.624	93.38
314.853	76.38
315.083	92.38
315.312	70.38
315.542	84.38
315.771	96.38
316.001	67.38
316.23	85.38
316.46	80.38
316.689	80.38
316.919	86.38
317.148	89.38
317.377	80.38
317.607	94.38
317.836	96.38
318.065	86.38
318.295	86.38
318.524	78.38
318.753	85.38
318.983	90.38
319.212	74.38
319.441	84.38
319.67	91.38
319.9	83.38
320.129	81.38
320.358	95.38
320.587	92.38
320.816	88.38
321.046	91.38
321.275	76.38
321.504	76.38
321.733	74.38
321.962	82.38
322.191	85.38
322.42	75.38
322.649	85.38
322.878	91.38
323.108	89.38
323.337	91.38
323.566	81.38
323.795	74.38
324.024	81.38
324.253	81.38
324.482	87.38
324.71	80.38
324.939	85.38
325.168	85.38
325.397	96.38
325.626	87.38
325.855	83.38
326.084	92.38
326.313	93.38
326.542	82.38
326.77	90.38
326.999	80.38
327.228	96.38
327.457	75.38
327.686	91.38
327.914	88.38
328.143	98.38
328.372	74.38
328.6	67.38
328.829	81.38
329.058	78.38
329.287	77.38
329.515	76.38
329.744	84.38
329.972	85.38
330.201	84.38
330.43	79.38
330.658	90.38
330.887	84.38
331.115	91.38
331.344	79.38
331.572	82.38
331.801	80.38
332.03	86.38
332.258	77.38
332.486	76.38
332.715	82.38
332.943	77.38
333.172	88.38
333.4	93.38
333.629	95.38
333.857	99.38
334.085	88.38
334.314	103.38
334.542	84.38
334.771	84.38
334.999	84.38
335.227	84.38
335.455	86.38
335.684	96.38
335.912	82.38
336.14	88.38
336.369	90.38
336.597	88.38
336.825	84.38
337.053	92.38
337.281	87.38
337.51	89.38
337.738	73.38
337.966	76.38
338.194	82.38
338.422	92.38
338.65	89.38
338.878	92.38
339.106	96.38
339.334	96.38
339.562	85.38
339.79	95.38
340.018	80.38
340.246	86.38
340.474	79.38
340.702	80.38
340.93	83.38
341.158	88.38
341.386	78.38
341.614	86.38
341.842	85.38
342.07	74.38
342.298	84.38
342.526	94.38
342.754	72.38
342.981	72.38
343.209	77.38
343.437	90.38
343.665	76.38
343.893	76.38
344.12	86.38
344.348	81.38
344.576	91.38
344.804	80.38
345.031	86.38
345.259	84.38
345.487	77.38
345.714	83.38
345.942	95.38
346.17	77.38
346.397	84.38
346.625	89.38
346.853	89.38
347.08	88.38
347.308	90.38
347.535	92.38
347.763	77.38
347.99	89.38
348.218	91.38
348.445	87.38
348.673	96.38
348.9	83.38
349.128	74.38
349.355	89.38
349.583	88.38
349.81	86.38
350.037	71.38
350.265	88.38
350.492	92.38
350.72	96.38
350.947	79.38
351.174	95.38
351.402	93.38
351.629	85.38
351.856	85.38
352.083	88.38
352.311	92.38
352.538	61.38
352.765	84.38
352.992	88.38
353.22	82.38
353.447	77.38
353.674	90.38
353.901	78.38
354.128	88.38
354.355	76.38
354.583	81.38
354.81	81.38
355.037	78.38
355.264	87.38
355.491	91.38
355.718	83.38
355.945	88.38
356.172	83.38
356.399	76.38
356.626	70.38
356.853	81.38
357.08	77.38
357.307	72.38
357.534	95.38
357.761	90.38
357.988	91.38
358.215	77.38
358.441	96.38
358.668	88.38
358.895	65.38
359.122	80.38
359.349	83.38
359.576	81.38
359.802	76.38
360.029	67.38
360.256	77.38
360.483	82.38
360.709	76.38
360.936	94.38
361.163	84.38
361.39	86.38
361.616	90.38
361.843	78.38
362.07	78.38
362.296	73.38
362.523	88.38
362.749	68.38
362.976	77.38
363.203	94.38
363.429	77.38
363.656	89.38
363.882	87.38
364.109	77.38
364.335	84.38
364.562	86.38
364.788	100.38
365.015	76.38
365.241	81.38
365.468	90.38
365.694	79.38
365.92	71.38
366.147	92.38
366.373	97.38
366.599	79.38
366.826	85.38
367.052	100.38
367.278	91.38
367.505	81.38
367.731	89.38
367.957	77.38
368.184	95.38
368.41	83.38
368.636	106.38
368.862	86.38
369.089	88.38
369.315	75.38
369.541	82.38
369.767	76.38
369.993	87.38
370.219	105.38
370.445	98.38
370.672	81.38
370.898	83.38
371.124	91.38
371.35	76.38
371.576	81.38
371.802	99.38
372.028	109.38
372.254	77.38
372.48	85.38
372.706	93.38
372.932	93.38
373.158	101.38
373.384	97.38
373.61	90.38
373.835	92.38
374.061	95.38
374.287	93.38
374.513	99.38
374.739	96.38
374.965	84.38
375.191	83.38
375.416	80.38
375.642	96.38
375.868	69.38
376.094	84.38
376.319	81.38
376.545	85.38
376.771	92.38
376.997	94.38
377.222	80.38
377.448	92.38
377.674	99.38
377.899	88.38
378.125	94.38
378.35	86.38
378.576	86.38
378.802	92.38
379.027	95.38
379.253	85.38
379.478	91.38
379.704	93.38
379.929	90.38
380.155	82.38
380.38	71.38
380.606	75.38
380.831	98.38
381.057	100.38
381.282	90.38
381.507	96.38
381.733	103.38
381.958	101.38
382.184	99.38
382.409	88.38
382.634	86.38
382.86	87.38
383.085	80.38
383.31	96.38
383.535	84.38
383.761	78.38
383.986	92.38
384.211	80.38
384.436	79.38
384.662	85.38
384.887	96.38
385.112	83.38
385.337	86.38
385.562	90.38
385.787	84.38
386.013	90.38
386.238	74.38
386.463	85.38
386.688	68.38
386.913	90.38
387.138	81.38
387.363	90.38
387.588	103.38
387.813	98.38
388.038	93.38
388.263	91.38
388.488	84.38
388.713	82.38
388.938	102.38
389.163	89.38
389.387	99.38
389.612	90.38
389.837	77.38
390.062	103.38
390.287	78.38
390.512	90.38
390.736	76.38
390.961	91.38
391.186	98.38
391.411	103.38
391.636	91.38
391.86	85.38
392.085	87.38
392.31	74.38
392.534	90.38
392.759	90.38
392.984	95.38
393.208	95.38
393.433	98.38
393.658	82.38
393.882	107.38
394.107	95.38
394.331	100.38
394.556	98.38
394.78	93.38
395.005	83.38
395.229	91.38
395.454	87.38
395.678	86.38
395.903	101.38
396.127	79.38
396.352	97.38
396.576	92.38
396.801	95.38
397.025	92.38
397.249	101.38
397.474	89.38
397.698	103.38
397.922	99.38
398.147	83.38
398.371	101.38
398.595	92.38
398.82	88.38
399.044	79.38
399.268	116.38
399.492	81.38
399.717	103.38
399.941	87.38
400.165	91.38
400.389	96.38
400.613	96.38
400.837	89.38
401.062	93.38
401.286	93.38
401.51	100.38
401.734	86.38
401.958	101.38
402.182	97.38
402.406	94.38
402.63	92.38
402.854	92.38
403.078	95.38
403.302	90.38
403.526	99.38
403.75	96.38
403.974	114.38
404.198	106.38
404.422	97.38
404.645	108.38
404.869	100.38
405.093	106.38
405.317	105.38
405.541	92.38
405.765	96.38
405.988	98.38
406.212	114.38
406.436	88.38
406.66	101.38
406.883	103.38
407.107	91.38
407.331	104.38
407.555	93.38
407.778	102.38
408.002	115.38
408.226	105.38
408.449	103.38
408.673	104.38
408.896	103.38
409.12	98.38
409.344	103.38
409.567	97.38
409.791	90.38
410.014	89.38
410.238	89.38
410.461	102.38
410.685	96.38
410.908	93.38
411.132	106.38
411.355	96.38
411.578	91.38
411.802	113.38
412.025	105.38
412.249	89.38
412.472	91.38
412.695	99.38
412.919	92.38
413.142	104.38
413.365	88.38
413.589	108.38
413.812	108.38
414.035	112.38
414.258	106.38
414.482	95.38
414.705	103.38
414.928	100.38
415.151	111.38
415.374	99.38
415.597	109.38
415.821	111.38
416.044	97.38
416.267	103.38
416.49	104.38
416.713	99.38
416.936	100.38
417.159	86.38
417.382	115.38
417.605	100.38
417.828	105.38
418.051	116.38
418.274	95.38
418.497	104.38
418.72	106.38
418.943	106.38
419.166	108.38
419.389	104.38
419.611	113.38
419.834	103.38
420.057	104.38
420.28	111.38
420.503	111.38
420.726	100.38
420.948	110.38
421.171	100.38
421.394	93.38
421.617	96.38
421.839	111.38
422.062	104.38
422.285	96.38
422.507	95.38
422.73	111.38
422.953	95.38
423.175	105.38
423.398	108.38
423.621	95.38
423.843	100.38
424.066	116.38
424.288	112.38
424.511	100.38
424.733	111.38
424.956	103.38
425.178	98.38
425.401	111.38
425.623	100.38
425.846	114.38
426.068	111.38
426.291	113.38
426.513	103.38
426.735	102.38
426.958	109.38
427.18	93.38
427.402	103.38
427.625	108.38
427.847	115.38
428.069	115.38
428.292	104.38
428.514	106.38
428.736	100.38
428.958	103.38
429.181	112.38
429.403	112.38
429.625	92.38
429.847	97.38
430.069	94.38
430.292	113.38
430.514	93.38
430.736	99.38
430.958	108.38
431.18	119.38
431.402	100.38
431.624	101.38
431.846	95.38
432.068	84.38
432.29	76.38
432.512	83.38
432.734	97.38
432.956	106.38
433.178	107.38
433.4	99.38
433.622	116.38
433.844	97.38
434.066	102.38
434.287	96.38
434.509	80.38
434.731	85.38
434.953	87.38
435.175	89.38
435.397	101.38
435.618	108.38
435.84	97.38
436.062	97.38
436.284	100.38
436.505	107.38
436.727	97.38
436.949	111.38
437.17	99.38
437.392	98.38
437.614	99.38
437.835	111.38
438.057	89.38
438.278	79.38
438.5	101.38
438.721	95.38
438.943	117.38
439.165	108.38
439.386	113.38
439.608	112.38
439.829	113.38
440.05	108.38
440.272	111.38
440.493	97.38
440.715	111.38
440.936	113.38
441.158	104.38
441.379	88.38
441.6	112.38
441.822	120.38
442.043	110.38
442.264	117.38
442.486	108.38
442.707	116.38
442.928	107.38
443.149	115.38
443.371	103.38
443.592	101.38
443.813	101.38
444.034	105.38
444.255	102.38
444.476	113.38
444.698	119.38
444.919	116.38
445.14	232.38
445.361	161.38
445.582	116.38
445.803	112.38
446.024	115.38
446.245	119.38
446.466	123.38
446.687	119.38
446.908	116.38
447.129	116.38
447.35	126.38
447.571	128.38
447.792	122.38
448.013	115.38
448.234	105.38
448.455	113.38
448.675	107.38
448.896	115.38
449.117	100.38
449.338	102.38
449.559	112.38
449.779	105.38
450	108.38
450.221	119.38
450.442	109.38
450.662	105.38
450.883	118.38
451.104	113.38
451.324	108.38
451.545	104.38
451.766	117.38
451.986	102.38
452.207	80.38
452.428	99.38
452.648	94.38
452.869	116.38
453.089	99.38
453.31	90.38
453.53	93.38
453.751	100.38
453.971	95.38
454.192	98.38
454.412	103.38
454.633	102.38
454.853	102.38
455.073	90.38
455.294	97.38
455.514	89.38
455.734	100.38
455.955	93.38
456.175	96.38
456.395	89.38
456.616	82.38
456.836	111.38
457.056	97.38
457.276	88.38
457.497	89.38
457.717	103.38
457.937	94.38
458.157	103.38
458.377	82.38
458.598	92.38
458.818	88.38
459.038	92.38
459.258	87.38
459.478	81.38
459.698	83.38
459.918	90.38
460.138	84.38
460.358	102.38
460.578	85.38
460.798	101.38
461.018	83.38
461.238	100.38
461.458	92.38
461.678	101.38
461.898	105.38
462.118	103.38
462.338	105.38
462.558	101.38
462.777	97.38
462.997	85.38
463.217	86.38
463.437	100.38
463.657	123.38
463.876	102.38
464.096	90.38
464.316	87.38
464.536	101.38
464.755	103.38
464.975	101.38
465.195	107.38
465.414	97.38
465.634	90.38
465.854	104.38
466.073	99.38
466.293	111.38
466.512	95.38
466.732	102.38
466.951	103.38
467.171	114.38
467.391	98.38
467.61	97.38
467.829	98.38
468.049	105.38
468.268	98.38
468.488	102.38
468.707	103.38
468.927	114.38
469.146	105.38
469.365	106.38
469.585	114.38
469.804	111.38
470.023	121.38
470.243	103.38
470.462	112.38
470.681	102.38
470.901	107.38
471.12	118.38
471.339	107.38
471.558	116.38
471.777	111.38
471.997	107.38
472.216	100.38
472.435	89.38
472.654	81.38
472.873	103.38
473.092	93.38
473.311	105.38
473.53	113.38
473.749	101.38
473.968	117.38
474.187	104.38
474.406	91.38
474.625	92.38
474.844	98.38
475.063	111.38
475.282	98.38
475.501	96.38
475.72	109.38
475.939	107.38
476.158	108.38
476.377	111.38
476.596	99.38
476.814	106.38
477.033	102.38
477.252	103.38
477.471	106.38
477.69	114.38
477.908	115.38
478.127	127.38
478.346	112.38
478.564	108.38
478.783	105.38
479.002	106.38
479.22	100.38
479.439	105.38
479.658	101.38
479.876	89.38
480.095	96.38
480.313	106.38
480.532	101.38
480.751	98.38
480.969	85.38
481.188	93.38
481.406	84.38
481.624	86.38
481.843	88.38
482.061	84.38
482.28	103.38
482.498	91.38
482.717	91.38
482.935	96.38
483.153	111.38
483.372	123.38
483.59	117.38
483.808	104.38
484.027	115.38
484.245	99.38
484.463	113.38
484.681	111.38
484.9	106.38
485.118	115.38
485.336	98.38
485.554	94.38
485.772	89.38
485.99	94.38
486.209	93.38
486.427	93.38
486.645	97.38
486.863	115.38
487.081	115.38
487.299	91.38
487.517	98.38
487.735	145.38
487.953	124.38
488.171	132.38
488.389	125.38
488.607	114.38
488.825	95.38
489.043	96.38
489.261	108.38
489.479	115.38
489.696	108.38
489.914	113.38
490.132	111.38
490.35	108.38
490.568	115.38
490.786	129.38
491.003	107.38
491.221	133.38
491.439	137.38
491.657	141.38
491.874	143.38
492.092	161.38
492.31	150.38
492.527	156.38
492.745	156.38
492.963	120.38
493.18	136.38
493.398	141.38
493.615	128.38
493.833	126.38
494.05	134.38
494.268	124.38
494.485	122.38
494.703	119.38
494.92	122.38
495.138	138.38
495.355	129.38
495.573	134.38
495.79	113.38
496.008	131.38
496.225	131.38
496.442	121.38
496.66	114.38
496.877	121.38
497.094	114.38
497.312	111.38
497.529	103.38
497.746	119.38
497.963	115.38
498.181	98.38
498.398	103.38
498.615	106.38
498.832	90.38
499.049	96.38
499.267	104.38
499.484	97.38
499.701	112.38
499.918	121.38
500.135	118.38
500.352	104.38
500.569	109.38
500.786	130.38
501.003	118.38
501.22	101.38
501.437	112.38
501.654	103.38
501.871	104.38
502.088	116.38
502.305	121.38
502.522	96.38
502.739	105.38
502.956	104.38
503.172	92.38
503.389	95.38
503.606	104.38
503.823	107.38
504.04	99.38
504.256	88.38
504.473	101.38
504.69	88.38
504.907	108.38
505.123	98.38
505.34	106.38
505.557	105.38
505.773	102.38
505.99	107.38
506.207	112.38
506.423	90.38
506.64	97.38
506.856	100.38
507.073	101.38
507.289	103.38
507.506	109.38
507.722	94.38
507.939	96.38
508.155	92.38
508.372	97.38
508.588	87.38
508.805	95.38
509.021	104.38
509.238	108.38
509.454	101.38
509.67	91.38
509.887	81.38
510.103	81.38
510.319	74.38
510.536	85.38
510.752	91.38
510.968	82.38
511.184	88.38
511.401	88.38
511.617	83.38
511.833	82.38
512.049	84.38
512.265	86.38
512.481	80.38
512.698	95.38
512.914	98.38
513.13	99.38
513.346	87.38
513.562	77.38
513.778	82.38
513.994	90.38
514.21	86.38
514.426	82.38
514.642	86.38
514.858	90.38
515.074	91.38
515.29	98.38
515.506	90.38
515.721	99.38
515.937	99.38
516.153	100.38
516.369	86.38
516.585	84.38
516.801	93.38
517.016	93.38
517.232	82.38
517.448	85.38
517.664	88.38
517.879	87.38
518.095	92.38
518.311	89.38
518.527	90.38
518.742	81.38
518.958	96.38
519.173	89.38
519.389	96.38
519.605	98.38
519.82	97.38
520.036	99.38
520.251	90.38
520.467	92.38
520.682	95.38
520.898	90.38
521.113	80.38
521.329	74.38
521.544	87.38
521.76	73.38
521.975	89.38
522.19	89.38
522.406	86.38
522.621	96.38
522.836	88.38
523.052	96.38
523.267	90.38
523.482	94.38
523.698	99.38
523.913	95.38
524.128	113.38
524.343	96.38
524.559	96.38
524.774	115.38
524.989	100.38
525.204	112.38
525.419	97.38
525.634	89.38
525.849	102.38
526.064	90.38
526.28	85.38
526.495	96.38
526.71	84.38
526.925	85.38
527.14	65.38
527.355	89.38
527.57	79.38
527.785	88.38
527.999	87.38
528.214	92.38
528.429	82.38
528.644	89.38
528.859	106.38
529.074	119.38
529.289	112.38
529.503	117.38
529.718	112.38
529.933	96.38
530.148	95.38
530.363	90.38
530.577	77.38
530.792	85.38
531.007	85.38
531.221	89.38
531.436	83.38
531.651	75.38
531.865	89.38
532.08	87.38
532.295	84.38
532.509	90.38
532.724	87.38
532.938	97.38
533.153	85.38
533.367	101.38
533.582	101.38
533.796	101.38
534.011	98.38
534.225	93.38
534.44	89.38
534.654	84.38
534.868	101.38
535.083	84.38
535.297	98.38
535.511	98.38
535.726	96.38
535.94	78.38
536.154	75.38
536.369	76.38
536.583	78.38
536.797	88.38
537.011	85.38
537.225	77.38
537.44	90.38
537.654	83.38
537.868	92.38
538.082	93.38
538.296	99.38
538.51	78.38
538.724	93.38
538.938	89.38
539.153	108.38
539.367	121.38
539.581	101.38
539.795	103.38
540.009	89.38
540.222	75.38
540.436	84.38
540.65	98.38
540.864	101.38
541.078	104.38
541.292	108.38
541.506	116.38
541.72	129.38
541.934	131.38
542.147	136.38
542.361	139.38
542.575	121.38
542.789	109.38
543.002	106.38
543.216	103.38
543.43	107.38
543.644	99.38
543.857	96.38
544.071	106.38
544.285	124.38
544.498	127.38
544.712	127.38
544.925	128.38
545.139	127.38
545.352	121.38
545.566	119.38
545.779	127.38
545.993	122.38
546.206	139.38
546.42	117.38
546.633	127.38
546.847	116.38
547.06	122.38
547.274	112.38
547.487	123.38
547.7	120.38
547.914	135.38
548.127	122.38
548.34	117.38
548.554	122.38
548.767	131.38
548.98	112.38
549.193	125.38
549.407	119.38
549.62	118.38
549.833	127.38
550.046	126.38
550.259	121.38
550.473	107.38
550.686	117.38
550.899	124.38
551.112	126.38
551.325	107.38
551.538	121.38
551.751	102.38
551.964	119.38
552.177	109.38
552.39	109.38
552.603	125.38
552.816	115.38
553.029	112.38
553.242	120.38
553.455	121.38
553.667	127.38
553.88	122.38
554.093	123.38
554.306	105.38
554.519	97.38
554.732	109.38
554.944	116.38
555.157	120.38
555.37	109.38
555.583	98.38
555.795	113.38
556.008	117.38
556.221	113.38
556.433	120.38
556.646	103.38
556.859	111.38
557.071	110.38
557.284	107.38
557.496	116.38
557.709	129.38
557.921	104.38
558.134	119.38
558.346	105.38
558.559	106.38
558.771	108.38
558.984	117.38
559.196	113.38
559.409	123.38
559.621	105.38
559.833	103.38
560.046	104.38
560.258	104.38
560.47	96.38
560.683	95.38
560.895	115.38
561.107	98.38
561.32	111.38
561.532	119.38
561.744	114.38
561.956	100.38
562.168	112.38
562.381	102.38
562.593	111.38
562.805	103.38
563.017	120.38
563.229	105.38
563.441	107.38
563.653	99.38
563.865	111.38
564.077	108.38
564.289	99.38
564.501	109.38
564.713	117.38
564.925	94.38
565.137	105.38
565.349	98.38
565.561	98.38
565.773	101.38
565.985	96.38
566.197	91.38
566.408	96.38
566.62	94.38
566.832	109.38
567.044	107.38
567.255	112.38
567.467	94.38
567.679	87.38
567.891	97.38
568.102	96.38
568.314	100.38
568.526	75.38
568.737	90.38
568.949	83.38
569.161	88.38
569.372	82.38
569.584	82.38
569.795	88.38
570.007	91.38
570.218	83.38
570.43	87.38
570.641	75.38
570.853	77.38
571.064	84.38
571.276	84.38
571.487	117.38
571.698	95.38
571.91	93.38
572.121	91.38
572.333	84.38
572.544	89.38
572.755	79.38
572.966	82.38
573.178	86.38
573.389	74.38
573.6	82.38
573.811	97.38
574.023	83.38
574.234	79.38
574.445	88.38
574.656	74.38
574.867	84.38
575.078	82.38
575.289	82.38
575.501	91.38
575.712	78.38
575.923	84.38
576.134	80.38
576.345	107.38
576.556	79.38
576.767	108.38
576.978	86.38
577.188	74.38
577.399	98.38
577.61	95.38
577.821	92.38
578.032	93.38
578.243	99.38
578.454	87.38
578.665	70.38
578.875	77.38
579.086	71.38
579.297	93.38
579.508	83.38
579.718	84.38
579.929	88.38
580.14	87.38
580.35	89.38
580.561	84.38
580.772	87.38
580.982	92.38
581.193	90.38
581.403	84.38
581.614	87.38
581.825	91.38
582.035	69.38
582.246	61.38
582.456	81.38
582.667	83.38
582.877	96.38
583.087	83.38
583.298	91.38
583.508	76.38
583.719	82.38
583.929	94.38
584.139	87.38
584.35	100.38
584.56	79.38
584.77	102.38
584.981	72.38
585.191	92.38
585.401	76.38
585.611	81.38
585.821	81.38
586.032	76.38
586.242	95.38
586.452	89.38
586.662	88.38
586.872	89.38
587.082	74.38
587.292	66.38
587.502	89.38
587.713	98.38
587.923	65.38
588.133	81.38
588.343	76.38
588.553	89.38
588.762	98.38
588.972	97.38
589.182	101.38
589.392	87.38
589.602	83.38
589.812	77.38
590.022	90.38
590.232	89.38
590.441	91.38
590.651	85.38
590.861	83.38
591.071	86.38
591.281	93.38
591.49	81.38
591.7	86.38
591.91	100.38
592.119	82.38
592.329	84.38
592.539	83.38
592.748	88.38
592.958	94.38
593.167	85.38
593.377	81.38
593.587	95.38
593.796	89.38
594.006	83.38
594.215	83.38
594.424	94.38
594.634	72.38
594.843	98.38
595.053	101.38
595.262	94.38
595.472	77.38
595.681	76.38
595.89	83.38
596.1	76.38
596.309	97.38
596.518	83.38
596.727	100.38
596.937	96.38
597.146	81.38
597.355	85.38
597.564	81.38
597.774	74.38
597.983	75.38
598.192	75.38
598.401	87.38
598.61	88.38
598.819	80.38
599.028	95.38
599.237	83.38
599.446	91.38
599.655	86.38
599.864	89.38
600.073	87.38
600.282	93.38
600.491	97.38
600.7	87.38
600.909	89.38
601.118	91.38
601.327	94.38
601.536	91.38
601.745	91.38
601.953	87.38
602.162	100.38
602.371	97.38
602.58	102.38
602.789	87.38
602.997	91.38
603.206	103.38
603.415	96.38
603.623	106.38
603.832	93.38
604.041	90.38
604.249	90.38
604.458	91.38
604.666	89.38
604.875	95.38
605.084	88.38
605.292	73.38
605.501	99.38
605.709	96.38
605.918	95.38
606.126	98.38
606.334	98.38
606.543	103.38
606.751	95.38
606.96	101.38
607.168	97.38
607.376	85.38
607.585	103.38
607.793	89.38
608.001	106.38
608.21	97.38
608.418	110.38
608.626	115.38
608.834	98.38
609.043	105.38
609.251	107.38
609.459	101.38
609.667	90.38
609.875	93.38
610.083	93.38
610.291	107.38
610.499	112.38
610.707	84.38
610.916	105.38
611.124	97.38
611.332	100.38
611.54	93.38
611.748	89.38
611.955	100.38
612.163	103.38
612.371	98.38
612.579	97.38
612.787	101.38
612.995	104.38
613.203	91.38
613.411	99.38
613.618	79.38
613.826	93.38
614.034	85.38
614.242	97.38
614.449	97.38
614.657	98.38
614.865	104.38
615.072	93.38
615.28	105.38
615.488	95.38
615.695	100.38
615.903	104.38
616.111	97.38
616.318	104.38
616.526	94.38
616.733	103.38
616.941	111.38
617.148	90.38
617.356	98.38
617.563	85.38
617.771	99.38
617.978	107.38
618.185	101.38
618.393	93.38
618.6	102.38
618.807	91.38
619.015	115.38
619.222	91.38
619.429	88.38
619.637	101.38
619.844	93.38
620.051	96.38
620.258	95.38
620.466	91.38
620.673	95.38
620.88	98.38
621.087	86.38
621.294	97.38
621.501	96.38
621.708	101.38
621.915	89.38
622.122	101.38
622.329	97.38
622.536	83.38
622.743	76.38
622.95	103.38
623.157	91.38
623.364	86.38
623.571	96.38
623.778	95.38
623.985	111.38
624.192	102.38
624.399	89.38
624.606	82.38
624.812	92.38
625.019	93.38
625.226	95.38
625.433	90.38
625.639	94.38
625.846	96.38
626.053	85.38
626.259	95.38
626.466	86.38
626.673	96.38
626.879	89.38
627.086	81.38
627.293	104.38
627.499	84.38
627.706	87.38
627.912	97.38
628.119	81.38
628.325	91.38
628.532	100.38
628.738	84.38
628.945	81.38
629.151	87.38
629.357	97.38
629.564	89.38
629.77	100.38
629.976	99.38
630.183	74.38
630.389	64.38
630.595	97.38
630.802	96.38
631.008	100.38
631.214	91.38
631.42	87.38
631.627	95.38
631.833	71.38
632.039	80.38
632.245	85.38
632.451	87.38
632.657	92.38
632.863	90.38
633.069	85.38
633.275	95.38
633.481	90.38
633.688	96.38
633.893	92.38
634.099	100.38
634.305	103.38
634.511	94.38
634.717	91.38
634.923	104.38
635.129	82.38
635.335	99.38
635.541	91.38
635.747	85.38
635.952	86.38
636.158	80.38
636.364	92.38
636.57	74.38
636.775	96.38
636.981	91.38
637.187	91.38
637.392	100.38
637.598	107.38
637.804	107.38
638.009	92.38
638.215	92.38
638.421	91.38
638.626	97.38
638.832	102.38
639.037	95.38
639.243	76.38
639.448	89.38
639.654	93.38
639.859	103.38
640.065	83.38
640.27	100.38
640.475	93.38
640.681	91.38
640.886	72.38
641.091	92.38
641.297	99.38
641.502	109.38
641.707	94.38
641.913	88.38
642.118	93.38
642.323	92.38
642.528	85.38
642.733	95.38
642.939	94.38
643.144	90.38
643.349	103.38
643.554	79.38
643.759	81.38
643.964	93.38
644.169	92.38
644.374	93.38
644.579	100.38
644.784	95.38
644.989	87.38
645.194	100.38
645.399	97.38
645.604	87.38
645.809	101.38
646.014	98.38
646.219	84.38
646.423	85.38
646.628	84.38
646.833	86.38
647.038	86.38
647.243	95.38
647.447	88.38
647.652	94.38
647.857	94.38
648.062	91.38
648.266	95.38
648.471	96.38
648.676	93.38
648.88	84.38
649.085	98.38
649.289	91.38
649.494	88.38
649.698	89.38
649.903	87.38
650.107	94.38
650.312	90.38
650.516	80.38
650.721	96.38
650.925	100.38
651.13	98.38
651.334	104.38
651.539	99.38
651.743	111.38
651.947	81.38
652.152	95.38
652.356	68.38
652.56	88.38
652.764	82.38
652.969	91.38
653.173	91.38
653.377	94.38
653.581	78.38
653.785	73.38
653.99	87.38
654.194	97.38
654.398	92.38
654.602	85.38
654.806	90.38
655.01	80.38
655.214	83.38
655.418	96.38
655.622	88.38
655.826	96.38
656.03	99.38
656.234	82.38
656.438	91.38
656.642	87.38
656.846	84.38
657.049	92.38
657.253	90.38
657.457	87.38
657.661	76.38
657.865	68.38
658.068	81.38
658.272	86.38
658.476	87.38
658.68	83.38
658.883	79.38
659.087	77.38
659.291	88.38
659.494	80.38
659.698	86.38
659.901	87.38
660.105	86.38
660.309	87.38
660.512	80.38
660.716	89.38
660.919	80.38
661.123	87.38
661.326	90.38
661.53	88.38
661.733	80.38
661.936	79.38
662.14	89.38
662.343	90.38
662.546	71.38
662.75	75.38
662.953	83.38
663.156	86.38
663.36	80.38
663.563	82.38
663.766	83.38
663.969	83.38
664.173	76.38
664.376	71.38
664.579	92.38
664.782	70.38
664.985	80.38
665.188	92.38
665.391	64.38
665.594	96.38
665.797	85.38
666	74.38
666.203	85.38
666.406	89.38
666.609	73.38
666.812	85.38
667.015	69.38
667.218	74.38
667.421	82.38
667.624	77.38
667.827	87.38
668.03	78.38
668.232	87.38
668.435	90.38
668.638	77.38
668.841	66.38
669.043	73.38
669.246	82.38
669.449	88.38
669.651	97.38
669.854	90.38
670.057	85.38
670.259	79.38
670.462	81.38
670.665	92.38
670.867	75.38
671.07	95.38
671.272	71.38
671.475	92.38
671.677	90.38
671.88	89.38
672.082	83.38
672.284	88.38
672.487	86.38
672.689	87.38
672.892	80.38
