Data from Zn(NO3)2Standard.Agarose3%.GreenCap.LampEnergy5.5.E.O_HRD10591_15-01-24-768.txt Node
Date: Mon Jul 22 15:01:24 EDT 2019
User: cochatt
Spectrometer: HR+D1059
Trigger mode: 1
Integration Time (sec): 1.000000E-1
Scans to average: 1
Electric dark correction enabled: true
Nonlinearity correction enabled: false
Boxcar width: 0
XAxis mode: Wavelengths
Number of Pixels in Spectrum: 2048
>>>>>Begin Spectral Data<<<<<
223.165	-21.12
223.4	-21.12
223.635	-21.12
223.869	-12.12
224.104	-15.12
224.338	-21.12
224.573	-16.12
224.808	-14.12
225.042	-8.12
225.277	-15.12
225.511	-5.12
225.746	5.88
225.98	11.88
226.215	23.88
226.449	21.88
226.683	21.88
226.918	22.88
227.152	19.88
227.387	26.88
227.621	37.88
227.856	48.88
228.09	51.88
228.324	44.88
228.559	61.88
228.793	70.88
229.027	72.88
229.262	63.88
229.496	72.88
229.73	65.88
229.964	76.88
230.199	81.88
230.433	67.88
230.667	85.88
230.901	78.88
231.136	81.88
231.37	84.88
231.604	95.88
231.838	90.88
232.072	86.88
232.306	72.88
232.541	92.88
232.775	84.88
233.009	86.88
233.243	78.88
233.477	69.88
233.711	80.88
233.945	78.88
234.179	71.88
234.413	85.88
234.647	85.88
234.881	82.88
235.115	75.88
235.349	87.88
235.583	87.88
235.817	81.88
236.051	81.88
236.285	85.88
236.519	61.88
236.753	79.88
236.987	68.88
237.221	68.88
237.455	85.88
237.689	67.88
237.922	81.88
238.156	83.88
238.39	79.88
238.624	73.88
238.858	81.88
239.091	85.88
239.325	83.88
239.559	75.88
239.793	76.88
240.027	71.88
240.26	72.88
240.494	90.88
240.728	80.88
240.961	86.88
241.195	93.88
241.429	84.88
241.662	84.88
241.896	89.88
242.13	65.88
242.363	81.88
242.597	72.88
242.83	74.88
243.064	77.88
243.298	82.88
243.531	64.88
243.765	73.88
243.998	77.88
244.232	68.88
244.465	85.88
244.699	70.88
244.932	96.88
245.166	81.88
245.399	95.88
245.633	85.88
245.866	84.88
246.099	87.88
246.333	76.88
246.566	97.88
246.8	91.88
247.033	74.88
247.266	97.88
247.5	78.88
247.733	85.88
247.966	93.88
248.2	94.88
248.433	79.88
248.666	82.88
248.899	90.88
249.133	79.88
249.366	86.88
249.599	95.88
249.832	88.88
250.066	81.88
250.299	84.88
250.532	76.88
250.765	85.88
250.998	76.88
251.231	80.88
251.465	80.88
251.698	76.88
251.931	76.88
252.164	85.88
252.397	80.88
252.63	86.88
252.863	83.88
253.096	81.88
253.329	75.88
253.562	84.88
253.795	92.88
254.028	91.88
254.261	87.88
254.494	93.88
254.727	78.88
254.96	85.88
255.193	87.88
255.426	87.88
255.659	85.88
255.892	83.88
256.124	76.88
256.357	81.88
256.59	92.88
256.823	74.88
257.056	93.88
257.289	77.88
257.521	86.88
257.754	87.88
257.987	77.88
258.22	88.88
258.452	96.88
258.685	87.88
258.918	76.88
259.151	61.88
259.383	91.88
259.616	91.88
259.849	77.88
260.081	85.88
260.314	85.88
260.547	77.88
260.779	93.88
261.012	72.88
261.244	78.88
261.477	73.88
261.71	75.88
261.942	79.88
262.175	90.88
262.407	92.88
262.64	84.88
262.872	88.88
263.105	85.88
263.337	81.88
263.57	83.88
263.802	92.88
264.035	94.88
264.267	96.88
264.499	101.88
264.732	86.88
264.964	93.88
265.197	81.88
265.429	77.88
265.661	97.88
265.894	89.88
266.126	81.88
266.358	85.88
266.591	63.88
266.823	89.88
267.055	93.88
267.287	79.88
267.52	72.88
267.752	85.88
267.984	88.88
268.216	92.88
268.448	71.88
268.681	87.88
268.913	80.88
269.145	96.88
269.377	83.88
269.609	79.88
269.841	86.88
270.073	93.88
270.306	75.88
270.538	69.88
270.77	89.88
271.002	88.88
271.234	92.88
271.466	83.88
271.698	78.88
271.93	95.88
272.162	87.88
272.394	96.88
272.626	81.88
272.858	88.88
273.09	65.88
273.322	83.88
273.553	80.88
273.785	78.88
274.017	88.88
274.249	94.88
274.481	88.88
274.713	96.88
274.945	92.88
275.176	80.88
275.408	93.88
275.64	71.88
275.872	73.88
276.104	93.88
276.335	91.88
276.567	88.88
276.799	85.88
277.031	88.88
277.262	73.88
277.494	78.88
277.726	75.88
277.957	93.88
278.189	97.88
278.421	80.88
278.652	77.88
278.884	69.88
279.115	95.88
279.347	87.88
279.579	82.88
279.81	84.88
280.042	84.88
280.273	80.88
280.505	80.88
280.736	75.88
280.968	94.88
281.199	79.88
281.431	68.88
281.662	100.88
281.894	93.88
282.125	80.88
282.356	75.88
282.588	82.88
282.819	77.88
283.051	93.88
283.282	83.88
283.513	77.88
283.745	79.88
283.976	96.88
284.207	89.88
284.439	78.88
284.67	83.88
284.901	82.88
285.132	75.88
285.364	93.88
285.595	84.88
285.826	68.88
286.057	97.88
286.288	99.88
286.52	98.88
286.751	101.88
286.982	90.88
287.213	83.88
287.444	92.88
287.675	77.88
287.906	83.88
288.138	93.88
288.369	102.88
288.6	90.88
288.831	84.88
289.062	85.88
289.293	103.88
289.524	90.88
289.755	82.88
289.986	91.88
290.217	77.88
290.448	71.88
290.679	96.88
290.91	93.88
291.141	92.88
291.371	89.88
291.602	81.88
291.833	78.88
292.064	92.88
292.295	87.88
292.526	92.88
292.757	76.88
292.987	92.88
293.218	81.88
293.449	87.88
293.68	86.88
293.91	89.88
294.141	82.88
294.372	73.88
294.603	85.88
294.833	87.88
295.064	87.88
295.295	86.88
295.525	84.88
295.756	85.88
295.987	84.88
296.217	86.88
296.448	88.88
296.679	93.88
296.909	95.88
297.14	105.88
297.37	91.88
297.601	88.88
297.831	94.88
298.062	96.88
298.292	98.88
298.523	89.88
298.753	88.88
298.984	87.88
299.214	99.88
299.445	85.88
299.675	80.88
299.905	92.88
300.136	86.88
300.366	92.88
300.597	96.88
300.827	88.88
301.057	100.88
301.288	89.88
301.518	84.88
301.748	71.88
301.979	105.88
302.209	87.88
302.439	92.88
302.669	87.88
302.9	87.88
303.13	96.88
303.36	101.88
303.59	94.88
303.82	75.88
304.051	86.88
304.281	85.88
304.511	86.88
304.741	92.88
304.971	104.88
305.201	81.88
305.431	87.88
305.661	91.88
305.891	72.88
306.121	96.88
306.352	95.88
306.582	97.88
306.812	98.88
307.042	89.88
307.272	95.88
307.502	96.88
307.731	99.88
307.961	81.88
308.191	93.88
308.421	95.88
308.651	83.88
308.881	90.88
309.111	98.88
309.341	91.88
309.571	85.88
309.8	83.88
310.03	93.88
310.26	77.88
310.49	84.88
310.72	81.88
310.949	89.88
311.179	85.88
311.409	84.88
311.639	97.88
311.868	85.88
312.098	85.88
312.328	91.88
312.557	92.88
312.787	91.88
313.017	86.88
313.246	85.88
313.476	83.88
313.706	95.88
313.935	85.88
314.165	100.88
314.394	84.88
314.624	86.88
314.853	78.88
315.083	94.88
315.312	97.88
315.542	100.88
315.771	78.88
316.001	91.88
316.23	87.88
316.46	82.88
316.689	93.88
316.919	86.88
317.148	86.88
317.377	97.88
317.607	85.88
317.836	83.88
318.065	68.88
318.295	82.88
318.524	86.88
318.753	94.88
318.983	96.88
319.212	103.88
319.441	83.88
319.67	92.88
319.9	80.88
320.129	101.88
320.358	96.88
320.587	90.88
320.816	81.88
321.046	92.88
321.275	87.88
321.504	87.88
321.733	89.88
321.962	90.88
322.191	91.88
322.42	89.88
322.649	89.88
322.878	92.88
323.108	84.88
323.337	81.88
323.566	88.88
323.795	103.88
324.024	85.88
324.253	86.88
324.482	94.88
324.71	85.88
324.939	78.88
325.168	89.88
325.397	94.88
325.626	102.88
325.855	89.88
326.084	78.88
326.313	71.88
326.542	79.88
326.77	87.88
326.999	106.88
327.228	85.88
327.457	91.88
327.686	88.88
327.914	81.88
328.143	89.88
328.372	83.88
328.6	80.88
328.829	70.88
329.058	84.88
329.287	74.88
329.515	78.88
329.744	105.88
329.972	89.88
330.201	92.88
330.43	103.88
330.658	87.88
330.887	79.88
331.115	89.88
331.344	89.88
331.572	87.88
331.801	88.88
332.03	82.88
332.258	94.88
332.486	71.88
332.715	82.88
332.943	97.88
333.172	95.88
333.4	85.88
333.629	78.88
333.857	95.88
334.085	95.88
334.314	83.88
334.542	96.88
334.771	83.88
334.999	80.88
335.227	84.88
335.455	78.88
335.684	87.88
335.912	97.88
336.14	82.88
336.369	78.88
336.597	91.88
336.825	90.88
337.053	83.88
337.281	88.88
337.51	89.88
337.738	88.88
337.966	94.88
338.194	86.88
338.422	92.88
338.65	85.88
338.878	89.88
339.106	87.88
339.334	101.88
339.562	86.88
339.79	73.88
340.018	92.88
340.246	82.88
340.474	79.88
340.702	89.88
340.93	72.88
341.158	78.88
341.386	100.88
341.614	100.88
341.842	91.88
342.07	72.88
342.298	75.88
342.526	70.88
342.754	85.88
342.981	89.88
343.209	90.88
343.437	96.88
343.665	84.88
343.893	85.88
344.12	93.88
344.348	87.88
344.576	80.88
344.804	86.88
345.031	104.88
345.259	80.88
345.487	91.88
345.714	82.88
345.942	95.88
346.17	80.88
346.397	81.88
346.625	87.88
346.853	99.88
347.08	88.88
347.308	93.88
347.535	99.88
347.763	88.88
347.99	87.88
348.218	88.88
348.445	92.88
348.673	87.88
348.9	85.88
349.128	79.88
349.355	88.88
349.583	89.88
349.81	88.88
350.037	96.88
350.265	95.88
350.492	83.88
350.72	90.88
350.947	96.88
351.174	84.88
351.402	90.88
351.629	99.88
351.856	88.88
352.083	81.88
352.311	78.88
352.538	87.88
352.765	104.88
352.992	95.88
353.22	94.88
353.447	102.88
353.674	88.88
353.901	98.88
354.128	79.88
354.355	85.88
354.583	88.88
354.81	77.88
355.037	84.88
355.264	83.88
355.491	111.88
355.718	78.88
355.945	95.88
356.172	91.88
356.399	80.88
356.626	80.88
356.853	81.88
357.08	78.88
357.307	89.88
357.534	80.88
357.761	88.88
357.988	84.88
358.215	84.88
358.441	75.88
358.668	100.88
358.895	96.88
359.122	87.88
359.349	74.88
359.576	89.88
359.802	85.88
360.029	82.88
360.256	92.88
360.483	85.88
360.709	85.88
360.936	86.88
361.163	71.88
361.39	98.88
361.616	85.88
361.843	87.88
362.07	78.88
362.296	85.88
362.523	79.88
362.749	75.88
362.976	87.88
363.203	86.88
363.429	88.88
363.656	94.88
363.882	94.88
364.109	86.88
364.335	82.88
364.562	96.88
364.788	91.88
365.015	89.88
365.241	95.88
365.468	88.88
365.694	93.88
365.92	98.88
366.147	81.88
366.373	89.88
366.599	97.88
366.826	91.88
367.052	90.88
367.278	84.88
367.505	77.88
367.731	87.88
367.957	99.88
368.184	81.88
368.41	78.88
368.636	93.88
368.862	74.88
369.089	87.88
369.315	87.88
369.541	92.88
369.767	98.88
369.993	101.88
370.219	83.88
370.445	76.88
370.672	77.88
370.898	81.88
371.124	86.88
371.35	96.88
371.576	87.88
371.802	87.88
372.028	92.88
372.254	89.88
372.48	81.88
372.706	81.88
372.932	70.88
373.158	91.88
373.384	78.88
373.61	93.88
373.835	92.88
374.061	92.88
374.287	74.88
374.513	93.88
374.739	94.88
374.965	84.88
375.191	89.88
375.416	87.88
375.642	88.88
375.868	96.88
376.094	85.88
376.319	94.88
376.545	92.88
376.771	62.88
376.997	77.88
377.222	89.88
377.448	88.88
377.674	91.88
377.899	88.88
378.125	84.88
378.35	94.88
378.576	101.88
378.802	89.88
379.027	86.88
379.253	87.88
379.478	94.88
379.704	75.88
379.929	88.88
380.155	90.88
380.38	72.88
380.606	76.88
380.831	80.88
381.057	111.88
381.282	93.88
381.507	76.88
381.733	97.88
381.958	92.88
382.184	94.88
382.409	84.88
382.634	90.88
382.86	80.88
383.085	97.88
383.31	95.88
383.535	97.88
383.761	80.88
383.986	96.88
384.211	93.88
384.436	87.88
384.662	81.88
384.887	75.88
385.112	66.88
385.337	80.88
385.562	85.88
385.787	86.88
386.013	92.88
386.238	87.88
386.463	78.88
386.688	92.88
386.913	93.88
387.138	92.88
387.363	98.88
387.588	68.88
387.813	87.88
388.038	88.88
388.263	81.88
388.488	79.88
388.713	83.88
388.938	82.88
389.163	77.88
389.387	99.88
389.612	86.88
389.837	89.88
390.062	81.88
390.287	85.88
390.512	79.88
390.736	83.88
390.961	69.88
391.186	79.88
391.411	77.88
391.636	82.88
391.86	89.88
392.085	94.88
392.31	85.88
392.534	81.88
392.759	88.88
392.984	83.88
393.208	100.88
393.433	84.88
393.658	97.88
393.882	92.88
394.107	95.88
394.331	92.88
394.556	81.88
394.78	87.88
395.005	93.88
395.229	80.88
395.454	83.88
395.678	81.88
395.903	91.88
396.127	91.88
396.352	78.88
396.576	96.88
396.801	83.88
397.025	79.88
397.249	73.88
397.474	110.88
397.698	93.88
397.922	91.88
398.147	87.88
398.371	88.88
398.595	79.88
398.82	85.88
399.044	94.88
399.268	85.88
399.492	80.88
399.717	98.88
399.941	88.88
400.165	77.88
400.389	80.88
400.613	84.88
400.837	94.88
401.062	77.88
401.286	80.88
401.51	87.88
401.734	88.88
401.958	90.88
402.182	108.88
402.406	86.88
402.63	86.88
402.854	81.88
403.078	69.88
403.302	96.88
403.526	90.88
403.75	93.88
403.974	98.88
404.198	95.88
404.422	86.88
404.645	95.88
404.869	86.88
405.093	92.88
405.317	79.88
405.541	88.88
405.765	88.88
405.988	95.88
406.212	82.88
406.436	90.88
406.66	80.88
406.883	76.88
407.107	93.88
407.331	89.88
407.555	101.88
407.778	83.88
408.002	74.88
408.226	102.88
408.449	87.88
408.673	87.88
408.896	97.88
409.12	86.88
409.344	87.88
409.567	90.88
409.791	98.88
410.014	86.88
410.238	104.88
410.461	91.88
410.685	81.88
410.908	86.88
411.132	84.88
411.355	92.88
411.578	93.88
411.802	94.88
412.025	84.88
412.249	88.88
412.472	92.88
412.695	84.88
412.919	71.88
413.142	89.88
413.365	83.88
413.589	80.88
413.812	93.88
414.035	96.88
414.258	93.88
414.482	87.88
414.705	97.88
414.928	88.88
415.151	100.88
415.374	75.88
415.597	87.88
415.821	85.88
416.044	87.88
416.267	97.88
416.49	93.88
416.713	95.88
416.936	87.88
417.159	88.88
417.382	92.88
417.605	80.88
417.828	104.88
418.051	77.88
418.274	86.88
418.497	88.88
418.72	95.88
418.943	97.88
419.166	87.88
419.389	99.88
419.611	78.88
419.834	94.88
420.057	79.88
420.28	85.88
420.503	90.88
420.726	75.88
420.948	88.88
421.171	88.88
421.394	84.88
421.617	91.88
421.839	80.88
422.062	85.88
422.285	84.88
422.507	90.88
422.73	83.88
422.953	75.88
423.175	95.88
423.398	99.88
423.621	94.88
423.843	91.88
424.066	102.88
424.288	101.88
424.511	94.88
424.733	79.88
424.956	100.88
425.178	103.88
425.401	100.88
425.623	86.88
425.846	100.88
426.068	96.88
426.291	94.88
426.513	94.88
426.735	94.88
426.958	93.88
427.18	86.88
427.402	94.88
427.625	92.88
427.847	95.88
428.069	87.88
428.292	88.88
428.514	78.88
428.736	88.88
428.958	101.88
429.181	84.88
429.403	87.88
429.625	78.88
429.847	84.88
430.069	91.88
430.292	89.88
430.514	102.88
430.736	87.88
430.958	100.88
431.18	88.88
431.402	91.88
431.624	102.88
431.846	84.88
432.068	84.88
432.29	73.88
432.512	91.88
432.734	84.88
432.956	91.88
433.178	86.88
433.4	104.88
433.622	91.88
433.844	86.88
434.066	97.88
434.287	87.88
434.509	82.88
434.731	79.88
434.953	83.88
435.175	87.88
435.397	99.88
435.618	81.88
435.84	89.88
436.062	81.88
436.284	89.88
436.505	83.88
436.727	72.88
436.949	85.88
437.17	84.88
437.392	79.88
437.614	92.88
437.835	81.88
438.057	91.88
438.278	84.88
438.5	95.88
438.721	100.88
438.943	90.88
439.165	100.88
439.386	97.88
439.608	97.88
439.829	79.88
440.05	85.88
440.272	92.88
440.493	100.88
440.715	109.88
440.936	98.88
441.158	82.88
441.379	101.88
441.6	106.88
441.822	91.88
442.043	91.88
442.264	88.88
442.486	100.88
442.707	100.88
442.928	90.88
443.149	85.88
443.371	89.88
443.592	86.88
443.813	89.88
444.034	90.88
444.255	81.88
444.476	91.88
444.698	88.88
444.919	87.88
445.14	195.88
445.361	134.88
445.582	80.88
445.803	96.88
446.024	91.88
446.245	95.88
446.466	96.88
446.687	97.88
446.908	105.88
447.129	99.88
447.35	88.88
447.571	95.88
447.792	96.88
448.013	106.88
448.234	67.88
448.455	91.88
448.675	80.88
448.896	83.88
449.117	105.88
449.338	90.88
449.559	93.88
449.779	88.88
450	94.88
450.221	76.88
450.442	78.88
450.662	99.88
450.883	89.88
451.104	87.88
451.324	91.88
451.545	97.88
451.766	73.88
451.986	100.88
452.207	86.88
452.428	87.88
452.648	80.88
452.869	91.88
453.089	88.88
453.31	89.88
453.53	89.88
453.751	75.88
453.971	83.88
454.192	90.88
454.412	82.88
454.633	89.88
454.853	83.88
455.073	100.88
455.294	97.88
455.514	84.88
455.734	82.88
455.955	90.88
456.175	88.88
456.395	80.88
456.616	71.88
456.836	83.88
457.056	99.88
457.276	90.88
457.497	77.88
457.717	84.88
457.937	80.88
458.157	72.88
458.377	88.88
458.598	78.88
458.818	72.88
459.038	77.88
459.258	101.88
459.478	78.88
459.698	81.88
459.918	77.88
460.138	86.88
460.358	79.88
460.578	94.88
460.798	85.88
461.018	85.88
461.238	81.88
461.458	85.88
461.678	83.88
461.898	88.88
462.118	89.88
462.338	86.88
462.558	96.88
462.777	80.88
462.997	91.88
463.217	87.88
463.437	92.88
463.657	107.88
463.876	75.88
464.096	78.88
464.316	93.88
464.536	86.88
464.755	96.88
464.975	80.88
465.195	95.88
465.414	96.88
465.634	76.88
465.854	111.88
466.073	82.88
466.293	83.88
466.512	94.88
466.732	84.88
466.951	96.88
467.171	84.88
467.391	79.88
467.61	86.88
467.829	88.88
468.049	96.88
468.268	89.88
468.488	81.88
468.707	94.88
468.927	96.88
469.146	88.88
469.365	92.88
469.585	81.88
469.804	83.88
470.023	92.88
470.243	93.88
470.462	98.88
470.681	88.88
470.901	92.88
471.12	87.88
471.339	94.88
471.558	96.88
471.777	97.88
471.997	98.88
472.216	100.88
472.435	83.88
472.654	85.88
472.873	84.88
473.092	91.88
473.311	79.88
473.53	79.88
473.749	84.88
473.968	99.88
474.187	87.88
474.406	87.88
474.625	93.88
474.844	100.88
475.063	87.88
475.282	85.88
475.501	85.88
475.72	85.88
475.939	95.88
476.158	71.88
476.377	83.88
476.596	94.88
476.814	89.88
477.033	91.88
477.252	87.88
477.471	93.88
477.69	80.88
477.908	95.88
478.127	82.88
478.346	107.88
478.564	100.88
478.783	91.88
479.002	92.88
479.22	83.88
479.439	84.88
479.658	87.88
479.876	87.88
480.095	81.88
480.313	84.88
480.532	89.88
480.751	101.88
480.969	89.88
481.188	94.88
481.406	75.88
481.624	84.88
481.843	90.88
482.061	82.88
482.28	103.88
482.498	81.88
482.717	88.88
482.935	100.88
483.153	96.88
483.372	101.88
483.59	92.88
483.808	97.88
484.027	97.88
484.245	110.88
484.463	107.88
484.681	102.88
484.9	92.88
485.118	94.88
485.336	93.88
485.554	86.88
485.772	91.88
485.99	87.88
486.209	92.88
486.427	99.88
486.645	102.88
486.863	101.88
487.081	93.88
487.299	79.88
487.517	91.88
487.735	86.88
487.953	105.88
488.171	94.88
488.389	96.88
488.607	92.88
488.825	98.88
489.043	99.88
489.261	94.88
489.479	98.88
489.696	94.88
489.914	98.88
490.132	93.88
490.35	91.88
490.568	104.88
490.786	102.88
491.003	91.88
491.221	100.88
491.439	94.88
491.657	100.88
491.874	100.88
492.092	109.88
492.31	115.88
492.527	107.88
492.745	101.88
492.963	102.88
493.18	97.88
493.398	95.88
493.615	106.88
493.833	108.88
494.05	105.88
494.268	98.88
494.485	97.88
494.703	105.88
494.92	112.88
495.138	88.88
495.355	93.88
495.573	106.88
495.79	100.88
496.008	88.88
496.225	89.88
496.442	106.88
496.66	101.88
496.877	106.88
497.094	108.88
497.312	119.88
497.529	99.88
497.746	105.88
497.963	110.88
498.181	88.88
498.398	107.88
498.615	93.88
498.832	96.88
499.049	81.88
499.267	84.88
499.484	82.88
499.701	97.88
499.918	98.88
500.135	96.88
500.352	94.88
500.569	96.88
500.786	84.88
501.003	106.88
501.22	86.88
501.437	98.88
501.654	99.88
501.871	89.88
502.088	80.88
502.305	88.88
502.522	78.88
502.739	82.88
502.956	97.88
503.172	87.88
503.389	101.88
503.606	107.88
503.823	98.88
504.04	101.88
504.256	87.88
504.473	94.88
504.69	91.88
504.907	100.88
505.123	98.88
505.34	85.88
505.557	99.88
505.773	104.88
505.99	82.88
506.207	98.88
506.423	83.88
506.64	89.88
506.856	83.88
507.073	90.88
507.289	91.88
507.506	83.88
507.722	89.88
507.939	83.88
508.155	82.88
508.372	81.88
508.588	85.88
508.805	96.88
509.021	85.88
509.238	94.88
509.454	98.88
509.67	88.88
509.887	87.88
510.103	90.88
510.319	89.88
510.536	91.88
510.752	71.88
510.968	83.88
511.184	84.88
511.401	93.88
511.617	79.88
511.833	83.88
512.049	83.88
512.265	84.88
512.481	80.88
512.698	83.88
512.914	77.88
513.13	91.88
513.346	95.88
513.562	85.88
513.778	94.88
513.994	93.88
514.21	93.88
514.426	88.88
514.642	100.88
514.858	102.88
515.074	81.88
515.29	101.88
515.506	81.88
515.721	91.88
515.937	85.88
516.153	85.88
516.369	99.88
516.585	80.88
516.801	68.88
517.016	87.88
517.232	88.88
517.448	93.88
517.664	96.88
517.879	86.88
518.095	70.88
518.311	84.88
518.527	99.88
518.742	89.88
518.958	91.88
519.173	84.88
519.389	74.88
519.605	86.88
519.82	77.88
520.036	85.88
520.251	79.88
520.467	95.88
520.682	73.88
520.898	96.88
521.113	97.88
521.329	81.88
521.544	86.88
521.76	85.88
521.975	90.88
522.19	93.88
522.406	80.88
522.621	80.88
522.836	101.88
523.052	89.88
523.267	101.88
523.482	96.88
523.698	85.88
523.913	91.88
524.128	81.88
524.343	96.88
524.559	106.88
524.774	90.88
524.989	88.88
525.204	96.88
525.419	93.88
525.634	89.88
525.849	94.88
526.064	92.88
526.28	93.88
526.495	88.88
526.71	80.88
526.925	94.88
527.14	79.88
527.355	63.88
527.57	101.88
527.785	82.88
527.999	73.88
528.214	92.88
528.429	83.88
528.644	93.88
528.859	103.88
529.074	89.88
529.289	108.88
529.503	88.88
529.718	96.88
529.933	94.88
530.148	99.88
530.363	85.88
530.577	85.88
530.792	77.88
531.007	71.88
531.221	78.88
531.436	91.88
531.651	84.88
531.865	83.88
532.08	88.88
532.295	88.88
532.509	87.88
532.724	98.88
532.938	73.88
533.153	87.88
533.367	93.88
533.582	91.88
533.796	89.88
534.011	106.88
534.225	93.88
534.44	77.88
534.654	84.88
534.868	86.88
535.083	65.88
535.297	86.88
535.511	93.88
535.726	110.88
535.94	102.88
536.154	95.88
536.369	85.88
536.583	95.88
536.797	82.88
537.011	81.88
537.225	102.88
537.44	93.88
537.654	83.88
537.868	71.88
538.082	79.88
538.296	88.88
538.51	85.88
538.724	96.88
538.938	88.88
539.153	88.88
539.367	101.88
539.581	94.88
539.795	90.88
540.009	96.88
540.222	105.88
540.436	110.88
540.65	85.88
540.864	104.88
541.078	95.88
541.292	103.88
541.506	97.88
541.72	101.88
541.934	101.88
542.147	95.88
542.361	115.88
542.575	99.88
542.789	86.88
543.002	76.88
543.216	81.88
543.43	86.88
543.644	106.88
543.857	106.88
544.071	115.88
544.285	106.88
544.498	81.88
544.712	105.88
544.925	101.88
545.139	100.88
545.352	101.88
545.566	109.88
545.779	86.88
545.993	87.88
546.206	104.88
546.42	102.88
546.633	94.88
546.847	96.88
547.06	103.88
547.274	96.88
547.487	99.88
547.7	93.88
547.914	92.88
548.127	81.88
548.34	104.88
548.554	110.88
548.767	108.88
548.98	99.88
549.193	88.88
549.407	95.88
549.62	99.88
549.833	107.88
550.046	95.88
550.259	108.88
550.473	86.88
550.686	100.88
550.899	100.88
551.112	96.88
551.325	105.88
551.538	90.88
551.751	96.88
551.964	75.88
552.177	94.88
552.39	96.88
552.603	87.88
552.816	112.88
553.029	99.88
553.242	92.88
553.455	88.88
553.667	100.88
553.88	95.88
554.093	87.88
554.306	105.88
554.519	104.88
554.732	109.88
554.944	108.88
555.157	99.88
555.37	97.88
555.583	102.88
555.795	107.88
556.008	96.88
556.221	89.88
556.433	93.88
556.646	99.88
556.859	101.88
557.071	86.88
557.284	102.88
557.496	94.88
557.709	99.88
557.921	103.88
558.134	93.88
558.346	105.88
558.559	106.88
558.771	90.88
558.984	100.88
559.196	86.88
559.409	92.88
559.621	91.88
559.833	81.88
560.046	91.88
560.258	107.88
560.47	92.88
560.683	103.88
560.895	84.88
561.107	88.88
561.32	100.88
561.532	93.88
561.744	114.88
561.956	103.88
562.168	90.88
562.381	99.88
562.593	93.88
562.805	85.88
563.017	101.88
563.229	101.88
563.441	86.88
563.653	91.88
563.865	92.88
564.077	104.88
564.289	96.88
564.501	107.88
564.713	84.88
564.925	99.88
565.137	93.88
565.349	94.88
565.561	97.88
565.773	88.88
565.985	91.88
566.197	113.88
566.408	81.88
566.62	105.88
566.832	86.88
567.044	100.88
567.255	87.88
567.467	88.88
567.679	83.88
567.891	85.88
568.102	94.88
568.314	97.88
568.526	93.88
568.737	85.88
568.949	79.88
569.161	87.88
569.372	80.88
569.584	78.88
569.795	85.88
570.007	94.88
570.218	76.88
570.43	93.88
570.641	79.88
570.853	76.88
571.064	84.88
571.276	88.88
571.487	86.88
571.698	86.88
571.91	95.88
572.121	95.88
572.333	87.88
572.544	96.88
572.755	89.88
572.966	72.88
573.178	88.88
573.389	88.88
573.6	84.88
573.811	76.88
574.023	100.88
574.234	98.88
574.445	91.88
574.656	91.88
574.867	84.88
575.078	87.88
575.289	99.88
575.501	87.88
575.712	79.88
575.923	84.88
576.134	83.88
576.345	94.88
576.556	84.88
576.767	77.88
576.978	95.88
577.188	75.88
577.399	78.88
577.61	80.88
577.821	82.88
578.032	99.88
578.243	92.88
578.454	101.88
578.665	86.88
578.875	97.88
579.086	90.88
579.297	93.88
579.508	88.88
579.718	95.88
579.929	91.88
580.14	90.88
580.35	101.88
580.561	98.88
580.772	87.88
580.982	99.88
581.193	90.88
581.403	91.88
581.614	88.88
581.825	94.88
582.035	91.88
582.246	76.88
582.456	85.88
582.667	105.88
582.877	93.88
583.087	93.88
583.298	95.88
583.508	84.88
583.719	77.88
583.929	91.88
584.139	83.88
584.35	91.88
584.56	91.88
584.77	71.88
584.981	87.88
585.191	88.88
585.401	94.88
585.611	80.88
585.821	101.88
586.032	107.88
586.242	86.88
586.452	77.88
586.662	88.88
586.872	83.88
587.082	92.88
587.292	95.88
587.502	96.88
587.713	99.88
587.923	87.88
588.133	94.88
588.343	85.88
588.553	83.88
588.762	93.88
588.972	97.88
589.182	94.88
589.392	79.88
589.602	96.88
589.812	79.88
590.022	87.88
590.232	80.88
590.441	83.88
590.651	81.88
590.861	87.88
591.071	98.88
591.281	87.88
591.49	80.88
591.7	83.88
591.91	89.88
592.119	85.88
592.329	91.88
592.539	86.88
592.748	85.88
592.958	99.88
593.167	81.88
593.377	85.88
593.587	110.88
593.796	82.88
594.006	84.88
594.215	91.88
594.424	99.88
594.634	94.88
594.843	90.88
595.053	87.88
595.262	85.88
595.472	91.88
595.681	88.88
595.89	87.88
596.1	85.88
596.309	78.88
596.518	89.88
596.727	79.88
596.937	84.88
597.146	88.88
597.355	92.88
597.564	95.88
597.774	98.88
597.983	85.88
598.192	84.88
598.401	81.88
598.61	92.88
598.819	78.88
599.028	87.88
599.237	76.88
599.446	89.88
599.655	95.88
599.864	92.88
600.073	83.88
600.282	87.88
600.491	96.88
600.7	93.88
600.909	75.88
601.118	91.88
601.327	94.88
601.536	77.88
601.745	88.88
601.953	83.88
602.162	99.88
602.371	85.88
602.58	88.88
602.789	81.88
602.997	95.88
603.206	83.88
603.415	79.88
603.623	104.88
603.832	96.88
604.041	102.88
604.249	89.88
604.458	89.88
604.666	90.88
604.875	93.88
605.084	87.88
605.292	92.88
605.501	78.88
605.709	101.88
605.918	94.88
606.126	94.88
606.334	92.88
606.543	97.88
606.751	92.88
606.96	93.88
607.168	92.88
607.376	98.88
607.585	100.88
607.793	88.88
608.001	86.88
608.21	85.88
608.418	101.88
608.626	82.88
608.834	95.88
609.043	92.88
609.251	87.88
609.459	102.88
609.667	99.88
609.875	92.88
610.083	86.88
610.291	90.88
610.499	95.88
610.707	101.88
610.916	92.88
611.124	100.88
611.332	101.88
611.54	84.88
611.748	86.88
611.955	102.88
612.163	99.88
612.371	89.88
612.579	86.88
612.787	101.88
612.995	82.88
613.203	105.88
613.411	87.88
613.618	93.88
613.826	103.88
614.034	77.88
614.242	87.88
614.449	84.88
614.657	92.88
614.865	88.88
615.072	96.88
615.28	104.88
615.488	84.88
615.695	84.88
615.903	78.88
616.111	96.88
616.318	91.88
616.526	101.88
616.733	82.88
616.941	89.88
617.148	100.88
617.356	89.88
617.563	79.88
617.771	77.88
617.978	86.88
618.185	84.88
618.393	98.88
618.6	81.88
618.807	96.88
619.015	99.88
619.222	96.88
619.429	92.88
619.637	99.88
619.844	103.88
620.051	84.88
620.258	71.88
620.466	87.88
620.673	89.88
620.88	80.88
621.087	88.88
621.294	91.88
621.501	84.88
621.708	96.88
621.915	91.88
622.122	92.88
622.329	89.88
622.536	106.88
622.743	92.88
622.95	89.88
623.157	91.88
623.364	87.88
623.571	95.88
623.778	96.88
623.985	88.88
624.192	89.88
624.399	99.88
624.606	97.88
624.812	89.88
625.019	98.88
625.226	100.88
625.433	94.88
625.639	97.88
625.846	92.88
626.053	96.88
626.259	69.88
626.466	80.88
626.673	74.88
626.879	77.88
627.086	95.88
627.293	85.88
627.499	79.88
627.706	92.88
627.912	92.88
628.119	95.88
628.325	89.88
628.532	74.88
628.738	87.88
628.945	104.88
629.151	97.88
629.357	96.88
629.564	83.88
629.77	80.88
629.976	81.88
630.183	91.88
630.389	85.88
630.595	90.88
630.802	81.88
631.008	85.88
631.214	95.88
631.42	75.88
631.627	95.88
631.833	98.88
632.039	94.88
632.245	96.88
632.451	90.88
632.657	74.88
632.863	82.88
633.069	89.88
633.275	100.88
633.481	95.88
633.688	90.88
633.893	95.88
634.099	87.88
634.305	86.88
634.511	91.88
634.717	98.88
634.923	98.88
635.129	92.88
635.335	93.88
635.541	85.88
635.747	87.88
635.952	104.88
636.158	98.88
636.364	89.88
636.57	78.88
636.775	100.88
636.981	91.88
637.187	88.88
637.392	83.88
637.598	95.88
637.804	77.88
638.009	86.88
638.215	91.88
638.421	89.88
638.626	90.88
638.832	77.88
639.037	81.88
639.243	78.88
639.448	98.88
639.654	81.88
639.859	87.88
640.065	93.88
640.27	97.88
640.475	77.88
640.681	84.88
640.886	83.88
641.091	81.88
641.297	91.88
641.502	85.88
641.707	86.88
641.913	108.88
642.118	83.88
642.323	91.88
642.528	104.88
642.733	99.88
642.939	89.88
643.144	93.88
643.349	69.88
643.554	92.88
643.759	100.88
643.964	92.88
644.169	91.88
644.374	91.88
644.579	95.88
644.784	92.88
644.989	96.88
645.194	82.88
645.399	87.88
645.604	77.88
645.809	89.88
646.014	91.88
646.219	95.88
646.423	84.88
646.628	80.88
646.833	84.88
647.038	87.88
647.243	76.88
647.447	95.88
647.652	86.88
647.857	88.88
648.062	71.88
648.266	84.88
648.471	80.88
648.676	104.88
648.88	94.88
649.085	80.88
649.289	85.88
649.494	93.88
649.698	95.88
649.903	97.88
650.107	91.88
650.312	84.88
650.516	93.88
650.721	95.88
650.925	81.88
651.13	87.88
651.334	105.88
651.539	92.88
651.743	89.88
651.947	86.88
652.152	86.88
652.356	86.88
652.56	95.88
652.764	73.88
652.969	90.88
653.173	88.88
653.377	87.88
653.581	89.88
653.785	74.88
653.99	78.88
654.194	82.88
654.398	89.88
654.602	78.88
654.806	75.88
655.01	90.88
655.214	80.88
655.418	88.88
655.622	83.88
655.826	87.88
656.03	93.88
656.234	88.88
656.438	85.88
656.642	93.88
656.846	89.88
657.049	79.88
657.253	87.88
657.457	103.88
657.661	78.88
657.865	76.88
658.068	78.88
658.272	89.88
658.476	91.88
658.68	83.88
658.883	84.88
659.087	91.88
659.291	91.88
659.494	94.88
659.698	92.88
659.901	87.88
660.105	84.88
660.309	89.88
660.512	91.88
660.716	80.88
660.919	87.88
661.123	85.88
661.326	79.88
661.53	83.88
661.733	87.88
661.936	94.88
662.14	96.88
662.343	81.88
662.546	86.88
662.75	87.88
662.953	92.88
663.156	80.88
663.36	81.88
663.563	90.88
663.766	86.88
663.969	87.88
664.173	85.88
664.376	80.88
664.579	92.88
664.782	81.88
664.985	100.88
665.188	91.88
665.391	74.88
665.594	85.88
665.797	88.88
666	103.88
666.203	67.88
666.406	76.88
666.609	99.88
666.812	78.88
667.015	82.88
667.218	77.88
667.421	81.88
667.624	100.88
667.827	87.88
668.03	72.88
668.232	85.88
668.435	83.88
668.638	87.88
668.841	77.88
669.043	92.88
669.246	78.88
669.449	90.88
669.651	93.88
669.854	86.88
670.057	82.88
670.259	88.88
670.462	91.88
670.665	93.88
670.867	84.88
671.07	96.88
671.272	88.88
671.475	96.88
671.677	85.88
671.88	88.88
672.082	80.88
672.284	79.88
672.487	101.88
672.689	94.88
672.892	87.88
