Data from Zn(NO3)2Standard.Agarose3%.GreenCap.LampEnergy5.5.E.O_HRD10591_15-01-47-768.txt Node
Date: Mon Jul 22 15:01:47 EDT 2019
User: cochatt
Spectrometer: HR+D1059
Trigger mode: 1
Integration Time (sec): 1.000000E-1
Scans to average: 1
Electric dark correction enabled: true
Nonlinearity correction enabled: false
Boxcar width: 0
XAxis mode: Wavelengths
Number of Pixels in Spectrum: 2048
>>>>>Begin Spectral Data<<<<<
223.165	-26.12
223.4	-26.12
223.635	-26.12
223.869	-9.12
224.104	-7.12
224.338	-2.12
224.573	-17.12
224.808	-18.12
225.042	-17.12
225.277	-17.12
225.511	-1.12
225.746	1.88
225.98	8.88
226.215	12.88
226.449	15.88
226.683	19.88
226.918	25.88
227.152	29.88
227.387	43.88
227.621	30.88
227.856	27.88
228.09	44.88
228.324	54.88
228.559	74.88
228.793	60.88
229.027	72.88
229.262	70.88
229.496	65.88
229.73	62.88
229.964	71.88
230.199	84.88
230.433	60.88
230.667	73.88
230.901	76.88
231.136	79.88
231.37	84.88
231.604	85.88
231.838	84.88
232.072	90.88
232.306	88.88
232.541	82.88
232.775	90.88
233.009	92.88
233.243	83.88
233.477	95.88
233.711	78.88
233.945	80.88
234.179	77.88
234.413	78.88
234.647	81.88
234.881	88.88
235.115	83.88
235.349	102.88
235.583	87.88
235.817	69.88
236.051	76.88
236.285	72.88
236.519	79.88
236.753	85.88
236.987	85.88
237.221	93.88
237.455	83.88
237.689	74.88
237.922	78.88
238.156	70.88
238.39	73.88
238.624	79.88
238.858	72.88
239.091	69.88
239.325	69.88
239.559	72.88
239.793	71.88
240.027	70.88
240.26	84.88
240.494	61.88
240.728	90.88
240.961	65.88
241.195	73.88
241.429	74.88
241.662	63.88
241.896	78.88
242.13	71.88
242.363	70.88
242.597	61.88
242.83	66.88
243.064	86.88
243.298	76.88
243.531	84.88
243.765	71.88
243.998	82.88
244.232	86.88
244.465	86.88
244.699	84.88
244.932	69.88
245.166	79.88
245.399	77.88
245.633	73.88
245.866	76.88
246.099	90.88
246.333	80.88
246.566	78.88
246.8	61.88
247.033	76.88
247.266	71.88
247.5	73.88
247.733	76.88
247.966	79.88
248.2	73.88
248.433	68.88
248.666	78.88
248.899	79.88
249.133	83.88
249.366	82.88
249.599	83.88
249.832	62.88
250.066	89.88
250.299	88.88
250.532	84.88
250.765	77.88
250.998	74.88
251.231	68.88
251.465	81.88
251.698	71.88
251.931	72.88
252.164	74.88
252.397	89.88
252.63	72.88
252.863	77.88
253.096	84.88
253.329	81.88
253.562	83.88
253.795	85.88
254.028	83.88
254.261	84.88
254.494	76.88
254.727	71.88
254.96	81.88
255.193	71.88
255.426	71.88
255.659	79.88
255.892	87.88
256.124	83.88
256.357	78.88
256.59	75.88
256.823	76.88
257.056	78.88
257.289	79.88
257.521	87.88
257.754	77.88
257.987	67.88
258.22	88.88
258.452	76.88
258.685	83.88
258.918	81.88
259.151	79.88
259.383	79.88
259.616	74.88
259.849	85.88
260.081	81.88
260.314	83.88
260.547	63.88
260.779	79.88
261.012	86.88
261.244	72.88
261.477	80.88
261.71	84.88
261.942	83.88
262.175	88.88
262.407	80.88
262.64	68.88
262.872	82.88
263.105	75.88
263.337	84.88
263.57	72.88
263.802	82.88
264.035	70.88
264.267	72.88
264.499	86.88
264.732	78.88
264.964	72.88
265.197	69.88
265.429	89.88
265.661	87.88
265.894	75.88
266.126	69.88
266.358	88.88
266.591	81.88
266.823	92.88
267.055	82.88
267.287	68.88
267.52	77.88
267.752	88.88
267.984	94.88
268.216	93.88
268.448	94.88
268.681	74.88
268.913	83.88
269.145	85.88
269.377	94.88
269.609	82.88
269.841	85.88
270.073	86.88
270.306	75.88
270.538	85.88
270.77	81.88
271.002	79.88
271.234	98.88
271.466	86.88
271.698	90.88
271.93	82.88
272.162	89.88
272.394	78.88
272.626	81.88
272.858	85.88
273.09	81.88
273.322	85.88
273.553	76.88
273.785	70.88
274.017	75.88
274.249	84.88
274.481	86.88
274.713	83.88
274.945	89.88
275.176	79.88
275.408	81.88
275.64	82.88
275.872	77.88
276.104	76.88
276.335	80.88
276.567	84.88
276.799	100.88
277.031	80.88
277.262	72.88
277.494	81.88
277.726	98.88
277.957	73.88
278.189	85.88
278.421	91.88
278.652	73.88
278.884	78.88
279.115	88.88
279.347	77.88
279.579	78.88
279.81	81.88
280.042	74.88
280.273	93.88
280.505	94.88
280.736	82.88
280.968	91.88
281.199	107.88
281.431	74.88
281.662	96.88
281.894	83.88
282.125	85.88
282.356	82.88
282.588	83.88
282.819	87.88
283.051	89.88
283.282	102.88
283.513	97.88
283.745	78.88
283.976	78.88
284.207	72.88
284.439	105.88
284.67	79.88
284.901	87.88
285.132	96.88
285.364	69.88
285.595	84.88
285.826	85.88
286.057	91.88
286.288	80.88
286.52	85.88
286.751	86.88
286.982	84.88
287.213	87.88
287.444	85.88
287.675	90.88
287.906	91.88
288.138	90.88
288.369	80.88
288.6	90.88
288.831	92.88
289.062	77.88
289.293	94.88
289.524	80.88
289.755	69.88
289.986	97.88
290.217	87.88
290.448	86.88
290.679	78.88
290.91	84.88
291.141	82.88
291.371	77.88
291.602	74.88
291.833	78.88
292.064	87.88
292.295	78.88
292.526	88.88
292.757	76.88
292.987	93.88
293.218	76.88
293.449	83.88
293.68	73.88
293.91	77.88
294.141	69.88
294.372	92.88
294.603	77.88
294.833	101.88
295.064	85.88
295.295	94.88
295.525	80.88
295.756	91.88
295.987	74.88
296.217	85.88
296.448	77.88
296.679	78.88
296.909	81.88
297.14	91.88
297.37	91.88
297.601	82.88
297.831	84.88
298.062	86.88
298.292	93.88
298.523	74.88
298.753	78.88
298.984	82.88
299.214	82.88
299.445	85.88
299.675	90.88
299.905	88.88
300.136	103.88
300.366	86.88
300.597	84.88
300.827	91.88
301.057	83.88
301.288	92.88
301.518	88.88
301.748	86.88
301.979	86.88
302.209	82.88
302.439	70.88
302.669	78.88
302.9	91.88
303.13	96.88
303.36	78.88
303.59	88.88
303.82	76.88
304.051	95.88
304.281	91.88
304.511	87.88
304.741	96.88
304.971	73.88
305.201	102.88
305.431	90.88
305.661	92.88
305.891	84.88
306.121	83.88
306.352	84.88
306.582	90.88
306.812	84.88
307.042	97.88
307.272	87.88
307.502	79.88
307.731	71.88
307.961	83.88
308.191	81.88
308.421	81.88
308.651	79.88
308.881	85.88
309.111	104.88
309.341	88.88
309.571	84.88
309.8	98.88
310.03	87.88
310.26	93.88
310.49	93.88
310.72	78.88
310.949	81.88
311.179	93.88
311.409	78.88
311.639	90.88
311.868	85.88
312.098	81.88
312.328	91.88
312.557	74.88
312.787	85.88
313.017	97.88
313.246	79.88
313.476	77.88
313.706	89.88
313.935	86.88
314.165	88.88
314.394	94.88
314.624	85.88
314.853	81.88
315.083	95.88
315.312	88.88
315.542	86.88
315.771	94.88
316.001	78.88
316.23	76.88
316.46	84.88
316.689	80.88
316.919	90.88
317.148	93.88
317.377	92.88
317.607	79.88
317.836	80.88
318.065	89.88
318.295	94.88
318.524	93.88
318.753	98.88
318.983	78.88
319.212	82.88
319.441	84.88
319.67	85.88
319.9	94.88
320.129	82.88
320.358	76.88
320.587	70.88
320.816	75.88
321.046	87.88
321.275	84.88
321.504	97.88
321.733	81.88
321.962	79.88
322.191	103.88
322.42	88.88
322.649	81.88
322.878	83.88
323.108	86.88
323.337	84.88
323.566	77.88
323.795	86.88
324.024	78.88
324.253	83.88
324.482	92.88
324.71	86.88
324.939	91.88
325.168	70.88
325.397	102.88
325.626	86.88
325.855	87.88
326.084	88.88
326.313	87.88
326.542	73.88
326.77	85.88
326.999	79.88
327.228	78.88
327.457	72.88
327.686	94.88
327.914	77.88
328.143	82.88
328.372	73.88
328.6	80.88
328.829	79.88
329.058	82.88
329.287	75.88
329.515	83.88
329.744	87.88
329.972	72.88
330.201	80.88
330.43	86.88
330.658	87.88
330.887	90.88
331.115	81.88
331.344	71.88
331.572	89.88
331.801	82.88
332.03	86.88
332.258	95.88
332.486	90.88
332.715	83.88
332.943	71.88
333.172	85.88
333.4	71.88
333.629	72.88
333.857	99.88
334.085	91.88
334.314	84.88
334.542	86.88
334.771	76.88
334.999	83.88
335.227	83.88
335.455	89.88
335.684	90.88
335.912	100.88
336.14	89.88
336.369	81.88
336.597	81.88
336.825	85.88
337.053	78.88
337.281	65.88
337.51	83.88
337.738	75.88
337.966	94.88
338.194	90.88
338.422	91.88
338.65	77.88
338.878	86.88
339.106	82.88
339.334	79.88
339.562	76.88
339.79	77.88
340.018	73.88
340.246	78.88
340.474	78.88
340.702	81.88
340.93	78.88
341.158	83.88
341.386	74.88
341.614	87.88
341.842	85.88
342.07	83.88
342.298	82.88
342.526	70.88
342.754	82.88
342.981	78.88
343.209	79.88
343.437	90.88
343.665	74.88
343.893	71.88
344.12	87.88
344.348	86.88
344.576	85.88
344.804	82.88
345.031	87.88
345.259	83.88
345.487	93.88
345.714	89.88
345.942	74.88
346.17	85.88
346.397	82.88
346.625	82.88
346.853	74.88
347.08	83.88
347.308	71.88
347.535	78.88
347.763	85.88
347.99	89.88
348.218	95.88
348.445	79.88
348.673	86.88
348.9	67.88
349.128	72.88
349.355	86.88
349.583	90.88
349.81	82.88
350.037	83.88
350.265	77.88
350.492	79.88
350.72	76.88
350.947	77.88
351.174	87.88
351.402	86.88
351.629	86.88
351.856	99.88
352.083	86.88
352.311	80.88
352.538	70.88
352.765	78.88
352.992	84.88
353.22	78.88
353.447	81.88
353.674	94.88
353.901	86.88
354.128	87.88
354.355	84.88
354.583	82.88
354.81	89.88
355.037	73.88
355.264	85.88
355.491	83.88
355.718	90.88
355.945	79.88
356.172	75.88
356.399	81.88
356.626	66.88
356.853	76.88
357.08	82.88
357.307	87.88
357.534	83.88
357.761	79.88
357.988	83.88
358.215	87.88
358.441	80.88
358.668	85.88
358.895	77.88
359.122	80.88
359.349	75.88
359.576	84.88
359.802	89.88
360.029	89.88
360.256	87.88
360.483	87.88
360.709	80.88
360.936	83.88
361.163	77.88
361.39	79.88
361.616	77.88
361.843	85.88
362.07	84.88
362.296	87.88
362.523	98.88
362.749	83.88
362.976	86.88
363.203	94.88
363.429	84.88
363.656	88.88
363.882	86.88
364.109	86.88
364.335	81.88
364.562	74.88
364.788	75.88
365.015	70.88
365.241	82.88
365.468	83.88
365.694	78.88
365.92	86.88
366.147	75.88
366.373	78.88
366.599	94.88
366.826	83.88
367.052	90.88
367.278	101.88
367.505	76.88
367.731	91.88
367.957	86.88
368.184	94.88
368.41	85.88
368.636	89.88
368.862	86.88
369.089	76.88
369.315	88.88
369.541	79.88
369.767	79.88
369.993	74.88
370.219	87.88
370.445	80.88
370.672	71.88
370.898	84.88
371.124	88.88
371.35	74.88
371.576	85.88
371.802	107.88
372.028	92.88
372.254	79.88
372.48	85.88
372.706	84.88
372.932	80.88
373.158	90.88
373.384	79.88
373.61	83.88
373.835	77.88
374.061	73.88
374.287	79.88
374.513	79.88
374.739	80.88
374.965	95.88
375.191	84.88
375.416	77.88
375.642	94.88
375.868	85.88
376.094	86.88
376.319	89.88
376.545	85.88
376.771	84.88
376.997	79.88
377.222	79.88
377.448	86.88
377.674	76.88
377.899	96.88
378.125	83.88
378.35	83.88
378.576	94.88
378.802	94.88
379.027	74.88
379.253	86.88
379.478	90.88
379.704	88.88
379.929	74.88
380.155	84.88
380.38	68.88
380.606	91.88
380.831	77.88
381.057	91.88
381.282	78.88
381.507	68.88
381.733	84.88
381.958	87.88
382.184	87.88
382.409	99.88
382.634	82.88
382.86	94.88
383.085	93.88
383.31	82.88
383.535	90.88
383.761	79.88
383.986	87.88
384.211	78.88
384.436	68.88
384.662	93.88
384.887	79.88
385.112	92.88
385.337	81.88
385.562	83.88
385.787	100.88
386.013	96.88
386.238	79.88
386.463	76.88
386.688	75.88
386.913	86.88
387.138	89.88
387.363	98.88
387.588	82.88
387.813	77.88
388.038	79.88
388.263	94.88
388.488	75.88
388.713	89.88
388.938	82.88
389.163	77.88
389.387	74.88
389.612	90.88
389.837	89.88
390.062	90.88
390.287	74.88
390.512	84.88
390.736	84.88
390.961	85.88
391.186	92.88
391.411	96.88
391.636	74.88
391.86	68.88
392.085	73.88
392.31	90.88
392.534	76.88
392.759	85.88
392.984	78.88
393.208	73.88
393.433	87.88
393.658	84.88
393.882	85.88
394.107	81.88
394.331	91.88
394.556	91.88
394.78	86.88
395.005	93.88
395.229	79.88
395.454	98.88
395.678	92.88
395.903	59.88
396.127	75.88
396.352	77.88
396.576	92.88
396.801	88.88
397.025	90.88
397.249	87.88
397.474	80.88
397.698	86.88
397.922	73.88
398.147	77.88
398.371	78.88
398.595	84.88
398.82	74.88
399.044	87.88
399.268	99.88
399.492	78.88
399.717	76.88
399.941	93.88
400.165	82.88
400.389	92.88
400.613	81.88
400.837	89.88
401.062	71.88
401.286	82.88
401.51	90.88
401.734	94.88
401.958	95.88
402.182	90.88
402.406	97.88
402.63	95.88
402.854	83.88
403.078	81.88
403.302	92.88
403.526	92.88
403.75	85.88
403.974	67.88
404.198	87.88
404.422	75.88
404.645	87.88
404.869	77.88
405.093	69.88
405.317	98.88
405.541	88.88
405.765	105.88
405.988	91.88
406.212	85.88
406.436	91.88
406.66	74.88
406.883	85.88
407.107	87.88
407.331	75.88
407.555	82.88
407.778	95.88
408.002	77.88
408.226	110.88
408.449	77.88
408.673	86.88
408.896	90.88
409.12	88.88
409.344	97.88
409.567	102.88
409.791	81.88
410.014	88.88
410.238	94.88
410.461	85.88
410.685	76.88
410.908	69.88
411.132	92.88
411.355	89.88
411.578	83.88
411.802	81.88
412.025	78.88
412.249	85.88
412.472	91.88
412.695	86.88
412.919	83.88
413.142	78.88
413.365	69.88
413.589	87.88
413.812	78.88
414.035	82.88
414.258	86.88
414.482	92.88
414.705	73.88
414.928	96.88
415.151	95.88
415.374	89.88
415.597	92.88
415.821	96.88
416.044	73.88
416.267	88.88
416.49	102.88
416.713	93.88
416.936	85.88
417.159	78.88
417.382	83.88
417.605	88.88
417.828	89.88
418.051	91.88
418.274	107.88
418.497	86.88
418.72	77.88
418.943	92.88
419.166	81.88
419.389	88.88
419.611	75.88
419.834	91.88
420.057	104.88
420.28	89.88
420.503	85.88
420.726	86.88
420.948	82.88
421.171	90.88
421.394	94.88
421.617	81.88
421.839	95.88
422.062	95.88
422.285	89.88
422.507	85.88
422.73	84.88
422.953	76.88
423.175	91.88
423.398	89.88
423.621	105.88
423.843	92.88
424.066	83.88
424.288	79.88
424.511	89.88
424.733	72.88
424.956	88.88
425.178	90.88
425.401	105.88
425.623	90.88
425.846	91.88
426.068	82.88
426.291	85.88
426.513	94.88
426.735	96.88
426.958	80.88
427.18	89.88
427.402	85.88
427.625	91.88
427.847	90.88
428.069	91.88
428.292	73.88
428.514	85.88
428.736	82.88
428.958	89.88
429.181	85.88
429.403	93.88
429.625	78.88
429.847	94.88
430.069	98.88
430.292	89.88
430.514	99.88
430.736	86.88
430.958	99.88
431.18	88.88
431.402	86.88
431.624	97.88
431.846	100.88
432.068	72.88
432.29	80.88
432.512	95.88
432.734	83.88
432.956	94.88
433.178	94.88
433.4	87.88
433.622	99.88
433.844	101.88
434.066	91.88
434.287	99.88
434.509	77.88
434.731	79.88
434.953	101.88
435.175	97.88
435.397	70.88
435.618	92.88
435.84	67.88
436.062	78.88
436.284	88.88
436.505	89.88
436.727	92.88
436.949	102.88
437.17	86.88
437.392	70.88
437.614	80.88
437.835	81.88
438.057	93.88
438.278	80.88
438.5	87.88
438.721	85.88
438.943	101.88
439.165	92.88
439.386	89.88
439.608	99.88
439.829	87.88
440.05	98.88
440.272	78.88
440.493	92.88
440.715	101.88
440.936	97.88
441.158	95.88
441.379	93.88
441.6	84.88
441.822	97.88
442.043	98.88
442.264	91.88
442.486	103.88
442.707	106.88
442.928	85.88
443.149	91.88
443.371	95.88
443.592	83.88
443.813	86.88
444.034	85.88
444.255	72.88
444.476	89.88
444.698	91.88
444.919	90.88
445.14	180.88
445.361	141.88
445.582	94.88
445.803	90.88
446.024	95.88
446.245	89.88
446.466	90.88
446.687	93.88
446.908	92.88
447.129	103.88
447.35	88.88
447.571	88.88
447.792	92.88
448.013	77.88
448.234	89.88
448.455	106.88
448.675	82.88
448.896	100.88
449.117	105.88
449.338	98.88
449.559	96.88
449.779	90.88
450	85.88
450.221	83.88
450.442	93.88
450.662	84.88
450.883	92.88
451.104	90.88
451.324	100.88
451.545	84.88
451.766	79.88
451.986	73.88
452.207	113.88
452.428	80.88
452.648	103.88
452.869	104.88
453.089	95.88
453.31	87.88
453.53	77.88
453.751	91.88
453.971	85.88
454.192	84.88
454.412	88.88
454.633	87.88
454.853	87.88
455.073	97.88
455.294	97.88
455.514	78.88
455.734	86.88
455.955	84.88
456.175	82.88
456.395	76.88
456.616	89.88
456.836	95.88
457.056	86.88
457.276	86.88
457.497	78.88
457.717	79.88
457.937	92.88
458.157	83.88
458.377	83.88
458.598	89.88
458.818	84.88
459.038	91.88
459.258	88.88
459.478	78.88
459.698	82.88
459.918	85.88
460.138	81.88
460.358	85.88
460.578	87.88
460.798	91.88
461.018	84.88
461.238	93.88
461.458	84.88
461.678	98.88
461.898	94.88
462.118	85.88
462.338	78.88
462.558	99.88
462.777	87.88
462.997	87.88
463.217	87.88
463.437	85.88
463.657	83.88
463.876	98.88
464.096	81.88
464.316	77.88
464.536	93.88
464.755	103.88
464.975	86.88
465.195	88.88
465.414	94.88
465.634	89.88
465.854	87.88
466.073	81.88
466.293	99.88
466.512	85.88
466.732	80.88
466.951	100.88
467.171	101.88
467.391	83.88
467.61	89.88
467.829	85.88
468.049	99.88
468.268	98.88
468.488	95.88
468.707	89.88
468.927	85.88
469.146	97.88
469.365	89.88
469.585	85.88
469.804	100.88
470.023	85.88
470.243	86.88
470.462	86.88
470.681	97.88
470.901	91.88
471.12	95.88
471.339	95.88
471.558	85.88
471.777	103.88
471.997	81.88
472.216	104.88
472.435	103.88
472.654	89.88
472.873	97.88
473.092	81.88
473.311	101.88
473.53	91.88
473.749	87.88
473.968	88.88
474.187	81.88
474.406	81.88
474.625	96.88
474.844	100.88
475.063	96.88
475.282	75.88
475.501	84.88
475.72	95.88
475.939	92.88
476.158	85.88
476.377	92.88
476.596	87.88
476.814	103.88
477.033	91.88
477.252	95.88
477.471	89.88
477.69	97.88
477.908	102.88
478.127	92.88
478.346	94.88
478.564	82.88
478.783	95.88
479.002	98.88
479.22	89.88
479.439	91.88
479.658	102.88
479.876	85.88
480.095	89.88
480.313	78.88
480.532	91.88
480.751	95.88
480.969	100.88
481.188	86.88
481.406	86.88
481.624	79.88
481.843	108.88
482.061	89.88
482.28	102.88
482.498	96.88
482.717	86.88
482.935	84.88
483.153	97.88
483.372	89.88
483.59	92.88
483.808	99.88
484.027	93.88
484.245	90.88
484.463	86.88
484.681	86.88
484.9	96.88
485.118	91.88
485.336	84.88
485.554	95.88
485.772	92.88
485.99	100.88
486.209	83.88
486.427	80.88
486.645	89.88
486.863	76.88
487.081	87.88
487.299	92.88
487.517	97.88
487.735	98.88
487.953	103.88
488.171	109.88
488.389	81.88
488.607	92.88
488.825	88.88
489.043	89.88
489.261	84.88
489.479	100.88
489.696	85.88
489.914	73.88
490.132	100.88
490.35	105.88
490.568	100.88
490.786	89.88
491.003	106.88
491.221	99.88
491.439	102.88
491.657	93.88
491.874	99.88
492.092	98.88
492.31	115.88
492.527	109.88
492.745	87.88
492.963	110.88
493.18	126.88
493.398	110.88
493.615	103.88
493.833	93.88
494.05	113.88
494.268	97.88
494.485	102.88
494.703	90.88
494.92	105.88
495.138	102.88
495.355	83.88
495.573	95.88
495.79	108.88
496.008	111.88
496.225	98.88
496.442	118.88
496.66	89.88
496.877	83.88
497.094	92.88
497.312	100.88
497.529	90.88
497.746	95.88
497.963	94.88
498.181	94.88
498.398	100.88
498.615	90.88
498.832	94.88
499.049	80.88
499.267	117.88
499.484	97.88
499.701	83.88
499.918	100.88
500.135	90.88
500.352	96.88
500.569	92.88
500.786	90.88
501.003	101.88
501.22	89.88
501.437	87.88
501.654	87.88
501.871	86.88
502.088	99.88
502.305	102.88
502.522	77.88
502.739	84.88
502.956	87.88
503.172	91.88
503.389	89.88
503.606	89.88
503.823	79.88
504.04	91.88
504.256	79.88
504.473	106.88
504.69	102.88
504.907	97.88
505.123	81.88
505.34	94.88
505.557	93.88
505.773	96.88
505.99	76.88
506.207	74.88
506.423	81.88
506.64	76.88
506.856	90.88
507.073	94.88
507.289	95.88
507.506	93.88
507.722	89.88
507.939	100.88
508.155	91.88
508.372	89.88
508.588	98.88
508.805	78.88
509.021	81.88
509.238	89.88
509.454	95.88
509.67	98.88
509.887	79.88
510.103	86.88
510.319	90.88
510.536	95.88
510.752	88.88
510.968	86.88
511.184	91.88
511.401	93.88
511.617	80.88
511.833	86.88
512.049	85.88
512.265	85.88
512.481	87.88
512.698	99.88
512.914	89.88
513.13	87.88
513.346	88.88
513.562	98.88
513.778	84.88
513.994	98.88
514.21	77.88
514.426	102.88
514.642	89.88
514.858	90.88
515.074	76.88
515.29	97.88
515.506	85.88
515.721	71.88
515.937	87.88
516.153	72.88
516.369	91.88
516.585	78.88
516.801	89.88
517.016	89.88
517.232	84.88
517.448	105.88
517.664	76.88
517.879	84.88
518.095	71.88
518.311	76.88
518.527	82.88
518.742	92.88
518.958	77.88
519.173	92.88
519.389	78.88
519.605	86.88
519.82	96.88
520.036	77.88
520.251	89.88
520.467	87.88
520.682	68.88
520.898	74.88
521.113	95.88
521.329	85.88
521.544	77.88
521.76	88.88
521.975	78.88
522.19	87.88
522.406	79.88
522.621	92.88
522.836	89.88
523.052	95.88
523.267	81.88
523.482	96.88
523.698	89.88
523.913	67.88
524.128	96.88
524.343	84.88
524.559	98.88
524.774	90.88
524.989	95.88
525.204	81.88
525.419	82.88
525.634	104.88
525.849	81.88
526.064	77.88
526.28	83.88
526.495	93.88
526.71	91.88
526.925	87.88
527.14	84.88
527.355	75.88
527.57	97.88
527.785	79.88
527.999	89.88
528.214	88.88
528.429	92.88
528.644	77.88
528.859	83.88
529.074	98.88
529.289	114.88
529.503	88.88
529.718	82.88
529.933	81.88
530.148	88.88
530.363	93.88
530.577	82.88
530.792	88.88
531.007	87.88
531.221	72.88
531.436	76.88
531.651	83.88
531.865	94.88
532.08	94.88
532.295	79.88
532.509	91.88
532.724	97.88
532.938	85.88
533.153	70.88
533.367	87.88
533.582	96.88
533.796	82.88
534.011	85.88
534.225	84.88
534.44	90.88
534.654	84.88
534.868	78.88
535.083	90.88
535.297	88.88
535.511	93.88
535.726	99.88
535.94	80.88
536.154	95.88
536.369	79.88
536.583	99.88
536.797	85.88
537.011	73.88
537.225	76.88
537.44	77.88
537.654	90.88
537.868	93.88
538.082	83.88
538.296	83.88
538.51	84.88
538.724	83.88
538.938	87.88
539.153	83.88
539.367	86.88
539.581	74.88
539.795	79.88
540.009	108.88
540.222	93.88
540.436	88.88
540.65	74.88
540.864	80.88
541.078	87.88
541.292	104.88
541.506	101.88
541.72	92.88
541.934	121.88
542.147	101.88
542.361	81.88
542.575	117.88
542.789	92.88
543.002	79.88
543.216	99.88
543.43	98.88
543.644	93.88
543.857	97.88
544.071	90.88
544.285	88.88
544.498	100.88
544.712	96.88
544.925	96.88
545.139	111.88
545.352	103.88
545.566	104.88
545.779	98.88
545.993	106.88
546.206	85.88
546.42	101.88
546.633	104.88
546.847	107.88
547.06	98.88
547.274	108.88
547.487	103.88
547.7	108.88
547.914	103.88
548.127	91.88
548.34	99.88
548.554	90.88
548.767	89.88
548.98	103.88
549.193	102.88
549.407	88.88
549.62	97.88
549.833	92.88
550.046	99.88
550.259	98.88
550.473	92.88
550.686	105.88
550.899	78.88
551.112	93.88
551.325	85.88
551.538	82.88
551.751	82.88
551.964	83.88
552.177	93.88
552.39	86.88
552.603	107.88
552.816	103.88
553.029	97.88
553.242	98.88
553.455	106.88
553.667	89.88
553.88	100.88
554.093	95.88
554.306	85.88
554.519	91.88
554.732	89.88
554.944	93.88
555.157	106.88
555.37	94.88
555.583	97.88
555.795	96.88
556.008	95.88
556.221	101.88
556.433	97.88
556.646	80.88
556.859	94.88
557.071	85.88
557.284	97.88
557.496	108.88
557.709	101.88
557.921	96.88
558.134	102.88
558.346	100.88
558.559	100.88
558.771	78.88
558.984	86.88
559.196	89.88
559.409	99.88
559.621	92.88
559.833	90.88
560.046	82.88
560.258	95.88
560.47	84.88
560.683	97.88
560.895	86.88
561.107	106.88
561.32	91.88
561.532	95.88
561.744	94.88
561.956	78.88
562.168	93.88
562.381	84.88
562.593	90.88
562.805	95.88
563.017	77.88
563.229	93.88
563.441	76.88
563.653	88.88
563.865	89.88
564.077	85.88
564.289	86.88
564.501	88.88
564.713	96.88
564.925	98.88
565.137	78.88
565.349	97.88
565.561	85.88
565.773	96.88
565.985	103.88
566.197	79.88
566.408	98.88
566.62	108.88
566.832	94.88
567.044	107.88
567.255	80.88
567.467	90.88
567.679	80.88
567.891	88.88
568.102	81.88
568.314	86.88
568.526	84.88
568.737	82.88
568.949	91.88
569.161	86.88
569.372	87.88
569.584	78.88
569.795	77.88
570.007	82.88
570.218	100.88
570.43	85.88
570.641	78.88
570.853	77.88
571.064	97.88
571.276	77.88
571.487	83.88
571.698	85.88
571.91	82.88
572.121	85.88
572.333	93.88
572.544	94.88
572.755	83.88
572.966	81.88
573.178	83.88
573.389	87.88
573.6	79.88
573.811	77.88
574.023	91.88
574.234	78.88
574.445	90.88
574.656	90.88
574.867	100.88
575.078	73.88
575.289	72.88
575.501	96.88
575.712	83.88
575.923	93.88
576.134	98.88
576.345	71.88
576.556	101.88
576.767	78.88
576.978	76.88
577.188	90.88
577.399	86.88
577.61	81.88
577.821	92.88
578.032	82.88
578.243	89.88
578.454	72.88
578.665	90.88
578.875	94.88
579.086	79.88
579.297	85.88
579.508	89.88
579.718	92.88
579.929	79.88
580.14	77.88
580.35	85.88
580.561	100.88
580.772	87.88
580.982	102.88
581.193	74.88
581.403	79.88
581.614	80.88
581.825	82.88
582.035	91.88
582.246	89.88
582.456	82.88
582.667	74.88
582.877	106.88
583.087	88.88
583.298	81.88
583.508	86.88
583.719	95.88
583.929	87.88
584.139	87.88
584.35	91.88
584.56	87.88
584.77	82.88
584.981	82.88
585.191	74.88
585.401	75.88
585.611	74.88
585.821	87.88
586.032	91.88
586.242	93.88
586.452	101.88
586.662	83.88
586.872	81.88
587.082	83.88
587.292	94.88
587.502	86.88
587.713	68.88
587.923	84.88
588.133	83.88
588.343	76.88
588.553	86.88
588.762	99.88
588.972	86.88
589.182	84.88
589.392	86.88
589.602	67.88
589.812	76.88
590.022	86.88
590.232	80.88
590.441	85.88
590.651	76.88
590.861	86.88
591.071	94.88
591.281	91.88
591.49	78.88
591.7	91.88
591.91	90.88
592.119	78.88
592.329	93.88
592.539	85.88
592.748	79.88
592.958	80.88
593.167	90.88
593.377	77.88
593.587	98.88
593.796	78.88
594.006	83.88
594.215	85.88
594.424	104.88
594.634	84.88
594.843	83.88
595.053	82.88
595.262	84.88
595.472	84.88
595.681	86.88
595.89	79.88
596.1	92.88
596.309	100.88
596.518	77.88
596.727	91.88
596.937	85.88
597.146	82.88
597.355	90.88
597.564	95.88
597.774	88.88
597.983	91.88
598.192	67.88
598.401	88.88
598.61	79.88
598.819	100.88
599.028	77.88
599.237	90.88
599.446	80.88
599.655	84.88
599.864	92.88
600.073	85.88
600.282	89.88
600.491	76.88
600.7	87.88
600.909	76.88
601.118	66.88
601.327	85.88
601.536	98.88
601.745	89.88
601.953	87.88
602.162	89.88
602.371	91.88
602.58	85.88
602.789	74.88
602.997	93.88
603.206	87.88
603.415	80.88
603.623	94.88
603.832	79.88
604.041	71.88
604.249	98.88
604.458	91.88
604.666	70.88
604.875	69.88
605.084	93.88
605.292	82.88
605.501	79.88
605.709	94.88
605.918	94.88
606.126	87.88
606.334	100.88
606.543	97.88
606.751	79.88
606.96	93.88
607.168	100.88
607.376	82.88
607.585	97.88
607.793	95.88
608.001	85.88
608.21	90.88
608.418	76.88
608.626	95.88
608.834	85.88
609.043	85.88
609.251	86.88
609.459	94.88
609.667	89.88
609.875	95.88
610.083	85.88
610.291	83.88
610.499	80.88
610.707	87.88
610.916	96.88
611.124	90.88
611.332	80.88
611.54	86.88
611.748	96.88
611.955	95.88
612.163	94.88
612.371	79.88
612.579	95.88
612.787	98.88
612.995	87.88
613.203	95.88
613.411	104.88
613.618	90.88
613.826	90.88
614.034	90.88
614.242	88.88
614.449	91.88
614.657	78.88
614.865	94.88
615.072	97.88
615.28	97.88
615.488	82.88
615.695	80.88
615.903	98.88
616.111	90.88
616.318	93.88
616.526	98.88
616.733	100.88
616.941	89.88
617.148	79.88
617.356	92.88
617.563	86.88
617.771	74.88
617.978	87.88
618.185	91.88
618.393	93.88
618.6	86.88
618.807	84.88
619.015	92.88
619.222	81.88
619.429	76.88
619.637	91.88
619.844	83.88
620.051	85.88
620.258	76.88
620.466	88.88
620.673	93.88
620.88	87.88
621.087	71.88
621.294	99.88
621.501	89.88
621.708	100.88
621.915	92.88
622.122	95.88
622.329	84.88
622.536	90.88
622.743	84.88
622.95	73.88
623.157	75.88
623.364	88.88
623.571	100.88
623.778	85.88
623.985	86.88
624.192	94.88
624.399	99.88
624.606	86.88
624.812	85.88
625.019	95.88
625.226	93.88
625.433	85.88
625.639	71.88
625.846	80.88
626.053	87.88
626.259	90.88
626.466	87.88
626.673	78.88
626.879	90.88
627.086	92.88
627.293	79.88
627.499	96.88
627.706	88.88
627.912	70.88
628.119	88.88
628.325	83.88
628.532	78.88
628.738	83.88
628.945	95.88
629.151	90.88
629.357	85.88
629.564	80.88
629.77	92.88
629.976	79.88
630.183	78.88
630.389	76.88
630.595	79.88
630.802	78.88
631.008	79.88
631.214	95.88
631.42	85.88
631.627	83.88
631.833	85.88
632.039	78.88
632.245	89.88
632.451	83.88
632.657	104.88
632.863	97.88
633.069	80.88
633.275	95.88
633.481	88.88
633.688	96.88
633.893	81.88
634.099	81.88
634.305	68.88
634.511	80.88
634.717	79.88
634.923	87.88
635.129	89.88
635.335	91.88
635.541	97.88
635.747	92.88
635.952	88.88
636.158	99.88
636.364	98.88
636.57	80.88
636.775	91.88
636.981	97.88
637.187	85.88
637.392	85.88
637.598	87.88
637.804	97.88
638.009	75.88
638.215	85.88
638.421	93.88
638.626	78.88
638.832	83.88
639.037	82.88
639.243	88.88
639.448	92.88
639.654	88.88
639.859	77.88
640.065	100.88
640.27	85.88
640.475	90.88
640.681	89.88
640.886	87.88
641.091	86.88
641.297	86.88
641.502	92.88
641.707	89.88
641.913	94.88
642.118	88.88
642.323	96.88
642.528	76.88
642.733	86.88
642.939	79.88
643.144	78.88
643.349	87.88
643.554	94.88
643.759	85.88
643.964	90.88
644.169	88.88
644.374	94.88
644.579	91.88
644.784	74.88
644.989	90.88
645.194	82.88
645.399	89.88
645.604	91.88
645.809	94.88
646.014	78.88
646.219	76.88
646.423	70.88
646.628	84.88
646.833	91.88
647.038	87.88
647.243	79.88
647.447	83.88
647.652	80.88
647.857	85.88
648.062	87.88
648.266	76.88
648.471	95.88
648.676	79.88
648.88	86.88
649.085	78.88
649.289	89.88
649.494	83.88
649.698	86.88
649.903	93.88
650.107	84.88
650.312	82.88
650.516	76.88
650.721	87.88
650.925	71.88
651.13	88.88
651.334	75.88
651.539	92.88
651.743	81.88
651.947	85.88
652.152	79.88
652.356	80.88
652.56	96.88
652.764	85.88
652.969	83.88
653.173	88.88
653.377	91.88
653.581	90.88
653.785	78.88
653.99	83.88
654.194	90.88
654.398	79.88
654.602	81.88
654.806	99.88
655.01	71.88
655.214	79.88
655.418	84.88
655.622	83.88
655.826	70.88
656.03	88.88
656.234	91.88
656.438	92.88
656.642	76.88
656.846	87.88
657.049	82.88
657.253	93.88
657.457	82.88
657.661	82.88
657.865	79.88
658.068	78.88
658.272	73.88
658.476	95.88
658.68	85.88
658.883	90.88
659.087	77.88
659.291	87.88
659.494	77.88
659.698	81.88
659.901	85.88
660.105	91.88
660.309	92.88
660.512	69.88
660.716	84.88
660.919	60.88
661.123	91.88
661.326	80.88
661.53	88.88
661.733	78.88
661.936	77.88
662.14	93.88
662.343	83.88
662.546	81.88
662.75	80.88
662.953	83.88
663.156	87.88
663.36	82.88
663.563	98.88
663.766	78.88
663.969	86.88
664.173	87.88
664.376	87.88
664.579	88.88
664.782	87.88
664.985	79.88
665.188	85.88
665.391	78.88
665.594	81.88
665.797	75.88
666	93.88
666.203	80.88
666.406	67.88
666.609	71.88
666.812	77.88
667.015	78.88
667.218	89.88
667.421	88.88
667.624	83.88
667.827	77.88
668.03	74.88
668.232	78.88
668.435	69.88
668.638	69.88
668.841	78.88
669.043	92.88
669.246	85.88
669.449	77.88
669.651	84.88
669.854	78.88
670.057	81.88
670.259	72.88
670.462	88.88
670.665	79.88
670.867	87.88
671.07	68.88
671.272	79.88
671.475	83.88
671.677	90.88
671.88	100.88
672.082	72.88
672.284	82.88
672.487	88.88
672.689	92.88
672.892	103.88
