Data from Zn(NO3)2Standard.Agarose3%.GreenCap.LampEnergy10E.O_HRD10591_15-08-40-949.txt Node
Date: Mon Jul 22 15:08:40 EDT 2019
User: cochatt
Spectrometer: HR+D1059
Trigger mode: 1
Integration Time (sec): 1.000000E-1
Scans to average: 1
Electric dark correction enabled: true
Nonlinearity correction enabled: false
Boxcar width: 0
XAxis mode: Wavelengths
Number of Pixels in Spectrum: 2048
>>>>>Begin Spectral Data<<<<<
223.165	-24.12
223.4	-24.12
223.635	-24.12
223.869	-24.12
224.104	-9.12
224.338	-3.12
224.573	-7.12
224.808	-12.12
225.042	2.88
225.277	-10.12
225.511	0.88
225.746	-9.12
225.98	-0.12
226.215	-16.12
226.449	13.88
226.683	34.88
226.918	40.88
227.152	21.88
227.387	32.88
227.621	45.88
227.856	34.88
228.09	45.88
228.324	58.88
228.559	61.88
228.793	60.88
229.027	63.88
229.262	68.88
229.496	69.88
229.73	88.88
229.964	69.88
230.199	71.88
230.433	84.88
230.667	83.88
230.901	91.88
231.136	77.88
231.37	77.88
231.604	74.88
231.838	91.88
232.072	69.88
232.306	97.88
232.541	81.88
232.775	77.88
233.009	76.88
233.243	90.88
233.477	88.88
233.711	70.88
233.945	88.88
234.179	75.88
234.413	72.88
234.647	76.88
234.881	85.88
235.115	83.88
235.349	73.88
235.583	80.88
235.817	83.88
236.051	79.88
236.285	73.88
236.519	87.88
236.753	77.88
236.987	81.88
237.221	80.88
237.455	76.88
237.689	85.88
237.922	88.88
238.156	82.88
238.39	72.88
238.624	73.88
238.858	80.88
239.091	90.88
239.325	92.88
239.559	76.88
239.793	76.88
240.027	73.88
240.26	86.88
240.494	82.88
240.728	66.88
240.961	86.88
241.195	81.88
241.429	70.88
241.662	78.88
241.896	78.88
242.13	77.88
242.363	82.88
242.597	71.88
242.83	58.88
243.064	97.88
243.298	75.88
243.531	80.88
243.765	71.88
243.998	76.88
244.232	83.88
244.465	76.88
244.699	79.88
244.932	69.88
245.166	101.88
245.399	72.88
245.633	76.88
245.866	74.88
246.099	77.88
246.333	78.88
246.566	72.88
246.8	89.88
247.033	94.88
247.266	77.88
247.5	75.88
247.733	84.88
247.966	81.88
248.2	79.88
248.433	75.88
248.666	70.88
248.899	92.88
249.133	81.88
249.366	81.88
249.599	85.88
249.832	90.88
250.066	84.88
250.299	85.88
250.532	87.88
250.765	89.88
250.998	73.88
251.231	84.88
251.465	77.88
251.698	72.88
251.931	73.88
252.164	81.88
252.397	87.88
252.63	82.88
252.863	68.88
253.096	81.88
253.329	84.88
253.562	98.88
253.795	88.88
254.028	88.88
254.261	75.88
254.494	76.88
254.727	76.88
254.96	90.88
255.193	78.88
255.426	94.88
255.659	75.88
255.892	104.88
256.124	91.88
256.357	69.88
256.59	75.88
256.823	87.88
257.056	93.88
257.289	73.88
257.521	90.88
257.754	81.88
257.987	76.88
258.22	73.88
258.452	76.88
258.685	78.88
258.918	65.88
259.151	70.88
259.383	88.88
259.616	72.88
259.849	89.88
260.081	82.88
260.314	83.88
260.547	85.88
260.779	87.88
261.012	84.88
261.244	78.88
261.477	89.88
261.71	85.88
261.942	88.88
262.175	86.88
262.407	79.88
262.64	76.88
262.872	82.88
263.105	90.88
263.337	71.88
263.57	87.88
263.802	74.88
264.035	87.88
264.267	88.88
264.499	75.88
264.732	82.88
264.964	92.88
265.197	71.88
265.429	73.88
265.661	85.88
265.894	78.88
266.126	81.88
266.358	90.88
266.591	72.88
266.823	82.88
267.055	89.88
267.287	70.88
267.52	84.88
267.752	87.88
267.984	87.88
268.216	87.88
268.448	93.88
268.681	88.88
268.913	94.88
269.145	86.88
269.377	76.88
269.609	90.88
269.841	92.88
270.073	79.88
270.306	75.88
270.538	90.88
270.77	84.88
271.002	88.88
271.234	73.88
271.466	73.88
271.698	80.88
271.93	76.88
272.162	84.88
272.394	86.88
272.626	85.88
272.858	97.88
273.09	78.88
273.322	70.88
273.553	90.88
273.785	69.88
274.017	74.88
274.249	70.88
274.481	96.88
274.713	90.88
274.945	96.88
275.176	83.88
275.408	88.88
275.64	74.88
275.872	70.88
276.104	81.88
276.335	73.88
276.567	81.88
276.799	99.88
277.031	90.88
277.262	86.88
277.494	87.88
277.726	78.88
277.957	87.88
278.189	84.88
278.421	89.88
278.652	89.88
278.884	78.88
279.115	84.88
279.347	84.88
279.579	83.88
279.81	84.88
280.042	77.88
280.273	79.88
280.505	86.88
280.736	78.88
280.968	82.88
281.199	70.88
281.431	80.88
281.662	91.88
281.894	86.88
282.125	73.88
282.356	85.88
282.588	84.88
282.819	88.88
283.051	71.88
283.282	75.88
283.513	90.88
283.745	85.88
283.976	81.88
284.207	70.88
284.439	73.88
284.67	80.88
284.901	85.88
285.132	92.88
285.364	83.88
285.595	92.88
285.826	86.88
286.057	88.88
286.288	93.88
286.52	94.88
286.751	83.88
286.982	98.88
287.213	88.88
287.444	88.88
287.675	87.88
287.906	96.88
288.138	94.88
288.369	85.88
288.6	74.88
288.831	85.88
289.062	88.88
289.293	95.88
289.524	92.88
289.755	78.88
289.986	82.88
290.217	71.88
290.448	79.88
290.679	88.88
290.91	88.88
291.141	90.88
291.371	92.88
291.602	72.88
291.833	79.88
292.064	88.88
292.295	79.88
292.526	81.88
292.757	90.88
292.987	86.88
293.218	80.88
293.449	89.88
293.68	88.88
293.91	81.88
294.141	77.88
294.372	76.88
294.603	86.88
294.833	80.88
295.064	86.88
295.295	75.88
295.525	87.88
295.756	80.88
295.987	81.88
296.217	92.88
296.448	82.88
296.679	81.88
296.909	91.88
297.14	78.88
297.37	86.88
297.601	74.88
297.831	84.88
298.062	85.88
298.292	84.88
298.523	84.88
298.753	85.88
298.984	95.88
299.214	82.88
299.445	93.88
299.675	88.88
299.905	87.88
300.136	88.88
300.366	83.88
300.597	86.88
300.827	95.88
301.057	70.88
301.288	85.88
301.518	80.88
301.748	84.88
301.979	89.88
302.209	81.88
302.439	70.88
302.669	92.88
302.9	97.88
303.13	87.88
303.36	88.88
303.59	71.88
303.82	93.88
304.051	90.88
304.281	90.88
304.511	98.88
304.741	86.88
304.971	89.88
305.201	86.88
305.431	86.88
305.661	89.88
305.891	100.88
306.121	69.88
306.352	66.88
306.582	79.88
306.812	81.88
307.042	91.88
307.272	88.88
307.502	81.88
307.731	80.88
307.961	90.88
308.191	100.88
308.421	72.88
308.651	91.88
308.881	71.88
309.111	77.88
309.341	81.88
309.571	68.88
309.8	84.88
310.03	84.88
310.26	77.88
310.49	85.88
310.72	81.88
310.949	75.88
311.179	84.88
311.409	84.88
311.639	71.88
311.868	92.88
312.098	81.88
312.328	93.88
312.557	81.88
312.787	80.88
313.017	77.88
313.246	90.88
313.476	80.88
313.706	81.88
313.935	91.88
314.165	82.88
314.394	79.88
314.624	70.88
314.853	88.88
315.083	84.88
315.312	84.88
315.542	83.88
315.771	84.88
316.001	76.88
316.23	76.88
316.46	85.88
316.689	77.88
316.919	69.88
317.148	84.88
317.377	90.88
317.607	82.88
317.836	92.88
318.065	79.88
318.295	93.88
318.524	82.88
318.753	82.88
318.983	73.88
319.212	97.88
319.441	78.88
319.67	91.88
319.9	76.88
320.129	83.88
320.358	76.88
320.587	99.88
320.816	95.88
321.046	91.88
321.275	81.88
321.504	77.88
321.733	90.88
321.962	90.88
322.191	73.88
322.42	88.88
322.649	81.88
322.878	94.88
323.108	80.88
323.337	88.88
323.566	99.88
323.795	72.88
324.024	95.88
324.253	90.88
324.482	94.88
324.71	84.88
324.939	91.88
325.168	87.88
325.397	100.88
325.626	83.88
325.855	91.88
326.084	93.88
326.313	96.88
326.542	87.88
326.77	74.88
326.999	87.88
327.228	88.88
327.457	82.88
327.686	75.88
327.914	80.88
328.143	72.88
328.372	95.88
328.6	91.88
328.829	97.88
329.058	82.88
329.287	79.88
329.515	65.88
329.744	85.88
329.972	80.88
330.201	90.88
330.43	88.88
330.658	86.88
330.887	74.88
331.115	77.88
331.344	72.88
331.572	86.88
331.801	81.88
332.03	92.88
332.258	97.88
332.486	90.88
332.715	73.88
332.943	88.88
333.172	86.88
333.4	92.88
333.629	92.88
333.857	89.88
334.085	82.88
334.314	70.88
334.542	86.88
334.771	89.88
334.999	85.88
335.227	85.88
335.455	75.88
335.684	89.88
335.912	84.88
336.14	85.88
336.369	94.88
336.597	103.88
336.825	72.88
337.053	78.88
337.281	98.88
337.51	86.88
337.738	92.88
337.966	100.88
338.194	99.88
338.422	93.88
338.65	88.88
338.878	82.88
339.106	69.88
339.334	90.88
339.562	85.88
339.79	91.88
340.018	81.88
340.246	97.88
340.474	84.88
340.702	93.88
340.93	88.88
341.158	78.88
341.386	83.88
341.614	91.88
341.842	95.88
342.07	92.88
342.298	72.88
342.526	85.88
342.754	75.88
342.981	74.88
343.209	85.88
343.437	88.88
343.665	93.88
343.893	89.88
344.12	89.88
344.348	92.88
344.576	84.88
344.804	82.88
345.031	74.88
345.259	88.88
345.487	79.88
345.714	74.88
345.942	83.88
346.17	83.88
346.397	80.88
346.625	76.88
346.853	80.88
347.08	88.88
347.308	91.88
347.535	93.88
347.763	87.88
347.99	91.88
348.218	82.88
348.445	77.88
348.673	86.88
348.9	78.88
349.128	92.88
349.355	96.88
349.583	91.88
349.81	93.88
350.037	68.88
350.265	77.88
350.492	84.88
350.72	78.88
350.947	91.88
351.174	85.88
351.402	74.88
351.629	75.88
351.856	84.88
352.083	89.88
352.311	80.88
352.538	79.88
352.765	93.88
352.992	91.88
353.22	83.88
353.447	75.88
353.674	79.88
353.901	90.88
354.128	82.88
354.355	93.88
354.583	92.88
354.81	84.88
355.037	92.88
355.264	89.88
355.491	84.88
355.718	78.88
355.945	84.88
356.172	80.88
356.399	93.88
356.626	85.88
356.853	69.88
357.08	96.88
357.307	87.88
357.534	92.88
357.761	78.88
357.988	80.88
358.215	88.88
358.441	95.88
358.668	86.88
358.895	83.88
359.122	83.88
359.349	90.88
359.576	80.88
359.802	71.88
360.029	94.88
360.256	81.88
360.483	88.88
360.709	78.88
360.936	88.88
361.163	87.88
361.39	82.88
361.616	85.88
361.843	77.88
362.07	94.88
362.296	78.88
362.523	72.88
362.749	75.88
362.976	78.88
363.203	86.88
363.429	74.88
363.656	77.88
363.882	86.88
364.109	79.88
364.335	71.88
364.562	77.88
364.788	72.88
365.015	84.88
365.241	82.88
365.468	89.88
365.694	94.88
365.92	85.88
366.147	86.88
366.373	93.88
366.599	83.88
366.826	99.88
367.052	90.88
367.278	88.88
367.505	75.88
367.731	91.88
367.957	91.88
368.184	86.88
368.41	81.88
368.636	80.88
368.862	93.88
369.089	90.88
369.315	95.88
369.541	83.88
369.767	90.88
369.993	89.88
370.219	88.88
370.445	89.88
370.672	84.88
370.898	72.88
371.124	96.88
371.35	84.88
371.576	82.88
371.802	64.88
372.028	85.88
372.254	95.88
372.48	83.88
372.706	74.88
372.932	92.88
373.158	89.88
373.384	88.88
373.61	94.88
373.835	106.88
374.061	84.88
374.287	68.88
374.513	106.88
374.739	99.88
374.965	92.88
375.191	79.88
375.416	87.88
375.642	79.88
375.868	73.88
376.094	90.88
376.319	80.88
376.545	91.88
376.771	93.88
376.997	88.88
377.222	69.88
377.448	89.88
377.674	98.88
377.899	77.88
378.125	80.88
378.35	88.88
378.576	92.88
378.802	87.88
379.027	89.88
379.253	82.88
379.478	87.88
379.704	89.88
379.929	90.88
380.155	87.88
380.38	81.88
380.606	74.88
380.831	88.88
381.057	88.88
381.282	77.88
381.507	94.88
381.733	82.88
381.958	90.88
382.184	81.88
382.409	92.88
382.634	107.88
382.86	89.88
383.085	96.88
383.31	79.88
383.535	78.88
383.761	85.88
383.986	85.88
384.211	100.88
384.436	94.88
384.662	87.88
384.887	84.88
385.112	93.88
385.337	68.88
385.562	102.88
385.787	85.88
386.013	104.88
386.238	81.88
386.463	103.88
386.688	95.88
386.913	96.88
387.138	77.88
387.363	76.88
387.588	83.88
387.813	90.88
388.038	92.88
388.263	89.88
388.488	83.88
388.713	72.88
388.938	89.88
389.163	95.88
389.387	83.88
389.612	88.88
389.837	88.88
390.062	92.88
390.287	81.88
390.512	88.88
390.736	79.88
390.961	95.88
391.186	101.88
391.411	88.88
391.636	86.88
391.86	85.88
392.085	107.88
392.31	93.88
392.534	83.88
392.759	88.88
392.984	90.88
393.208	108.88
393.433	96.88
393.658	88.88
393.882	93.88
394.107	93.88
394.331	108.88
394.556	104.88
394.78	90.88
395.005	92.88
395.229	105.88
395.454	82.88
395.678	86.88
395.903	96.88
396.127	90.88
396.352	96.88
396.576	77.88
396.801	83.88
397.025	85.88
397.249	88.88
397.474	107.88
397.698	84.88
397.922	106.88
398.147	88.88
398.371	89.88
398.595	97.88
398.82	106.88
399.044	97.88
399.268	103.88
399.492	87.88
399.717	89.88
399.941	93.88
400.165	88.88
400.389	69.88
400.613	96.88
400.837	88.88
401.062	90.88
401.286	105.88
401.51	90.88
401.734	89.88
401.958	81.88
402.182	89.88
402.406	108.88
402.63	105.88
402.854	98.88
403.078	85.88
403.302	98.88
403.526	97.88
403.75	97.88
403.974	99.88
404.198	91.88
404.422	99.88
404.645	89.88
404.869	95.88
405.093	109.88
405.317	98.88
405.541	89.88
405.765	85.88
405.988	89.88
406.212	102.88
406.436	99.88
406.66	105.88
406.883	100.88
407.107	88.88
407.331	95.88
407.555	91.88
407.778	113.88
408.002	86.88
408.226	96.88
408.449	92.88
408.673	97.88
408.896	93.88
409.12	109.88
409.344	97.88
409.567	84.88
409.791	93.88
410.014	103.88
410.238	84.88
410.461	101.88
410.685	97.88
410.908	91.88
411.132	101.88
411.355	87.88
411.578	100.88
411.802	101.88
412.025	92.88
412.249	113.88
412.472	107.88
412.695	90.88
412.919	100.88
413.142	103.88
413.365	95.88
413.589	97.88
413.812	86.88
414.035	106.88
414.258	89.88
414.482	100.88
414.705	104.88
414.928	113.88
415.151	90.88
415.374	98.88
415.597	105.88
415.821	82.88
416.044	96.88
416.267	105.88
416.49	97.88
416.713	101.88
416.936	101.88
417.159	101.88
417.382	85.88
417.605	104.88
417.828	93.88
418.051	101.88
418.274	102.88
418.497	101.88
418.72	122.88
418.943	92.88
419.166	102.88
419.389	117.88
419.611	105.88
419.834	102.88
420.057	101.88
420.28	121.88
420.503	101.88
420.726	110.88
420.948	110.88
421.171	101.88
421.394	101.88
421.617	104.88
421.839	104.88
422.062	125.88
422.285	102.88
422.507	101.88
422.73	101.88
422.953	113.88
423.175	96.88
423.398	97.88
423.621	110.88
423.843	121.88
424.066	103.88
424.288	110.88
424.511	87.88
424.733	119.88
424.956	96.88
425.178	120.88
425.401	116.88
425.623	123.88
425.846	104.88
426.068	116.88
426.291	116.88
426.513	105.88
426.735	100.88
426.958	112.88
427.18	99.88
427.402	105.88
427.625	106.88
427.847	105.88
428.069	102.88
428.292	98.88
428.514	97.88
428.736	106.88
428.958	108.88
429.181	94.88
429.403	107.88
429.625	85.88
429.847	107.88
430.069	86.88
430.292	90.88
430.514	108.88
430.736	121.88
430.958	104.88
431.18	104.88
431.402	108.88
431.624	104.88
431.846	84.88
432.068	90.88
432.29	104.88
432.512	103.88
432.734	110.88
432.956	102.88
433.178	93.88
433.4	106.88
433.622	113.88
433.844	111.88
434.066	100.88
434.287	99.88
434.509	85.88
434.731	88.88
434.953	105.88
435.175	101.88
435.397	101.88
435.618	99.88
435.84	90.88
436.062	108.88
436.284	104.88
436.505	91.88
436.727	99.88
436.949	114.88
437.17	105.88
437.392	105.88
437.614	101.88
437.835	109.88
438.057	95.88
438.278	104.88
438.5	104.88
438.721	114.88
438.943	112.88
439.165	117.88
439.386	105.88
439.608	109.88
439.829	116.88
440.05	118.88
440.272	123.88
440.493	108.88
440.715	98.88
440.936	124.88
441.158	109.88
441.379	104.88
441.6	105.88
441.822	107.88
442.043	100.88
442.264	101.88
442.486	115.88
442.707	112.88
442.928	110.88
443.149	121.88
443.371	107.88
443.592	114.88
443.813	109.88
444.034	105.88
444.255	121.88
444.476	113.88
444.698	98.88
444.919	118.88
445.14	218.88
445.361	152.88
445.582	113.88
445.803	114.88
446.024	107.88
446.245	107.88
446.466	129.88
446.687	116.88
446.908	116.88
447.129	131.88
447.35	110.88
447.571	126.88
447.792	107.88
448.013	114.88
448.234	107.88
448.455	114.88
448.675	76.88
448.896	108.88
449.117	94.88
449.338	108.88
449.559	93.88
449.779	108.88
450	97.88
450.221	93.88
450.442	107.88
450.662	108.88
450.883	120.88
451.104	110.88
451.324	110.88
451.545	120.88
451.766	109.88
451.986	118.88
452.207	105.88
452.428	107.88
452.648	110.88
452.869	102.88
453.089	99.88
453.31	101.88
453.53	98.88
453.751	102.88
453.971	82.88
454.192	92.88
454.412	83.88
454.633	96.88
454.853	108.88
455.073	92.88
455.294	92.88
455.514	102.88
455.734	102.88
455.955	92.88
456.175	91.88
456.395	96.88
456.616	93.88
456.836	79.88
457.056	101.88
457.276	86.88
457.497	94.88
457.717	95.88
457.937	104.88
458.157	103.88
458.377	96.88
458.598	91.88
458.818	98.88
459.038	82.88
459.258	87.88
459.478	84.88
459.698	82.88
459.918	93.88
460.138	98.88
460.358	95.88
460.578	118.88
460.798	93.88
461.018	94.88
461.238	93.88
461.458	93.88
461.678	106.88
461.898	109.88
462.118	99.88
462.338	105.88
462.558	91.88
462.777	102.88
462.997	110.88
463.217	97.88
463.437	103.88
463.657	100.88
463.876	93.88
464.096	79.88
464.316	113.88
464.536	97.88
464.755	99.88
464.975	115.88
465.195	107.88
465.414	96.88
465.634	105.88
465.854	108.88
466.073	114.88
466.293	114.88
466.512	102.88
466.732	115.88
466.951	104.88
467.171	116.88
467.391	103.88
467.61	107.88
467.829	99.88
468.049	103.88
468.268	104.88
468.488	118.88
468.707	106.88
468.927	114.88
469.146	119.88
469.365	106.88
469.585	117.88
469.804	120.88
470.023	110.88
470.243	100.88
470.462	96.88
470.681	115.88
470.901	121.88
471.12	99.88
471.339	106.88
471.558	102.88
471.777	119.88
471.997	102.88
472.216	99.88
472.435	109.88
472.654	101.88
472.873	112.88
473.092	103.88
473.311	104.88
473.53	101.88
473.749	115.88
473.968	96.88
474.187	94.88
474.406	94.88
474.625	104.88
474.844	98.88
475.063	107.88
475.282	93.88
475.501	112.88
475.72	96.88
475.939	104.88
476.158	107.88
476.377	112.88
476.596	108.88
476.814	84.88
477.033	89.88
477.252	99.88
477.471	123.88
477.69	115.88
477.908	102.88
478.127	105.88
478.346	102.88
478.564	99.88
478.783	104.88
479.002	109.88
479.22	112.88
479.439	113.88
479.658	99.88
479.876	94.88
480.095	85.88
480.313	103.88
480.532	104.88
480.751	102.88
480.969	96.88
481.188	93.88
481.406	92.88
481.624	85.88
481.843	70.88
482.061	91.88
482.28	87.88
482.498	104.88
482.717	106.88
482.935	102.88
483.153	105.88
483.372	118.88
483.59	126.88
483.808	120.88
484.027	121.88
484.245	112.88
484.463	117.88
484.681	129.88
484.9	118.88
485.118	124.88
485.336	104.88
485.554	99.88
485.772	85.88
485.99	100.88
486.209	99.88
486.427	91.88
486.645	121.88
486.863	115.88
487.081	93.88
487.299	103.88
487.517	124.88
487.735	117.88
487.953	128.88
488.171	136.88
488.389	126.88
488.607	117.88
488.825	119.88
489.043	96.88
489.261	122.88
489.479	122.88
489.696	97.88
489.914	119.88
490.132	112.88
490.35	119.88
490.568	112.88
490.786	121.88
491.003	123.88
491.221	138.88
491.439	122.88
491.657	158.88
491.874	137.88
492.092	160.88
492.31	163.88
492.527	150.88
492.745	154.88
492.963	140.88
493.18	140.88
493.398	126.88
493.615	130.88
493.833	124.88
494.05	128.88
494.268	122.88
494.485	120.88
494.703	133.88
494.92	122.88
495.138	124.88
495.355	127.88
495.573	132.88
495.79	141.88
496.008	124.88
496.225	128.88
496.442	121.88
496.66	128.88
496.877	130.88
497.094	126.88
497.312	127.88
497.529	132.88
497.746	116.88
497.963	105.88
498.181	107.88
498.398	101.88
498.615	114.88
498.832	109.88
499.049	97.88
499.267	111.88
499.484	100.88
499.701	112.88
499.918	104.88
500.135	121.88
500.352	120.88
500.569	107.88
500.786	110.88
501.003	107.88
501.22	104.88
501.437	101.88
501.654	115.88
501.871	103.88
502.088	90.88
502.305	111.88
502.522	119.88
502.739	104.88
502.956	101.88
503.172	90.88
503.389	101.88
503.606	106.88
503.823	109.88
504.04	108.88
504.256	100.88
504.473	107.88
504.69	104.88
504.907	109.88
505.123	97.88
505.34	94.88
505.557	105.88
505.773	99.88
505.99	92.88
506.207	109.88
506.423	120.88
506.64	106.88
506.856	109.88
507.073	109.88
507.289	93.88
507.506	113.88
507.722	92.88
507.939	96.88
508.155	91.88
508.372	105.88
508.588	98.88
508.805	95.88
509.021	79.88
509.238	104.88
509.454	90.88
509.67	85.88
509.887	90.88
510.103	92.88
510.319	75.88
510.536	77.88
510.752	66.88
510.968	86.88
511.184	79.88
511.401	83.88
511.617	91.88
511.833	85.88
512.049	75.88
512.265	100.88
512.481	85.88
512.698	83.88
512.914	90.88
513.13	84.88
513.346	75.88
513.562	96.88
513.778	85.88
513.994	93.88
514.21	94.88
514.426	92.88
514.642	80.88
514.858	92.88
515.074	93.88
515.29	87.88
515.506	77.88
515.721	110.88
515.937	97.88
516.153	77.88
516.369	82.88
516.585	94.88
516.801	89.88
517.016	87.88
517.232	92.88
517.448	86.88
517.664	93.88
517.879	98.88
518.095	100.88
518.311	96.88
518.527	76.88
518.742	84.88
518.958	97.88
519.173	106.88
519.389	99.88
519.605	94.88
519.82	91.88
520.036	103.88
520.251	89.88
520.467	91.88
520.682	92.88
520.898	88.88
521.113	98.88
521.329	96.88
521.544	84.88
521.76	94.88
521.975	89.88
522.19	94.88
522.406	91.88
522.621	98.88
522.836	77.88
523.052	100.88
523.267	94.88
523.482	97.88
523.698	97.88
523.913	95.88
524.128	102.88
524.343	105.88
524.559	110.88
524.774	92.88
524.989	101.88
525.204	106.88
525.419	93.88
525.634	104.88
525.849	95.88
526.064	84.88
526.28	70.88
526.495	90.88
526.71	80.88
526.925	89.88
527.14	84.88
527.355	82.88
527.57	97.88
527.785	88.88
527.999	100.88
528.214	74.88
528.429	111.88
528.644	118.88
528.859	109.88
529.074	127.88
529.289	128.88
529.503	126.88
529.718	126.88
529.933	106.88
530.148	95.88
530.363	97.88
530.577	86.88
530.792	82.88
531.007	100.88
531.221	89.88
531.436	77.88
531.651	81.88
531.865	86.88
532.08	83.88
532.295	90.88
532.509	96.88
532.724	92.88
532.938	91.88
533.153	90.88
533.367	101.88
533.582	103.88
533.796	98.88
534.011	96.88
534.225	100.88
534.44	78.88
534.654	76.88
534.868	89.88
535.083	104.88
535.297	87.88
535.511	103.88
535.726	91.88
535.94	102.88
536.154	95.88
536.369	82.88
536.583	77.88
536.797	102.88
537.011	102.88
537.225	88.88
537.44	93.88
537.654	85.88
537.868	83.88
538.082	76.88
538.296	90.88
538.51	94.88
538.724	100.88
538.938	108.88
539.153	92.88
539.367	112.88
539.581	101.88
539.795	93.88
540.009	100.88
540.222	80.88
540.436	93.88
540.65	106.88
540.864	108.88
541.078	111.88
541.292	112.88
541.506	123.88
541.72	126.88
541.934	133.88
542.147	124.88
542.361	132.88
542.575	119.88
542.789	126.88
543.002	112.88
543.216	92.88
543.43	91.88
543.644	122.88
543.857	117.88
544.071	121.88
544.285	130.88
544.498	107.88
544.712	127.88
544.925	123.88
545.139	126.88
545.352	125.88
545.566	121.88
545.779	122.88
545.993	131.88
546.206	134.88
546.42	125.88
546.633	124.88
546.847	119.88
547.06	97.88
547.274	130.88
547.487	131.88
547.7	126.88
547.914	120.88
548.127	119.88
548.34	117.88
548.554	126.88
548.767	121.88
548.98	119.88
549.193	125.88
549.407	124.88
549.62	126.88
549.833	114.88
550.046	121.88
550.259	130.88
550.473	120.88
550.686	130.88
550.899	107.88
551.112	117.88
551.325	104.88
551.538	109.88
551.751	97.88
551.964	104.88
552.177	104.88
552.39	115.88
552.603	120.88
552.816	127.88
553.029	123.88
553.242	112.88
553.455	112.88
553.667	110.88
553.88	128.88
554.093	116.88
554.306	117.88
554.519	117.88
554.732	119.88
554.944	122.88
555.157	103.88
555.37	113.88
555.583	119.88
555.795	105.88
556.008	112.88
556.221	114.88
556.433	115.88
556.646	105.88
556.859	113.88
557.071	114.88
557.284	106.88
557.496	123.88
557.709	116.88
557.921	121.88
558.134	120.88
558.346	107.88
558.559	105.88
558.771	115.88
558.984	104.88
559.196	101.88
559.409	98.88
559.621	104.88
559.833	109.88
560.046	99.88
560.258	110.88
560.47	117.88
560.683	102.88
560.895	115.88
561.107	109.88
561.32	121.88
561.532	120.88
561.744	106.88
561.956	121.88
562.168	107.88
562.381	102.88
562.593	108.88
562.805	121.88
563.017	110.88
563.229	107.88
563.441	108.88
563.653	102.88
563.865	96.88
564.077	94.88
564.289	106.88
564.501	108.88
564.713	110.88
564.925	114.88
565.137	101.88
565.349	84.88
565.561	84.88
565.773	79.88
565.985	104.88
566.197	92.88
566.408	113.88
566.62	104.88
566.832	104.88
567.044	107.88
567.255	110.88
567.467	106.88
567.679	96.88
567.891	104.88
568.102	93.88
568.314	86.88
568.526	93.88
568.737	94.88
568.949	84.88
569.161	87.88
569.372	93.88
569.584	89.88
569.795	90.88
570.007	77.88
570.218	81.88
570.43	91.88
570.641	98.88
570.853	91.88
571.064	103.88
571.276	94.88
571.487	91.88
571.698	103.88
571.91	88.88
572.121	100.88
572.333	101.88
572.544	90.88
572.755	81.88
572.966	95.88
573.178	97.88
573.389	82.88
573.6	81.88
573.811	80.88
574.023	78.88
574.234	87.88
574.445	85.88
574.656	76.88
574.867	101.88
575.078	89.88
575.289	86.88
575.501	88.88
575.712	96.88
575.923	90.88
576.134	95.88
576.345	92.88
576.556	88.88
576.767	84.88
576.978	92.88
577.188	82.88
577.399	84.88
577.61	94.88
577.821	86.88
578.032	109.88
578.243	87.88
578.454	84.88
578.665	96.88
578.875	75.88
579.086	79.88
579.297	88.88
579.508	77.88
579.718	86.88
579.929	76.88
580.14	87.88
580.35	78.88
580.561	92.88
580.772	102.88
580.982	78.88
581.193	94.88
581.403	82.88
581.614	82.88
581.825	92.88
582.035	80.88
582.246	104.88
582.456	86.88
582.667	92.88
582.877	78.88
583.087	85.88
583.298	102.88
583.508	97.88
583.719	89.88
583.929	95.88
584.139	84.88
584.35	92.88
584.56	75.88
584.77	78.88
584.981	96.88
585.191	89.88
585.401	92.88
585.611	94.88
585.821	84.88
586.032	86.88
586.242	94.88
586.452	68.88
586.662	77.88
586.872	101.88
587.082	90.88
587.292	88.88
587.502	85.88
587.713	73.88
587.923	96.88
588.133	86.88
588.343	68.88
588.553	65.88
588.762	102.88
588.972	88.88
589.182	92.88
589.392	71.88
589.602	97.88
589.812	91.88
590.022	83.88
590.232	82.88
590.441	73.88
590.651	65.88
590.861	84.88
591.071	91.88
591.281	90.88
591.49	81.88
591.7	88.88
591.91	82.88
592.119	85.88
592.329	74.88
592.539	83.88
592.748	91.88
592.958	87.88
593.167	89.88
593.377	86.88
593.587	99.88
593.796	89.88
594.006	60.88
594.215	81.88
594.424	96.88
594.634	84.88
594.843	85.88
595.053	104.88
595.262	90.88
595.472	81.88
595.681	85.88
595.89	84.88
596.1	82.88
596.309	97.88
596.518	93.88
596.727	86.88
596.937	87.88
597.146	86.88
597.355	89.88
597.564	106.88
597.774	87.88
597.983	74.88
598.192	89.88
598.401	96.88
598.61	78.88
598.819	86.88
599.028	87.88
599.237	90.88
599.446	87.88
599.655	91.88
599.864	75.88
600.073	90.88
600.282	77.88
600.491	84.88
600.7	94.88
600.909	85.88
601.118	99.88
601.327	89.88
601.536	105.88
601.745	89.88
601.953	96.88
602.162	96.88
602.371	105.88
602.58	85.88
602.789	95.88
602.997	82.88
603.206	90.88
603.415	94.88
603.623	106.88
603.832	99.88
604.041	95.88
604.249	77.88
604.458	93.88
604.666	96.88
604.875	96.88
605.084	87.88
605.292	96.88
605.501	79.88
605.709	108.88
605.918	95.88
606.126	99.88
606.334	100.88
606.543	110.88
606.751	96.88
606.96	96.88
607.168	87.88
607.376	90.88
607.585	89.88
607.793	98.88
608.001	104.88
608.21	92.88
608.418	100.88
608.626	95.88
608.834	101.88
609.043	104.88
609.251	101.88
609.459	94.88
609.667	97.88
609.875	103.88
610.083	106.88
610.291	92.88
610.499	88.88
610.707	98.88
610.916	84.88
611.124	86.88
611.332	108.88
611.54	95.88
611.748	88.88
611.955	114.88
612.163	89.88
612.371	116.88
612.579	90.88
612.787	104.88
612.995	94.88
613.203	105.88
613.411	104.88
613.618	90.88
613.826	109.88
614.034	105.88
614.242	96.88
614.449	85.88
614.657	84.88
614.865	84.88
615.072	96.88
615.28	109.88
615.488	94.88
615.695	97.88
615.903	99.88
616.111	94.88
616.318	81.88
616.526	89.88
616.733	87.88
616.941	101.88
617.148	96.88
617.356	97.88
617.563	102.88
617.771	92.88
617.978	102.88
618.185	99.88
618.393	100.88
618.6	109.88
618.807	101.88
619.015	92.88
619.222	84.88
619.429	97.88
619.637	100.88
619.844	82.88
620.051	95.88
620.258	96.88
620.466	87.88
620.673	101.88
620.88	91.88
621.087	102.88
621.294	97.88
621.501	88.88
621.708	92.88
621.915	93.88
622.122	99.88
622.329	89.88
622.536	93.88
622.743	101.88
622.95	101.88
623.157	94.88
623.364	85.88
623.571	87.88
623.778	93.88
623.985	94.88
624.192	99.88
624.399	85.88
624.606	92.88
624.812	86.88
625.019	97.88
625.226	106.88
625.433	104.88
625.639	94.88
625.846	83.88
626.053	91.88
626.259	93.88
626.466	91.88
626.673	90.88
626.879	99.88
627.086	84.88
627.293	83.88
627.499	110.88
627.706	107.88
627.912	106.88
628.119	98.88
628.325	99.88
628.532	93.88
628.738	88.88
628.945	94.88
629.151	85.88
629.357	95.88
629.564	102.88
629.77	82.88
629.976	101.88
630.183	93.88
630.389	89.88
630.595	83.88
630.802	98.88
631.008	102.88
631.214	67.88
631.42	89.88
631.627	101.88
631.833	100.88
632.039	92.88
632.245	84.88
632.451	85.88
632.657	100.88
632.863	96.88
633.069	86.88
633.275	90.88
633.481	83.88
633.688	90.88
633.893	87.88
634.099	93.88
634.305	88.88
634.511	83.88
634.717	81.88
634.923	90.88
635.129	88.88
635.335	94.88
635.541	98.88
635.747	86.88
635.952	96.88
636.158	91.88
636.364	98.88
636.57	105.88
636.775	77.88
636.981	83.88
637.187	91.88
637.392	109.88
637.598	90.88
637.804	90.88
638.009	86.88
638.215	106.88
638.421	97.88
638.626	89.88
638.832	91.88
639.037	107.88
639.243	81.88
639.448	89.88
639.654	86.88
639.859	113.88
640.065	78.88
640.27	101.88
640.475	77.88
640.681	92.88
640.886	85.88
641.091	99.88
641.297	100.88
641.502	76.88
641.707	98.88
641.913	97.88
642.118	86.88
642.323	98.88
642.528	81.88
642.733	98.88
642.939	94.88
643.144	95.88
643.349	78.88
643.554	76.88
643.759	83.88
643.964	93.88
644.169	88.88
644.374	97.88
644.579	81.88
644.784	89.88
644.989	68.88
645.194	91.88
645.399	85.88
645.604	86.88
645.809	101.88
646.014	91.88
646.219	92.88
646.423	81.88
646.628	92.88
646.833	99.88
647.038	88.88
647.243	81.88
647.447	81.88
647.652	102.88
647.857	93.88
648.062	100.88
648.266	92.88
648.471	88.88
648.676	93.88
648.88	84.88
649.085	85.88
649.289	77.88
649.494	91.88
649.698	101.88
649.903	91.88
650.107	102.88
650.312	86.88
650.516	93.88
650.721	87.88
650.925	106.88
651.13	94.88
651.334	101.88
651.539	87.88
651.743	73.88
651.947	100.88
652.152	101.88
652.356	93.88
652.56	94.88
652.764	97.88
652.969	93.88
653.173	94.88
653.377	91.88
653.581	80.88
653.785	99.88
653.99	90.88
654.194	75.88
654.398	101.88
654.602	82.88
654.806	79.88
655.01	80.88
655.214	78.88
655.418	85.88
655.622	86.88
655.826	80.88
656.03	98.88
656.234	87.88
656.438	94.88
656.642	93.88
656.846	91.88
657.049	89.88
657.253	90.88
657.457	78.88
657.661	78.88
657.865	76.88
658.068	83.88
658.272	90.88
658.476	93.88
658.68	91.88
658.883	76.88
659.087	75.88
659.291	71.88
659.494	89.88
659.698	78.88
659.901	70.88
660.105	95.88
660.309	87.88
660.512	85.88
660.716	88.88
660.919	84.88
661.123	89.88
661.326	75.88
661.53	89.88
661.733	86.88
661.936	82.88
662.14	78.88
662.343	88.88
662.546	78.88
662.75	85.88
662.953	83.88
663.156	89.88
663.36	82.88
663.563	92.88
663.766	78.88
663.969	96.88
664.173	90.88
664.376	81.88
664.579	83.88
664.782	97.88
664.985	94.88
665.188	79.88
665.391	79.88
665.594	90.88
665.797	67.88
666	74.88
666.203	85.88
666.406	85.88
666.609	95.88
666.812	75.88
667.015	74.88
667.218	90.88
667.421	90.88
667.624	78.88
667.827	79.88
668.03	80.88
668.232	97.88
668.435	68.88
668.638	88.88
668.841	72.88
669.043	97.88
669.246	91.88
669.449	80.88
669.651	73.88
669.854	85.88
670.057	81.88
670.259	76.88
670.462	80.88
670.665	82.88
670.867	92.88
671.07	86.88
671.272	77.88
671.475	87.88
671.677	77.88
671.88	83.88
672.082	98.88
672.284	71.88
672.487	71.88
672.689	73.88
672.892	82.88
