Data from Zn(NO3)2Standard.Agarose3%.GreenCap.LampEnergy10E.O_HRD10591_15-06-42-942.txt Node
Date: Mon Jul 22 15:06:42 EDT 2019
User: cochatt
Spectrometer: HR+D1059
Trigger mode: 1
Integration Time (sec): 1.000000E-1
Scans to average: 1
Electric dark correction enabled: true
Nonlinearity correction enabled: false
Boxcar width: 0
XAxis mode: Wavelengths
Number of Pixels in Spectrum: 2048
>>>>>Begin Spectral Data<<<<<
223.165	-21.62
223.4	-21.62
223.635	-21.62
223.869	0.38
224.104	-21.62
224.338	-22.62
224.573	-9.62
224.808	-4.62
225.042	-12.62
225.277	-10.62
225.511	5.38
225.746	-8.62
225.98	12.38
226.215	7.38
226.449	16.38
226.683	26.38
226.918	20.38
227.152	23.38
227.387	37.38
227.621	33.38
227.856	36.38
228.09	49.38
228.324	59.38
228.559	73.38
228.793	56.38
229.027	57.38
229.262	48.38
229.496	55.38
229.73	80.38
229.964	58.38
230.199	69.38
230.433	63.38
230.667	69.38
230.901	85.38
231.136	84.38
231.37	68.38
231.604	85.38
231.838	94.38
232.072	79.38
232.306	92.38
232.541	77.38
232.775	85.38
233.009	77.38
233.243	86.38
233.477	92.38
233.711	94.38
233.945	83.38
234.179	79.38
234.413	89.38
234.647	92.38
234.881	87.38
235.115	89.38
235.349	73.38
235.583	86.38
235.817	85.38
236.051	87.38
236.285	88.38
236.519	78.38
236.753	82.38
236.987	72.38
237.221	91.38
237.455	87.38
237.689	75.38
237.922	68.38
238.156	71.38
238.39	65.38
238.624	73.38
238.858	80.38
239.091	58.38
239.325	85.38
239.559	69.38
239.793	71.38
240.027	78.38
240.26	72.38
240.494	75.38
240.728	68.38
240.961	76.38
241.195	70.38
241.429	81.38
241.662	66.38
241.896	72.38
242.13	93.38
242.363	93.38
242.597	76.38
242.83	65.38
243.064	65.38
243.298	74.38
243.531	81.38
243.765	63.38
243.998	67.38
244.232	72.38
244.465	77.38
244.699	76.38
244.932	68.38
245.166	82.38
245.399	75.38
245.633	76.38
245.866	84.38
246.099	79.38
246.333	80.38
246.566	88.38
246.8	80.38
247.033	72.38
247.266	77.38
247.5	87.38
247.733	85.38
247.966	91.38
248.2	74.38
248.433	83.38
248.666	80.38
248.899	74.38
249.133	81.38
249.366	102.38
249.599	86.38
249.832	79.38
250.066	97.38
250.299	86.38
250.532	68.38
250.765	91.38
250.998	88.38
251.231	71.38
251.465	81.38
251.698	85.38
251.931	66.38
252.164	89.38
252.397	95.38
252.63	86.38
252.863	75.38
253.096	81.38
253.329	79.38
253.562	76.38
253.795	79.38
254.028	85.38
254.261	70.38
254.494	98.38
254.727	90.38
254.96	87.38
255.193	89.38
255.426	75.38
255.659	79.38
255.892	80.38
256.124	81.38
256.357	86.38
256.59	78.38
256.823	79.38
257.056	76.38
257.289	80.38
257.521	74.38
257.754	77.38
257.987	83.38
258.22	86.38
258.452	97.38
258.685	90.38
258.918	73.38
259.151	81.38
259.383	72.38
259.616	76.38
259.849	65.38
260.081	88.38
260.314	81.38
260.547	79.38
260.779	86.38
261.012	75.38
261.244	77.38
261.477	81.38
261.71	81.38
261.942	85.38
262.175	92.38
262.407	85.38
262.64	70.38
262.872	89.38
263.105	85.38
263.337	74.38
263.57	77.38
263.802	80.38
264.035	83.38
264.267	85.38
264.499	75.38
264.732	87.38
264.964	83.38
265.197	89.38
265.429	89.38
265.661	81.38
265.894	79.38
266.126	86.38
266.358	84.38
266.591	79.38
266.823	81.38
267.055	82.38
267.287	87.38
267.52	77.38
267.752	92.38
267.984	88.38
268.216	76.38
268.448	96.38
268.681	72.38
268.913	83.38
269.145	85.38
269.377	85.38
269.609	84.38
269.841	80.38
270.073	78.38
270.306	79.38
270.538	91.38
270.77	68.38
271.002	74.38
271.234	73.38
271.466	90.38
271.698	85.38
271.93	78.38
272.162	92.38
272.394	87.38
272.626	90.38
272.858	86.38
273.09	91.38
273.322	82.38
273.553	90.38
273.785	90.38
274.017	79.38
274.249	91.38
274.481	86.38
274.713	91.38
274.945	78.38
275.176	93.38
275.408	84.38
275.64	78.38
275.872	81.38
276.104	90.38
276.335	83.38
276.567	82.38
276.799	75.38
277.031	80.38
277.262	89.38
277.494	82.38
277.726	78.38
277.957	85.38
278.189	74.38
278.421	91.38
278.652	83.38
278.884	81.38
279.115	74.38
279.347	92.38
279.579	74.38
279.81	84.38
280.042	84.38
280.273	85.38
280.505	89.38
280.736	81.38
280.968	90.38
281.199	86.38
281.431	81.38
281.662	85.38
281.894	93.38
282.125	79.38
282.356	82.38
282.588	75.38
282.819	89.38
283.051	89.38
283.282	76.38
283.513	87.38
283.745	101.38
283.976	93.38
284.207	78.38
284.439	80.38
284.67	90.38
284.901	77.38
285.132	83.38
285.364	86.38
285.595	98.38
285.826	84.38
286.057	78.38
286.288	88.38
286.52	86.38
286.751	86.38
286.982	79.38
287.213	94.38
287.444	92.38
287.675	88.38
287.906	87.38
288.138	89.38
288.369	88.38
288.6	80.38
288.831	89.38
289.062	87.38
289.293	83.38
289.524	78.38
289.755	84.38
289.986	83.38
290.217	95.38
290.448	84.38
290.679	81.38
290.91	88.38
291.141	84.38
291.371	86.38
291.602	85.38
291.833	96.38
292.064	79.38
292.295	87.38
292.526	75.38
292.757	94.38
292.987	83.38
293.218	80.38
293.449	87.38
293.68	83.38
293.91	89.38
294.141	81.38
294.372	82.38
294.603	74.38
294.833	82.38
295.064	75.38
295.295	95.38
295.525	79.38
295.756	87.38
295.987	95.38
296.217	80.38
296.448	90.38
296.679	87.38
296.909	108.38
297.14	101.38
297.37	89.38
297.601	87.38
297.831	82.38
298.062	93.38
298.292	87.38
298.523	93.38
298.753	87.38
298.984	81.38
299.214	79.38
299.445	92.38
299.675	94.38
299.905	87.38
300.136	89.38
300.366	88.38
300.597	75.38
300.827	87.38
301.057	73.38
301.288	90.38
301.518	87.38
301.748	82.38
301.979	70.38
302.209	79.38
302.439	80.38
302.669	85.38
302.9	92.38
303.13	83.38
303.36	99.38
303.59	87.38
303.82	92.38
304.051	86.38
304.281	78.38
304.511	95.38
304.741	89.38
304.971	86.38
305.201	107.38
305.431	94.38
305.661	93.38
305.891	96.38
306.121	88.38
306.352	85.38
306.582	92.38
306.812	80.38
307.042	84.38
307.272	79.38
307.502	69.38
307.731	88.38
307.961	99.38
308.191	81.38
308.421	87.38
308.651	84.38
308.881	71.38
309.111	81.38
309.341	77.38
309.571	81.38
309.8	85.38
310.03	77.38
310.26	84.38
310.49	89.38
310.72	96.38
310.949	79.38
311.179	88.38
311.409	82.38
311.639	93.38
311.868	87.38
312.098	77.38
312.328	89.38
312.557	83.38
312.787	82.38
313.017	87.38
313.246	88.38
313.476	95.38
313.706	95.38
313.935	101.38
314.165	92.38
314.394	81.38
314.624	77.38
314.853	80.38
315.083	96.38
315.312	89.38
315.542	81.38
315.771	83.38
316.001	88.38
316.23	88.38
316.46	95.38
316.689	77.38
316.919	71.38
317.148	81.38
317.377	88.38
317.607	108.38
317.836	95.38
318.065	89.38
318.295	81.38
318.524	71.38
318.753	79.38
318.983	74.38
319.212	91.38
319.441	104.38
319.67	85.38
319.9	70.38
320.129	77.38
320.358	89.38
320.587	77.38
320.816	79.38
321.046	83.38
321.275	86.38
321.504	100.38
321.733	91.38
321.962	81.38
322.191	84.38
322.42	74.38
322.649	86.38
322.878	84.38
323.108	97.38
323.337	91.38
323.566	85.38
323.795	80.38
324.024	92.38
324.253	87.38
324.482	97.38
324.71	89.38
324.939	76.38
325.168	97.38
325.397	93.38
325.626	92.38
325.855	88.38
326.084	100.38
326.313	79.38
326.542	95.38
326.77	79.38
326.999	88.38
327.228	74.38
327.457	87.38
327.686	90.38
327.914	87.38
328.143	98.38
328.372	72.38
328.6	95.38
328.829	80.38
329.058	91.38
329.287	86.38
329.515	72.38
329.744	87.38
329.972	87.38
330.201	82.38
330.43	87.38
330.658	90.38
330.887	93.38
331.115	84.38
331.344	77.38
331.572	86.38
331.801	86.38
332.03	88.38
332.258	91.38
332.486	83.38
332.715	88.38
332.943	78.38
333.172	83.38
333.4	77.38
333.629	92.38
333.857	96.38
334.085	73.38
334.314	94.38
334.542	86.38
334.771	96.38
334.999	91.38
335.227	89.38
335.455	83.38
335.684	100.38
335.912	83.38
336.14	82.38
336.369	98.38
336.597	105.38
336.825	89.38
337.053	84.38
337.281	83.38
337.51	93.38
337.738	77.38
337.966	80.38
338.194	90.38
338.422	91.38
338.65	95.38
338.878	85.38
339.106	86.38
339.334	93.38
339.562	77.38
339.79	83.38
340.018	87.38
340.246	97.38
340.474	80.38
340.702	82.38
340.93	80.38
341.158	98.38
341.386	90.38
341.614	79.38
341.842	86.38
342.07	97.38
342.298	77.38
342.526	85.38
342.754	90.38
342.981	72.38
343.209	89.38
343.437	95.38
343.665	94.38
343.893	94.38
344.12	89.38
344.348	93.38
344.576	91.38
344.804	80.38
345.031	77.38
345.259	86.38
345.487	91.38
345.714	73.38
345.942	77.38
346.17	70.38
346.397	86.38
346.625	82.38
346.853	92.38
347.08	62.38
347.308	74.38
347.535	67.38
347.763	86.38
347.99	89.38
348.218	82.38
348.445	79.38
348.673	94.38
348.9	96.38
349.128	97.38
349.355	80.38
349.583	93.38
349.81	87.38
350.037	78.38
350.265	93.38
350.492	84.38
350.72	85.38
350.947	93.38
351.174	77.38
351.402	84.38
351.629	81.38
351.856	91.38
352.083	85.38
352.311	79.38
352.538	90.38
352.765	80.38
352.992	79.38
353.22	91.38
353.447	95.38
353.674	90.38
353.901	82.38
354.128	93.38
354.355	89.38
354.583	80.38
354.81	92.38
355.037	73.38
355.264	84.38
355.491	85.38
355.718	86.38
355.945	80.38
356.172	79.38
356.399	93.38
356.626	88.38
356.853	98.38
357.08	85.38
357.307	86.38
357.534	89.38
357.761	73.38
357.988	73.38
358.215	86.38
358.441	94.38
358.668	86.38
358.895	80.38
359.122	87.38
359.349	84.38
359.576	85.38
359.802	102.38
360.029	73.38
360.256	94.38
360.483	93.38
360.709	91.38
360.936	89.38
361.163	86.38
361.39	93.38
361.616	81.38
361.843	76.38
362.07	84.38
362.296	81.38
362.523	67.38
362.749	104.38
362.976	88.38
363.203	84.38
363.429	92.38
363.656	81.38
363.882	91.38
364.109	103.38
364.335	92.38
364.562	79.38
364.788	83.38
365.015	85.38
365.241	79.38
365.468	88.38
365.694	82.38
365.92	92.38
366.147	74.38
366.373	83.38
366.599	79.38
366.826	98.38
367.052	87.38
367.278	92.38
367.505	85.38
367.731	71.38
367.957	86.38
368.184	84.38
368.41	93.38
368.636	94.38
368.862	92.38
369.089	100.38
369.315	91.38
369.541	90.38
369.767	89.38
369.993	95.38
370.219	95.38
370.445	79.38
370.672	85.38
370.898	90.38
371.124	89.38
371.35	90.38
371.576	97.38
371.802	85.38
372.028	76.38
372.254	96.38
372.48	86.38
372.706	76.38
372.932	93.38
373.158	98.38
373.384	86.38
373.61	87.38
373.835	87.38
374.061	100.38
374.287	89.38
374.513	91.38
374.739	90.38
374.965	89.38
375.191	92.38
375.416	92.38
375.642	100.38
375.868	94.38
376.094	88.38
376.319	92.38
376.545	100.38
376.771	93.38
376.997	83.38
377.222	93.38
377.448	82.38
377.674	79.38
377.899	88.38
378.125	96.38
378.35	100.38
378.576	78.38
378.802	86.38
379.027	90.38
379.253	81.38
379.478	89.38
379.704	84.38
379.929	94.38
380.155	96.38
380.38	89.38
380.606	88.38
380.831	91.38
381.057	89.38
381.282	85.38
381.507	95.38
381.733	88.38
381.958	87.38
382.184	97.38
382.409	80.38
382.634	89.38
382.86	99.38
383.085	94.38
383.31	99.38
383.535	92.38
383.761	97.38
383.986	92.38
384.211	93.38
384.436	85.38
384.662	94.38
384.887	101.38
385.112	86.38
385.337	106.38
385.562	84.38
385.787	76.38
386.013	107.38
386.238	103.38
386.463	90.38
386.688	82.38
386.913	87.38
387.138	92.38
387.363	99.38
387.588	98.38
387.813	88.38
388.038	107.38
388.263	90.38
388.488	103.38
388.713	97.38
388.938	90.38
389.163	84.38
389.387	90.38
389.612	94.38
389.837	90.38
390.062	86.38
390.287	88.38
390.512	92.38
390.736	97.38
390.961	82.38
391.186	103.38
391.411	80.38
391.636	76.38
391.86	87.38
392.085	90.38
392.31	87.38
392.534	95.38
392.759	105.38
392.984	101.38
393.208	93.38
393.433	91.38
393.658	92.38
393.882	92.38
394.107	99.38
394.331	94.38
394.556	88.38
394.78	104.38
395.005	73.38
395.229	90.38
395.454	88.38
395.678	100.38
395.903	106.38
396.127	108.38
396.352	93.38
396.576	104.38
396.801	115.38
397.025	83.38
397.249	102.38
397.474	94.38
397.698	92.38
397.922	96.38
398.147	93.38
398.371	93.38
398.595	101.38
398.82	96.38
399.044	95.38
399.268	84.38
399.492	105.38
399.717	103.38
399.941	89.38
400.165	92.38
400.389	101.38
400.613	97.38
400.837	99.38
401.062	93.38
401.286	109.38
401.51	101.38
401.734	84.38
401.958	99.38
402.182	100.38
402.406	94.38
402.63	94.38
402.854	93.38
403.078	91.38
403.302	81.38
403.526	97.38
403.75	101.38
403.974	89.38
404.198	96.38
404.422	102.38
404.645	99.38
404.869	99.38
405.093	108.38
405.317	104.38
405.541	104.38
405.765	103.38
405.988	98.38
406.212	122.38
406.436	97.38
406.66	103.38
406.883	113.38
407.107	108.38
407.331	109.38
407.555	100.38
407.778	91.38
408.002	103.38
408.226	107.38
408.449	103.38
408.673	114.38
408.896	105.38
409.12	100.38
409.344	104.38
409.567	105.38
409.791	108.38
410.014	84.38
410.238	105.38
410.461	107.38
410.685	109.38
410.908	93.38
411.132	99.38
411.355	111.38
411.578	106.38
411.802	99.38
412.025	99.38
412.249	97.38
412.472	106.38
412.695	97.38
412.919	121.38
413.142	89.38
413.365	111.38
413.589	100.38
413.812	115.38
414.035	97.38
414.258	87.38
414.482	113.38
414.705	97.38
414.928	101.38
415.151	96.38
415.374	92.38
415.597	107.38
415.821	104.38
416.044	101.38
416.267	102.38
416.49	104.38
416.713	96.38
416.936	115.38
417.159	109.38
417.382	96.38
417.605	107.38
417.828	103.38
418.051	106.38
418.274	106.38
418.497	104.38
418.72	107.38
418.943	100.38
419.166	104.38
419.389	95.38
419.611	103.38
419.834	110.38
420.057	122.38
420.28	110.38
420.503	107.38
420.726	103.38
420.948	95.38
421.171	118.38
421.394	112.38
421.617	116.38
421.839	96.38
422.062	111.38
422.285	103.38
422.507	110.38
422.73	117.38
422.953	104.38
423.175	110.38
423.398	95.38
423.621	115.38
423.843	101.38
424.066	115.38
424.288	96.38
424.511	111.38
424.733	122.38
424.956	118.38
425.178	102.38
425.401	118.38
425.623	102.38
425.846	112.38
426.068	104.38
426.291	112.38
426.513	87.38
426.735	109.38
426.958	111.38
427.18	99.38
427.402	98.38
427.625	114.38
427.847	96.38
428.069	103.38
428.292	102.38
428.514	105.38
428.736	112.38
428.958	103.38
429.181	95.38
429.403	101.38
429.625	106.38
429.847	107.38
430.069	120.38
430.292	114.38
430.514	116.38
430.736	107.38
430.958	97.38
431.18	114.38
431.402	118.38
431.624	103.38
431.846	95.38
432.068	94.38
432.29	79.38
432.512	104.38
432.734	109.38
432.956	109.38
433.178	104.38
433.4	112.38
433.622	110.38
433.844	108.38
434.066	113.38
434.287	112.38
434.509	102.38
434.731	103.38
434.953	97.38
435.175	107.38
435.397	104.38
435.618	108.38
435.84	92.38
436.062	94.38
436.284	102.38
436.505	109.38
436.727	123.38
436.949	109.38
437.17	100.38
437.392	108.38
437.614	108.38
437.835	111.38
438.057	100.38
438.278	92.38
438.5	119.38
438.721	106.38
438.943	117.38
439.165	111.38
439.386	99.38
439.608	106.38
439.829	108.38
440.05	101.38
440.272	118.38
440.493	119.38
440.715	110.38
440.936	126.38
441.158	127.38
441.379	109.38
441.6	121.38
441.822	108.38
442.043	123.38
442.264	104.38
442.486	119.38
442.707	104.38
442.928	107.38
443.149	115.38
443.371	101.38
443.592	107.38
443.813	118.38
444.034	115.38
444.255	115.38
444.476	112.38
444.698	96.38
444.919	106.38
445.14	238.38
445.361	163.38
445.582	121.38
445.803	115.38
446.024	104.38
446.245	108.38
446.466	118.38
446.687	108.38
446.908	133.38
447.129	115.38
447.35	119.38
447.571	113.38
447.792	124.38
448.013	117.38
448.234	116.38
448.455	104.38
448.675	110.38
448.896	106.38
449.117	117.38
449.338	101.38
449.559	116.38
449.779	105.38
450	106.38
450.221	110.38
450.442	112.38
450.662	123.38
450.883	107.38
451.104	96.38
451.324	96.38
451.545	112.38
451.766	118.38
451.986	121.38
452.207	100.38
452.428	101.38
452.648	111.38
452.869	106.38
453.089	104.38
453.31	98.38
453.53	98.38
453.751	96.38
453.971	95.38
454.192	93.38
454.412	101.38
454.633	92.38
454.853	101.38
455.073	101.38
455.294	97.38
455.514	95.38
455.734	102.38
455.955	108.38
456.175	104.38
456.395	94.38
456.616	96.38
456.836	92.38
457.056	107.38
457.276	100.38
457.497	108.38
457.717	93.38
457.937	96.38
458.157	99.38
458.377	92.38
458.598	81.38
458.818	87.38
459.038	93.38
459.258	84.38
459.478	79.38
459.698	95.38
459.918	87.38
460.138	91.38
460.358	104.38
460.578	107.38
460.798	107.38
461.018	108.38
461.238	91.38
461.458	107.38
461.678	95.38
461.898	115.38
462.118	109.38
462.338	113.38
462.558	97.38
462.777	96.38
462.997	99.38
463.217	99.38
463.437	105.38
463.657	112.38
463.876	105.38
464.096	95.38
464.316	94.38
464.536	111.38
464.755	111.38
464.975	106.38
465.195	99.38
465.414	115.38
465.634	100.38
465.854	95.38
466.073	107.38
466.293	100.38
466.512	92.38
466.732	102.38
466.951	113.38
467.171	115.38
467.391	101.38
467.61	109.38
467.829	109.38
468.049	103.38
468.268	122.38
468.488	119.38
468.707	99.38
468.927	113.38
469.146	89.38
469.365	114.38
469.585	100.38
469.804	108.38
470.023	121.38
470.243	113.38
470.462	117.38
470.681	107.38
470.901	106.38
471.12	118.38
471.339	124.38
471.558	102.38
471.777	95.38
471.997	95.38
472.216	95.38
472.435	117.38
472.654	103.38
472.873	107.38
473.092	110.38
473.311	100.38
473.53	109.38
473.749	99.38
473.968	111.38
474.187	108.38
474.406	105.38
474.625	104.38
474.844	98.38
475.063	106.38
475.282	95.38
475.501	86.38
475.72	121.38
475.939	100.38
476.158	96.38
476.377	107.38
476.596	107.38
476.814	104.38
477.033	115.38
477.252	91.38
477.471	113.38
477.69	117.38
477.908	107.38
478.127	116.38
478.346	110.38
478.564	117.38
478.783	105.38
479.002	95.38
479.22	106.38
479.439	123.38
479.658	108.38
479.876	108.38
480.095	84.38
480.313	101.38
480.532	110.38
480.751	93.38
480.969	95.38
481.188	90.38
481.406	93.38
481.624	88.38
481.843	90.38
482.061	89.38
482.28	97.38
482.498	106.38
482.717	98.38
482.935	101.38
483.153	106.38
483.372	121.38
483.59	115.38
483.808	108.38
484.027	95.38
484.245	102.38
484.463	108.38
484.681	113.38
484.9	108.38
485.118	111.38
485.336	124.38
485.554	110.38
485.772	99.38
485.99	90.38
486.209	110.38
486.427	100.38
486.645	97.38
486.863	117.38
487.081	113.38
487.299	102.38
487.517	121.38
487.735	139.38
487.953	135.38
488.171	137.38
488.389	134.38
488.607	118.38
488.825	119.38
489.043	106.38
489.261	129.38
489.479	107.38
489.696	117.38
489.914	116.38
490.132	118.38
490.35	119.38
490.568	118.38
490.786	135.38
491.003	128.38
491.221	147.38
491.439	137.38
491.657	137.38
491.874	151.38
492.092	150.38
492.31	166.38
492.527	156.38
492.745	154.38
492.963	145.38
493.18	127.38
493.398	142.38
493.615	146.38
493.833	133.38
494.05	130.38
494.268	125.38
494.485	125.38
494.703	138.38
494.92	115.38
495.138	133.38
495.355	142.38
495.573	133.38
495.79	126.38
496.008	142.38
496.225	134.38
496.442	117.38
496.66	130.38
496.877	129.38
497.094	127.38
497.312	101.38
497.529	119.38
497.746	111.38
497.963	110.38
498.181	107.38
498.398	108.38
498.615	117.38
498.832	110.38
499.049	97.38
499.267	95.38
499.484	113.38
499.701	96.38
499.918	121.38
500.135	124.38
500.352	118.38
500.569	111.38
500.786	115.38
501.003	116.38
501.22	123.38
501.437	119.38
501.654	100.38
501.871	115.38
502.088	111.38
502.305	112.38
502.522	114.38
502.739	107.38
502.956	111.38
503.172	103.38
503.389	105.38
503.606	105.38
503.823	109.38
504.04	104.38
504.256	102.38
504.473	110.38
504.69	117.38
504.907	101.38
505.123	98.38
505.34	114.38
505.557	107.38
505.773	109.38
505.99	115.38
506.207	104.38
506.423	97.38
506.64	106.38
506.856	109.38
507.073	114.38
507.289	103.38
507.506	104.38
507.722	81.38
507.939	102.38
508.155	109.38
508.372	124.38
508.588	100.38
508.805	104.38
509.021	104.38
509.238	123.38
509.454	84.38
509.67	85.38
509.887	88.38
510.103	91.38
510.319	95.38
510.536	105.38
510.752	99.38
510.968	90.38
511.184	73.38
511.401	80.38
511.617	93.38
511.833	80.38
512.049	99.38
512.265	106.38
512.481	76.38
512.698	84.38
512.914	88.38
513.13	92.38
513.346	94.38
513.562	80.38
513.778	76.38
513.994	93.38
514.21	97.38
514.426	105.38
514.642	115.38
514.858	91.38
515.074	86.38
515.29	97.38
515.506	91.38
515.721	94.38
515.937	91.38
516.153	94.38
516.369	87.38
516.585	92.38
516.801	95.38
517.016	75.38
517.232	89.38
517.448	88.38
517.664	90.38
517.879	100.38
518.095	89.38
518.311	99.38
518.527	88.38
518.742	90.38
518.958	92.38
519.173	98.38
519.389	93.38
519.605	107.38
519.82	92.38
520.036	82.38
520.251	105.38
520.467	92.38
520.682	100.38
520.898	101.38
521.113	96.38
521.329	90.38
521.544	83.38
521.76	96.38
521.975	97.38
522.19	97.38
522.406	95.38
522.621	86.38
522.836	100.38
523.052	105.38
523.267	110.38
523.482	96.38
523.698	82.38
523.913	104.38
524.128	102.38
524.343	110.38
524.559	104.38
524.774	108.38
524.989	104.38
525.204	91.38
525.419	96.38
525.634	99.38
525.849	102.38
526.064	111.38
526.28	88.38
526.495	79.38
526.71	79.38
526.925	72.38
527.14	92.38
527.355	99.38
527.57	90.38
527.785	93.38
527.999	87.38
528.214	87.38
528.429	99.38
528.644	101.38
528.859	93.38
529.074	110.38
529.289	142.38
529.503	119.38
529.718	122.38
529.933	105.38
530.148	114.38
530.363	80.38
530.577	83.38
530.792	85.38
531.007	94.38
531.221	89.38
531.436	85.38
531.651	93.38
531.865	98.38
532.08	86.38
532.295	78.38
532.509	87.38
532.724	101.38
532.938	86.38
533.153	110.38
533.367	109.38
533.582	100.38
533.796	98.38
534.011	94.38
534.225	85.38
534.44	77.38
534.654	110.38
534.868	89.38
535.083	86.38
535.297	88.38
535.511	93.38
535.726	92.38
535.94	93.38
536.154	81.38
536.369	91.38
536.583	77.38
536.797	82.38
537.011	87.38
537.225	88.38
537.44	92.38
537.654	96.38
537.868	72.38
538.082	72.38
538.296	99.38
538.51	104.38
538.724	112.38
538.938	103.38
539.153	99.38
539.367	110.38
539.581	99.38
539.795	91.38
540.009	103.38
540.222	103.38
540.436	95.38
540.65	98.38
540.864	104.38
541.078	116.38
541.292	123.38
541.506	126.38
541.72	124.38
541.934	136.38
542.147	131.38
542.361	146.38
542.575	127.38
542.789	120.38
543.002	112.38
543.216	102.38
543.43	102.38
543.644	118.38
543.857	120.38
544.071	121.38
544.285	118.38
544.498	120.38
544.712	116.38
544.925	120.38
545.139	123.38
545.352	111.38
545.566	119.38
545.779	131.38
545.993	129.38
546.206	116.38
546.42	128.38
546.633	130.38
546.847	121.38
547.06	99.38
547.274	129.38
547.487	127.38
547.7	133.38
547.914	111.38
548.127	122.38
548.34	120.38
548.554	111.38
548.767	110.38
548.98	115.38
549.193	115.38
549.407	127.38
549.62	127.38
549.833	124.38
550.046	112.38
550.259	123.38
550.473	113.38
550.686	108.38
550.899	107.38
551.112	104.38
551.325	126.38
551.538	105.38
551.751	106.38
551.964	117.38
552.177	117.38
552.39	108.38
552.603	119.38
552.816	109.38
553.029	112.38
553.242	131.38
553.455	119.38
553.667	119.38
553.88	123.38
554.093	119.38
554.306	114.38
554.519	117.38
554.732	116.38
554.944	116.38
555.157	126.38
555.37	118.38
555.583	118.38
555.795	115.38
556.008	111.38
556.221	109.38
556.433	103.38
556.646	105.38
556.859	109.38
557.071	123.38
557.284	105.38
557.496	98.38
557.709	114.38
557.921	111.38
558.134	119.38
558.346	116.38
558.559	112.38
558.771	107.38
558.984	108.38
559.196	104.38
559.409	106.38
559.621	116.38
559.833	106.38
560.046	112.38
560.258	122.38
560.47	96.38
560.683	97.38
560.895	108.38
561.107	115.38
561.32	111.38
561.532	115.38
561.744	115.38
561.956	107.38
562.168	122.38
562.381	104.38
562.593	97.38
562.805	110.38
563.017	93.38
563.229	101.38
563.441	119.38
563.653	111.38
563.865	111.38
564.077	105.38
564.289	106.38
564.501	101.38
564.713	92.38
564.925	111.38
565.137	107.38
565.349	124.38
565.561	106.38
565.773	110.38
565.985	110.38
566.197	94.38
566.408	82.38
566.62	92.38
566.832	100.38
567.044	103.38
567.255	107.38
567.467	101.38
567.679	99.38
567.891	105.38
568.102	96.38
568.314	91.38
568.526	92.38
568.737	93.38
568.949	95.38
569.161	79.38
569.372	79.38
569.584	89.38
569.795	103.38
570.007	83.38
570.218	69.38
570.43	76.38
570.641	85.38
570.853	87.38
571.064	107.38
571.276	93.38
571.487	85.38
571.698	110.38
571.91	105.38
572.121	112.38
572.333	95.38
572.544	97.38
572.755	91.38
572.966	98.38
573.178	81.38
573.389	95.38
573.6	81.38
573.811	93.38
574.023	87.38
574.234	89.38
574.445	105.38
574.656	79.38
574.867	91.38
575.078	98.38
575.289	99.38
575.501	92.38
575.712	103.38
575.923	89.38
576.134	106.38
576.345	99.38
576.556	95.38
576.767	89.38
576.978	104.38
577.188	104.38
577.399	89.38
577.61	76.38
577.821	80.38
578.032	91.38
578.243	93.38
578.454	95.38
578.665	89.38
578.875	88.38
579.086	102.38
579.297	80.38
579.508	97.38
579.718	92.38
579.929	106.38
580.14	96.38
580.35	87.38
580.561	81.38
580.772	89.38
580.982	91.38
581.193	86.38
581.403	85.38
581.614	93.38
581.825	89.38
582.035	87.38
582.246	89.38
582.456	98.38
582.667	92.38
582.877	102.38
583.087	79.38
583.298	86.38
583.508	98.38
583.719	71.38
583.929	93.38
584.139	86.38
584.35	88.38
584.56	78.38
584.77	87.38
584.981	88.38
585.191	87.38
585.401	84.38
585.611	89.38
585.821	93.38
586.032	95.38
586.242	89.38
586.452	84.38
586.662	80.38
586.872	98.38
587.082	85.38
587.292	83.38
587.502	83.38
587.713	104.38
587.923	96.38
588.133	92.38
588.343	88.38
588.553	81.38
588.762	86.38
588.972	88.38
589.182	92.38
589.392	85.38
589.602	78.38
589.812	86.38
590.022	92.38
590.232	92.38
590.441	87.38
590.651	92.38
590.861	92.38
591.071	90.38
591.281	93.38
591.49	85.38
591.7	75.38
591.91	87.38
592.119	86.38
592.329	86.38
592.539	84.38
592.748	97.38
592.958	98.38
593.167	84.38
593.377	86.38
593.587	93.38
593.796	88.38
594.006	106.38
594.215	90.38
594.424	88.38
594.634	84.38
594.843	99.38
595.053	88.38
595.262	102.38
595.472	91.38
595.681	83.38
595.89	81.38
596.1	104.38
596.309	90.38
596.518	84.38
596.727	103.38
596.937	94.38
597.146	100.38
597.355	103.38
597.564	95.38
597.774	96.38
597.983	93.38
598.192	110.38
598.401	86.38
598.61	83.38
598.819	81.38
599.028	96.38
599.237	87.38
599.446	85.38
599.655	80.38
599.864	79.38
600.073	84.38
600.282	99.38
600.491	99.38
600.7	83.38
600.909	103.38
601.118	82.38
601.327	101.38
601.536	93.38
601.745	107.38
601.953	101.38
602.162	106.38
602.371	86.38
602.58	118.38
602.789	92.38
602.997	92.38
603.206	82.38
603.415	95.38
603.623	107.38
603.832	96.38
604.041	94.38
604.249	103.38
604.458	84.38
604.666	83.38
604.875	96.38
605.084	91.38
605.292	97.38
605.501	82.38
605.709	108.38
605.918	100.38
606.126	95.38
606.334	104.38
606.543	103.38
606.751	117.38
606.96	107.38
607.168	115.38
607.376	108.38
607.585	99.38
607.793	86.38
608.001	123.38
608.21	92.38
608.418	96.38
608.626	103.38
608.834	96.38
609.043	106.38
609.251	97.38
609.459	98.38
609.667	104.38
609.875	92.38
610.083	119.38
610.291	113.38
610.499	100.38
610.707	103.38
610.916	103.38
611.124	98.38
611.332	90.38
611.54	100.38
611.748	104.38
611.955	90.38
612.163	94.38
612.371	106.38
612.579	104.38
612.787	88.38
612.995	103.38
613.203	105.38
613.411	94.38
613.618	103.38
613.826	86.38
614.034	96.38
614.242	112.38
614.449	115.38
614.657	97.38
614.865	95.38
615.072	78.38
615.28	90.38
615.488	101.38
615.695	100.38
615.903	103.38
616.111	101.38
616.318	99.38
616.526	112.38
616.733	101.38
616.941	106.38
617.148	103.38
617.356	106.38
617.563	97.38
617.771	108.38
617.978	118.38
618.185	109.38
618.393	91.38
618.6	96.38
618.807	92.38
619.015	89.38
619.222	96.38
619.429	104.38
619.637	92.38
619.844	107.38
620.051	105.38
620.258	81.38
620.466	105.38
620.673	93.38
620.88	87.38
621.087	100.38
621.294	101.38
621.501	74.38
621.708	112.38
621.915	101.38
622.122	92.38
622.329	82.38
622.536	96.38
622.743	119.38
622.95	87.38
623.157	105.38
623.364	97.38
623.571	84.38
623.778	92.38
623.985	109.38
624.192	103.38
624.399	98.38
624.606	104.38
624.812	90.38
625.019	81.38
625.226	101.38
625.433	92.38
625.639	86.38
625.846	93.38
626.053	98.38
626.259	93.38
626.466	103.38
626.673	88.38
626.879	83.38
627.086	87.38
627.293	105.38
627.499	88.38
627.706	108.38
627.912	98.38
628.119	96.38
628.325	94.38
628.532	97.38
628.738	105.38
628.945	93.38
629.151	93.38
629.357	112.38
629.564	78.38
629.77	83.38
629.976	101.38
630.183	87.38
630.389	96.38
630.595	97.38
630.802	93.38
631.008	89.38
631.214	95.38
631.42	92.38
631.627	96.38
631.833	92.38
632.039	98.38
632.245	101.38
632.451	103.38
632.657	90.38
632.863	104.38
633.069	93.38
633.275	94.38
633.481	101.38
633.688	81.38
633.893	77.38
634.099	95.38
634.305	94.38
634.511	100.38
634.717	95.38
634.923	93.38
635.129	92.38
635.335	90.38
635.541	101.38
635.747	107.38
635.952	89.38
636.158	87.38
636.364	87.38
636.57	89.38
636.775	90.38
636.981	99.38
637.187	104.38
637.392	102.38
637.598	80.38
637.804	87.38
638.009	97.38
638.215	89.38
638.421	82.38
638.626	89.38
638.832	87.38
639.037	107.38
639.243	96.38
639.448	82.38
639.654	94.38
639.859	111.38
640.065	97.38
640.27	100.38
640.475	75.38
640.681	95.38
640.886	90.38
641.091	88.38
641.297	97.38
641.502	103.38
641.707	99.38
641.913	89.38
642.118	110.38
642.323	95.38
642.528	105.38
642.733	93.38
642.939	99.38
643.144	82.38
643.349	100.38
643.554	103.38
643.759	93.38
643.964	87.38
644.169	86.38
644.374	64.38
644.579	86.38
644.784	88.38
644.989	80.38
645.194	84.38
645.399	94.38
645.604	92.38
645.809	99.38
646.014	98.38
646.219	92.38
646.423	109.38
646.628	93.38
646.833	94.38
647.038	85.38
647.243	93.38
647.447	82.38
647.652	110.38
647.857	95.38
648.062	91.38
648.266	106.38
648.471	93.38
648.676	100.38
648.88	89.38
649.085	102.38
649.289	94.38
649.494	92.38
649.698	81.38
649.903	92.38
650.107	80.38
650.312	90.38
650.516	79.38
650.721	94.38
650.925	94.38
651.13	96.38
651.334	86.38
651.539	73.38
651.743	90.38
651.947	88.38
652.152	80.38
652.356	92.38
652.56	91.38
652.764	97.38
652.969	96.38
653.173	91.38
653.377	96.38
653.581	102.38
653.785	106.38
653.99	98.38
654.194	91.38
654.398	96.38
654.602	100.38
654.806	105.38
655.01	96.38
655.214	99.38
655.418	85.38
655.622	89.38
655.826	86.38
656.03	78.38
656.234	82.38
656.438	83.38
656.642	104.38
656.846	82.38
657.049	79.38
657.253	93.38
657.457	89.38
657.661	91.38
657.865	92.38
658.068	95.38
658.272	88.38
658.476	84.38
658.68	88.38
658.883	90.38
659.087	70.38
659.291	74.38
659.494	90.38
659.698	94.38
659.901	98.38
660.105	87.38
660.309	85.38
660.512	79.38
660.716	85.38
660.919	93.38
661.123	94.38
661.326	87.38
661.53	92.38
661.733	79.38
661.936	91.38
662.14	97.38
662.343	84.38
662.546	84.38
662.75	84.38
662.953	81.38
663.156	93.38
663.36	88.38
663.563	86.38
663.766	95.38
663.969	89.38
664.173	72.38
664.376	91.38
664.579	91.38
664.782	85.38
664.985	78.38
665.188	87.38
665.391	76.38
665.594	81.38
665.797	86.38
666	68.38
666.203	88.38
666.406	75.38
666.609	88.38
666.812	97.38
667.015	100.38
667.218	87.38
667.421	86.38
667.624	79.38
667.827	88.38
668.03	83.38
668.232	76.38
668.435	67.38
668.638	93.38
668.841	87.38
669.043	99.38
669.246	88.38
669.449	88.38
669.651	77.38
669.854	77.38
670.057	90.38
670.259	77.38
670.462	79.38
670.665	82.38
670.867	101.38
671.07	85.38
671.272	89.38
671.475	75.38
671.677	86.38
671.88	85.38
672.082	101.38
672.284	79.38
672.487	74.38
672.689	79.38
672.892	85.38
