Data from Zn(NO3)2Standard.Agarose3%.GreenCap.LampEnergy5.5.E.O_HRD10591_15-01-44-768.txt Node
Date: Mon Jul 22 15:01:44 EDT 2019
User: cochatt
Spectrometer: HR+D1059
Trigger mode: 1
Integration Time (sec): 1.000000E-1
Scans to average: 1
Electric dark correction enabled: true
Nonlinearity correction enabled: false
Boxcar width: 0
XAxis mode: Wavelengths
Number of Pixels in Spectrum: 2048
>>>>>Begin Spectral Data<<<<<
223.165	-7.31
223.4	-7.31
223.635	-7.31
223.869	-19.31
224.104	-17.31
224.338	-22.31
224.573	-6.31
224.808	-12.31
225.042	-5.31
225.277	-7.31
225.511	-8.31
225.746	-2.31
225.98	17.69
226.215	9.69
226.449	4.69
226.683	26.69
226.918	36.69
227.152	12.69
227.387	45.69
227.621	33.69
227.856	52.69
228.09	46.69
228.324	40.69
228.559	56.69
228.793	67.69
229.027	65.69
229.262	77.69
229.496	62.69
229.73	77.69
229.964	57.69
230.199	75.69
230.433	68.69
230.667	60.69
230.901	72.69
231.136	86.69
231.37	82.69
231.604	80.69
231.838	92.69
232.072	83.69
232.306	80.69
232.541	87.69
232.775	78.69
233.009	83.69
233.243	84.69
233.477	77.69
233.711	83.69
233.945	80.69
234.179	73.69
234.413	81.69
234.647	77.69
234.881	80.69
235.115	76.69
235.349	75.69
235.583	72.69
235.817	72.69
236.051	74.69
236.285	81.69
236.519	77.69
236.753	77.69
236.987	76.69
237.221	85.69
237.455	86.69
237.689	90.69
237.922	67.69
238.156	70.69
238.39	73.69
238.624	69.69
238.858	72.69
239.091	68.69
239.325	86.69
239.559	82.69
239.793	69.69
240.027	82.69
240.26	74.69
240.494	69.69
240.728	83.69
240.961	68.69
241.195	84.69
241.429	77.69
241.662	76.69
241.896	74.69
242.13	76.69
242.363	89.69
242.597	79.69
242.83	62.69
243.064	83.69
243.298	70.69
243.531	74.69
243.765	76.69
243.998	69.69
244.232	78.69
244.465	83.69
244.699	87.69
244.932	77.69
245.166	83.69
245.399	69.69
245.633	69.69
245.866	91.69
246.099	73.69
246.333	92.69
246.566	79.69
246.8	67.69
247.033	73.69
247.266	73.69
247.5	77.69
247.733	86.69
247.966	85.69
248.2	101.69
248.433	89.69
248.666	81.69
248.899	83.69
249.133	86.69
249.366	87.69
249.599	91.69
249.832	62.69
250.066	77.69
250.299	72.69
250.532	75.69
250.765	93.69
250.998	70.69
251.231	80.69
251.465	77.69
251.698	83.69
251.931	69.69
252.164	82.69
252.397	79.69
252.63	78.69
252.863	87.69
253.096	81.69
253.329	72.69
253.562	91.69
253.795	90.69
254.028	84.69
254.261	82.69
254.494	82.69
254.727	82.69
254.96	73.69
255.193	91.69
255.426	86.69
255.659	81.69
255.892	83.69
256.124	78.69
256.357	75.69
256.59	77.69
256.823	92.69
257.056	56.69
257.289	88.69
257.521	88.69
257.754	81.69
257.987	84.69
258.22	77.69
258.452	77.69
258.685	73.69
258.918	69.69
259.151	77.69
259.383	66.69
259.616	82.69
259.849	78.69
260.081	68.69
260.314	93.69
260.547	80.69
260.779	82.69
261.012	70.69
261.244	75.69
261.477	82.69
261.71	84.69
261.942	69.69
262.175	99.69
262.407	73.69
262.64	74.69
262.872	70.69
263.105	76.69
263.337	93.69
263.57	84.69
263.802	83.69
264.035	83.69
264.267	67.69
264.499	83.69
264.732	79.69
264.964	88.69
265.197	81.69
265.429	94.69
265.661	86.69
265.894	78.69
266.126	89.69
266.358	87.69
266.591	71.69
266.823	68.69
267.055	70.69
267.287	82.69
267.52	77.69
267.752	81.69
267.984	72.69
268.216	94.69
268.448	85.69
268.681	81.69
268.913	99.69
269.145	91.69
269.377	72.69
269.609	97.69
269.841	84.69
270.073	91.69
270.306	92.69
270.538	93.69
270.77	90.69
271.002	87.69
271.234	83.69
271.466	94.69
271.698	71.69
271.93	78.69
272.162	67.69
272.394	90.69
272.626	97.69
272.858	72.69
273.09	80.69
273.322	86.69
273.553	89.69
273.785	89.69
274.017	96.69
274.249	93.69
274.481	75.69
274.713	77.69
274.945	80.69
275.176	75.69
275.408	73.69
275.64	75.69
275.872	80.69
276.104	89.69
276.335	88.69
276.567	93.69
276.799	102.69
277.031	84.69
277.262	80.69
277.494	89.69
277.726	91.69
277.957	80.69
278.189	74.69
278.421	88.69
278.652	91.69
278.884	96.69
279.115	88.69
279.347	82.69
279.579	77.69
279.81	75.69
280.042	94.69
280.273	78.69
280.505	80.69
280.736	96.69
280.968	87.69
281.199	92.69
281.431	92.69
281.662	88.69
281.894	92.69
282.125	108.69
282.356	84.69
282.588	83.69
282.819	80.69
283.051	90.69
283.282	69.69
283.513	80.69
283.745	88.69
283.976	89.69
284.207	77.69
284.439	77.69
284.67	74.69
284.901	85.69
285.132	91.69
285.364	91.69
285.595	89.69
285.826	93.69
286.057	78.69
286.288	87.69
286.52	69.69
286.751	97.69
286.982	82.69
287.213	78.69
287.444	83.69
287.675	90.69
287.906	83.69
288.138	85.69
288.369	93.69
288.6	92.69
288.831	82.69
289.062	73.69
289.293	78.69
289.524	94.69
289.755	78.69
289.986	77.69
290.217	92.69
290.448	91.69
290.679	83.69
290.91	97.69
291.141	88.69
291.371	94.69
291.602	69.69
291.833	86.69
292.064	94.69
292.295	82.69
292.526	79.69
292.757	89.69
292.987	94.69
293.218	101.69
293.449	84.69
293.68	86.69
293.91	90.69
294.141	76.69
294.372	87.69
294.603	91.69
294.833	90.69
295.064	81.69
295.295	87.69
295.525	76.69
295.756	72.69
295.987	78.69
296.217	94.69
296.448	80.69
296.679	84.69
296.909	86.69
297.14	88.69
297.37	100.69
297.601	77.69
297.831	89.69
298.062	89.69
298.292	89.69
298.523	74.69
298.753	83.69
298.984	95.69
299.214	97.69
299.445	88.69
299.675	87.69
299.905	90.69
300.136	89.69
300.366	78.69
300.597	71.69
300.827	94.69
301.057	81.69
301.288	81.69
301.518	76.69
301.748	83.69
301.979	81.69
302.209	87.69
302.439	103.69
302.669	99.69
302.9	92.69
303.13	90.69
303.36	93.69
303.59	82.69
303.82	101.69
304.051	96.69
304.281	68.69
304.511	70.69
304.741	80.69
304.971	84.69
305.201	58.69
305.431	77.69
305.661	86.69
305.891	76.69
306.121	74.69
306.352	89.69
306.582	77.69
306.812	89.69
307.042	92.69
307.272	78.69
307.502	79.69
307.731	105.69
307.961	86.69
308.191	88.69
308.421	83.69
308.651	90.69
308.881	91.69
309.111	90.69
309.341	88.69
309.571	92.69
309.8	97.69
310.03	88.69
310.26	82.69
310.49	77.69
310.72	78.69
310.949	97.69
311.179	81.69
311.409	95.69
311.639	85.69
311.868	84.69
312.098	89.69
312.328	84.69
312.557	84.69
312.787	90.69
313.017	88.69
313.246	93.69
313.476	77.69
313.706	75.69
313.935	92.69
314.165	98.69
314.394	81.69
314.624	81.69
314.853	81.69
315.083	83.69
315.312	75.69
315.542	81.69
315.771	88.69
316.001	92.69
316.23	84.69
316.46	94.69
316.689	74.69
316.919	88.69
317.148	78.69
317.377	95.69
317.607	92.69
317.836	88.69
318.065	92.69
318.295	82.69
318.524	85.69
318.753	80.69
318.983	88.69
319.212	79.69
319.441	90.69
319.67	82.69
319.9	101.69
320.129	77.69
320.358	100.69
320.587	86.69
320.816	85.69
321.046	85.69
321.275	78.69
321.504	84.69
321.733	95.69
321.962	79.69
322.191	90.69
322.42	95.69
322.649	92.69
322.878	81.69
323.108	88.69
323.337	88.69
323.566	86.69
323.795	78.69
324.024	83.69
324.253	80.69
324.482	78.69
324.71	83.69
324.939	84.69
325.168	85.69
325.397	93.69
325.626	98.69
325.855	93.69
326.084	91.69
326.313	96.69
326.542	89.69
326.77	93.69
326.999	81.69
327.228	87.69
327.457	83.69
327.686	90.69
327.914	87.69
328.143	81.69
328.372	79.69
328.6	82.69
328.829	81.69
329.058	75.69
329.287	79.69
329.515	96.69
329.744	92.69
329.972	99.69
330.201	88.69
330.43	86.69
330.658	96.69
330.887	84.69
331.115	89.69
331.344	81.69
331.572	87.69
331.801	71.69
332.03	86.69
332.258	79.69
332.486	90.69
332.715	89.69
332.943	90.69
333.172	89.69
333.4	95.69
333.629	89.69
333.857	88.69
334.085	92.69
334.314	81.69
334.542	85.69
334.771	79.69
334.999	85.69
335.227	76.69
335.455	82.69
335.684	89.69
335.912	81.69
336.14	79.69
336.369	77.69
336.597	78.69
336.825	77.69
337.053	96.69
337.281	94.69
337.51	76.69
337.738	80.69
337.966	100.69
338.194	93.69
338.422	87.69
338.65	89.69
338.878	67.69
339.106	78.69
339.334	89.69
339.562	90.69
339.79	99.69
340.018	91.69
340.246	93.69
340.474	76.69
340.702	69.69
340.93	80.69
341.158	79.69
341.386	88.69
341.614	89.69
341.842	96.69
342.07	92.69
342.298	72.69
342.526	86.69
342.754	89.69
342.981	81.69
343.209	80.69
343.437	97.69
343.665	89.69
343.893	72.69
344.12	80.69
344.348	94.69
344.576	81.69
344.804	80.69
345.031	77.69
345.259	84.69
345.487	79.69
345.714	77.69
345.942	67.69
346.17	87.69
346.397	90.69
346.625	87.69
346.853	91.69
347.08	88.69
347.308	92.69
347.535	90.69
347.763	80.69
347.99	85.69
348.218	85.69
348.445	88.69
348.673	92.69
348.9	100.69
349.128	95.69
349.355	96.69
349.583	97.69
349.81	81.69
350.037	86.69
350.265	85.69
350.492	83.69
350.72	81.69
350.947	88.69
351.174	84.69
351.402	64.69
351.629	78.69
351.856	91.69
352.083	88.69
352.311	104.69
352.538	80.69
352.765	80.69
352.992	76.69
353.22	78.69
353.447	72.69
353.674	98.69
353.901	87.69
354.128	77.69
354.355	92.69
354.583	71.69
354.81	75.69
355.037	77.69
355.264	84.69
355.491	75.69
355.718	84.69
355.945	80.69
356.172	79.69
356.399	91.69
356.626	79.69
356.853	86.69
357.08	82.69
357.307	90.69
357.534	101.69
357.761	78.69
357.988	88.69
358.215	77.69
358.441	86.69
358.668	81.69
358.895	90.69
359.122	91.69
359.349	92.69
359.576	85.69
359.802	89.69
360.029	90.69
360.256	80.69
360.483	89.69
360.709	96.69
360.936	84.69
361.163	85.69
361.39	89.69
361.616	89.69
361.843	100.69
362.07	90.69
362.296	83.69
362.523	82.69
362.749	88.69
362.976	72.69
363.203	83.69
363.429	99.69
363.656	87.69
363.882	96.69
364.109	68.69
364.335	77.69
364.562	88.69
364.788	98.69
365.015	91.69
365.241	88.69
365.468	76.69
365.694	75.69
365.92	83.69
366.147	75.69
366.373	85.69
366.599	91.69
366.826	102.69
367.052	91.69
367.278	82.69
367.505	88.69
367.731	89.69
367.957	86.69
368.184	67.69
368.41	86.69
368.636	96.69
368.862	103.69
369.089	71.69
369.315	83.69
369.541	90.69
369.767	86.69
369.993	81.69
370.219	88.69
370.445	94.69
370.672	85.69
370.898	92.69
371.124	72.69
371.35	84.69
371.576	91.69
371.802	84.69
372.028	86.69
372.254	95.69
372.48	88.69
372.706	81.69
372.932	76.69
373.158	84.69
373.384	89.69
373.61	91.69
373.835	97.69
374.061	91.69
374.287	89.69
374.513	79.69
374.739	84.69
374.965	83.69
375.191	90.69
375.416	97.69
375.642	72.69
375.868	76.69
376.094	75.69
376.319	86.69
376.545	77.69
376.771	91.69
376.997	83.69
377.222	90.69
377.448	87.69
377.674	82.69
377.899	83.69
378.125	82.69
378.35	77.69
378.576	78.69
378.802	89.69
379.027	78.69
379.253	82.69
379.478	89.69
379.704	81.69
379.929	82.69
380.155	76.69
380.38	86.69
380.606	88.69
380.831	92.69
381.057	93.69
381.282	88.69
381.507	83.69
381.733	85.69
381.958	77.69
382.184	85.69
382.409	91.69
382.634	77.69
382.86	95.69
383.085	91.69
383.31	73.69
383.535	91.69
383.761	85.69
383.986	89.69
384.211	90.69
384.436	92.69
384.662	80.69
384.887	79.69
385.112	74.69
385.337	73.69
385.562	75.69
385.787	90.69
386.013	84.69
386.238	81.69
386.463	91.69
386.688	85.69
386.913	86.69
387.138	92.69
387.363	93.69
387.588	93.69
387.813	79.69
388.038	80.69
388.263	93.69
388.488	98.69
388.713	77.69
388.938	87.69
389.163	91.69
389.387	72.69
389.612	88.69
389.837	87.69
390.062	91.69
390.287	86.69
390.512	82.69
390.736	97.69
390.961	91.69
391.186	84.69
391.411	85.69
391.636	92.69
391.86	85.69
392.085	79.69
392.31	77.69
392.534	88.69
392.759	85.69
392.984	76.69
393.208	90.69
393.433	76.69
393.658	77.69
393.882	85.69
394.107	93.69
394.331	89.69
394.556	83.69
394.78	87.69
395.005	85.69
395.229	92.69
395.454	69.69
395.678	86.69
395.903	87.69
396.127	98.69
396.352	90.69
396.576	83.69
396.801	81.69
397.025	82.69
397.249	90.69
397.474	86.69
397.698	81.69
397.922	96.69
398.147	81.69
398.371	84.69
398.595	85.69
398.82	83.69
399.044	75.69
399.268	88.69
399.492	86.69
399.717	88.69
399.941	82.69
400.165	91.69
400.389	92.69
400.613	73.69
400.837	76.69
401.062	81.69
401.286	90.69
401.51	76.69
401.734	82.69
401.958	103.69
402.182	82.69
402.406	79.69
402.63	77.69
402.854	81.69
403.078	77.69
403.302	85.69
403.526	96.69
403.75	93.69
403.974	73.69
404.198	91.69
404.422	100.69
404.645	88.69
404.869	99.69
405.093	87.69
405.317	81.69
405.541	84.69
405.765	92.69
405.988	91.69
406.212	81.69
406.436	100.69
406.66	94.69
406.883	77.69
407.107	84.69
407.331	87.69
407.555	79.69
407.778	77.69
408.002	91.69
408.226	76.69
408.449	102.69
408.673	89.69
408.896	86.69
409.12	91.69
409.344	93.69
409.567	89.69
409.791	76.69
410.014	80.69
410.238	90.69
410.461	77.69
410.685	88.69
410.908	79.69
411.132	96.69
411.355	93.69
411.578	89.69
411.802	91.69
412.025	85.69
412.249	92.69
412.472	83.69
412.695	89.69
412.919	92.69
413.142	82.69
413.365	82.69
413.589	97.69
413.812	97.69
414.035	96.69
414.258	87.69
414.482	93.69
414.705	81.69
414.928	93.69
415.151	98.69
415.374	81.69
415.597	79.69
415.821	90.69
416.044	107.69
416.267	86.69
416.49	90.69
416.713	94.69
416.936	97.69
417.159	82.69
417.382	84.69
417.605	87.69
417.828	99.69
418.051	72.69
418.274	94.69
418.497	86.69
418.72	80.69
418.943	107.69
419.166	86.69
419.389	93.69
419.611	104.69
419.834	96.69
420.057	87.69
420.28	88.69
420.503	88.69
420.726	85.69
420.948	98.69
421.171	86.69
421.394	102.69
421.617	84.69
421.839	81.69
422.062	85.69
422.285	110.69
422.507	85.69
422.73	81.69
422.953	86.69
423.175	84.69
423.398	89.69
423.621	96.69
423.843	96.69
424.066	82.69
424.288	95.69
424.511	88.69
424.733	99.69
424.956	107.69
425.178	96.69
425.401	84.69
425.623	82.69
425.846	81.69
426.068	82.69
426.291	90.69
426.513	75.69
426.735	85.69
426.958	73.69
427.18	86.69
427.402	94.69
427.625	99.69
427.847	95.69
428.069	94.69
428.292	93.69
428.514	94.69
428.736	67.69
428.958	93.69
429.181	76.69
429.403	86.69
429.625	93.69
429.847	83.69
430.069	72.69
430.292	96.69
430.514	100.69
430.736	87.69
430.958	91.69
431.18	91.69
431.402	88.69
431.624	86.69
431.846	99.69
432.068	76.69
432.29	92.69
432.512	74.69
432.734	75.69
432.956	84.69
433.178	106.69
433.4	96.69
433.622	100.69
433.844	99.69
434.066	95.69
434.287	82.69
434.509	73.69
434.731	86.69
434.953	83.69
435.175	101.69
435.397	77.69
435.618	94.69
435.84	84.69
436.062	91.69
436.284	92.69
436.505	76.69
436.727	85.69
436.949	90.69
437.17	97.69
437.392	85.69
437.614	71.69
437.835	90.69
438.057	78.69
438.278	84.69
438.5	91.69
438.721	70.69
438.943	96.69
439.165	90.69
439.386	83.69
439.608	104.69
439.829	94.69
440.05	90.69
440.272	95.69
440.493	98.69
440.715	85.69
440.936	90.69
441.158	95.69
441.379	99.69
441.6	85.69
441.822	88.69
442.043	87.69
442.264	91.69
442.486	80.69
442.707	91.69
442.928	85.69
443.149	83.69
443.371	91.69
443.592	91.69
443.813	91.69
444.034	85.69
444.255	92.69
444.476	85.69
444.698	87.69
444.919	97.69
445.14	184.69
445.361	117.69
445.582	90.69
445.803	85.69
446.024	84.69
446.245	103.69
446.466	104.69
446.687	97.69
446.908	94.69
447.129	101.69
447.35	90.69
447.571	97.69
447.792	105.69
448.013	81.69
448.234	88.69
448.455	92.69
448.675	79.69
448.896	80.69
449.117	91.69
449.338	99.69
449.559	88.69
449.779	104.69
450	86.69
450.221	90.69
450.442	86.69
450.662	74.69
450.883	87.69
451.104	78.69
451.324	94.69
451.545	95.69
451.766	80.69
451.986	89.69
452.207	90.69
452.428	90.69
452.648	82.69
452.869	82.69
453.089	98.69
453.31	101.69
453.53	93.69
453.751	82.69
453.971	74.69
454.192	76.69
454.412	74.69
454.633	97.69
454.853	87.69
455.073	87.69
455.294	102.69
455.514	82.69
455.734	75.69
455.955	96.69
456.175	77.69
456.395	100.69
456.616	84.69
456.836	86.69
457.056	86.69
457.276	89.69
457.497	85.69
457.717	85.69
457.937	93.69
458.157	88.69
458.377	96.69
458.598	85.69
458.818	83.69
459.038	72.69
459.258	68.69
459.478	89.69
459.698	90.69
459.918	78.69
460.138	86.69
460.358	97.69
460.578	96.69
460.798	82.69
461.018	97.69
461.238	92.69
461.458	89.69
461.678	91.69
461.898	99.69
462.118	86.69
462.338	88.69
462.558	95.69
462.777	89.69
462.997	73.69
463.217	88.69
463.437	83.69
463.657	94.69
463.876	89.69
464.096	91.69
464.316	83.69
464.536	82.69
464.755	74.69
464.975	87.69
465.195	96.69
465.414	96.69
465.634	84.69
465.854	86.69
466.073	82.69
466.293	86.69
466.512	83.69
466.732	97.69
466.951	97.69
467.171	90.69
467.391	82.69
467.61	96.69
467.829	103.69
468.049	92.69
468.268	90.69
468.488	88.69
468.707	72.69
468.927	85.69
469.146	94.69
469.365	74.69
469.585	92.69
469.804	98.69
470.023	82.69
470.243	88.69
470.462	89.69
470.681	80.69
470.901	95.69
471.12	96.69
471.339	92.69
471.558	95.69
471.777	89.69
471.997	95.69
472.216	91.69
472.435	99.69
472.654	84.69
472.873	94.69
473.092	85.69
473.311	82.69
473.53	87.69
473.749	94.69
473.968	83.69
474.187	97.69
474.406	85.69
474.625	85.69
474.844	96.69
475.063	103.69
475.282	88.69
475.501	82.69
475.72	85.69
475.939	85.69
476.158	93.69
476.377	83.69
476.596	91.69
476.814	105.69
477.033	94.69
477.252	103.69
477.471	89.69
477.69	88.69
477.908	87.69
478.127	86.69
478.346	97.69
478.564	103.69
478.783	96.69
479.002	116.69
479.22	101.69
479.439	92.69
479.658	84.69
479.876	101.69
480.095	101.69
480.313	86.69
480.532	102.69
480.751	87.69
480.969	90.69
481.188	89.69
481.406	84.69
481.624	83.69
481.843	76.69
482.061	97.69
482.28	89.69
482.498	81.69
482.717	88.69
482.935	85.69
483.153	91.69
483.372	89.69
483.59	88.69
483.808	97.69
484.027	93.69
484.245	93.69
484.463	77.69
484.681	95.69
484.9	105.69
485.118	92.69
485.336	86.69
485.554	90.69
485.772	79.69
485.99	77.69
486.209	88.69
486.427	87.69
486.645	98.69
486.863	88.69
487.081	93.69
487.299	92.69
487.517	98.69
487.735	97.69
487.953	104.69
488.171	96.69
488.389	100.69
488.607	83.69
488.825	84.69
489.043	92.69
489.261	94.69
489.479	102.69
489.696	103.69
489.914	97.69
490.132	86.69
490.35	97.69
490.568	96.69
490.786	99.69
491.003	99.69
491.221	93.69
491.439	95.69
491.657	105.69
491.874	109.69
492.092	112.69
492.31	114.69
492.527	108.69
492.745	110.69
492.963	97.69
493.18	100.69
493.398	102.69
493.615	104.69
493.833	83.69
494.05	104.69
494.268	103.69
494.485	86.69
494.703	105.69
494.92	99.69
495.138	100.69
495.355	98.69
495.573	88.69
495.79	89.69
496.008	106.69
496.225	93.69
496.442	78.69
496.66	103.69
496.877	91.69
497.094	112.69
497.312	112.69
497.529	109.69
497.746	102.69
497.963	100.69
498.181	88.69
498.398	91.69
498.615	86.69
498.832	92.69
499.049	73.69
499.267	89.69
499.484	84.69
499.701	90.69
499.918	83.69
500.135	95.69
500.352	86.69
500.569	87.69
500.786	89.69
501.003	82.69
501.22	81.69
501.437	89.69
501.654	88.69
501.871	90.69
502.088	85.69
502.305	96.69
502.522	98.69
502.739	93.69
502.956	109.69
503.172	83.69
503.389	103.69
503.606	96.69
503.823	92.69
504.04	101.69
504.256	88.69
504.473	89.69
504.69	77.69
504.907	101.69
505.123	101.69
505.34	103.69
505.557	74.69
505.773	91.69
505.99	76.69
506.207	83.69
506.423	87.69
506.64	82.69
506.856	81.69
507.073	71.69
507.289	89.69
507.506	83.69
507.722	92.69
507.939	93.69
508.155	76.69
508.372	91.69
508.588	82.69
508.805	88.69
509.021	78.69
509.238	79.69
509.454	86.69
509.67	74.69
509.887	86.69
510.103	82.69
510.319	92.69
510.536	106.69
510.752	87.69
510.968	79.69
511.184	93.69
511.401	77.69
511.617	84.69
511.833	96.69
512.049	92.69
512.265	84.69
512.481	75.69
512.698	76.69
512.914	87.69
513.13	92.69
513.346	87.69
513.562	84.69
513.778	88.69
513.994	79.69
514.21	76.69
514.426	86.69
514.642	83.69
514.858	80.69
515.074	82.69
515.29	72.69
515.506	91.69
515.721	85.69
515.937	93.69
516.153	77.69
516.369	85.69
516.585	70.69
516.801	66.69
517.016	100.69
517.232	81.69
517.448	92.69
517.664	83.69
517.879	86.69
518.095	87.69
518.311	89.69
518.527	86.69
518.742	88.69
518.958	66.69
519.173	80.69
519.389	90.69
519.605	91.69
519.82	77.69
520.036	90.69
520.251	86.69
520.467	86.69
520.682	78.69
520.898	78.69
521.113	75.69
521.329	88.69
521.544	71.69
521.76	87.69
521.975	84.69
522.19	89.69
522.406	89.69
522.621	83.69
522.836	86.69
523.052	105.69
523.267	89.69
523.482	95.69
523.698	86.69
523.913	90.69
524.128	89.69
524.343	77.69
524.559	97.69
524.774	86.69
524.989	84.69
525.204	86.69
525.419	85.69
525.634	93.69
525.849	79.69
526.064	86.69
526.28	92.69
526.495	77.69
526.71	87.69
526.925	89.69
527.14	73.69
527.355	72.69
527.57	84.69
527.785	75.69
527.999	85.69
528.214	85.69
528.429	77.69
528.644	84.69
528.859	96.69
529.074	91.69
529.289	99.69
529.503	94.69
529.718	113.69
529.933	87.69
530.148	79.69
530.363	77.69
530.577	81.69
530.792	73.69
531.007	77.69
531.221	86.69
531.436	77.69
531.651	73.69
531.865	85.69
532.08	84.69
532.295	78.69
532.509	80.69
532.724	90.69
532.938	76.69
533.153	89.69
533.367	83.69
533.582	79.69
533.796	87.69
534.011	89.69
534.225	85.69
534.44	74.69
534.654	84.69
534.868	87.69
535.083	87.69
535.297	73.69
535.511	85.69
535.726	89.69
535.94	78.69
536.154	84.69
536.369	82.69
536.583	78.69
536.797	87.69
537.011	97.69
537.225	76.69
537.44	87.69
537.654	92.69
537.868	86.69
538.082	74.69
538.296	89.69
538.51	95.69
538.724	81.69
538.938	86.69
539.153	93.69
539.367	89.69
539.581	98.69
539.795	96.69
540.009	88.69
540.222	86.69
540.436	83.69
540.65	83.69
540.864	89.69
541.078	75.69
541.292	95.69
541.506	98.69
541.72	108.69
541.934	89.69
542.147	89.69
542.361	98.69
542.575	102.69
542.789	91.69
543.002	84.69
543.216	100.69
543.43	94.69
543.644	76.69
543.857	91.69
544.071	101.69
544.285	101.69
544.498	99.69
544.712	101.69
544.925	99.69
545.139	94.69
545.352	89.69
545.566	83.69
545.779	95.69
545.993	90.69
546.206	113.69
546.42	117.69
546.633	104.69
546.847	101.69
547.06	101.69
547.274	104.69
547.487	99.69
547.7	108.69
547.914	86.69
548.127	120.69
548.34	99.69
548.554	78.69
548.767	98.69
548.98	105.69
549.193	84.69
549.407	107.69
549.62	92.69
549.833	97.69
550.046	92.69
550.259	84.69
550.473	105.69
550.686	93.69
550.899	96.69
551.112	106.69
551.325	94.69
551.538	110.69
551.751	109.69
551.964	93.69
552.177	98.69
552.39	111.69
552.603	100.69
552.816	87.69
553.029	87.69
553.242	91.69
553.455	95.69
553.667	92.69
553.88	94.69
554.093	98.69
554.306	105.69
554.519	109.69
554.732	104.69
554.944	94.69
555.157	102.69
555.37	107.69
555.583	92.69
555.795	102.69
556.008	107.69
556.221	97.69
556.433	97.69
556.646	85.69
556.859	91.69
557.071	85.69
557.284	97.69
557.496	106.69
557.709	112.69
557.921	100.69
558.134	97.69
558.346	101.69
558.559	115.69
558.771	96.69
558.984	87.69
559.196	101.69
559.409	83.69
559.621	96.69
559.833	93.69
560.046	102.69
560.258	100.69
560.47	75.69
560.683	85.69
560.895	88.69
561.107	86.69
561.32	105.69
561.532	99.69
561.744	89.69
561.956	83.69
562.168	97.69
562.381	81.69
562.593	94.69
562.805	79.69
563.017	89.69
563.229	76.69
563.441	77.69
563.653	96.69
563.865	86.69
564.077	94.69
564.289	90.69
564.501	96.69
564.713	97.69
564.925	88.69
565.137	91.69
565.349	97.69
565.561	80.69
565.773	93.69
565.985	94.69
566.197	84.69
566.408	87.69
566.62	94.69
566.832	97.69
567.044	83.69
567.255	86.69
567.467	97.69
567.679	96.69
567.891	81.69
568.102	75.69
568.314	91.69
568.526	84.69
568.737	82.69
568.949	86.69
569.161	87.69
569.372	84.69
569.584	89.69
569.795	78.69
570.007	90.69
570.218	87.69
570.43	67.69
570.641	103.69
570.853	96.69
571.064	90.69
571.276	91.69
571.487	80.69
571.698	81.69
571.91	81.69
572.121	86.69
572.333	81.69
572.544	87.69
572.755	82.69
572.966	67.69
573.178	80.69
573.389	84.69
573.6	80.69
573.811	83.69
574.023	98.69
574.234	80.69
574.445	92.69
574.656	90.69
574.867	91.69
575.078	82.69
575.289	81.69
575.501	87.69
575.712	88.69
575.923	86.69
576.134	95.69
576.345	97.69
576.556	75.69
576.767	77.69
576.978	89.69
577.188	91.69
577.399	96.69
577.61	84.69
577.821	89.69
578.032	78.69
578.243	92.69
578.454	92.69
578.665	87.69
578.875	82.69
579.086	79.69
579.297	82.69
579.508	82.69
579.718	90.69
579.929	78.69
580.14	83.69
580.35	93.69
580.561	89.69
580.772	92.69
580.982	89.69
581.193	83.69
581.403	96.69
581.614	95.69
581.825	83.69
582.035	89.69
582.246	98.69
582.456	77.69
582.667	82.69
582.877	84.69
583.087	81.69
583.298	92.69
583.508	91.69
583.719	94.69
583.929	87.69
584.139	90.69
584.35	82.69
584.56	71.69
584.77	84.69
584.981	90.69
585.191	69.69
585.401	72.69
585.611	76.69
585.821	92.69
586.032	88.69
586.242	87.69
586.452	91.69
586.662	83.69
586.872	77.69
587.082	82.69
587.292	79.69
587.502	93.69
587.713	94.69
587.923	74.69
588.133	72.69
588.343	87.69
588.553	86.69
588.762	92.69
588.972	79.69
589.182	74.69
589.392	93.69
589.602	91.69
589.812	92.69
590.022	70.69
590.232	80.69
590.441	87.69
590.651	82.69
590.861	88.69
591.071	86.69
591.281	80.69
591.49	85.69
591.7	86.69
591.91	88.69
592.119	85.69
592.329	92.69
592.539	88.69
592.748	78.69
592.958	93.69
593.167	81.69
593.377	73.69
593.587	91.69
593.796	76.69
594.006	89.69
594.215	82.69
594.424	106.69
594.634	82.69
594.843	77.69
595.053	90.69
595.262	92.69
595.472	92.69
595.681	74.69
595.89	81.69
596.1	85.69
596.309	87.69
596.518	85.69
596.727	103.69
596.937	82.69
597.146	88.69
597.355	94.69
597.564	88.69
597.774	74.69
597.983	79.69
598.192	78.69
598.401	77.69
598.61	81.69
598.819	88.69
599.028	93.69
599.237	77.69
599.446	84.69
599.655	90.69
599.864	95.69
600.073	90.69
600.282	89.69
600.491	89.69
600.7	103.69
600.909	88.69
601.118	78.69
601.327	86.69
601.536	86.69
601.745	85.69
601.953	98.69
602.162	90.69
602.371	86.69
602.58	75.69
602.789	93.69
602.997	87.69
603.206	92.69
603.415	100.69
603.623	93.69
603.832	98.69
604.041	89.69
604.249	90.69
604.458	86.69
604.666	81.69
604.875	97.69
605.084	82.69
605.292	83.69
605.501	80.69
605.709	97.69
605.918	93.69
606.126	106.69
606.334	87.69
606.543	84.69
606.751	80.69
606.96	84.69
607.168	100.69
607.376	96.69
607.585	75.69
607.793	87.69
608.001	91.69
608.21	89.69
608.418	89.69
608.626	82.69
608.834	75.69
609.043	89.69
609.251	96.69
609.459	89.69
609.667	104.69
609.875	84.69
610.083	93.69
610.291	90.69
610.499	84.69
610.707	84.69
610.916	92.69
611.124	91.69
611.332	84.69
611.54	86.69
611.748	82.69
611.955	89.69
612.163	96.69
612.371	100.69
612.579	93.69
612.787	98.69
612.995	79.69
613.203	87.69
613.411	101.69
613.618	84.69
613.826	83.69
614.034	93.69
614.242	92.69
614.449	100.69
614.657	76.69
614.865	89.69
615.072	91.69
615.28	98.69
615.488	84.69
615.695	95.69
615.903	84.69
616.111	82.69
616.318	83.69
616.526	85.69
616.733	106.69
616.941	104.69
617.148	97.69
617.356	91.69
617.563	92.69
617.771	85.69
617.978	84.69
618.185	100.69
618.393	101.69
618.6	101.69
618.807	95.69
619.015	100.69
619.222	89.69
619.429	85.69
619.637	85.69
619.844	73.69
620.051	91.69
620.258	96.69
620.466	85.69
620.673	76.69
620.88	84.69
621.087	81.69
621.294	83.69
621.501	81.69
621.708	84.69
621.915	92.69
622.122	90.69
622.329	83.69
622.536	92.69
622.743	77.69
622.95	99.69
623.157	86.69
623.364	84.69
623.571	93.69
623.778	111.69
623.985	95.69
624.192	83.69
624.399	86.69
624.606	88.69
624.812	90.69
625.019	91.69
625.226	84.69
625.433	105.69
625.639	91.69
625.846	84.69
626.053	80.69
626.259	91.69
626.466	78.69
626.673	79.69
626.879	84.69
627.086	89.69
627.293	88.69
627.499	81.69
627.706	90.69
627.912	106.69
628.119	88.69
628.325	86.69
628.532	78.69
628.738	82.69
628.945	98.69
629.151	84.69
629.357	86.69
629.564	86.69
629.77	82.69
629.976	83.69
630.183	84.69
630.389	86.69
630.595	83.69
630.802	92.69
631.008	81.69
631.214	90.69
631.42	90.69
631.627	90.69
631.833	98.69
632.039	89.69
632.245	82.69
632.451	93.69
632.657	87.69
632.863	78.69
633.069	90.69
633.275	84.69
633.481	82.69
633.688	86.69
633.893	87.69
634.099	96.69
634.305	94.69
634.511	85.69
634.717	80.69
634.923	93.69
635.129	73.69
635.335	97.69
635.541	91.69
635.747	91.69
635.952	73.69
636.158	78.69
636.364	86.69
636.57	96.69
636.775	87.69
636.981	91.69
637.187	99.69
637.392	74.69
637.598	85.69
637.804	84.69
638.009	97.69
638.215	87.69
638.421	83.69
638.626	92.69
638.832	95.69
639.037	86.69
639.243	94.69
639.448	91.69
639.654	92.69
639.859	72.69
640.065	90.69
640.27	88.69
640.475	86.69
640.681	94.69
640.886	90.69
641.091	102.69
641.297	95.69
641.502	88.69
641.707	104.69
641.913	99.69
642.118	101.69
642.323	83.69
642.528	89.69
642.733	102.69
642.939	89.69
643.144	84.69
643.349	81.69
643.554	96.69
643.759	90.69
643.964	93.69
644.169	100.69
644.374	100.69
644.579	81.69
644.784	84.69
644.989	86.69
645.194	81.69
645.399	87.69
645.604	98.69
645.809	78.69
646.014	85.69
646.219	88.69
646.423	84.69
646.628	79.69
646.833	88.69
647.038	89.69
647.243	100.69
647.447	79.69
647.652	94.69
647.857	89.69
648.062	87.69
648.266	88.69
648.471	86.69
648.676	95.69
648.88	93.69
649.085	91.69
649.289	84.69
649.494	79.69
649.698	97.69
649.903	83.69
650.107	85.69
650.312	82.69
650.516	90.69
650.721	86.69
650.925	90.69
651.13	87.69
651.334	88.69
651.539	93.69
651.743	76.69
651.947	76.69
652.152	98.69
652.356	91.69
652.56	88.69
652.764	80.69
652.969	80.69
653.173	83.69
653.377	83.69
653.581	88.69
653.785	82.69
653.99	87.69
654.194	81.69
654.398	83.69
654.602	83.69
654.806	81.69
655.01	100.69
655.214	68.69
655.418	74.69
655.622	79.69
655.826	88.69
656.03	84.69
656.234	81.69
656.438	88.69
656.642	94.69
656.846	86.69
657.049	86.69
657.253	95.69
657.457	78.69
657.661	83.69
657.865	78.69
658.068	75.69
658.272	85.69
658.476	83.69
658.68	88.69
658.883	102.69
659.087	98.69
659.291	86.69
659.494	79.69
659.698	92.69
659.901	84.69
660.105	84.69
660.309	88.69
660.512	90.69
660.716	72.69
660.919	96.69
661.123	85.69
661.326	85.69
661.53	85.69
661.733	85.69
661.936	89.69
662.14	83.69
662.343	77.69
662.546	87.69
662.75	80.69
662.953	85.69
663.156	75.69
663.36	82.69
663.563	82.69
663.766	75.69
663.969	72.69
664.173	94.69
664.376	81.69
664.579	80.69
664.782	79.69
664.985	81.69
665.188	62.69
665.391	75.69
665.594	95.69
665.797	77.69
666	77.69
666.203	82.69
666.406	87.69
666.609	78.69
666.812	96.69
667.015	85.69
667.218	78.69
667.421	84.69
667.624	87.69
667.827	80.69
668.03	86.69
668.232	88.69
668.435	73.69
668.638	76.69
668.841	70.69
669.043	69.69
669.246	78.69
669.449	80.69
669.651	84.69
669.854	80.69
670.057	93.69
670.259	98.69
670.462	84.69
670.665	89.69
670.867	81.69
671.07	82.69
671.272	85.69
671.475	97.69
671.677	95.69
671.88	79.69
672.082	88.69
672.284	83.69
672.487	94.69
672.689	77.69
672.892	87.69
