Data from Zn(NO3)2Standard.Agarose3%.GreenCap.LampEnergy10E.O_HRD10591_15-05-53-942.txt Node
Date: Mon Jul 22 15:05:53 EDT 2019
User: cochatt
Spectrometer: HR+D1059
Trigger mode: 1
Integration Time (sec): 1.000000E-1
Scans to average: 1
Electric dark correction enabled: true
Nonlinearity correction enabled: false
Boxcar width: 0
XAxis mode: Wavelengths
Number of Pixels in Spectrum: 2048
>>>>>Begin Spectral Data<<<<<
223.165	-0.31
223.4	-0.31
223.635	-0.31
223.869	-31.31
224.104	-21.31
224.338	-3.31
224.573	-11.31
224.808	-9.31
225.042	-5.31
225.277	2.69
225.511	-15.31
225.746	1.69
225.98	5.69
226.215	-4.31
226.449	18.69
226.683	14.69
226.918	30.69
227.152	27.69
227.387	33.69
227.621	42.69
227.856	42.69
228.09	43.69
228.324	49.69
228.559	59.69
228.793	49.69
229.027	66.69
229.262	58.69
229.496	54.69
229.73	72.69
229.964	69.69
230.199	82.69
230.433	73.69
230.667	83.69
230.901	70.69
231.136	70.69
231.37	89.69
231.604	84.69
231.838	84.69
232.072	83.69
232.306	65.69
232.541	79.69
232.775	81.69
233.009	71.69
233.243	82.69
233.477	90.69
233.711	83.69
233.945	63.69
234.179	76.69
234.413	86.69
234.647	72.69
234.881	76.69
235.115	75.69
235.349	82.69
235.583	89.69
235.817	75.69
236.051	88.69
236.285	74.69
236.519	80.69
236.753	76.69
236.987	80.69
237.221	60.69
237.455	71.69
237.689	80.69
237.922	73.69
238.156	65.69
238.39	74.69
238.624	71.69
238.858	65.69
239.091	64.69
239.325	69.69
239.559	73.69
239.793	86.69
240.027	88.69
240.26	69.69
240.494	83.69
240.728	75.69
240.961	67.69
241.195	94.69
241.429	73.69
241.662	82.69
241.896	81.69
242.13	75.69
242.363	62.69
242.597	79.69
242.83	82.69
243.064	75.69
243.298	69.69
243.531	70.69
243.765	72.69
243.998	79.69
244.232	66.69
244.465	80.69
244.699	77.69
244.932	64.69
245.166	73.69
245.399	87.69
245.633	80.69
245.866	81.69
246.099	77.69
246.333	77.69
246.566	62.69
246.8	71.69
247.033	75.69
247.266	58.69
247.5	82.69
247.733	81.69
247.966	71.69
248.2	75.69
248.433	73.69
248.666	79.69
248.899	75.69
249.133	68.69
249.366	73.69
249.599	78.69
249.832	73.69
250.066	80.69
250.299	72.69
250.532	84.69
250.765	82.69
250.998	70.69
251.231	66.69
251.465	72.69
251.698	74.69
251.931	63.69
252.164	88.69
252.397	79.69
252.63	73.69
252.863	65.69
253.096	82.69
253.329	88.69
253.562	81.69
253.795	66.69
254.028	64.69
254.261	91.69
254.494	89.69
254.727	76.69
254.96	76.69
255.193	73.69
255.426	70.69
255.659	79.69
255.892	64.69
256.124	81.69
256.357	88.69
256.59	90.69
256.823	80.69
257.056	74.69
257.289	75.69
257.521	91.69
257.754	90.69
257.987	96.69
258.22	83.69
258.452	79.69
258.685	78.69
258.918	83.69
259.151	78.69
259.383	91.69
259.616	76.69
259.849	92.69
260.081	77.69
260.314	78.69
260.547	79.69
260.779	58.69
261.012	80.69
261.244	79.69
261.477	86.69
261.71	78.69
261.942	72.69
262.175	82.69
262.407	76.69
262.64	72.69
262.872	95.69
263.105	80.69
263.337	80.69
263.57	83.69
263.802	88.69
264.035	63.69
264.267	70.69
264.499	79.69
264.732	80.69
264.964	76.69
265.197	88.69
265.429	90.69
265.661	72.69
265.894	83.69
266.126	84.69
266.358	81.69
266.591	77.69
266.823	90.69
267.055	82.69
267.287	87.69
267.52	82.69
267.752	70.69
267.984	79.69
268.216	80.69
268.448	82.69
268.681	80.69
268.913	83.69
269.145	67.69
269.377	92.69
269.609	77.69
269.841	90.69
270.073	94.69
270.306	97.69
270.538	81.69
270.77	81.69
271.002	80.69
271.234	73.69
271.466	81.69
271.698	92.69
271.93	83.69
272.162	88.69
272.394	71.69
272.626	80.69
272.858	98.69
273.09	91.69
273.322	71.69
273.553	79.69
273.785	91.69
274.017	93.69
274.249	94.69
274.481	83.69
274.713	79.69
274.945	85.69
275.176	92.69
275.408	82.69
275.64	87.69
275.872	96.69
276.104	72.69
276.335	73.69
276.567	78.69
276.799	79.69
277.031	81.69
277.262	79.69
277.494	78.69
277.726	87.69
277.957	77.69
278.189	96.69
278.421	76.69
278.652	77.69
278.884	72.69
279.115	65.69
279.347	97.69
279.579	88.69
279.81	86.69
280.042	82.69
280.273	64.69
280.505	71.69
280.736	90.69
280.968	86.69
281.199	95.69
281.431	90.69
281.662	69.69
281.894	76.69
282.125	80.69
282.356	74.69
282.588	95.69
282.819	80.69
283.051	81.69
283.282	93.69
283.513	83.69
283.745	91.69
283.976	95.69
284.207	92.69
284.439	75.69
284.67	94.69
284.901	88.69
285.132	89.69
285.364	74.69
285.595	86.69
285.826	68.69
286.057	96.69
286.288	81.69
286.52	96.69
286.751	75.69
286.982	78.69
287.213	77.69
287.444	80.69
287.675	92.69
287.906	77.69
288.138	85.69
288.369	72.69
288.6	95.69
288.831	75.69
289.062	71.69
289.293	90.69
289.524	76.69
289.755	94.69
289.986	81.69
290.217	83.69
290.448	80.69
290.679	79.69
290.91	88.69
291.141	90.69
291.371	84.69
291.602	94.69
291.833	74.69
292.064	84.69
292.295	85.69
292.526	77.69
292.757	70.69
292.987	66.69
293.218	87.69
293.449	79.69
293.68	79.69
293.91	84.69
294.141	89.69
294.372	77.69
294.603	96.69
294.833	84.69
295.064	91.69
295.295	69.69
295.525	86.69
295.756	76.69
295.987	92.69
296.217	83.69
296.448	74.69
296.679	85.69
296.909	80.69
297.14	73.69
297.37	77.69
297.601	93.69
297.831	84.69
298.062	80.69
298.292	86.69
298.523	89.69
298.753	74.69
298.984	73.69
299.214	69.69
299.445	87.69
299.675	82.69
299.905	89.69
300.136	81.69
300.366	81.69
300.597	88.69
300.827	86.69
301.057	83.69
301.288	95.69
301.518	87.69
301.748	95.69
301.979	81.69
302.209	71.69
302.439	96.69
302.669	73.69
302.9	77.69
303.13	75.69
303.36	91.69
303.59	77.69
303.82	103.69
304.051	88.69
304.281	83.69
304.511	82.69
304.741	87.69
304.971	82.69
305.201	80.69
305.431	79.69
305.661	88.69
305.891	84.69
306.121	80.69
306.352	89.69
306.582	82.69
306.812	84.69
307.042	94.69
307.272	76.69
307.502	82.69
307.731	78.69
307.961	96.69
308.191	76.69
308.421	85.69
308.651	91.69
308.881	97.69
309.111	84.69
309.341	73.69
309.571	78.69
309.8	79.69
310.03	81.69
310.26	70.69
310.49	84.69
310.72	81.69
310.949	77.69
311.179	79.69
311.409	67.69
311.639	87.69
311.868	71.69
312.098	78.69
312.328	75.69
312.557	95.69
312.787	72.69
313.017	76.69
313.246	72.69
313.476	94.69
313.706	79.69
313.935	85.69
314.165	87.69
314.394	80.69
314.624	82.69
314.853	78.69
315.083	94.69
315.312	83.69
315.542	69.69
315.771	81.69
316.001	81.69
316.23	85.69
316.46	77.69
316.689	94.69
316.919	80.69
317.148	73.69
317.377	80.69
317.607	82.69
317.836	81.69
318.065	87.69
318.295	84.69
318.524	72.69
318.753	69.69
318.983	61.69
319.212	66.69
319.441	75.69
319.67	87.69
319.9	96.69
320.129	87.69
320.358	83.69
320.587	77.69
320.816	97.69
321.046	82.69
321.275	91.69
321.504	71.69
321.733	86.69
321.962	80.69
322.191	81.69
322.42	83.69
322.649	91.69
322.878	72.69
323.108	82.69
323.337	94.69
323.566	78.69
323.795	71.69
324.024	84.69
324.253	75.69
324.482	96.69
324.71	104.69
324.939	81.69
325.168	91.69
325.397	76.69
325.626	85.69
325.855	96.69
326.084	88.69
326.313	88.69
326.542	71.69
326.77	86.69
326.999	98.69
327.228	84.69
327.457	75.69
327.686	95.69
327.914	84.69
328.143	84.69
328.372	86.69
328.6	80.69
328.829	91.69
329.058	70.69
329.287	79.69
329.515	84.69
329.744	84.69
329.972	83.69
330.201	82.69
330.43	72.69
330.658	94.69
330.887	81.69
331.115	92.69
331.344	76.69
331.572	71.69
331.801	89.69
332.03	72.69
332.258	80.69
332.486	83.69
332.715	84.69
332.943	84.69
333.172	92.69
333.4	84.69
333.629	88.69
333.857	87.69
334.085	75.69
334.314	85.69
334.542	83.69
334.771	87.69
334.999	78.69
335.227	88.69
335.455	88.69
335.684	85.69
335.912	93.69
336.14	91.69
336.369	85.69
336.597	72.69
336.825	79.69
337.053	70.69
337.281	77.69
337.51	82.69
337.738	85.69
337.966	89.69
338.194	78.69
338.422	82.69
338.65	72.69
338.878	97.69
339.106	80.69
339.334	92.69
339.562	81.69
339.79	78.69
340.018	81.69
340.246	74.69
340.474	76.69
340.702	67.69
340.93	90.69
341.158	78.69
341.386	78.69
341.614	76.69
341.842	81.69
342.07	84.69
342.298	82.69
342.526	80.69
342.754	79.69
342.981	90.69
343.209	83.69
343.437	84.69
343.665	94.69
343.893	74.69
344.12	87.69
344.348	68.69
344.576	65.69
344.804	96.69
345.031	87.69
345.259	81.69
345.487	75.69
345.714	79.69
345.942	85.69
346.17	90.69
346.397	81.69
346.625	82.69
346.853	89.69
347.08	85.69
347.308	93.69
347.535	69.69
347.763	76.69
347.99	93.69
348.218	84.69
348.445	78.69
348.673	92.69
348.9	84.69
349.128	82.69
349.355	96.69
349.583	75.69
349.81	81.69
350.037	90.69
350.265	96.69
350.492	86.69
350.72	101.69
350.947	87.69
351.174	87.69
351.402	82.69
351.629	90.69
351.856	82.69
352.083	86.69
352.311	82.69
352.538	87.69
352.765	90.69
352.992	84.69
353.22	92.69
353.447	76.69
353.674	74.69
353.901	92.69
354.128	77.69
354.355	70.69
354.583	96.69
354.81	86.69
355.037	83.69
355.264	79.69
355.491	71.69
355.718	87.69
355.945	79.69
356.172	79.69
356.399	82.69
356.626	59.69
356.853	82.69
357.08	72.69
357.307	92.69
357.534	81.69
357.761	77.69
357.988	83.69
358.215	86.69
358.441	80.69
358.668	87.69
358.895	82.69
359.122	93.69
359.349	85.69
359.576	92.69
359.802	78.69
360.029	79.69
360.256	82.69
360.483	86.69
360.709	90.69
360.936	79.69
361.163	84.69
361.39	85.69
361.616	82.69
361.843	90.69
362.07	86.69
362.296	87.69
362.523	76.69
362.749	96.69
362.976	88.69
363.203	77.69
363.429	83.69
363.656	89.69
363.882	85.69
364.109	88.69
364.335	92.69
364.562	81.69
364.788	88.69
365.015	83.69
365.241	95.69
365.468	85.69
365.694	68.69
365.92	91.69
366.147	102.69
366.373	74.69
366.599	79.69
366.826	83.69
367.052	80.69
367.278	88.69
367.505	76.69
367.731	100.69
367.957	90.69
368.184	84.69
368.41	77.69
368.636	78.69
368.862	86.69
369.089	84.69
369.315	83.69
369.541	70.69
369.767	82.69
369.993	79.69
370.219	75.69
370.445	86.69
370.672	83.69
370.898	82.69
371.124	89.69
371.35	99.69
371.576	79.69
371.802	87.69
372.028	83.69
372.254	91.69
372.48	85.69
372.706	102.69
372.932	81.69
373.158	80.69
373.384	86.69
373.61	85.69
373.835	89.69
374.061	89.69
374.287	83.69
374.513	95.69
374.739	97.69
374.965	88.69
375.191	87.69
375.416	76.69
375.642	84.69
375.868	76.69
376.094	81.69
376.319	91.69
376.545	86.69
376.771	90.69
376.997	86.69
377.222	84.69
377.448	67.69
377.674	82.69
377.899	83.69
378.125	79.69
378.35	87.69
378.576	91.69
378.802	94.69
379.027	88.69
379.253	83.69
379.478	80.69
379.704	84.69
379.929	85.69
380.155	95.69
380.38	89.69
380.606	78.69
380.831	84.69
381.057	84.69
381.282	84.69
381.507	80.69
381.733	94.69
381.958	79.69
382.184	85.69
382.409	100.69
382.634	96.69
382.86	87.69
383.085	81.69
383.31	90.69
383.535	95.69
383.761	81.69
383.986	106.69
384.211	85.69
384.436	86.69
384.662	85.69
384.887	86.69
385.112	72.69
385.337	85.69
385.562	103.69
385.787	88.69
386.013	93.69
386.238	90.69
386.463	83.69
386.688	99.69
386.913	68.69
387.138	82.69
387.363	79.69
387.588	84.69
387.813	81.69
388.038	95.69
388.263	94.69
388.488	77.69
388.713	96.69
388.938	95.69
389.163	77.69
389.387	83.69
389.612	91.69
389.837	85.69
390.062	94.69
390.287	85.69
390.512	86.69
390.736	92.69
390.961	86.69
391.186	93.69
391.411	72.69
391.636	83.69
391.86	77.69
392.085	90.69
392.31	77.69
392.534	63.69
392.759	88.69
392.984	104.69
393.208	88.69
393.433	93.69
393.658	92.69
393.882	103.69
394.107	92.69
394.331	92.69
394.556	84.69
394.78	91.69
395.005	89.69
395.229	104.69
395.454	89.69
395.678	90.69
395.903	85.69
396.127	88.69
396.352	93.69
396.576	97.69
396.801	101.69
397.025	106.69
397.249	98.69
397.474	94.69
397.698	94.69
397.922	79.69
398.147	88.69
398.371	90.69
398.595	90.69
398.82	78.69
399.044	89.69
399.268	93.69
399.492	97.69
399.717	98.69
399.941	96.69
400.165	91.69
400.389	78.69
400.613	88.69
400.837	92.69
401.062	82.69
401.286	95.69
401.51	89.69
401.734	88.69
401.958	92.69
402.182	89.69
402.406	88.69
402.63	94.69
402.854	86.69
403.078	116.69
403.302	99.69
403.526	90.69
403.75	98.69
403.974	94.69
404.198	89.69
404.422	99.69
404.645	91.69
404.869	108.69
405.093	84.69
405.317	92.69
405.541	96.69
405.765	105.69
405.988	107.69
406.212	87.69
406.436	100.69
406.66	93.69
406.883	95.69
407.107	99.69
407.331	98.69
407.555	83.69
407.778	98.69
408.002	94.69
408.226	93.69
408.449	92.69
408.673	110.69
408.896	91.69
409.12	98.69
409.344	96.69
409.567	115.69
409.791	108.69
410.014	91.69
410.238	99.69
410.461	99.69
410.685	106.69
410.908	88.69
411.132	95.69
411.355	76.69
411.578	107.69
411.802	108.69
412.025	94.69
412.249	98.69
412.472	116.69
412.695	101.69
412.919	102.69
413.142	97.69
413.365	90.69
413.589	104.69
413.812	91.69
414.035	104.69
414.258	107.69
414.482	97.69
414.705	108.69
414.928	85.69
415.151	89.69
415.374	117.69
415.597	97.69
415.821	100.69
416.044	90.69
416.267	99.69
416.49	127.69
416.713	96.69
416.936	96.69
417.159	101.69
417.382	93.69
417.605	99.69
417.828	105.69
418.051	97.69
418.274	101.69
418.497	99.69
418.72	89.69
418.943	103.69
419.166	112.69
419.389	108.69
419.611	96.69
419.834	119.69
420.057	105.69
420.28	104.69
420.503	97.69
420.726	104.69
420.948	95.69
421.171	111.69
421.394	115.69
421.617	95.69
421.839	122.69
422.062	105.69
422.285	110.69
422.507	93.69
422.73	94.69
422.953	111.69
423.175	96.69
423.398	101.69
423.621	112.69
423.843	104.69
424.066	97.69
424.288	95.69
424.511	99.69
424.733	117.69
424.956	111.69
425.178	100.69
425.401	91.69
425.623	104.69
425.846	103.69
426.068	100.69
426.291	97.69
426.513	108.69
426.735	111.69
426.958	104.69
427.18	99.69
427.402	103.69
427.625	91.69
427.847	103.69
428.069	112.69
428.292	95.69
428.514	94.69
428.736	108.69
428.958	103.69
429.181	111.69
429.403	105.69
429.625	100.69
429.847	91.69
430.069	107.69
430.292	100.69
430.514	89.69
430.736	98.69
430.958	118.69
431.18	102.69
431.402	119.69
431.624	102.69
431.846	99.69
432.068	90.69
432.29	95.69
432.512	100.69
432.734	93.69
432.956	105.69
433.178	101.69
433.4	99.69
433.622	96.69
433.844	111.69
434.066	100.69
434.287	78.69
434.509	90.69
434.731	98.69
434.953	102.69
435.175	96.69
435.397	98.69
435.618	96.69
435.84	102.69
436.062	93.69
436.284	97.69
436.505	114.69
436.727	102.69
436.949	104.69
437.17	107.69
437.392	116.69
437.614	99.69
437.835	110.69
438.057	105.69
438.278	112.69
438.5	107.69
438.721	94.69
438.943	109.69
439.165	100.69
439.386	106.69
439.608	114.69
439.829	85.69
440.05	118.69
440.272	105.69
440.493	101.69
440.715	104.69
440.936	103.69
441.158	112.69
441.379	103.69
441.6	103.69
441.822	104.69
442.043	103.69
442.264	103.69
442.486	110.69
442.707	115.69
442.928	99.69
443.149	99.69
443.371	126.69
443.592	114.69
443.813	116.69
444.034	95.69
444.255	103.69
444.476	116.69
444.698	112.69
444.919	115.69
445.14	245.69
445.361	164.69
445.582	120.69
445.803	105.69
446.024	105.69
446.245	122.69
446.466	115.69
446.687	112.69
446.908	110.69
447.129	116.69
447.35	99.69
447.571	98.69
447.792	120.69
448.013	115.69
448.234	107.69
448.455	119.69
448.675	116.69
448.896	108.69
449.117	108.69
449.338	102.69
449.559	106.69
449.779	114.69
450	119.69
450.221	114.69
450.442	102.69
450.662	110.69
450.883	96.69
451.104	100.69
451.324	123.69
451.545	106.69
451.766	106.69
451.986	99.69
452.207	99.69
452.428	105.69
452.648	105.69
452.869	110.69
453.089	108.69
453.31	101.69
453.53	107.69
453.751	89.69
453.971	96.69
454.192	90.69
454.412	98.69
454.633	97.69
454.853	113.69
455.073	99.69
455.294	102.69
455.514	97.69
455.734	95.69
455.955	91.69
456.175	104.69
456.395	95.69
456.616	88.69
456.836	106.69
457.056	95.69
457.276	90.69
457.497	84.69
457.717	78.69
457.937	78.69
458.157	87.69
458.377	95.69
458.598	86.69
458.818	87.69
459.038	74.69
459.258	82.69
459.478	89.69
459.698	88.69
459.918	77.69
460.138	78.69
460.358	86.69
460.578	104.69
460.798	95.69
461.018	100.69
461.238	98.69
461.458	93.69
461.678	90.69
461.898	97.69
462.118	105.69
462.338	87.69
462.558	89.69
462.777	92.69
462.997	97.69
463.217	95.69
463.437	95.69
463.657	87.69
463.876	93.69
464.096	98.69
464.316	87.69
464.536	94.69
464.755	82.69
464.975	105.69
465.195	99.69
465.414	107.69
465.634	99.69
465.854	87.69
466.073	105.69
466.293	96.69
466.512	105.69
466.732	103.69
466.951	107.69
467.171	96.69
467.391	107.69
467.61	95.69
467.829	124.69
468.049	113.69
468.268	98.69
468.488	100.69
468.707	98.69
468.927	100.69
469.146	96.69
469.365	118.69
469.585	101.69
469.804	98.69
470.023	114.69
470.243	122.69
470.462	112.69
470.681	93.69
470.901	105.69
471.12	99.69
471.339	101.69
471.558	114.69
471.777	123.69
471.997	106.69
472.216	90.69
472.435	93.69
472.654	81.69
472.873	107.69
473.092	105.69
473.311	93.69
473.53	98.69
473.749	94.69
473.968	101.69
474.187	115.69
474.406	101.69
474.625	106.69
474.844	105.69
475.063	89.69
475.282	111.69
475.501	110.69
475.72	110.69
475.939	99.69
476.158	105.69
476.377	115.69
476.596	104.69
476.814	92.69
477.033	81.69
477.252	111.69
477.471	106.69
477.69	100.69
477.908	93.69
478.127	108.69
478.346	114.69
478.564	117.69
478.783	104.69
479.002	102.69
479.22	100.69
479.439	99.69
479.658	100.69
479.876	106.69
480.095	103.69
480.313	92.69
480.532	107.69
480.751	89.69
480.969	75.69
481.188	97.69
481.406	83.69
481.624	98.69
481.843	90.69
482.061	87.69
482.28	91.69
482.498	114.69
482.717	87.69
482.935	113.69
483.153	117.69
483.372	124.69
483.59	122.69
483.808	110.69
484.027	114.69
484.245	110.69
484.463	115.69
484.681	110.69
484.9	90.69
485.118	105.69
485.336	101.69
485.554	97.69
485.772	100.69
485.99	79.69
486.209	93.69
486.427	92.69
486.645	104.69
486.863	102.69
487.081	112.69
487.299	98.69
487.517	99.69
487.735	120.69
487.953	135.69
488.171	115.69
488.389	115.69
488.607	120.69
488.825	111.69
489.043	102.69
489.261	105.69
489.479	116.69
489.696	121.69
489.914	103.69
490.132	110.69
490.35	116.69
490.568	114.69
490.786	104.69
491.003	128.69
491.221	128.69
491.439	135.69
491.657	143.69
491.874	156.69
492.092	142.69
492.31	160.69
492.527	146.69
492.745	130.69
492.963	139.69
493.18	129.69
493.398	129.69
493.615	121.69
493.833	139.69
494.05	116.69
494.268	132.69
494.485	130.69
494.703	123.69
494.92	120.69
495.138	126.69
495.355	129.69
495.573	132.69
495.79	133.69
496.008	117.69
496.225	117.69
496.442	122.69
496.66	122.69
496.877	135.69
497.094	128.69
497.312	104.69
497.529	118.69
497.746	118.69
497.963	119.69
498.181	109.69
498.398	96.69
498.615	102.69
498.832	103.69
499.049	115.69
499.267	104.69
499.484	98.69
499.701	99.69
499.918	96.69
500.135	114.69
500.352	118.69
500.569	99.69
500.786	115.69
501.003	107.69
501.22	122.69
501.437	112.69
501.654	99.69
501.871	109.69
502.088	105.69
502.305	105.69
502.522	119.69
502.739	103.69
502.956	104.69
503.172	100.69
503.389	95.69
503.606	93.69
503.823	103.69
504.04	89.69
504.256	97.69
504.473	94.69
504.69	99.69
504.907	98.69
505.123	101.69
505.34	97.69
505.557	113.69
505.773	97.69
505.99	99.69
506.207	96.69
506.423	98.69
506.64	112.69
506.856	102.69
507.073	96.69
507.289	92.69
507.506	97.69
507.722	88.69
507.939	106.69
508.155	110.69
508.372	90.69
508.588	98.69
508.805	107.69
509.021	91.69
509.238	85.69
509.454	77.69
509.67	89.69
509.887	100.69
510.103	85.69
510.319	85.69
510.536	88.69
510.752	76.69
510.968	86.69
511.184	80.69
511.401	97.69
511.617	91.69
511.833	87.69
512.049	93.69
512.265	90.69
512.481	74.69
512.698	95.69
512.914	90.69
513.13	87.69
513.346	85.69
513.562	89.69
513.778	80.69
513.994	79.69
514.21	74.69
514.426	86.69
514.642	74.69
514.858	84.69
515.074	82.69
515.29	78.69
515.506	80.69
515.721	79.69
515.937	94.69
516.153	79.69
516.369	73.69
516.585	81.69
516.801	95.69
517.016	87.69
517.232	86.69
517.448	76.69
517.664	72.69
517.879	92.69
518.095	81.69
518.311	97.69
518.527	96.69
518.742	89.69
518.958	67.69
519.173	89.69
519.389	83.69
519.605	85.69
519.82	101.69
520.036	92.69
520.251	83.69
520.467	91.69
520.682	85.69
520.898	82.69
521.113	87.69
521.329	71.69
521.544	86.69
521.76	92.69
521.975	85.69
522.19	91.69
522.406	89.69
522.621	92.69
522.836	91.69
523.052	106.69
523.267	78.69
523.482	108.69
523.698	105.69
523.913	110.69
524.128	81.69
524.343	112.69
524.559	91.69
524.774	100.69
524.989	116.69
525.204	95.69
525.419	103.69
525.634	96.69
525.849	92.69
526.064	94.69
526.28	91.69
526.495	89.69
526.71	92.69
526.925	88.69
527.14	84.69
527.355	79.69
527.57	73.69
527.785	83.69
527.999	99.69
528.214	88.69
528.429	113.69
528.644	91.69
528.859	107.69
529.074	100.69
529.289	114.69
529.503	117.69
529.718	107.69
529.933	90.69
530.148	94.69
530.363	98.69
530.577	84.69
530.792	89.69
531.007	89.69
531.221	94.69
531.436	81.69
531.651	94.69
531.865	89.69
532.08	88.69
532.295	83.69
532.509	78.69
532.724	80.69
532.938	88.69
533.153	94.69
533.367	101.69
533.582	110.69
533.796	86.69
534.011	97.69
534.225	74.69
534.44	94.69
534.654	96.69
534.868	78.69
535.083	76.69
535.297	100.69
535.511	95.69
535.726	98.69
535.94	100.69
536.154	79.69
536.369	91.69
536.583	79.69
536.797	78.69
537.011	90.69
537.225	73.69
537.44	93.69
537.654	85.69
537.868	88.69
538.082	84.69
538.296	91.69
538.51	92.69
538.724	92.69
538.938	84.69
539.153	96.69
539.367	123.69
539.581	99.69
539.795	100.69
540.009	90.69
540.222	98.69
540.436	93.69
540.65	96.69
540.864	106.69
541.078	97.69
541.292	115.69
541.506	115.69
541.72	127.69
541.934	144.69
542.147	151.69
542.361	128.69
542.575	123.69
542.789	108.69
543.002	105.69
543.216	101.69
543.43	112.69
543.644	97.69
543.857	119.69
544.071	122.69
544.285	124.69
544.498	130.69
544.712	128.69
544.925	114.69
545.139	118.69
545.352	113.69
545.566	126.69
545.779	109.69
545.993	118.69
546.206	127.69
546.42	120.69
546.633	116.69
546.847	121.69
547.06	127.69
547.274	116.69
547.487	134.69
547.7	130.69
547.914	121.69
548.127	111.69
548.34	131.69
548.554	118.69
548.767	120.69
548.98	134.69
549.193	116.69
549.407	118.69
549.62	107.69
549.833	126.69
550.046	105.69
550.259	107.69
550.473	123.69
550.686	123.69
550.899	117.69
551.112	118.69
551.325	107.69
551.538	93.69
551.751	100.69
551.964	97.69
552.177	105.69
552.39	97.69
552.603	115.69
552.816	118.69
553.029	94.69
553.242	110.69
553.455	118.69
553.667	106.69
553.88	103.69
554.093	102.69
554.306	119.69
554.519	119.69
554.732	114.69
554.944	123.69
555.157	113.69
555.37	103.69
555.583	107.69
555.795	105.69
556.008	103.69
556.221	111.69
556.433	107.69
556.646	118.69
556.859	103.69
557.071	105.69
557.284	96.69
557.496	110.69
557.709	106.69
557.921	112.69
558.134	120.69
558.346	107.69
558.559	104.69
558.771	104.69
558.984	101.69
559.196	113.69
559.409	122.69
559.621	108.69
559.833	103.69
560.046	95.69
560.258	107.69
560.47	115.69
560.683	102.69
560.895	105.69
561.107	100.69
561.32	101.69
561.532	107.69
561.744	120.69
561.956	99.69
562.168	109.69
562.381	126.69
562.593	110.69
562.805	104.69
563.017	107.69
563.229	94.69
563.441	100.69
563.653	94.69
563.865	112.69
564.077	109.69
564.289	97.69
564.501	106.69
564.713	98.69
564.925	105.69
565.137	101.69
565.349	116.69
565.561	100.69
565.773	84.69
565.985	95.69
566.197	111.69
566.408	92.69
566.62	101.69
566.832	106.69
567.044	107.69
567.255	110.69
567.467	108.69
567.679	101.69
567.891	95.69
568.102	93.69
568.314	82.69
568.526	83.69
568.737	70.69
568.949	99.69
569.161	77.69
569.372	88.69
569.584	95.69
569.795	93.69
570.007	85.69
570.218	83.69
570.43	80.69
570.641	88.69
570.853	103.69
571.064	86.69
571.276	101.69
571.487	95.69
571.698	91.69
571.91	98.69
572.121	90.69
572.333	84.69
572.544	84.69
572.755	96.69
572.966	92.69
573.178	91.69
573.389	86.69
573.6	75.69
573.811	79.69
574.023	76.69
574.234	70.69
574.445	81.69
574.656	89.69
574.867	82.69
575.078	88.69
575.289	81.69
575.501	93.69
575.712	88.69
575.923	80.69
576.134	94.69
576.345	95.69
576.556	93.69
576.767	106.69
576.978	95.69
577.188	89.69
577.399	91.69
577.61	84.69
577.821	87.69
578.032	86.69
578.243	89.69
578.454	94.69
578.665	96.69
578.875	91.69
579.086	74.69
579.297	74.69
579.508	95.69
579.718	88.69
579.929	77.69
580.14	90.69
580.35	89.69
580.561	76.69
580.772	93.69
580.982	91.69
581.193	79.69
581.403	80.69
581.614	76.69
581.825	91.69
582.035	79.69
582.246	98.69
582.456	93.69
582.667	81.69
582.877	98.69
583.087	89.69
583.298	84.69
583.508	86.69
583.719	86.69
583.929	84.69
584.139	81.69
584.35	78.69
584.56	91.69
584.77	96.69
584.981	85.69
585.191	99.69
585.401	77.69
585.611	74.69
585.821	85.69
586.032	98.69
586.242	78.69
586.452	88.69
586.662	80.69
586.872	77.69
587.082	74.69
587.292	88.69
587.502	91.69
587.713	83.69
587.923	101.69
588.133	84.69
588.343	76.69
588.553	75.69
588.762	89.69
588.972	77.69
589.182	90.69
589.392	86.69
589.602	81.69
589.812	83.69
590.022	82.69
590.232	93.69
590.441	98.69
590.651	87.69
590.861	73.69
591.071	82.69
591.281	79.69
591.49	83.69
591.7	88.69
591.91	81.69
592.119	79.69
592.329	89.69
592.539	88.69
592.748	73.69
592.958	91.69
593.167	92.69
593.377	82.69
593.587	82.69
593.796	82.69
594.006	79.69
594.215	81.69
594.424	75.69
594.634	89.69
594.843	90.69
595.053	87.69
595.262	81.69
595.472	83.69
595.681	80.69
595.89	69.69
596.1	80.69
596.309	84.69
596.518	76.69
596.727	85.69
596.937	87.69
597.146	102.69
597.355	98.69
597.564	78.69
597.774	85.69
597.983	95.69
598.192	88.69
598.401	71.69
598.61	86.69
598.819	80.69
599.028	78.69
599.237	86.69
599.446	92.69
599.655	91.69
599.864	80.69
600.073	72.69
600.282	79.69
600.491	72.69
600.7	88.69
600.909	87.69
601.118	88.69
601.327	97.69
601.536	99.69
601.745	99.69
601.953	89.69
602.162	88.69
602.371	104.69
602.58	79.69
602.789	91.69
602.997	95.69
603.206	87.69
603.415	98.69
603.623	99.69
603.832	92.69
604.041	83.69
604.249	89.69
604.458	95.69
604.666	99.69
604.875	81.69
605.084	108.69
605.292	87.69
605.501	98.69
605.709	95.69
605.918	95.69
606.126	103.69
606.334	92.69
606.543	111.69
606.751	110.69
606.96	95.69
607.168	85.69
607.376	94.69
607.585	111.69
607.793	88.69
608.001	79.69
608.21	97.69
608.418	93.69
608.626	104.69
608.834	94.69
609.043	79.69
609.251	85.69
609.459	94.69
609.667	98.69
609.875	92.69
610.083	110.69
610.291	99.69
610.499	106.69
610.707	102.69
610.916	107.69
611.124	91.69
611.332	97.69
611.54	95.69
611.748	97.69
611.955	98.69
612.163	97.69
612.371	99.69
612.579	109.69
612.787	87.69
612.995	94.69
613.203	94.69
613.411	98.69
613.618	102.69
613.826	101.69
614.034	100.69
614.242	97.69
614.449	88.69
614.657	82.69
614.865	95.69
615.072	113.69
615.28	97.69
615.488	91.69
615.695	115.69
615.903	101.69
616.111	79.69
616.318	103.69
616.526	100.69
616.733	89.69
616.941	95.69
617.148	83.69
617.356	90.69
617.563	98.69
617.771	92.69
617.978	85.69
618.185	83.69
618.393	93.69
618.6	85.69
618.807	99.69
619.015	87.69
619.222	95.69
619.429	97.69
619.637	90.69
619.844	80.69
620.051	94.69
620.258	104.69
620.466	94.69
620.673	90.69
620.88	97.69
621.087	85.69
621.294	84.69
621.501	99.69
621.708	75.69
621.915	93.69
622.122	100.69
622.329	80.69
622.536	87.69
622.743	97.69
622.95	85.69
623.157	102.69
623.364	95.69
623.571	97.69
623.778	88.69
623.985	93.69
624.192	71.69
624.399	97.69
624.606	96.69
624.812	96.69
625.019	97.69
625.226	85.69
625.433	96.69
625.639	94.69
625.846	76.69
626.053	82.69
626.259	73.69
626.466	98.69
626.673	91.69
626.879	92.69
627.086	94.69
627.293	86.69
627.499	87.69
627.706	95.69
627.912	80.69
628.119	89.69
628.325	90.69
628.532	94.69
628.738	86.69
628.945	85.69
629.151	102.69
629.357	90.69
629.564	91.69
629.77	91.69
629.976	97.69
630.183	95.69
630.389	93.69
630.595	94.69
630.802	98.69
631.008	84.69
631.214	89.69
631.42	106.69
631.627	86.69
631.833	88.69
632.039	87.69
632.245	90.69
632.451	87.69
632.657	101.69
632.863	112.69
633.069	70.69
633.275	94.69
633.481	99.69
633.688	98.69
633.893	89.69
634.099	93.69
634.305	85.69
634.511	96.69
634.717	94.69
634.923	71.69
635.129	94.69
635.335	87.69
635.541	82.69
635.747	94.69
635.952	91.69
636.158	88.69
636.364	100.69
636.57	97.69
636.775	87.69
636.981	78.69
637.187	88.69
637.392	86.69
637.598	105.69
637.804	78.69
638.009	94.69
638.215	96.69
638.421	105.69
638.626	90.69
638.832	89.69
639.037	89.69
639.243	95.69
639.448	87.69
639.654	85.69
639.859	89.69
640.065	88.69
640.27	103.69
640.475	94.69
640.681	88.69
640.886	82.69
641.091	102.69
641.297	87.69
641.502	90.69
641.707	96.69
641.913	99.69
642.118	83.69
642.323	87.69
642.528	83.69
642.733	96.69
642.939	87.69
643.144	90.69
643.349	97.69
643.554	103.69
643.759	98.69
643.964	89.69
644.169	73.69
644.374	70.69
644.579	87.69
644.784	90.69
644.989	87.69
645.194	86.69
645.399	90.69
645.604	90.69
645.809	81.69
646.014	103.69
646.219	89.69
646.423	91.69
646.628	91.69
646.833	87.69
647.038	80.69
647.243	82.69
647.447	90.69
647.652	91.69
647.857	90.69
648.062	113.69
648.266	87.69
648.471	80.69
648.676	78.69
648.88	78.69
649.085	85.69
649.289	93.69
649.494	93.69
649.698	88.69
649.903	72.69
650.107	83.69
650.312	86.69
650.516	82.69
650.721	91.69
650.925	73.69
651.13	99.69
651.334	89.69
651.539	82.69
651.743	79.69
651.947	90.69
652.152	85.69
652.356	82.69
652.56	92.69
652.764	89.69
652.969	91.69
653.173	91.69
653.377	93.69
653.581	91.69
653.785	70.69
653.99	76.69
654.194	76.69
654.398	87.69
654.602	86.69
654.806	92.69
655.01	79.69
655.214	85.69
655.418	88.69
655.622	90.69
655.826	92.69
656.03	90.69
656.234	88.69
656.438	91.69
656.642	90.69
656.846	74.69
657.049	86.69
657.253	90.69
657.457	93.69
657.661	87.69
657.865	79.69
658.068	88.69
658.272	84.69
658.476	75.69
658.68	87.69
658.883	65.69
659.087	84.69
659.291	83.69
659.494	89.69
659.698	82.69
659.901	83.69
660.105	79.69
660.309	85.69
660.512	75.69
660.716	85.69
660.919	88.69
661.123	86.69
661.326	91.69
661.53	96.69
661.733	67.69
661.936	73.69
662.14	82.69
662.343	90.69
662.546	79.69
662.75	79.69
662.953	67.69
663.156	77.69
663.36	82.69
663.563	84.69
663.766	75.69
663.969	88.69
664.173	74.69
664.376	81.69
664.579	87.69
664.782	80.69
664.985	66.69
665.188	84.69
665.391	81.69
665.594	96.69
665.797	84.69
666	75.69
666.203	76.69
666.406	92.69
666.609	71.69
666.812	84.69
667.015	95.69
667.218	79.69
667.421	67.69
667.624	87.69
667.827	95.69
668.03	71.69
668.232	72.69
668.435	76.69
668.638	68.69
668.841	87.69
669.043	84.69
669.246	83.69
669.449	81.69
669.651	78.69
669.854	70.69
670.057	84.69
670.259	83.69
670.462	75.69
670.665	72.69
670.867	76.69
671.07	75.69
671.272	77.69
671.475	90.69
671.677	82.69
671.88	74.69
672.082	83.69
672.284	89.69
672.487	85.69
672.689	97.69
672.892	83.69
