Data from Zn(NO3)2Standard.Agarose3%.GreenCap.LampEnergy5.5.E.O_HRD10591_15-01-08-768.txt Node
Date: Mon Jul 22 15:01:08 EDT 2019
User: cochatt
Spectrometer: HR+D1059
Trigger mode: 1
Integration Time (sec): 1.000000E-1
Scans to average: 1
Electric dark correction enabled: true
Nonlinearity correction enabled: false
Boxcar width: 0
XAxis mode: Wavelengths
Number of Pixels in Spectrum: 2048
>>>>>Begin Spectral Data<<<<<
223.165	-12.62
223.4	-12.62
223.635	-12.62
223.869	-8.62
224.104	-22.62
224.338	-12.62
224.573	-28.62
224.808	-5.62
225.042	4.38
225.277	-11.62
225.511	0.38
225.746	9.38
225.98	-4.62
226.215	14.38
226.449	12.38
226.683	29.38
226.918	21.38
227.152	15.38
227.387	27.38
227.621	37.38
227.856	40.38
228.09	46.38
228.324	56.38
228.559	63.38
228.793	68.38
229.027	62.38
229.262	71.38
229.496	71.38
229.73	73.38
229.964	69.38
230.199	74.38
230.433	67.38
230.667	77.38
230.901	75.38
231.136	88.38
231.37	85.38
231.604	79.38
231.838	93.38
232.072	80.38
232.306	70.38
232.541	56.38
232.775	89.38
233.009	97.38
233.243	75.38
233.477	86.38
233.711	96.38
233.945	80.38
234.179	80.38
234.413	81.38
234.647	90.38
234.881	95.38
235.115	87.38
235.349	79.38
235.583	84.38
235.817	80.38
236.051	93.38
236.285	76.38
236.519	76.38
236.753	81.38
236.987	83.38
237.221	77.38
237.455	77.38
237.689	86.38
237.922	89.38
238.156	79.38
238.39	72.38
238.624	70.38
238.858	67.38
239.091	72.38
239.325	89.38
239.559	71.38
239.793	83.38
240.027	61.38
240.26	82.38
240.494	82.38
240.728	74.38
240.961	76.38
241.195	71.38
241.429	73.38
241.662	67.38
241.896	77.38
242.13	72.38
242.363	71.38
242.597	91.38
242.83	74.38
243.064	67.38
243.298	75.38
243.531	67.38
243.765	74.38
243.998	81.38
244.232	86.38
244.465	87.38
244.699	83.38
244.932	83.38
245.166	89.38
245.399	89.38
245.633	77.38
245.866	68.38
246.099	86.38
246.333	91.38
246.566	88.38
246.8	83.38
247.033	80.38
247.266	76.38
247.5	70.38
247.733	87.38
247.966	73.38
248.2	65.38
248.433	89.38
248.666	72.38
248.899	89.38
249.133	77.38
249.366	72.38
249.599	81.38
249.832	79.38
250.066	71.38
250.299	87.38
250.532	86.38
250.765	73.38
250.998	76.38
251.231	80.38
251.465	55.38
251.698	78.38
251.931	86.38
252.164	81.38
252.397	75.38
252.63	78.38
252.863	76.38
253.096	71.38
253.329	96.38
253.562	78.38
253.795	71.38
254.028	79.38
254.261	68.38
254.494	85.38
254.727	86.38
254.96	59.38
255.193	76.38
255.426	75.38
255.659	79.38
255.892	98.38
256.124	93.38
256.357	81.38
256.59	85.38
256.823	93.38
257.056	73.38
257.289	75.38
257.521	85.38
257.754	84.38
257.987	86.38
258.22	85.38
258.452	81.38
258.685	81.38
258.918	72.38
259.151	85.38
259.383	79.38
259.616	75.38
259.849	104.38
260.081	85.38
260.314	87.38
260.547	81.38
260.779	87.38
261.012	78.38
261.244	77.38
261.477	89.38
261.71	80.38
261.942	78.38
262.175	71.38
262.407	83.38
262.64	81.38
262.872	85.38
263.105	81.38
263.337	91.38
263.57	93.38
263.802	72.38
264.035	80.38
264.267	73.38
264.499	86.38
264.732	73.38
264.964	67.38
265.197	91.38
265.429	76.38
265.661	90.38
265.894	94.38
266.126	87.38
266.358	90.38
266.591	93.38
266.823	75.38
267.055	95.38
267.287	81.38
267.52	93.38
267.752	80.38
267.984	76.38
268.216	91.38
268.448	87.38
268.681	87.38
268.913	82.38
269.145	77.38
269.377	85.38
269.609	87.38
269.841	82.38
270.073	74.38
270.306	89.38
270.538	85.38
270.77	82.38
271.002	82.38
271.234	84.38
271.466	99.38
271.698	97.38
271.93	90.38
272.162	74.38
272.394	101.38
272.626	81.38
272.858	86.38
273.09	78.38
273.322	73.38
273.553	84.38
273.785	81.38
274.017	79.38
274.249	85.38
274.481	91.38
274.713	76.38
274.945	89.38
275.176	83.38
275.408	85.38
275.64	82.38
275.872	76.38
276.104	79.38
276.335	82.38
276.567	91.38
276.799	72.38
277.031	75.38
277.262	77.38
277.494	89.38
277.726	61.38
277.957	85.38
278.189	76.38
278.421	102.38
278.652	79.38
278.884	79.38
279.115	91.38
279.347	93.38
279.579	89.38
279.81	88.38
280.042	81.38
280.273	89.38
280.505	94.38
280.736	90.38
280.968	96.38
281.199	93.38
281.431	80.38
281.662	85.38
281.894	87.38
282.125	91.38
282.356	97.38
282.588	93.38
282.819	96.38
283.051	82.38
283.282	102.38
283.513	89.38
283.745	92.38
283.976	89.38
284.207	74.38
284.439	74.38
284.67	88.38
284.901	85.38
285.132	101.38
285.364	78.38
285.595	87.38
285.826	86.38
286.057	90.38
286.288	87.38
286.52	70.38
286.751	80.38
286.982	85.38
287.213	83.38
287.444	91.38
287.675	95.38
287.906	81.38
288.138	83.38
288.369	79.38
288.6	89.38
288.831	82.38
289.062	101.38
289.293	99.38
289.524	91.38
289.755	64.38
289.986	82.38
290.217	85.38
290.448	79.38
290.679	94.38
290.91	106.38
291.141	87.38
291.371	93.38
291.602	79.38
291.833	71.38
292.064	82.38
292.295	89.38
292.526	84.38
292.757	95.38
292.987	91.38
293.218	90.38
293.449	85.38
293.68	72.38
293.91	84.38
294.141	77.38
294.372	84.38
294.603	83.38
294.833	93.38
295.064	86.38
295.295	92.38
295.525	93.38
295.756	85.38
295.987	102.38
296.217	71.38
296.448	91.38
296.679	76.38
296.909	95.38
297.14	99.38
297.37	97.38
297.601	80.38
297.831	81.38
298.062	95.38
298.292	70.38
298.523	83.38
298.753	87.38
298.984	88.38
299.214	86.38
299.445	104.38
299.675	99.38
299.905	92.38
300.136	84.38
300.366	85.38
300.597	72.38
300.827	79.38
301.057	89.38
301.288	89.38
301.518	81.38
301.748	90.38
301.979	84.38
302.209	92.38
302.439	83.38
302.669	84.38
302.9	67.38
303.13	83.38
303.36	102.38
303.59	85.38
303.82	77.38
304.051	97.38
304.281	91.38
304.511	91.38
304.741	72.38
304.971	87.38
305.201	84.38
305.431	86.38
305.661	92.38
305.891	89.38
306.121	73.38
306.352	81.38
306.582	92.38
306.812	87.38
307.042	72.38
307.272	92.38
307.502	90.38
307.731	84.38
307.961	85.38
308.191	88.38
308.421	86.38
308.651	100.38
308.881	82.38
309.111	90.38
309.341	99.38
309.571	86.38
309.8	80.38
310.03	94.38
310.26	90.38
310.49	81.38
310.72	77.38
310.949	83.38
311.179	97.38
311.409	87.38
311.639	90.38
311.868	95.38
312.098	81.38
312.328	91.38
312.557	85.38
312.787	85.38
313.017	70.38
313.246	78.38
313.476	100.38
313.706	97.38
313.935	81.38
314.165	84.38
314.394	79.38
314.624	89.38
314.853	88.38
315.083	107.38
315.312	96.38
315.542	88.38
315.771	85.38
316.001	87.38
316.23	81.38
316.46	83.38
316.689	77.38
316.919	92.38
317.148	96.38
317.377	91.38
317.607	91.38
317.836	89.38
318.065	64.38
318.295	92.38
318.524	87.38
318.753	90.38
318.983	82.38
319.212	82.38
319.441	106.38
319.67	73.38
319.9	84.38
320.129	101.38
320.358	85.38
320.587	85.38
320.816	79.38
321.046	73.38
321.275	93.38
321.504	82.38
321.733	86.38
321.962	88.38
322.191	98.38
322.42	92.38
322.649	84.38
322.878	79.38
323.108	82.38
323.337	83.38
323.566	92.38
323.795	96.38
324.024	82.38
324.253	92.38
324.482	94.38
324.71	89.38
324.939	105.38
325.168	95.38
325.397	69.38
325.626	97.38
325.855	73.38
326.084	73.38
326.313	87.38
326.542	91.38
326.77	67.38
326.999	82.38
327.228	88.38
327.457	89.38
327.686	108.38
327.914	93.38
328.143	83.38
328.372	91.38
328.6	90.38
328.829	87.38
329.058	72.38
329.287	81.38
329.515	99.38
329.744	99.38
329.972	80.38
330.201	84.38
330.43	87.38
330.658	96.38
330.887	84.38
331.115	79.38
331.344	81.38
331.572	84.38
331.801	77.38
332.03	103.38
332.258	83.38
332.486	97.38
332.715	102.38
332.943	84.38
333.172	100.38
333.4	89.38
333.629	83.38
333.857	93.38
334.085	101.38
334.314	87.38
334.542	88.38
334.771	76.38
334.999	72.38
335.227	87.38
335.455	84.38
335.684	88.38
335.912	76.38
336.14	89.38
336.369	89.38
336.597	72.38
336.825	80.38
337.053	70.38
337.281	86.38
337.51	105.38
337.738	80.38
337.966	84.38
338.194	78.38
338.422	77.38
338.65	86.38
338.878	93.38
339.106	94.38
339.334	72.38
339.562	75.38
339.79	100.38
340.018	92.38
340.246	93.38
340.474	88.38
340.702	79.38
340.93	89.38
341.158	89.38
341.386	91.38
341.614	82.38
341.842	96.38
342.07	78.38
342.298	87.38
342.526	88.38
342.754	83.38
342.981	78.38
343.209	86.38
343.437	84.38
343.665	85.38
343.893	91.38
344.12	87.38
344.348	81.38
344.576	90.38
344.804	85.38
345.031	77.38
345.259	81.38
345.487	93.38
345.714	75.38
345.942	83.38
346.17	90.38
346.397	88.38
346.625	96.38
346.853	97.38
347.08	83.38
347.308	78.38
347.535	74.38
347.763	79.38
347.99	101.38
348.218	91.38
348.445	86.38
348.673	101.38
348.9	86.38
349.128	89.38
349.355	88.38
349.583	96.38
349.81	85.38
350.037	89.38
350.265	95.38
350.492	91.38
350.72	93.38
350.947	93.38
351.174	100.38
351.402	91.38
351.629	78.38
351.856	84.38
352.083	79.38
352.311	83.38
352.538	95.38
352.765	94.38
352.992	72.38
353.22	91.38
353.447	80.38
353.674	95.38
353.901	78.38
354.128	92.38
354.355	85.38
354.583	85.38
354.81	93.38
355.037	73.38
355.264	84.38
355.491	83.38
355.718	74.38
355.945	79.38
356.172	87.38
356.399	75.38
356.626	91.38
356.853	82.38
357.08	74.38
357.307	81.38
357.534	94.38
357.761	84.38
357.988	99.38
358.215	90.38
358.441	86.38
358.668	89.38
358.895	77.38
359.122	87.38
359.349	79.38
359.576	80.38
359.802	90.38
360.029	87.38
360.256	88.38
360.483	100.38
360.709	94.38
360.936	78.38
361.163	78.38
361.39	74.38
361.616	78.38
361.843	86.38
362.07	95.38
362.296	86.38
362.523	97.38
362.749	97.38
362.976	80.38
363.203	91.38
363.429	93.38
363.656	78.38
363.882	80.38
364.109	90.38
364.335	89.38
364.562	78.38
364.788	87.38
365.015	88.38
365.241	74.38
365.468	91.38
365.694	76.38
365.92	95.38
366.147	85.38
366.373	83.38
366.599	71.38
366.826	85.38
367.052	82.38
367.278	89.38
367.505	84.38
367.731	103.38
367.957	93.38
368.184	76.38
368.41	84.38
368.636	95.38
368.862	86.38
369.089	90.38
369.315	78.38
369.541	92.38
369.767	95.38
369.993	97.38
370.219	97.38
370.445	85.38
370.672	83.38
370.898	86.38
371.124	84.38
371.35	76.38
371.576	84.38
371.802	87.38
372.028	87.38
372.254	84.38
372.48	97.38
372.706	82.38
372.932	90.38
373.158	82.38
373.384	90.38
373.61	89.38
373.835	86.38
374.061	88.38
374.287	95.38
374.513	92.38
374.739	85.38
374.965	80.38
375.191	85.38
375.416	94.38
375.642	87.38
375.868	71.38
376.094	88.38
376.319	71.38
376.545	89.38
376.771	89.38
376.997	63.38
377.222	74.38
377.448	81.38
377.674	85.38
377.899	91.38
378.125	76.38
378.35	99.38
378.576	91.38
378.802	85.38
379.027	98.38
379.253	88.38
379.478	85.38
379.704	81.38
379.929	84.38
380.155	76.38
380.38	83.38
380.606	85.38
380.831	83.38
381.057	83.38
381.282	81.38
381.507	88.38
381.733	94.38
381.958	71.38
382.184	76.38
382.409	92.38
382.634	79.38
382.86	95.38
383.085	74.38
383.31	74.38
383.535	92.38
383.761	86.38
383.986	97.38
384.211	83.38
384.436	77.38
384.662	81.38
384.887	97.38
385.112	75.38
385.337	79.38
385.562	83.38
385.787	98.38
386.013	85.38
386.238	89.38
386.463	76.38
386.688	85.38
386.913	87.38
387.138	90.38
387.363	89.38
387.588	86.38
387.813	92.38
388.038	76.38
388.263	87.38
388.488	73.38
388.713	81.38
388.938	83.38
389.163	84.38
389.387	73.38
389.612	89.38
389.837	87.38
390.062	80.38
390.287	85.38
390.512	86.38
390.736	96.38
390.961	76.38
391.186	77.38
391.411	89.38
391.636	87.38
391.86	84.38
392.085	90.38
392.31	86.38
392.534	93.38
392.759	94.38
392.984	94.38
393.208	82.38
393.433	93.38
393.658	86.38
393.882	89.38
394.107	80.38
394.331	79.38
394.556	81.38
394.78	86.38
395.005	95.38
395.229	88.38
395.454	91.38
395.678	80.38
395.903	92.38
396.127	88.38
396.352	81.38
396.576	86.38
396.801	87.38
397.025	72.38
397.249	89.38
397.474	94.38
397.698	88.38
397.922	93.38
398.147	84.38
398.371	103.38
398.595	86.38
398.82	87.38
399.044	92.38
399.268	76.38
399.492	89.38
399.717	78.38
399.941	93.38
400.165	91.38
400.389	80.38
400.613	102.38
400.837	85.38
401.062	88.38
401.286	87.38
401.51	88.38
401.734	81.38
401.958	87.38
402.182	82.38
402.406	103.38
402.63	83.38
402.854	73.38
403.078	86.38
403.302	101.38
403.526	89.38
403.75	92.38
403.974	86.38
404.198	89.38
404.422	93.38
404.645	75.38
404.869	81.38
405.093	94.38
405.317	77.38
405.541	90.38
405.765	91.38
405.988	96.38
406.212	92.38
406.436	78.38
406.66	94.38
406.883	96.38
407.107	73.38
407.331	70.38
407.555	90.38
407.778	87.38
408.002	89.38
408.226	86.38
408.449	74.38
408.673	90.38
408.896	104.38
409.12	91.38
409.344	80.38
409.567	92.38
409.791	92.38
410.014	89.38
410.238	94.38
410.461	86.38
410.685	87.38
410.908	80.38
411.132	81.38
411.355	88.38
411.578	86.38
411.802	88.38
412.025	86.38
412.249	86.38
412.472	73.38
412.695	78.38
412.919	84.38
413.142	86.38
413.365	90.38
413.589	96.38
413.812	98.38
414.035	89.38
414.258	96.38
414.482	97.38
414.705	95.38
414.928	100.38
415.151	106.38
415.374	96.38
415.597	102.38
415.821	78.38
416.044	82.38
416.267	83.38
416.49	103.38
416.713	87.38
416.936	94.38
417.159	94.38
417.382	96.38
417.605	82.38
417.828	89.38
418.051	94.38
418.274	85.38
418.497	79.38
418.72	87.38
418.943	83.38
419.166	80.38
419.389	79.38
419.611	88.38
419.834	81.38
420.057	82.38
420.28	100.38
420.503	82.38
420.726	87.38
420.948	90.38
421.171	95.38
421.394	87.38
421.617	75.38
421.839	99.38
422.062	85.38
422.285	81.38
422.507	81.38
422.73	81.38
422.953	78.38
423.175	80.38
423.398	105.38
423.621	89.38
423.843	92.38
424.066	105.38
424.288	87.38
424.511	105.38
424.733	94.38
424.956	87.38
425.178	91.38
425.401	101.38
425.623	89.38
425.846	88.38
426.068	101.38
426.291	80.38
426.513	98.38
426.735	104.38
426.958	91.38
427.18	91.38
427.402	86.38
427.625	97.38
427.847	83.38
428.069	92.38
428.292	91.38
428.514	77.38
428.736	92.38
428.958	105.38
429.181	96.38
429.403	80.38
429.625	85.38
429.847	85.38
430.069	85.38
430.292	88.38
430.514	91.38
430.736	89.38
430.958	91.38
431.18	74.38
431.402	103.38
431.624	96.38
431.846	85.38
432.068	89.38
432.29	77.38
432.512	81.38
432.734	96.38
432.956	104.38
433.178	99.38
433.4	97.38
433.622	89.38
433.844	98.38
434.066	97.38
434.287	88.38
434.509	74.38
434.731	90.38
434.953	85.38
435.175	90.38
435.397	88.38
435.618	91.38
435.84	83.38
436.062	82.38
436.284	90.38
436.505	89.38
436.727	86.38
436.949	92.38
437.17	87.38
437.392	83.38
437.614	89.38
437.835	93.38
438.057	91.38
438.278	85.38
438.5	88.38
438.721	92.38
438.943	91.38
439.165	88.38
439.386	97.38
439.608	91.38
439.829	87.38
440.05	96.38
440.272	88.38
440.493	91.38
440.715	90.38
440.936	85.38
441.158	94.38
441.379	82.38
441.6	97.38
441.822	88.38
442.043	96.38
442.264	91.38
442.486	79.38
442.707	76.38
442.928	100.38
443.149	87.38
443.371	96.38
443.592	80.38
443.813	94.38
444.034	77.38
444.255	88.38
444.476	103.38
444.698	96.38
444.919	96.38
445.14	174.38
445.361	130.38
445.582	97.38
445.803	95.38
446.024	104.38
446.245	89.38
446.466	106.38
446.687	84.38
446.908	86.38
447.129	105.38
447.35	92.38
447.571	74.38
447.792	84.38
448.013	102.38
448.234	89.38
448.455	81.38
448.675	96.38
448.896	94.38
449.117	77.38
449.338	100.38
449.559	90.38
449.779	96.38
450	88.38
450.221	79.38
450.442	96.38
450.662	102.38
450.883	80.38
451.104	90.38
451.324	91.38
451.545	81.38
451.766	85.38
451.986	97.38
452.207	97.38
452.428	83.38
452.648	101.38
452.869	95.38
453.089	88.38
453.31	90.38
453.53	85.38
453.751	88.38
453.971	76.38
454.192	91.38
454.412	72.38
454.633	100.38
454.853	82.38
455.073	83.38
455.294	80.38
455.514	85.38
455.734	95.38
455.955	87.38
456.175	95.38
456.395	91.38
456.616	96.38
456.836	87.38
457.056	81.38
457.276	83.38
457.497	91.38
457.717	83.38
457.937	96.38
458.157	89.38
458.377	74.38
458.598	86.38
458.818	91.38
459.038	92.38
459.258	85.38
459.478	87.38
459.698	89.38
459.918	98.38
460.138	97.38
460.358	99.38
460.578	88.38
460.798	90.38
461.018	70.38
461.238	88.38
461.458	85.38
461.678	87.38
461.898	76.38
462.118	87.38
462.338	82.38
462.558	95.38
462.777	108.38
462.997	90.38
463.217	77.38
463.437	88.38
463.657	81.38
463.876	95.38
464.096	87.38
464.316	77.38
464.536	91.38
464.755	93.38
464.975	86.38
465.195	86.38
465.414	82.38
465.634	87.38
465.854	76.38
466.073	84.38
466.293	64.38
466.512	83.38
466.732	93.38
466.951	91.38
467.171	79.38
467.391	95.38
467.61	83.38
467.829	79.38
468.049	94.38
468.268	89.38
468.488	82.38
468.707	76.38
468.927	85.38
469.146	89.38
469.365	94.38
469.585	102.38
469.804	91.38
470.023	94.38
470.243	93.38
470.462	101.38
470.681	94.38
470.901	103.38
471.12	106.38
471.339	94.38
471.558	86.38
471.777	97.38
471.997	99.38
472.216	97.38
472.435	87.38
472.654	86.38
472.873	94.38
473.092	77.38
473.311	89.38
473.53	77.38
473.749	89.38
473.968	95.38
474.187	75.38
474.406	83.38
474.625	89.38
474.844	99.38
475.063	94.38
475.282	89.38
475.501	93.38
475.72	99.38
475.939	80.38
476.158	75.38
476.377	91.38
476.596	102.38
476.814	93.38
477.033	91.38
477.252	84.38
477.471	89.38
477.69	81.38
477.908	90.38
478.127	105.38
478.346	97.38
478.564	90.38
478.783	84.38
479.002	93.38
479.22	80.38
479.439	95.38
479.658	97.38
479.876	94.38
480.095	86.38
480.313	81.38
480.532	87.38
480.751	88.38
480.969	88.38
481.188	70.38
481.406	87.38
481.624	92.38
481.843	79.38
482.061	93.38
482.28	86.38
482.498	75.38
482.717	85.38
482.935	92.38
483.153	94.38
483.372	90.38
483.59	96.38
483.808	88.38
484.027	85.38
484.245	89.38
484.463	88.38
484.681	89.38
484.9	98.38
485.118	102.38
485.336	76.38
485.554	85.38
485.772	82.38
485.99	87.38
486.209	78.38
486.427	87.38
486.645	88.38
486.863	80.38
487.081	111.38
487.299	112.38
487.517	94.38
487.735	95.38
487.953	107.38
488.171	90.38
488.389	99.38
488.607	92.38
488.825	94.38
489.043	92.38
489.261	89.38
489.479	99.38
489.696	85.38
489.914	89.38
490.132	88.38
490.35	96.38
490.568	99.38
490.786	92.38
491.003	86.38
491.221	95.38
491.439	108.38
491.657	102.38
491.874	104.38
492.092	113.38
492.31	107.38
492.527	109.38
492.745	100.38
492.963	116.38
493.18	94.38
493.398	106.38
493.615	108.38
493.833	107.38
494.05	94.38
494.268	98.38
494.485	113.38
494.703	95.38
494.92	110.38
495.138	95.38
495.355	77.38
495.573	101.38
495.79	94.38
496.008	99.38
496.225	91.38
496.442	100.38
496.66	102.38
496.877	97.38
497.094	86.38
497.312	83.38
497.529	106.38
497.746	93.38
497.963	89.38
498.181	80.38
498.398	105.38
498.615	86.38
498.832	104.38
499.049	94.38
499.267	85.38
499.484	90.38
499.701	104.38
499.918	99.38
500.135	95.38
500.352	97.38
500.569	96.38
500.786	104.38
501.003	97.38
501.22	100.38
501.437	92.38
501.654	98.38
501.871	89.38
502.088	89.38
502.305	97.38
502.522	98.38
502.739	81.38
502.956	104.38
503.172	87.38
503.389	96.38
503.606	97.38
503.823	86.38
504.04	86.38
504.256	96.38
504.473	92.38
504.69	89.38
504.907	100.38
505.123	94.38
505.34	95.38
505.557	88.38
505.773	99.38
505.99	73.38
506.207	100.38
506.423	94.38
506.64	104.38
506.856	101.38
507.073	81.38
507.289	88.38
507.506	95.38
507.722	95.38
507.939	91.38
508.155	77.38
508.372	103.38
508.588	93.38
508.805	84.38
509.021	96.38
509.238	97.38
509.454	85.38
509.67	86.38
509.887	88.38
510.103	76.38
510.319	91.38
510.536	83.38
510.752	82.38
510.968	90.38
511.184	88.38
511.401	79.38
511.617	80.38
511.833	94.38
512.049	100.38
512.265	77.38
512.481	91.38
512.698	85.38
512.914	92.38
513.13	75.38
513.346	81.38
513.562	94.38
513.778	83.38
513.994	87.38
514.21	88.38
514.426	75.38
514.642	95.38
514.858	90.38
515.074	81.38
515.29	100.38
515.506	96.38
515.721	98.38
515.937	88.38
516.153	92.38
516.369	87.38
516.585	95.38
516.801	92.38
517.016	84.38
517.232	81.38
517.448	89.38
517.664	93.38
517.879	92.38
518.095	90.38
518.311	84.38
518.527	90.38
518.742	84.38
518.958	87.38
519.173	94.38
519.389	91.38
519.605	96.38
519.82	80.38
520.036	87.38
520.251	99.38
520.467	79.38
520.682	81.38
520.898	80.38
521.113	84.38
521.329	86.38
521.544	80.38
521.76	89.38
521.975	91.38
522.19	81.38
522.406	95.38
522.621	79.38
522.836	88.38
523.052	91.38
523.267	85.38
523.482	90.38
523.698	98.38
523.913	83.38
524.128	89.38
524.343	80.38
524.559	96.38
524.774	77.38
524.989	103.38
525.204	91.38
525.419	93.38
525.634	90.38
525.849	79.38
526.064	86.38
526.28	87.38
526.495	96.38
526.71	81.38
526.925	93.38
527.14	84.38
527.355	77.38
527.57	90.38
527.785	79.38
527.999	73.38
528.214	85.38
528.429	82.38
528.644	95.38
528.859	93.38
529.074	90.38
529.289	107.38
529.503	92.38
529.718	103.38
529.933	93.38
530.148	87.38
530.363	76.38
530.577	84.38
530.792	92.38
531.007	93.38
531.221	99.38
531.436	85.38
531.651	89.38
531.865	102.38
532.08	88.38
532.295	94.38
532.509	100.38
532.724	85.38
532.938	88.38
533.153	95.38
533.367	94.38
533.582	90.38
533.796	85.38
534.011	87.38
534.225	74.38
534.44	90.38
534.654	80.38
534.868	96.38
535.083	97.38
535.297	80.38
535.511	89.38
535.726	86.38
535.94	96.38
536.154	86.38
536.369	83.38
536.583	79.38
536.797	72.38
537.011	75.38
537.225	94.38
537.44	84.38
537.654	94.38
537.868	101.38
538.082	96.38
538.296	90.38
538.51	88.38
538.724	91.38
538.938	88.38
539.153	101.38
539.367	105.38
539.581	81.38
539.795	84.38
540.009	88.38
540.222	97.38
540.436	107.38
540.65	94.38
540.864	96.38
541.078	82.38
541.292	104.38
541.506	88.38
541.72	97.38
541.934	103.38
542.147	105.38
542.361	103.38
542.575	98.38
542.789	103.38
543.002	94.38
543.216	99.38
543.43	87.38
543.644	73.38
543.857	104.38
544.071	87.38
544.285	107.38
544.498	105.38
544.712	90.38
544.925	96.38
545.139	108.38
545.352	95.38
545.566	111.38
545.779	95.38
545.993	111.38
546.206	94.38
546.42	77.38
546.633	95.38
546.847	92.38
547.06	99.38
547.274	108.38
547.487	103.38
547.7	99.38
547.914	91.38
548.127	90.38
548.34	90.38
548.554	96.38
548.767	96.38
548.98	90.38
549.193	104.38
549.407	103.38
549.62	108.38
549.833	104.38
550.046	102.38
550.259	97.38
550.473	112.38
550.686	105.38
550.899	108.38
551.112	101.38
551.325	88.38
551.538	102.38
551.751	105.38
551.964	81.38
552.177	88.38
552.39	112.38
552.603	89.38
552.816	92.38
553.029	99.38
553.242	102.38
553.455	115.38
553.667	107.38
553.88	89.38
554.093	100.38
554.306	107.38
554.519	109.38
554.732	106.38
554.944	87.38
555.157	95.38
555.37	86.38
555.583	100.38
555.795	111.38
556.008	103.38
556.221	93.38
556.433	89.38
556.646	91.38
556.859	80.38
557.071	95.38
557.284	93.38
557.496	117.38
557.709	96.38
557.921	86.38
558.134	101.38
558.346	80.38
558.559	112.38
558.771	89.38
558.984	100.38
559.196	103.38
559.409	94.38
559.621	106.38
559.833	85.38
560.046	95.38
560.258	65.38
560.47	91.38
560.683	86.38
560.895	89.38
561.107	102.38
561.32	91.38
561.532	97.38
561.744	88.38
561.956	98.38
562.168	99.38
562.381	82.38
562.593	86.38
562.805	103.38
563.017	86.38
563.229	90.38
563.441	101.38
563.653	96.38
563.865	88.38
564.077	86.38
564.289	92.38
564.501	93.38
564.713	94.38
564.925	93.38
565.137	82.38
565.349	100.38
565.561	102.38
565.773	86.38
565.985	99.38
566.197	89.38
566.408	93.38
566.62	83.38
566.832	83.38
567.044	102.38
567.255	103.38
567.467	92.38
567.679	97.38
567.891	84.38
568.102	84.38
568.314	83.38
568.526	87.38
568.737	83.38
568.949	93.38
569.161	74.38
569.372	90.38
569.584	85.38
569.795	88.38
570.007	94.38
570.218	84.38
570.43	93.38
570.641	75.38
570.853	103.38
571.064	84.38
571.276	93.38
571.487	92.38
571.698	81.38
571.91	79.38
572.121	82.38
572.333	79.38
572.544	70.38
572.755	98.38
572.966	91.38
573.178	88.38
573.389	93.38
573.6	83.38
573.811	85.38
574.023	92.38
574.234	81.38
574.445	90.38
574.656	103.38
574.867	91.38
575.078	73.38
575.289	95.38
575.501	84.38
575.712	91.38
575.923	87.38
576.134	82.38
576.345	85.38
576.556	100.38
576.767	76.38
576.978	94.38
577.188	95.38
577.399	86.38
577.61	76.38
577.821	85.38
578.032	75.38
578.243	89.38
578.454	84.38
578.665	85.38
578.875	93.38
579.086	100.38
579.297	85.38
579.508	95.38
579.718	101.38
579.929	94.38
580.14	99.38
580.35	96.38
580.561	96.38
580.772	93.38
580.982	89.38
581.193	85.38
581.403	80.38
581.614	76.38
581.825	86.38
582.035	81.38
582.246	95.38
582.456	102.38
582.667	75.38
582.877	84.38
583.087	91.38
583.298	92.38
583.508	93.38
583.719	79.38
583.929	84.38
584.139	101.38
584.35	82.38
584.56	92.38
584.77	81.38
584.981	77.38
585.191	76.38
585.401	95.38
585.611	76.38
585.821	83.38
586.032	89.38
586.242	73.38
586.452	85.38
586.662	71.38
586.872	91.38
587.082	77.38
587.292	76.38
587.502	77.38
587.713	88.38
587.923	78.38
588.133	102.38
588.343	75.38
588.553	84.38
588.762	90.38
588.972	73.38
589.182	90.38
589.392	85.38
589.602	97.38
589.812	84.38
590.022	71.38
590.232	87.38
590.441	88.38
590.651	85.38
590.861	87.38
591.071	89.38
591.281	87.38
591.49	92.38
591.7	94.38
591.91	95.38
592.119	78.38
592.329	89.38
592.539	93.38
592.748	89.38
592.958	89.38
593.167	95.38
593.377	92.38
593.587	93.38
593.796	85.38
594.006	91.38
594.215	77.38
594.424	76.38
594.634	78.38
594.843	85.38
595.053	83.38
595.262	95.38
595.472	76.38
595.681	83.38
595.89	81.38
596.1	88.38
596.309	101.38
596.518	95.38
596.727	83.38
596.937	91.38
597.146	79.38
597.355	81.38
597.564	95.38
597.774	80.38
597.983	88.38
598.192	92.38
598.401	86.38
598.61	79.38
598.819	102.38
599.028	94.38
599.237	77.38
599.446	91.38
599.655	94.38
599.864	104.38
600.073	104.38
600.282	84.38
600.491	94.38
600.7	83.38
600.909	80.38
601.118	86.38
601.327	86.38
601.536	103.38
601.745	90.38
601.953	86.38
602.162	95.38
602.371	96.38
602.58	117.38
602.789	80.38
602.997	98.38
603.206	99.38
603.415	87.38
603.623	88.38
603.832	91.38
604.041	97.38
604.249	89.38
604.458	90.38
604.666	80.38
604.875	90.38
605.084	95.38
605.292	105.38
605.501	96.38
605.709	99.38
605.918	98.38
606.126	88.38
606.334	85.38
606.543	86.38
606.751	107.38
606.96	86.38
607.168	105.38
607.376	83.38
607.585	87.38
607.793	99.38
608.001	86.38
608.21	89.38
608.418	97.38
608.626	92.38
608.834	89.38
609.043	89.38
609.251	84.38
609.459	103.38
609.667	94.38
609.875	88.38
610.083	86.38
610.291	87.38
610.499	91.38
610.707	90.38
610.916	85.38
611.124	95.38
611.332	84.38
611.54	93.38
611.748	81.38
611.955	90.38
612.163	109.38
612.371	102.38
612.579	79.38
612.787	98.38
612.995	72.38
613.203	88.38
613.411	99.38
613.618	100.38
613.826	99.38
614.034	95.38
614.242	92.38
614.449	93.38
614.657	89.38
614.865	85.38
615.072	100.38
615.28	92.38
615.488	90.38
615.695	75.38
615.903	81.38
616.111	78.38
616.318	93.38
616.526	99.38
616.733	102.38
616.941	97.38
617.148	100.38
617.356	95.38
617.563	87.38
617.771	102.38
617.978	99.38
618.185	91.38
618.393	85.38
618.6	85.38
618.807	96.38
619.015	103.38
619.222	88.38
619.429	91.38
619.637	81.38
619.844	69.38
620.051	96.38
620.258	96.38
620.466	89.38
620.673	107.38
620.88	100.38
621.087	94.38
621.294	91.38
621.501	95.38
621.708	92.38
621.915	86.38
622.122	87.38
622.329	87.38
622.536	105.38
622.743	78.38
622.95	105.38
623.157	91.38
623.364	98.38
623.571	79.38
623.778	95.38
623.985	92.38
624.192	102.38
624.399	78.38
624.606	101.38
624.812	85.38
625.019	91.38
625.226	91.38
625.433	101.38
625.639	84.38
625.846	93.38
626.053	87.38
626.259	91.38
626.466	91.38
626.673	84.38
626.879	85.38
627.086	83.38
627.293	89.38
627.499	83.38
627.706	87.38
627.912	82.38
628.119	99.38
628.325	91.38
628.532	85.38
628.738	81.38
628.945	95.38
629.151	97.38
629.357	99.38
629.564	81.38
629.77	88.38
629.976	94.38
630.183	83.38
630.389	87.38
630.595	81.38
630.802	81.38
631.008	92.38
631.214	88.38
631.42	89.38
631.627	87.38
631.833	82.38
632.039	87.38
632.245	74.38
632.451	81.38
632.657	98.38
632.863	96.38
633.069	82.38
633.275	87.38
633.481	83.38
633.688	80.38
633.893	92.38
634.099	104.38
634.305	88.38
634.511	88.38
634.717	88.38
634.923	95.38
635.129	76.38
635.335	93.38
635.541	84.38
635.747	82.38
635.952	85.38
636.158	88.38
636.364	80.38
636.57	90.38
636.775	85.38
636.981	86.38
637.187	91.38
637.392	103.38
637.598	96.38
637.804	104.38
638.009	98.38
638.215	97.38
638.421	75.38
638.626	95.38
638.832	91.38
639.037	93.38
639.243	95.38
639.448	87.38
639.654	89.38
639.859	87.38
640.065	91.38
640.27	83.38
640.475	95.38
640.681	108.38
640.886	101.38
641.091	92.38
641.297	89.38
641.502	78.38
641.707	84.38
641.913	89.38
642.118	84.38
642.323	84.38
642.528	94.38
642.733	99.38
642.939	85.38
643.144	96.38
643.349	94.38
643.554	94.38
643.759	93.38
643.964	86.38
644.169	88.38
644.374	80.38
644.579	85.38
644.784	95.38
644.989	79.38
645.194	93.38
645.399	89.38
645.604	79.38
645.809	90.38
646.014	93.38
646.219	89.38
646.423	95.38
646.628	92.38
646.833	95.38
647.038	73.38
647.243	72.38
647.447	92.38
647.652	90.38
647.857	89.38
648.062	85.38
648.266	76.38
648.471	89.38
648.676	87.38
648.88	97.38
649.085	70.38
649.289	91.38
649.494	94.38
649.698	100.38
649.903	91.38
650.107	101.38
650.312	99.38
650.516	82.38
650.721	80.38
650.925	86.38
651.13	74.38
651.334	85.38
651.539	92.38
651.743	78.38
651.947	93.38
652.152	82.38
652.356	90.38
652.56	93.38
652.764	89.38
652.969	76.38
653.173	79.38
653.377	79.38
653.581	87.38
653.785	99.38
653.99	87.38
654.194	89.38
654.398	81.38
654.602	71.38
654.806	87.38
655.01	76.38
655.214	87.38
655.418	92.38
655.622	81.38
655.826	87.38
656.03	88.38
656.234	86.38
656.438	79.38
656.642	82.38
656.846	93.38
657.049	83.38
657.253	75.38
657.457	75.38
657.661	80.38
657.865	76.38
658.068	78.38
658.272	76.38
658.476	80.38
658.68	75.38
658.883	74.38
659.087	90.38
659.291	75.38
659.494	83.38
659.698	91.38
659.901	91.38
660.105	101.38
660.309	94.38
660.512	96.38
660.716	97.38
660.919	83.38
661.123	84.38
661.326	81.38
661.53	87.38
661.733	87.38
661.936	85.38
662.14	89.38
662.343	77.38
662.546	81.38
662.75	84.38
662.953	99.38
663.156	78.38
663.36	70.38
663.563	97.38
663.766	74.38
663.969	70.38
664.173	80.38
664.376	99.38
664.579	99.38
664.782	92.38
664.985	85.38
665.188	85.38
665.391	77.38
665.594	80.38
665.797	87.38
666	73.38
666.203	79.38
666.406	83.38
666.609	97.38
666.812	96.38
667.015	85.38
667.218	91.38
667.421	91.38
667.624	80.38
667.827	96.38
668.03	87.38
668.232	80.38
668.435	84.38
668.638	78.38
668.841	75.38
669.043	83.38
669.246	78.38
669.449	84.38
669.651	86.38
669.854	84.38
670.057	76.38
670.259	88.38
670.462	89.38
670.665	70.38
670.867	95.38
671.07	81.38
671.272	83.38
671.475	88.38
671.677	87.38
671.88	82.38
672.082	85.38
672.284	95.38
672.487	95.38
672.689	87.38
672.892	69.38
