Data from Zn(NO3)2Standard.Agarose3%.GreenCap.LampEnergy5.5.E.O_HRD10591_15-01-07-767.txt Node
Date: Mon Jul 22 15:01:07 EDT 2019
User: cochatt
Spectrometer: HR+D1059
Trigger mode: 1
Integration Time (sec): 1.000000E-1
Scans to average: 1
Electric dark correction enabled: true
Nonlinearity correction enabled: false
Boxcar width: 0
XAxis mode: Wavelengths
Number of Pixels in Spectrum: 2048
>>>>>Begin Spectral Data<<<<<
223.165	-20.62
223.4	-20.62
223.635	-20.62
223.869	-14.62
224.104	-19.62
224.338	-4.62
224.573	-23.62
224.808	-31.62
225.042	-0.62
225.277	-4.62
225.511	-1.62
225.746	3.38
225.98	21.38
226.215	11.38
226.449	9.38
226.683	27.38
226.918	23.38
227.152	25.38
227.387	28.38
227.621	51.38
227.856	47.38
228.09	49.38
228.324	51.38
228.559	50.38
228.793	56.38
229.027	66.38
229.262	49.38
229.496	53.38
229.73	74.38
229.964	73.38
230.199	83.38
230.433	76.38
230.667	85.38
230.901	79.38
231.136	72.38
231.37	86.38
231.604	84.38
231.838	91.38
232.072	75.38
232.306	69.38
232.541	77.38
232.775	75.38
233.009	77.38
233.243	66.38
233.477	76.38
233.711	89.38
233.945	89.38
234.179	83.38
234.413	62.38
234.647	76.38
234.881	84.38
235.115	79.38
235.349	79.38
235.583	88.38
235.817	87.38
236.051	96.38
236.285	89.38
236.519	70.38
236.753	84.38
236.987	76.38
237.221	74.38
237.455	89.38
237.689	75.38
237.922	67.38
238.156	83.38
238.39	82.38
238.624	76.38
238.858	75.38
239.091	71.38
239.325	84.38
239.559	94.38
239.793	93.38
240.027	62.38
240.26	80.38
240.494	77.38
240.728	61.38
240.961	55.38
241.195	88.38
241.429	54.38
241.662	86.38
241.896	76.38
242.13	70.38
242.363	83.38
242.597	77.38
242.83	83.38
243.064	76.38
243.298	68.38
243.531	79.38
243.765	91.38
243.998	90.38
244.232	65.38
244.465	84.38
244.699	65.38
244.932	62.38
245.166	67.38
245.399	79.38
245.633	65.38
245.866	81.38
246.099	75.38
246.333	70.38
246.566	85.38
246.8	76.38
247.033	72.38
247.266	75.38
247.5	71.38
247.733	76.38
247.966	81.38
248.2	73.38
248.433	87.38
248.666	83.38
248.899	86.38
249.133	70.38
249.366	87.38
249.599	63.38
249.832	71.38
250.066	68.38
250.299	68.38
250.532	82.38
250.765	78.38
250.998	88.38
251.231	72.38
251.465	84.38
251.698	79.38
251.931	75.38
252.164	75.38
252.397	83.38
252.63	79.38
252.863	81.38
253.096	77.38
253.329	68.38
253.562	91.38
253.795	81.38
254.028	75.38
254.261	67.38
254.494	102.38
254.727	88.38
254.96	77.38
255.193	87.38
255.426	79.38
255.659	84.38
255.892	71.38
256.124	75.38
256.357	84.38
256.59	77.38
256.823	87.38
257.056	85.38
257.289	73.38
257.521	87.38
257.754	88.38
257.987	76.38
258.22	74.38
258.452	87.38
258.685	80.38
258.918	80.38
259.151	89.38
259.383	76.38
259.616	64.38
259.849	81.38
260.081	95.38
260.314	79.38
260.547	61.38
260.779	85.38
261.012	72.38
261.244	87.38
261.477	84.38
261.71	69.38
261.942	84.38
262.175	72.38
262.407	76.38
262.64	76.38
262.872	70.38
263.105	69.38
263.337	79.38
263.57	83.38
263.802	74.38
264.035	79.38
264.267	83.38
264.499	101.38
264.732	80.38
264.964	88.38
265.197	91.38
265.429	86.38
265.661	72.38
265.894	67.38
266.126	90.38
266.358	79.38
266.591	83.38
266.823	85.38
267.055	85.38
267.287	89.38
267.52	82.38
267.752	75.38
267.984	91.38
268.216	80.38
268.448	88.38
268.681	87.38
268.913	73.38
269.145	82.38
269.377	70.38
269.609	71.38
269.841	77.38
270.073	81.38
270.306	78.38
270.538	100.38
270.77	78.38
271.002	79.38
271.234	87.38
271.466	89.38
271.698	65.38
271.93	80.38
272.162	58.38
272.394	83.38
272.626	84.38
272.858	77.38
273.09	73.38
273.322	87.38
273.553	78.38
273.785	66.38
274.017	82.38
274.249	86.38
274.481	85.38
274.713	82.38
274.945	88.38
275.176	84.38
275.408	78.38
275.64	81.38
275.872	66.38
276.104	84.38
276.335	88.38
276.567	99.38
276.799	83.38
277.031	68.38
277.262	77.38
277.494	88.38
277.726	76.38
277.957	90.38
278.189	77.38
278.421	78.38
278.652	95.38
278.884	75.38
279.115	91.38
279.347	86.38
279.579	82.38
279.81	70.38
280.042	72.38
280.273	75.38
280.505	83.38
280.736	71.38
280.968	69.38
281.199	78.38
281.431	89.38
281.662	98.38
281.894	87.38
282.125	76.38
282.356	75.38
282.588	72.38
282.819	84.38
283.051	83.38
283.282	71.38
283.513	83.38
283.745	91.38
283.976	91.38
284.207	82.38
284.439	81.38
284.67	76.38
284.901	94.38
285.132	99.38
285.364	86.38
285.595	91.38
285.826	87.38
286.057	83.38
286.288	78.38
286.52	91.38
286.751	88.38
286.982	78.38
287.213	72.38
287.444	78.38
287.675	91.38
287.906	66.38
288.138	79.38
288.369	83.38
288.6	81.38
288.831	75.38
289.062	105.38
289.293	81.38
289.524	84.38
289.755	91.38
289.986	76.38
290.217	87.38
290.448	89.38
290.679	79.38
290.91	77.38
291.141	101.38
291.371	79.38
291.602	85.38
291.833	77.38
292.064	80.38
292.295	74.38
292.526	77.38
292.757	76.38
292.987	74.38
293.218	84.38
293.449	94.38
293.68	100.38
293.91	91.38
294.141	76.38
294.372	92.38
294.603	66.38
294.833	89.38
295.064	80.38
295.295	97.38
295.525	83.38
295.756	85.38
295.987	72.38
296.217	83.38
296.448	92.38
296.679	87.38
296.909	76.38
297.14	83.38
297.37	86.38
297.601	84.38
297.831	76.38
298.062	75.38
298.292	85.38
298.523	89.38
298.753	83.38
298.984	86.38
299.214	88.38
299.445	86.38
299.675	75.38
299.905	78.38
300.136	87.38
300.366	76.38
300.597	81.38
300.827	82.38
301.057	77.38
301.288	86.38
301.518	80.38
301.748	81.38
301.979	98.38
302.209	87.38
302.439	81.38
302.669	80.38
302.9	77.38
303.13	93.38
303.36	69.38
303.59	77.38
303.82	72.38
304.051	70.38
304.281	81.38
304.511	81.38
304.741	77.38
304.971	77.38
305.201	75.38
305.431	89.38
305.661	82.38
305.891	92.38
306.121	76.38
306.352	87.38
306.582	83.38
306.812	82.38
307.042	77.38
307.272	83.38
307.502	89.38
307.731	84.38
307.961	76.38
308.191	84.38
308.421	83.38
308.651	100.38
308.881	94.38
309.111	63.38
309.341	84.38
309.571	86.38
309.8	83.38
310.03	82.38
310.26	78.38
310.49	76.38
310.72	97.38
310.949	93.38
311.179	88.38
311.409	86.38
311.639	88.38
311.868	87.38
312.098	88.38
312.328	78.38
312.557	75.38
312.787	95.38
313.017	84.38
313.246	77.38
313.476	83.38
313.706	89.38
313.935	91.38
314.165	79.38
314.394	76.38
314.624	95.38
314.853	97.38
315.083	83.38
315.312	73.38
315.542	79.38
315.771	88.38
316.001	79.38
316.23	82.38
316.46	96.38
316.689	79.38
316.919	67.38
317.148	97.38
317.377	80.38
317.607	81.38
317.836	78.38
318.065	78.38
318.295	74.38
318.524	92.38
318.753	85.38
318.983	77.38
319.212	89.38
319.441	87.38
319.67	87.38
319.9	82.38
320.129	92.38
320.358	90.38
320.587	89.38
320.816	77.38
321.046	89.38
321.275	91.38
321.504	83.38
321.733	81.38
321.962	93.38
322.191	89.38
322.42	77.38
322.649	78.38
322.878	74.38
323.108	84.38
323.337	79.38
323.566	78.38
323.795	78.38
324.024	79.38
324.253	90.38
324.482	87.38
324.71	88.38
324.939	84.38
325.168	86.38
325.397	80.38
325.626	93.38
325.855	87.38
326.084	76.38
326.313	84.38
326.542	78.38
326.77	89.38
326.999	84.38
327.228	75.38
327.457	96.38
327.686	83.38
327.914	94.38
328.143	68.38
328.372	84.38
328.6	76.38
328.829	85.38
329.058	67.38
329.287	83.38
329.515	88.38
329.744	81.38
329.972	84.38
330.201	84.38
330.43	69.38
330.658	78.38
330.887	83.38
331.115	83.38
331.344	82.38
331.572	96.38
331.801	79.38
332.03	86.38
332.258	83.38
332.486	80.38
332.715	76.38
332.943	90.38
333.172	81.38
333.4	68.38
333.629	77.38
333.857	81.38
334.085	95.38
334.314	88.38
334.542	83.38
334.771	92.38
334.999	69.38
335.227	78.38
335.455	71.38
335.684	91.38
335.912	74.38
336.14	82.38
336.369	73.38
336.597	83.38
336.825	96.38
337.053	80.38
337.281	79.38
337.51	82.38
337.738	71.38
337.966	80.38
338.194	93.38
338.422	84.38
338.65	95.38
338.878	67.38
339.106	82.38
339.334	93.38
339.562	90.38
339.79	105.38
340.018	94.38
340.246	71.38
340.474	80.38
340.702	106.38
340.93	92.38
341.158	81.38
341.386	82.38
341.614	67.38
341.842	84.38
342.07	84.38
342.298	98.38
342.526	73.38
342.754	86.38
342.981	73.38
343.209	81.38
343.437	91.38
343.665	83.38
343.893	68.38
344.12	88.38
344.348	78.38
344.576	99.38
344.804	92.38
345.031	84.38
345.259	80.38
345.487	89.38
345.714	99.38
345.942	84.38
346.17	77.38
346.397	88.38
346.625	61.38
346.853	85.38
347.08	84.38
347.308	94.38
347.535	89.38
347.763	86.38
347.99	85.38
348.218	86.38
348.445	92.38
348.673	88.38
348.9	76.38
349.128	80.38
349.355	87.38
349.583	78.38
349.81	76.38
350.037	78.38
350.265	88.38
350.492	80.38
350.72	76.38
350.947	84.38
351.174	80.38
351.402	80.38
351.629	81.38
351.856	72.38
352.083	76.38
352.311	71.38
352.538	75.38
352.765	74.38
352.992	83.38
353.22	77.38
353.447	89.38
353.674	82.38
353.901	82.38
354.128	86.38
354.355	80.38
354.583	74.38
354.81	79.38
355.037	92.38
355.264	68.38
355.491	80.38
355.718	86.38
355.945	89.38
356.172	101.38
356.399	101.38
356.626	76.38
356.853	77.38
357.08	84.38
357.307	97.38
357.534	82.38
357.761	79.38
357.988	82.38
358.215	74.38
358.441	83.38
358.668	81.38
358.895	66.38
359.122	81.38
359.349	89.38
359.576	85.38
359.802	77.38
360.029	87.38
360.256	75.38
360.483	74.38
360.709	103.38
360.936	90.38
361.163	61.38
361.39	76.38
361.616	96.38
361.843	79.38
362.07	96.38
362.296	73.38
362.523	77.38
362.749	95.38
362.976	89.38
363.203	81.38
363.429	90.38
363.656	76.38
363.882	81.38
364.109	92.38
364.335	89.38
364.562	70.38
364.788	72.38
365.015	85.38
365.241	80.38
365.468	88.38
365.694	82.38
365.92	95.38
366.147	66.38
366.373	80.38
366.599	81.38
366.826	79.38
367.052	82.38
367.278	72.38
367.505	71.38
367.731	79.38
367.957	71.38
368.184	83.38
368.41	76.38
368.636	66.38
368.862	75.38
369.089	77.38
369.315	81.38
369.541	75.38
369.767	82.38
369.993	84.38
370.219	70.38
370.445	88.38
370.672	90.38
370.898	92.38
371.124	81.38
371.35	68.38
371.576	76.38
371.802	68.38
372.028	94.38
372.254	92.38
372.48	82.38
372.706	98.38
372.932	72.38
373.158	79.38
373.384	84.38
373.61	73.38
373.835	78.38
374.061	91.38
374.287	78.38
374.513	80.38
374.739	83.38
374.965	81.38
375.191	76.38
375.416	89.38
375.642	82.38
375.868	80.38
376.094	76.38
376.319	85.38
376.545	91.38
376.771	76.38
376.997	78.38
377.222	85.38
377.448	86.38
377.674	89.38
377.899	66.38
378.125	77.38
378.35	92.38
378.576	81.38
378.802	77.38
379.027	82.38
379.253	98.38
379.478	84.38
379.704	90.38
379.929	92.38
380.155	74.38
380.38	80.38
380.606	87.38
380.831	92.38
381.057	81.38
381.282	80.38
381.507	80.38
381.733	88.38
381.958	72.38
382.184	84.38
382.409	88.38
382.634	96.38
382.86	84.38
383.085	86.38
383.31	76.38
383.535	68.38
383.761	79.38
383.986	89.38
384.211	88.38
384.436	85.38
384.662	82.38
384.887	72.38
385.112	77.38
385.337	74.38
385.562	85.38
385.787	82.38
386.013	87.38
386.238	88.38
386.463	82.38
386.688	91.38
386.913	96.38
387.138	75.38
387.363	77.38
387.588	85.38
387.813	75.38
388.038	92.38
388.263	78.38
388.488	93.38
388.713	80.38
388.938	77.38
389.163	88.38
389.387	71.38
389.612	80.38
389.837	76.38
390.062	89.38
390.287	81.38
390.512	67.38
390.736	83.38
390.961	81.38
391.186	83.38
391.411	88.38
391.636	87.38
391.86	96.38
392.085	95.38
392.31	98.38
392.534	85.38
392.759	84.38
392.984	77.38
393.208	88.38
393.433	88.38
393.658	77.38
393.882	87.38
394.107	74.38
394.331	71.38
394.556	87.38
394.78	85.38
395.005	83.38
395.229	90.38
395.454	85.38
395.678	81.38
395.903	90.38
396.127	83.38
396.352	97.38
396.576	76.38
396.801	79.38
397.025	74.38
397.249	69.38
397.474	86.38
397.698	81.38
397.922	77.38
398.147	79.38
398.371	81.38
398.595	74.38
398.82	91.38
399.044	84.38
399.268	73.38
399.492	85.38
399.717	76.38
399.941	75.38
400.165	86.38
400.389	74.38
400.613	93.38
400.837	74.38
401.062	87.38
401.286	74.38
401.51	87.38
401.734	73.38
401.958	87.38
402.182	76.38
402.406	78.38
402.63	97.38
402.854	85.38
403.078	72.38
403.302	86.38
403.526	79.38
403.75	81.38
403.974	85.38
404.198	90.38
404.422	93.38
404.645	90.38
404.869	94.38
405.093	74.38
405.317	80.38
405.541	81.38
405.765	82.38
405.988	77.38
406.212	94.38
406.436	96.38
406.66	91.38
406.883	84.38
407.107	86.38
407.331	81.38
407.555	83.38
407.778	84.38
408.002	85.38
408.226	97.38
408.449	84.38
408.673	72.38
408.896	83.38
409.12	95.38
409.344	83.38
409.567	87.38
409.791	82.38
410.014	85.38
410.238	93.38
410.461	87.38
410.685	87.38
410.908	79.38
411.132	69.38
411.355	82.38
411.578	79.38
411.802	87.38
412.025	91.38
412.249	91.38
412.472	84.38
412.695	81.38
412.919	83.38
413.142	79.38
413.365	74.38
413.589	91.38
413.812	96.38
414.035	95.38
414.258	92.38
414.482	77.38
414.705	81.38
414.928	90.38
415.151	94.38
415.374	89.38
415.597	88.38
415.821	74.38
416.044	95.38
416.267	95.38
416.49	82.38
416.713	91.38
416.936	99.38
417.159	95.38
417.382	73.38
417.605	87.38
417.828	92.38
418.051	93.38
418.274	91.38
418.497	91.38
418.72	80.38
418.943	95.38
419.166	83.38
419.389	86.38
419.611	83.38
419.834	90.38
420.057	79.38
420.28	88.38
420.503	93.38
420.726	75.38
420.948	93.38
421.171	83.38
421.394	84.38
421.617	92.38
421.839	80.38
422.062	82.38
422.285	90.38
422.507	89.38
422.73	72.38
422.953	92.38
423.175	88.38
423.398	75.38
423.621	91.38
423.843	96.38
424.066	85.38
424.288	83.38
424.511	87.38
424.733	81.38
424.956	84.38
425.178	88.38
425.401	76.38
425.623	86.38
425.846	88.38
426.068	95.38
426.291	84.38
426.513	87.38
426.735	74.38
426.958	105.38
427.18	89.38
427.402	102.38
427.625	84.38
427.847	82.38
428.069	76.38
428.292	76.38
428.514	87.38
428.736	83.38
428.958	87.38
429.181	106.38
429.403	89.38
429.625	91.38
429.847	84.38
430.069	83.38
430.292	97.38
430.514	91.38
430.736	97.38
430.958	91.38
431.18	79.38
431.402	90.38
431.624	81.38
431.846	74.38
432.068	84.38
432.29	76.38
432.512	75.38
432.734	92.38
432.956	95.38
433.178	104.38
433.4	85.38
433.622	89.38
433.844	85.38
434.066	79.38
434.287	87.38
434.509	81.38
434.731	78.38
434.953	91.38
435.175	82.38
435.397	99.38
435.618	79.38
435.84	95.38
436.062	85.38
436.284	99.38
436.505	87.38
436.727	95.38
436.949	82.38
437.17	90.38
437.392	83.38
437.614	73.38
437.835	77.38
438.057	85.38
438.278	83.38
438.5	91.38
438.721	69.38
438.943	72.38
439.165	91.38
439.386	83.38
439.608	100.38
439.829	90.38
440.05	95.38
440.272	97.38
440.493	106.38
440.715	96.38
440.936	75.38
441.158	85.38
441.379	83.38
441.6	85.38
441.822	90.38
442.043	105.38
442.264	95.38
442.486	95.38
442.707	87.38
442.928	84.38
443.149	80.38
443.371	87.38
443.592	93.38
443.813	86.38
444.034	93.38
444.255	87.38
444.476	85.38
444.698	98.38
444.919	105.38
445.14	190.38
445.361	135.38
445.582	94.38
445.803	102.38
446.024	80.38
446.245	105.38
446.466	84.38
446.687	88.38
446.908	70.38
447.129	96.38
447.35	71.38
447.571	91.38
447.792	90.38
448.013	90.38
448.234	85.38
448.455	92.38
448.675	85.38
448.896	90.38
449.117	102.38
449.338	83.38
449.559	97.38
449.779	90.38
450	86.38
450.221	100.38
450.442	85.38
450.662	89.38
450.883	82.38
451.104	98.38
451.324	72.38
451.545	77.38
451.766	79.38
451.986	95.38
452.207	66.38
452.428	78.38
452.648	90.38
452.869	95.38
453.089	92.38
453.31	93.38
453.53	77.38
453.751	95.38
453.971	81.38
454.192	77.38
454.412	83.38
454.633	91.38
454.853	83.38
455.073	89.38
455.294	82.38
455.514	87.38
455.734	82.38
455.955	86.38
456.175	86.38
456.395	88.38
456.616	73.38
456.836	71.38
457.056	82.38
457.276	71.38
457.497	80.38
457.717	78.38
457.937	82.38
458.157	86.38
458.377	87.38
458.598	86.38
458.818	88.38
459.038	84.38
459.258	65.38
459.478	88.38
459.698	96.38
459.918	79.38
460.138	87.38
460.358	72.38
460.578	94.38
460.798	78.38
461.018	91.38
461.238	89.38
461.458	89.38
461.678	76.38
461.898	95.38
462.118	77.38
462.338	82.38
462.558	105.38
462.777	96.38
462.997	98.38
463.217	76.38
463.437	88.38
463.657	77.38
463.876	92.38
464.096	78.38
464.316	91.38
464.536	84.38
464.755	73.38
464.975	82.38
465.195	82.38
465.414	93.38
465.634	83.38
465.854	86.38
466.073	91.38
466.293	81.38
466.512	86.38
466.732	96.38
466.951	88.38
467.171	88.38
467.391	73.38
467.61	85.38
467.829	86.38
468.049	88.38
468.268	86.38
468.488	90.38
468.707	97.38
468.927	92.38
469.146	81.38
469.365	91.38
469.585	79.38
469.804	84.38
470.023	89.38
470.243	91.38
470.462	89.38
470.681	82.38
470.901	81.38
471.12	91.38
471.339	67.38
471.558	88.38
471.777	89.38
471.997	85.38
472.216	92.38
472.435	90.38
472.654	73.38
472.873	96.38
473.092	82.38
473.311	84.38
473.53	91.38
473.749	87.38
473.968	79.38
474.187	75.38
474.406	88.38
474.625	88.38
474.844	88.38
475.063	93.38
475.282	92.38
475.501	90.38
475.72	98.38
475.939	85.38
476.158	92.38
476.377	90.38
476.596	86.38
476.814	89.38
477.033	74.38
477.252	76.38
477.471	88.38
477.69	84.38
477.908	84.38
478.127	102.38
478.346	87.38
478.564	92.38
478.783	104.38
479.002	94.38
479.22	77.38
479.439	96.38
479.658	87.38
479.876	81.38
480.095	68.38
480.313	93.38
480.532	72.38
480.751	82.38
480.969	87.38
481.188	76.38
481.406	91.38
481.624	91.38
481.843	85.38
482.061	86.38
482.28	89.38
482.498	81.38
482.717	83.38
482.935	90.38
483.153	95.38
483.372	101.38
483.59	83.38
483.808	104.38
484.027	88.38
484.245	90.38
484.463	75.38
484.681	90.38
484.9	79.38
485.118	85.38
485.336	85.38
485.554	91.38
485.772	78.38
485.99	80.38
486.209	90.38
486.427	73.38
486.645	79.38
486.863	86.38
487.081	105.38
487.299	77.38
487.517	103.38
487.735	88.38
487.953	90.38
488.171	79.38
488.389	114.38
488.607	89.38
488.825	91.38
489.043	87.38
489.261	83.38
489.479	83.38
489.696	86.38
489.914	96.38
490.132	78.38
490.35	86.38
490.568	96.38
490.786	89.38
491.003	102.38
491.221	93.38
491.439	92.38
491.657	107.38
491.874	93.38
492.092	107.38
492.31	113.38
492.527	115.38
492.745	110.38
492.963	91.38
493.18	100.38
493.398	103.38
493.615	96.38
493.833	84.38
494.05	88.38
494.268	90.38
494.485	98.38
494.703	106.38
494.92	91.38
495.138	98.38
495.355	111.38
495.573	88.38
495.79	90.38
496.008	98.38
496.225	93.38
496.442	92.38
496.66	91.38
496.877	95.38
497.094	91.38
497.312	92.38
497.529	79.38
497.746	103.38
497.963	99.38
498.181	96.38
498.398	76.38
498.615	69.38
498.832	82.38
499.049	75.38
499.267	88.38
499.484	89.38
499.701	97.38
499.918	84.38
500.135	89.38
500.352	81.38
500.569	101.38
500.786	96.38
501.003	96.38
501.22	91.38
501.437	93.38
501.654	87.38
501.871	87.38
502.088	90.38
502.305	92.38
502.522	90.38
502.739	98.38
502.956	90.38
503.172	90.38
503.389	88.38
503.606	74.38
503.823	92.38
504.04	90.38
504.256	88.38
504.473	82.38
504.69	90.38
504.907	91.38
505.123	84.38
505.34	90.38
505.557	85.38
505.773	94.38
505.99	81.38
506.207	87.38
506.423	91.38
506.64	105.38
506.856	90.38
507.073	68.38
507.289	90.38
507.506	87.38
507.722	80.38
507.939	80.38
508.155	93.38
508.372	96.38
508.588	77.38
508.805	84.38
509.021	67.38
509.238	71.38
509.454	70.38
509.67	89.38
509.887	76.38
510.103	77.38
510.319	76.38
510.536	93.38
510.752	75.38
510.968	81.38
511.184	80.38
511.401	90.38
511.617	77.38
511.833	85.38
512.049	82.38
512.265	69.38
512.481	86.38
512.698	86.38
512.914	88.38
513.13	67.38
513.346	86.38
513.562	78.38
513.778	81.38
513.994	97.38
514.21	84.38
514.426	84.38
514.642	82.38
514.858	78.38
515.074	87.38
515.29	97.38
515.506	49.38
515.721	77.38
515.937	82.38
516.153	78.38
516.369	88.38
516.585	91.38
516.801	67.38
517.016	71.38
517.232	81.38
517.448	82.38
517.664	82.38
517.879	90.38
518.095	92.38
518.311	83.38
518.527	89.38
518.742	73.38
518.958	93.38
519.173	89.38
519.389	84.38
519.605	90.38
519.82	90.38
520.036	85.38
520.251	74.38
520.467	79.38
520.682	82.38
520.898	90.38
521.113	86.38
521.329	78.38
521.544	75.38
521.76	89.38
521.975	79.38
522.19	80.38
522.406	85.38
522.621	85.38
522.836	89.38
523.052	97.38
523.267	88.38
523.482	88.38
523.698	99.38
523.913	89.38
524.128	99.38
524.343	84.38
524.559	95.38
524.774	92.38
524.989	86.38
525.204	86.38
525.419	93.38
525.634	87.38
525.849	87.38
526.064	76.38
526.28	87.38
526.495	81.38
526.71	74.38
526.925	89.38
527.14	89.38
527.355	89.38
527.57	71.38
527.785	66.38
527.999	87.38
528.214	92.38
528.429	107.38
528.644	79.38
528.859	80.38
529.074	82.38
529.289	105.38
529.503	102.38
529.718	103.38
529.933	97.38
530.148	91.38
530.363	93.38
530.577	92.38
530.792	94.38
531.007	77.38
531.221	81.38
531.436	82.38
531.651	89.38
531.865	80.38
532.08	95.38
532.295	89.38
532.509	85.38
532.724	86.38
532.938	88.38
533.153	98.38
533.367	104.38
533.582	97.38
533.796	85.38
534.011	88.38
534.225	76.38
534.44	87.38
534.654	88.38
534.868	97.38
535.083	91.38
535.297	96.38
535.511	91.38
535.726	81.38
535.94	82.38
536.154	82.38
536.369	92.38
536.583	61.38
536.797	87.38
537.011	81.38
537.225	87.38
537.44	80.38
537.654	80.38
537.868	84.38
538.082	77.38
538.296	74.38
538.51	83.38
538.724	77.38
538.938	88.38
539.153	94.38
539.367	83.38
539.581	82.38
539.795	97.38
540.009	85.38
540.222	73.38
540.436	92.38
540.65	86.38
540.864	93.38
541.078	95.38
541.292	102.38
541.506	97.38
541.72	103.38
541.934	96.38
542.147	117.38
542.361	100.38
542.575	88.38
542.789	115.38
543.002	100.38
543.216	91.38
543.43	90.38
543.644	98.38
543.857	92.38
544.071	96.38
544.285	117.38
544.498	92.38
544.712	94.38
544.925	108.38
545.139	97.38
545.352	82.38
545.566	91.38
545.779	96.38
545.993	96.38
546.206	93.38
546.42	96.38
546.633	97.38
546.847	105.38
547.06	96.38
547.274	92.38
547.487	108.38
547.7	117.38
547.914	101.38
548.127	105.38
548.34	111.38
548.554	87.38
548.767	94.38
548.98	96.38
549.193	97.38
549.407	85.38
549.62	90.38
549.833	98.38
550.046	99.38
550.259	99.38
550.473	102.38
550.686	91.38
550.899	100.38
551.112	92.38
551.325	92.38
551.538	81.38
551.751	95.38
551.964	89.38
552.177	93.38
552.39	96.38
552.603	85.38
552.816	100.38
553.029	79.38
553.242	98.38
553.455	93.38
553.667	90.38
553.88	98.38
554.093	92.38
554.306	91.38
554.519	89.38
554.732	84.38
554.944	99.38
555.157	89.38
555.37	89.38
555.583	75.38
555.795	89.38
556.008	106.38
556.221	101.38
556.433	95.38
556.646	99.38
556.859	90.38
557.071	101.38
557.284	98.38
557.496	88.38
557.709	101.38
557.921	77.38
558.134	103.38
558.346	93.38
558.559	93.38
558.771	93.38
558.984	96.38
559.196	111.38
559.409	97.38
559.621	100.38
559.833	92.38
560.046	97.38
560.258	81.38
560.47	80.38
560.683	88.38
560.895	88.38
561.107	81.38
561.32	93.38
561.532	102.38
561.744	91.38
561.956	90.38
562.168	92.38
562.381	91.38
562.593	68.38
562.805	85.38
563.017	79.38
563.229	86.38
563.441	99.38
563.653	92.38
563.865	88.38
564.077	95.38
564.289	88.38
564.501	82.38
564.713	81.38
564.925	91.38
565.137	80.38
565.349	93.38
565.561	91.38
565.773	100.38
565.985	92.38
566.197	87.38
566.408	93.38
566.62	77.38
566.832	94.38
567.044	88.38
567.255	78.38
567.467	80.38
567.679	85.38
567.891	90.38
568.102	88.38
568.314	86.38
568.526	80.38
568.737	92.38
568.949	82.38
569.161	83.38
569.372	83.38
569.584	81.38
569.795	85.38
570.007	71.38
570.218	93.38
570.43	90.38
570.641	93.38
570.853	87.38
571.064	72.38
571.276	87.38
571.487	98.38
571.698	92.38
571.91	95.38
572.121	80.38
572.333	77.38
572.544	73.38
572.755	91.38
572.966	82.38
573.178	90.38
573.389	76.38
573.6	66.38
573.811	85.38
574.023	82.38
574.234	85.38
574.445	88.38
574.656	73.38
574.867	88.38
575.078	85.38
575.289	80.38
575.501	82.38
575.712	89.38
575.923	82.38
576.134	88.38
576.345	97.38
576.556	78.38
576.767	77.38
576.978	72.38
577.188	84.38
577.399	77.38
577.61	88.38
577.821	73.38
578.032	76.38
578.243	82.38
578.454	92.38
578.665	83.38
578.875	85.38
579.086	93.38
579.297	70.38
579.508	83.38
579.718	85.38
579.929	83.38
580.14	89.38
580.35	77.38
580.561	75.38
580.772	85.38
580.982	97.38
581.193	72.38
581.403	82.38
581.614	69.38
581.825	90.38
582.035	84.38
582.246	90.38
582.456	69.38
582.667	76.38
582.877	81.38
583.087	80.38
583.298	76.38
583.508	80.38
583.719	93.38
583.929	82.38
584.139	85.38
584.35	77.38
584.56	84.38
584.77	95.38
584.981	74.38
585.191	87.38
585.401	75.38
585.611	84.38
585.821	83.38
586.032	93.38
586.242	80.38
586.452	93.38
586.662	83.38
586.872	86.38
587.082	89.38
587.292	71.38
587.502	89.38
587.713	77.38
587.923	74.38
588.133	93.38
588.343	78.38
588.553	87.38
588.762	80.38
588.972	87.38
589.182	87.38
589.392	84.38
589.602	85.38
589.812	85.38
590.022	75.38
590.232	89.38
590.441	80.38
590.651	85.38
590.861	72.38
591.071	85.38
591.281	86.38
591.49	80.38
591.7	84.38
591.91	95.38
592.119	79.38
592.329	71.38
592.539	70.38
592.748	77.38
592.958	82.38
593.167	80.38
593.377	84.38
593.587	87.38
593.796	89.38
594.006	79.38
594.215	75.38
594.424	77.38
594.634	77.38
594.843	95.38
595.053	93.38
595.262	61.38
595.472	85.38
595.681	83.38
595.89	86.38
596.1	77.38
596.309	99.38
596.518	69.38
596.727	85.38
596.937	87.38
597.146	84.38
597.355	82.38
597.564	81.38
597.774	83.38
597.983	77.38
598.192	75.38
598.401	88.38
598.61	79.38
598.819	73.38
599.028	82.38
599.237	83.38
599.446	84.38
599.655	78.38
599.864	86.38
600.073	84.38
600.282	96.38
600.491	93.38
600.7	81.38
600.909	94.38
601.118	80.38
601.327	72.38
601.536	84.38
601.745	89.38
601.953	76.38
602.162	93.38
602.371	84.38
602.58	85.38
602.789	77.38
602.997	93.38
603.206	97.38
603.415	93.38
603.623	95.38
603.832	87.38
604.041	92.38
604.249	94.38
604.458	87.38
604.666	80.38
604.875	75.38
605.084	82.38
605.292	100.38
605.501	93.38
605.709	81.38
605.918	75.38
606.126	91.38
606.334	88.38
606.543	87.38
606.751	80.38
606.96	98.38
607.168	68.38
607.376	76.38
607.585	88.38
607.793	86.38
608.001	87.38
608.21	92.38
608.418	99.38
608.626	96.38
608.834	87.38
609.043	92.38
609.251	96.38
609.459	86.38
609.667	93.38
609.875	76.38
610.083	91.38
610.291	91.38
610.499	87.38
610.707	99.38
610.916	99.38
611.124	96.38
611.332	86.38
611.54	95.38
611.748	99.38
611.955	84.38
612.163	78.38
612.371	92.38
612.579	77.38
612.787	89.38
612.995	90.38
613.203	98.38
613.411	98.38
613.618	82.38
613.826	102.38
614.034	89.38
614.242	79.38
614.449	92.38
614.657	79.38
614.865	87.38
615.072	92.38
615.28	90.38
615.488	77.38
615.695	94.38
615.903	91.38
616.111	82.38
616.318	91.38
616.526	72.38
616.733	83.38
616.941	81.38
617.148	80.38
617.356	84.38
617.563	101.38
617.771	83.38
617.978	78.38
618.185	85.38
618.393	85.38
618.6	80.38
618.807	72.38
619.015	90.38
619.222	83.38
619.429	90.38
619.637	93.38
619.844	90.38
620.051	93.38
620.258	88.38
620.466	87.38
620.673	96.38
620.88	101.38
621.087	82.38
621.294	97.38
621.501	87.38
621.708	89.38
621.915	79.38
622.122	72.38
622.329	78.38
622.536	91.38
622.743	81.38
622.95	81.38
623.157	87.38
623.364	94.38
623.571	91.38
623.778	77.38
623.985	79.38
624.192	79.38
624.399	90.38
624.606	84.38
624.812	86.38
625.019	85.38
625.226	86.38
625.433	77.38
625.639	92.38
625.846	83.38
626.053	87.38
626.259	77.38
626.466	80.38
626.673	83.38
626.879	81.38
627.086	89.38
627.293	84.38
627.499	92.38
627.706	79.38
627.912	80.38
628.119	76.38
628.325	86.38
628.532	85.38
628.738	90.38
628.945	86.38
629.151	95.38
629.357	77.38
629.564	78.38
629.77	93.38
629.976	80.38
630.183	85.38
630.389	80.38
630.595	85.38
630.802	101.38
631.008	102.38
631.214	86.38
631.42	76.38
631.627	81.38
631.833	86.38
632.039	80.38
632.245	91.38
632.451	82.38
632.657	107.38
632.863	82.38
633.069	89.38
633.275	100.38
633.481	95.38
633.688	91.38
633.893	96.38
634.099	93.38
634.305	83.38
634.511	95.38
634.717	92.38
634.923	77.38
635.129	83.38
635.335	75.38
635.541	88.38
635.747	89.38
635.952	80.38
636.158	102.38
636.364	75.38
636.57	77.38
636.775	87.38
636.981	81.38
637.187	87.38
637.392	84.38
637.598	87.38
637.804	80.38
638.009	89.38
638.215	96.38
638.421	85.38
638.626	83.38
638.832	86.38
639.037	83.38
639.243	81.38
639.448	86.38
639.654	80.38
639.859	82.38
640.065	74.38
640.27	87.38
640.475	80.38
640.681	83.38
640.886	82.38
641.091	86.38
641.297	88.38
641.502	77.38
641.707	79.38
641.913	83.38
642.118	83.38
642.323	81.38
642.528	82.38
642.733	84.38
642.939	84.38
643.144	84.38
643.349	97.38
643.554	92.38
643.759	95.38
643.964	93.38
644.169	78.38
644.374	81.38
644.579	85.38
644.784	91.38
644.989	85.38
645.194	73.38
645.399	79.38
645.604	83.38
645.809	77.38
646.014	87.38
646.219	72.38
646.423	76.38
646.628	85.38
646.833	93.38
647.038	90.38
647.243	87.38
647.447	93.38
647.652	80.38
647.857	82.38
648.062	82.38
648.266	75.38
648.471	98.38
648.676	73.38
648.88	99.38
649.085	86.38
649.289	84.38
649.494	80.38
649.698	95.38
649.903	85.38
650.107	79.38
650.312	87.38
650.516	85.38
650.721	90.38
650.925	80.38
651.13	76.38
651.334	68.38
651.539	92.38
651.743	84.38
651.947	80.38
652.152	87.38
652.356	89.38
652.56	72.38
652.764	74.38
652.969	87.38
653.173	77.38
653.377	87.38
653.581	75.38
653.785	82.38
653.99	74.38
654.194	94.38
654.398	88.38
654.602	78.38
654.806	71.38
655.01	72.38
655.214	81.38
655.418	77.38
655.622	85.38
655.826	80.38
656.03	85.38
656.234	81.38
656.438	74.38
656.642	79.38
656.846	79.38
657.049	80.38
657.253	74.38
657.457	83.38
657.661	72.38
657.865	82.38
658.068	80.38
658.272	92.38
658.476	82.38
658.68	85.38
658.883	73.38
659.087	75.38
659.291	81.38
659.494	80.38
659.698	84.38
659.901	74.38
660.105	80.38
660.309	82.38
660.512	81.38
660.716	99.38
660.919	84.38
661.123	69.38
661.326	81.38
661.53	96.38
661.733	81.38
661.936	75.38
662.14	87.38
662.343	81.38
662.546	85.38
662.75	88.38
662.953	86.38
663.156	81.38
663.36	82.38
663.563	77.38
663.766	73.38
663.969	79.38
664.173	69.38
664.376	65.38
664.579	81.38
664.782	81.38
664.985	91.38
665.188	80.38
665.391	73.38
665.594	93.38
665.797	87.38
666	88.38
666.203	75.38
666.406	71.38
666.609	82.38
666.812	88.38
667.015	75.38
667.218	80.38
667.421	75.38
667.624	68.38
667.827	83.38
668.03	94.38
668.232	72.38
668.435	72.38
668.638	81.38
668.841	67.38
669.043	101.38
669.246	68.38
669.449	84.38
669.651	87.38
669.854	79.38
670.057	71.38
670.259	95.38
670.462	75.38
670.665	83.38
670.867	72.38
671.07	67.38
671.272	81.38
671.475	87.38
671.677	88.38
671.88	83.38
672.082	81.38
672.284	93.38
672.487	92.38
672.689	85.38
672.892	94.38
