Data from Zn(NO3)2Standard.Agarose3%.GreenCap.LampEnergy10E.O_HRD10591_15-07-13-943.txt Node
Date: Mon Jul 22 15:07:13 EDT 2019
User: cochatt
Spectrometer: HR+D1059
Trigger mode: 1
Integration Time (sec): 1.000000E-1
Scans to average: 1
Electric dark correction enabled: true
Nonlinearity correction enabled: false
Boxcar width: 0
XAxis mode: Wavelengths
Number of Pixels in Spectrum: 2048
>>>>>Begin Spectral Data<<<<<
223.165	-18.62
223.4	-18.62
223.635	-18.62
223.869	-24.62
224.104	-9.62
224.338	-12.62
224.573	-2.62
224.808	-14.62
225.042	-8.62
225.277	-5.62
225.511	-2.62
225.746	-5.62
225.98	16.38
226.215	4.38
226.449	23.38
226.683	13.38
226.918	15.38
227.152	32.38
227.387	36.38
227.621	35.38
227.856	25.38
228.09	49.38
228.324	38.38
228.559	54.38
228.793	51.38
229.027	63.38
229.262	56.38
229.496	65.38
229.73	74.38
229.964	68.38
230.199	77.38
230.433	55.38
230.667	82.38
230.901	79.38
231.136	71.38
231.37	70.38
231.604	73.38
231.838	80.38
232.072	80.38
232.306	75.38
232.541	74.38
232.775	70.38
233.009	82.38
233.243	81.38
233.477	80.38
233.711	81.38
233.945	87.38
234.179	63.38
234.413	69.38
234.647	80.38
234.881	81.38
235.115	89.38
235.349	90.38
235.583	91.38
235.817	77.38
236.051	77.38
236.285	81.38
236.519	90.38
236.753	63.38
236.987	77.38
237.221	70.38
237.455	70.38
237.689	74.38
237.922	79.38
238.156	69.38
238.39	65.38
238.624	69.38
238.858	76.38
239.091	67.38
239.325	71.38
239.559	62.38
239.793	64.38
240.027	77.38
240.26	78.38
240.494	58.38
240.728	59.38
240.961	65.38
241.195	87.38
241.429	71.38
241.662	80.38
241.896	74.38
242.13	72.38
242.363	73.38
242.597	65.38
242.83	64.38
243.064	69.38
243.298	70.38
243.531	79.38
243.765	65.38
243.998	67.38
244.232	74.38
244.465	83.38
244.699	67.38
244.932	82.38
245.166	78.38
245.399	74.38
245.633	79.38
245.866	75.38
246.099	66.38
246.333	80.38
246.566	80.38
246.8	80.38
247.033	74.38
247.266	54.38
247.5	56.38
247.733	84.38
247.966	74.38
248.2	80.38
248.433	70.38
248.666	62.38
248.899	83.38
249.133	82.38
249.366	81.38
249.599	79.38
249.832	82.38
250.066	78.38
250.299	83.38
250.532	77.38
250.765	74.38
250.998	73.38
251.231	68.38
251.465	79.38
251.698	80.38
251.931	82.38
252.164	69.38
252.397	66.38
252.63	75.38
252.863	68.38
253.096	79.38
253.329	68.38
253.562	81.38
253.795	88.38
254.028	75.38
254.261	71.38
254.494	86.38
254.727	73.38
254.96	85.38
255.193	78.38
255.426	77.38
255.659	85.38
255.892	89.38
256.124	76.38
256.357	74.38
256.59	85.38
256.823	72.38
257.056	75.38
257.289	75.38
257.521	81.38
257.754	85.38
257.987	81.38
258.22	95.38
258.452	67.38
258.685	78.38
258.918	78.38
259.151	82.38
259.383	93.38
259.616	88.38
259.849	69.38
260.081	70.38
260.314	77.38
260.547	80.38
260.779	74.38
261.012	74.38
261.244	69.38
261.477	89.38
261.71	65.38
261.942	69.38
262.175	81.38
262.407	83.38
262.64	77.38
262.872	82.38
263.105	75.38
263.337	82.38
263.57	69.38
263.802	73.38
264.035	85.38
264.267	65.38
264.499	69.38
264.732	82.38
264.964	77.38
265.197	81.38
265.429	79.38
265.661	84.38
265.894	85.38
266.126	82.38
266.358	83.38
266.591	87.38
266.823	89.38
267.055	83.38
267.287	76.38
267.52	71.38
267.752	71.38
267.984	78.38
268.216	85.38
268.448	74.38
268.681	71.38
268.913	72.38
269.145	92.38
269.377	90.38
269.609	84.38
269.841	82.38
270.073	87.38
270.306	85.38
270.538	75.38
270.77	96.38
271.002	83.38
271.234	67.38
271.466	80.38
271.698	70.38
271.93	82.38
272.162	91.38
272.394	90.38
272.626	71.38
272.858	86.38
273.09	84.38
273.322	82.38
273.553	83.38
273.785	76.38
274.017	89.38
274.249	91.38
274.481	105.38
274.713	85.38
274.945	77.38
275.176	83.38
275.408	69.38
275.64	84.38
275.872	79.38
276.104	72.38
276.335	89.38
276.567	78.38
276.799	69.38
277.031	79.38
277.262	87.38
277.494	86.38
277.726	78.38
277.957	81.38
278.189	86.38
278.421	94.38
278.652	89.38
278.884	81.38
279.115	83.38
279.347	90.38
279.579	92.38
279.81	73.38
280.042	86.38
280.273	72.38
280.505	86.38
280.736	81.38
280.968	81.38
281.199	70.38
281.431	85.38
281.662	66.38
281.894	86.38
282.125	83.38
282.356	98.38
282.588	91.38
282.819	91.38
283.051	74.38
283.282	69.38
283.513	83.38
283.745	76.38
283.976	82.38
284.207	78.38
284.439	73.38
284.67	71.38
284.901	88.38
285.132	87.38
285.364	80.38
285.595	80.38
285.826	89.38
286.057	84.38
286.288	91.38
286.52	77.38
286.751	81.38
286.982	90.38
287.213	88.38
287.444	72.38
287.675	91.38
287.906	85.38
288.138	89.38
288.369	91.38
288.6	72.38
288.831	83.38
289.062	86.38
289.293	77.38
289.524	85.38
289.755	71.38
289.986	74.38
290.217	69.38
290.448	74.38
290.679	78.38
290.91	74.38
291.141	83.38
291.371	86.38
291.602	75.38
291.833	70.38
292.064	79.38
292.295	83.38
292.526	85.38
292.757	81.38
292.987	78.38
293.218	83.38
293.449	77.38
293.68	85.38
293.91	81.38
294.141	69.38
294.372	68.38
294.603	90.38
294.833	75.38
295.064	71.38
295.295	62.38
295.525	72.38
295.756	85.38
295.987	74.38
296.217	88.38
296.448	82.38
296.679	81.38
296.909	89.38
297.14	74.38
297.37	97.38
297.601	73.38
297.831	81.38
298.062	92.38
298.292	94.38
298.523	83.38
298.753	78.38
298.984	80.38
299.214	72.38
299.445	74.38
299.675	81.38
299.905	74.38
300.136	81.38
300.366	86.38
300.597	68.38
300.827	89.38
301.057	80.38
301.288	80.38
301.518	96.38
301.748	80.38
301.979	75.38
302.209	86.38
302.439	80.38
302.669	80.38
302.9	75.38
303.13	83.38
303.36	76.38
303.59	78.38
303.82	83.38
304.051	80.38
304.281	86.38
304.511	89.38
304.741	75.38
304.971	77.38
305.201	86.38
305.431	83.38
305.661	86.38
305.891	81.38
306.121	76.38
306.352	96.38
306.582	86.38
306.812	91.38
307.042	90.38
307.272	81.38
307.502	85.38
307.731	74.38
307.961	83.38
308.191	85.38
308.421	84.38
308.651	83.38
308.881	81.38
309.111	81.38
309.341	84.38
309.571	89.38
309.8	77.38
310.03	88.38
310.26	85.38
310.49	71.38
310.72	76.38
310.949	85.38
311.179	71.38
311.409	67.38
311.639	84.38
311.868	81.38
312.098	94.38
312.328	86.38
312.557	75.38
312.787	73.38
313.017	83.38
313.246	70.38
313.476	100.38
313.706	86.38
313.935	69.38
314.165	83.38
314.394	69.38
314.624	73.38
314.853	72.38
315.083	67.38
315.312	95.38
315.542	89.38
315.771	66.38
316.001	85.38
316.23	88.38
316.46	80.38
316.689	85.38
316.919	90.38
317.148	78.38
317.377	89.38
317.607	89.38
317.836	81.38
318.065	90.38
318.295	65.38
318.524	75.38
318.753	65.38
318.983	86.38
319.212	78.38
319.441	85.38
319.67	90.38
319.9	85.38
320.129	98.38
320.358	81.38
320.587	79.38
320.816	76.38
321.046	79.38
321.275	82.38
321.504	97.38
321.733	94.38
321.962	72.38
322.191	79.38
322.42	74.38
322.649	80.38
322.878	99.38
323.108	78.38
323.337	90.38
323.566	78.38
323.795	90.38
324.024	75.38
324.253	92.38
324.482	81.38
324.71	78.38
324.939	74.38
325.168	81.38
325.397	92.38
325.626	87.38
325.855	81.38
326.084	81.38
326.313	86.38
326.542	86.38
326.77	88.38
326.999	68.38
327.228	85.38
327.457	81.38
327.686	79.38
327.914	92.38
328.143	78.38
328.372	77.38
328.6	79.38
328.829	84.38
329.058	87.38
329.287	94.38
329.515	72.38
329.744	77.38
329.972	81.38
330.201	78.38
330.43	85.38
330.658	92.38
330.887	98.38
331.115	84.38
331.344	65.38
331.572	74.38
331.801	72.38
332.03	81.38
332.258	83.38
332.486	82.38
332.715	77.38
332.943	95.38
333.172	81.38
333.4	91.38
333.629	88.38
333.857	75.38
334.085	99.38
334.314	92.38
334.542	88.38
334.771	83.38
334.999	84.38
335.227	76.38
335.455	82.38
335.684	75.38
335.912	80.38
336.14	78.38
336.369	79.38
336.597	75.38
336.825	70.38
337.053	72.38
337.281	71.38
337.51	83.38
337.738	96.38
337.966	81.38
338.194	85.38
338.422	79.38
338.65	87.38
338.878	83.38
339.106	80.38
339.334	84.38
339.562	79.38
339.79	77.38
340.018	84.38
340.246	78.38
340.474	81.38
340.702	81.38
340.93	69.38
341.158	79.38
341.386	84.38
341.614	81.38
341.842	86.38
342.07	71.38
342.298	71.38
342.526	91.38
342.754	76.38
342.981	79.38
343.209	80.38
343.437	79.38
343.665	80.38
343.893	102.38
344.12	74.38
344.348	83.38
344.576	78.38
344.804	74.38
345.031	67.38
345.259	84.38
345.487	82.38
345.714	72.38
345.942	83.38
346.17	77.38
346.397	77.38
346.625	90.38
346.853	86.38
347.08	78.38
347.308	82.38
347.535	93.38
347.763	66.38
347.99	83.38
348.218	78.38
348.445	88.38
348.673	80.38
348.9	83.38
349.128	87.38
349.355	84.38
349.583	72.38
349.81	84.38
350.037	74.38
350.265	68.38
350.492	79.38
350.72	75.38
350.947	79.38
351.174	87.38
351.402	81.38
351.629	67.38
351.856	75.38
352.083	82.38
352.311	74.38
352.538	75.38
352.765	88.38
352.992	81.38
353.22	72.38
353.447	71.38
353.674	80.38
353.901	90.38
354.128	89.38
354.355	66.38
354.583	79.38
354.81	71.38
355.037	99.38
355.264	79.38
355.491	94.38
355.718	92.38
355.945	83.38
356.172	98.38
356.399	74.38
356.626	77.38
356.853	75.38
357.08	92.38
357.307	86.38
357.534	79.38
357.761	79.38
357.988	87.38
358.215	86.38
358.441	90.38
358.668	92.38
358.895	86.38
359.122	85.38
359.349	76.38
359.576	85.38
359.802	73.38
360.029	77.38
360.256	77.38
360.483	72.38
360.709	81.38
360.936	92.38
361.163	80.38
361.39	69.38
361.616	78.38
361.843	83.38
362.07	89.38
362.296	78.38
362.523	80.38
362.749	91.38
362.976	83.38
363.203	82.38
363.429	70.38
363.656	79.38
363.882	76.38
364.109	82.38
364.335	88.38
364.562	79.38
364.788	86.38
365.015	83.38
365.241	83.38
365.468	56.38
365.694	78.38
365.92	81.38
366.147	73.38
366.373	82.38
366.599	89.38
366.826	92.38
367.052	84.38
367.278	83.38
367.505	87.38
367.731	77.38
367.957	93.38
368.184	86.38
368.41	71.38
368.636	94.38
368.862	76.38
369.089	80.38
369.315	97.38
369.541	79.38
369.767	73.38
369.993	80.38
370.219	79.38
370.445	66.38
370.672	97.38
370.898	74.38
371.124	78.38
371.35	85.38
371.576	81.38
371.802	73.38
372.028	93.38
372.254	74.38
372.48	81.38
372.706	84.38
372.932	83.38
373.158	86.38
373.384	93.38
373.61	88.38
373.835	89.38
374.061	85.38
374.287	92.38
374.513	94.38
374.739	80.38
374.965	74.38
375.191	81.38
375.416	93.38
375.642	83.38
375.868	87.38
376.094	90.38
376.319	84.38
376.545	91.38
376.771	93.38
376.997	70.38
377.222	71.38
377.448	87.38
377.674	81.38
377.899	85.38
378.125	89.38
378.35	104.38
378.576	85.38
378.802	77.38
379.027	75.38
379.253	92.38
379.478	88.38
379.704	73.38
379.929	83.38
380.155	92.38
380.38	89.38
380.606	81.38
380.831	92.38
381.057	90.38
381.282	78.38
381.507	82.38
381.733	78.38
381.958	76.38
382.184	106.38
382.409	73.38
382.634	93.38
382.86	96.38
383.085	101.38
383.31	85.38
383.535	90.38
383.761	95.38
383.986	86.38
384.211	81.38
384.436	81.38
384.662	81.38
384.887	95.38
385.112	83.38
385.337	73.38
385.562	82.38
385.787	89.38
386.013	103.38
386.238	97.38
386.463	94.38
386.688	79.38
386.913	86.38
387.138	76.38
387.363	86.38
387.588	91.38
387.813	74.38
388.038	97.38
388.263	80.38
388.488	90.38
388.713	90.38
388.938	98.38
389.163	95.38
389.387	82.38
389.612	92.38
389.837	75.38
390.062	83.38
390.287	78.38
390.512	95.38
390.736	100.38
390.961	83.38
391.186	96.38
391.411	84.38
391.636	96.38
391.86	84.38
392.085	81.38
392.31	89.38
392.534	90.38
392.759	93.38
392.984	106.38
393.208	90.38
393.433	78.38
393.658	90.38
393.882	101.38
394.107	94.38
394.331	89.38
394.556	84.38
394.78	94.38
395.005	83.38
395.229	99.38
395.454	87.38
395.678	93.38
395.903	103.38
396.127	102.38
396.352	103.38
396.576	103.38
396.801	87.38
397.025	83.38
397.249	82.38
397.474	90.38
397.698	82.38
397.922	98.38
398.147	98.38
398.371	90.38
398.595	94.38
398.82	96.38
399.044	98.38
399.268	90.38
399.492	77.38
399.717	90.38
399.941	88.38
400.165	87.38
400.389	110.38
400.613	101.38
400.837	105.38
401.062	84.38
401.286	80.38
401.51	99.38
401.734	101.38
401.958	92.38
402.182	79.38
402.406	84.38
402.63	77.38
402.854	85.38
403.078	85.38
403.302	89.38
403.526	96.38
403.75	106.38
403.974	81.38
404.198	95.38
404.422	99.38
404.645	106.38
404.869	102.38
405.093	78.38
405.317	99.38
405.541	96.38
405.765	91.38
405.988	93.38
406.212	104.38
406.436	98.38
406.66	87.38
406.883	93.38
407.107	103.38
407.331	106.38
407.555	101.38
407.778	94.38
408.002	76.38
408.226	92.38
408.449	102.38
408.673	98.38
408.896	85.38
409.12	95.38
409.344	90.38
409.567	105.38
409.791	111.38
410.014	97.38
410.238	104.38
410.461	97.38
410.685	108.38
410.908	99.38
411.132	100.38
411.355	96.38
411.578	106.38
411.802	87.38
412.025	98.38
412.249	114.38
412.472	93.38
412.695	87.38
412.919	96.38
413.142	111.38
413.365	94.38
413.589	93.38
413.812	96.38
414.035	100.38
414.258	96.38
414.482	111.38
414.705	99.38
414.928	96.38
415.151	95.38
415.374	87.38
415.597	103.38
415.821	100.38
416.044	106.38
416.267	107.38
416.49	104.38
416.713	89.38
416.936	94.38
417.159	99.38
417.382	97.38
417.605	87.38
417.828	96.38
418.051	97.38
418.274	105.38
418.497	113.38
418.72	114.38
418.943	106.38
419.166	104.38
419.389	111.38
419.611	111.38
419.834	104.38
420.057	106.38
420.28	96.38
420.503	107.38
420.726	104.38
420.948	92.38
421.171	91.38
421.394	97.38
421.617	111.38
421.839	102.38
422.062	93.38
422.285	93.38
422.507	102.38
422.73	101.38
422.953	90.38
423.175	98.38
423.398	98.38
423.621	90.38
423.843	104.38
424.066	95.38
424.288	110.38
424.511	100.38
424.733	102.38
424.956	120.38
425.178	100.38
425.401	103.38
425.623	83.38
425.846	109.38
426.068	93.38
426.291	98.38
426.513	121.38
426.735	101.38
426.958	104.38
427.18	99.38
427.402	99.38
427.625	98.38
427.847	101.38
428.069	102.38
428.292	109.38
428.514	100.38
428.736	109.38
428.958	103.38
429.181	100.38
429.403	112.38
429.625	97.38
429.847	87.38
430.069	107.38
430.292	95.38
430.514	98.38
430.736	94.38
430.958	102.38
431.18	87.38
431.402	94.38
431.624	104.38
431.846	111.38
432.068	94.38
432.29	84.38
432.512	94.38
432.734	101.38
432.956	104.38
433.178	101.38
433.4	99.38
433.622	122.38
433.844	93.38
434.066	101.38
434.287	88.38
434.509	89.38
434.731	87.38
434.953	100.38
435.175	85.38
435.397	94.38
435.618	83.38
435.84	96.38
436.062	85.38
436.284	90.38
436.505	110.38
436.727	99.38
436.949	100.38
437.17	94.38
437.392	87.38
437.614	97.38
437.835	101.38
438.057	93.38
438.278	88.38
438.5	92.38
438.721	113.38
438.943	115.38
439.165	93.38
439.386	96.38
439.608	106.38
439.829	116.38
440.05	113.38
440.272	111.38
440.493	106.38
440.715	115.38
440.936	112.38
441.158	112.38
441.379	91.38
441.6	106.38
441.822	115.38
442.043	109.38
442.264	102.38
442.486	100.38
442.707	112.38
442.928	108.38
443.149	92.38
443.371	91.38
443.592	111.38
443.813	107.38
444.034	102.38
444.255	108.38
444.476	111.38
444.698	106.38
444.919	114.38
445.14	209.38
445.361	151.38
445.582	124.38
445.803	106.38
446.024	113.38
446.245	111.38
446.466	111.38
446.687	107.38
446.908	111.38
447.129	110.38
447.35	113.38
447.571	110.38
447.792	103.38
448.013	112.38
448.234	117.38
448.455	122.38
448.675	111.38
448.896	109.38
449.117	103.38
449.338	111.38
449.559	109.38
449.779	110.38
450	106.38
450.221	104.38
450.442	96.38
450.662	94.38
450.883	118.38
451.104	113.38
451.324	104.38
451.545	109.38
451.766	101.38
451.986	101.38
452.207	104.38
452.428	94.38
452.648	96.38
452.869	104.38
453.089	92.38
453.31	85.38
453.53	111.38
453.751	94.38
453.971	107.38
454.192	90.38
454.412	97.38
454.633	77.38
454.853	99.38
455.073	88.38
455.294	104.38
455.514	88.38
455.734	115.38
455.955	86.38
456.175	85.38
456.395	81.38
456.616	86.38
456.836	86.38
457.056	85.38
457.276	84.38
457.497	91.38
457.717	86.38
457.937	87.38
458.157	79.38
458.377	86.38
458.598	82.38
458.818	79.38
459.038	71.38
459.258	97.38
459.478	64.38
459.698	80.38
459.918	88.38
460.138	83.38
460.358	102.38
460.578	98.38
460.798	93.38
461.018	80.38
461.238	99.38
461.458	112.38
461.678	81.38
461.898	101.38
462.118	104.38
462.338	88.38
462.558	83.38
462.777	80.38
462.997	101.38
463.217	98.38
463.437	105.38
463.657	73.38
463.876	99.38
464.096	91.38
464.316	83.38
464.536	93.38
464.755	102.38
464.975	92.38
465.195	90.38
465.414	103.38
465.634	109.38
465.854	88.38
466.073	97.38
466.293	105.38
466.512	98.38
466.732	93.38
466.951	101.38
467.171	114.38
467.391	117.38
467.61	104.38
467.829	102.38
468.049	94.38
468.268	104.38
468.488	94.38
468.707	115.38
468.927	91.38
469.146	102.38
469.365	125.38
469.585	115.38
469.804	116.38
470.023	110.38
470.243	103.38
470.462	96.38
470.681	105.38
470.901	105.38
471.12	106.38
471.339	98.38
471.558	104.38
471.777	112.38
471.997	102.38
472.216	90.38
472.435	91.38
472.654	88.38
472.873	98.38
473.092	99.38
473.311	94.38
473.53	104.38
473.749	104.38
473.968	97.38
474.187	91.38
474.406	92.38
474.625	113.38
474.844	109.38
475.063	100.38
475.282	101.38
475.501	97.38
475.72	102.38
475.939	101.38
476.158	101.38
476.377	105.38
476.596	103.38
476.814	94.38
477.033	75.38
477.252	82.38
477.471	98.38
477.69	117.38
477.908	109.38
478.127	113.38
478.346	111.38
478.564	99.38
478.783	97.38
479.002	110.38
479.22	111.38
479.439	117.38
479.658	89.38
479.876	97.38
480.095	82.38
480.313	95.38
480.532	99.38
480.751	84.38
480.969	79.38
481.188	61.38
481.406	76.38
481.624	86.38
481.843	86.38
482.061	90.38
482.28	86.38
482.498	79.38
482.717	100.38
482.935	98.38
483.153	121.38
483.372	115.38
483.59	115.38
483.808	110.38
484.027	110.38
484.245	108.38
484.463	101.38
484.681	118.38
484.9	96.38
485.118	105.38
485.336	104.38
485.554	96.38
485.772	91.38
485.99	78.38
486.209	75.38
486.427	81.38
486.645	111.38
486.863	108.38
487.081	115.38
487.299	105.38
487.517	118.38
487.735	115.38
487.953	134.38
488.171	139.38
488.389	109.38
488.607	126.38
488.825	109.38
489.043	114.38
489.261	117.38
489.479	117.38
489.696	122.38
489.914	91.38
490.132	109.38
490.35	114.38
490.568	110.38
490.786	110.38
491.003	133.38
491.221	122.38
491.439	113.38
491.657	121.38
491.874	125.38
492.092	143.38
492.31	163.38
492.527	153.38
492.745	145.38
492.963	137.38
493.18	147.38
493.398	122.38
493.615	125.38
493.833	122.38
494.05	123.38
494.268	113.38
494.485	122.38
494.703	118.38
494.92	133.38
495.138	123.38
495.355	125.38
495.573	125.38
495.79	114.38
496.008	118.38
496.225	126.38
496.442	121.38
496.66	129.38
496.877	119.38
497.094	115.38
497.312	132.38
497.529	115.38
497.746	120.38
497.963	103.38
498.181	95.38
498.398	103.38
498.615	110.38
498.832	88.38
499.049	105.38
499.267	105.38
499.484	90.38
499.701	96.38
499.918	98.38
500.135	121.38
500.352	98.38
500.569	102.38
500.786	103.38
501.003	127.38
501.22	117.38
501.437	116.38
501.654	112.38
501.871	110.38
502.088	100.38
502.305	111.38
502.522	121.38
502.739	99.38
502.956	96.38
503.172	103.38
503.389	90.38
503.606	88.38
503.823	92.38
504.04	96.38
504.256	102.38
504.473	102.38
504.69	106.38
504.907	106.38
505.123	96.38
505.34	107.38
505.557	98.38
505.773	100.38
505.99	95.38
506.207	85.38
506.423	102.38
506.64	100.38
506.856	98.38
507.073	101.38
507.289	93.38
507.506	91.38
507.722	97.38
507.939	109.38
508.155	102.38
508.372	96.38
508.588	92.38
508.805	101.38
509.021	102.38
509.238	90.38
509.454	87.38
509.67	87.38
509.887	78.38
510.103	93.38
510.319	84.38
510.536	89.38
510.752	71.38
510.968	85.38
511.184	69.38
511.401	85.38
511.617	84.38
511.833	73.38
512.049	75.38
512.265	97.38
512.481	81.38
512.698	89.38
512.914	94.38
513.13	91.38
513.346	89.38
513.562	81.38
513.778	86.38
513.994	92.38
514.21	90.38
514.426	80.38
514.642	87.38
514.858	80.38
515.074	81.38
515.29	97.38
515.506	89.38
515.721	86.38
515.937	86.38
516.153	78.38
516.369	87.38
516.585	91.38
516.801	77.38
517.016	83.38
517.232	86.38
517.448	92.38
517.664	82.38
517.879	71.38
518.095	87.38
518.311	94.38
518.527	73.38
518.742	92.38
518.958	90.38
519.173	94.38
519.389	98.38
519.605	100.38
519.82	99.38
520.036	112.38
520.251	84.38
520.467	88.38
520.682	81.38
520.898	91.38
521.113	89.38
521.329	94.38
521.544	89.38
521.76	78.38
521.975	92.38
522.19	98.38
522.406	91.38
522.621	96.38
522.836	103.38
523.052	92.38
523.267	84.38
523.482	95.38
523.698	90.38
523.913	98.38
524.128	93.38
524.343	99.38
524.559	100.38
524.774	98.38
524.989	95.38
525.204	91.38
525.419	90.38
525.634	88.38
525.849	86.38
526.064	100.38
526.28	101.38
526.495	104.38
526.71	104.38
526.925	85.38
527.14	86.38
527.355	80.38
527.57	80.38
527.785	92.38
527.999	75.38
528.214	89.38
528.429	91.38
528.644	103.38
528.859	109.38
529.074	105.38
529.289	106.38
529.503	118.38
529.718	119.38
529.933	94.38
530.148	90.38
530.363	82.38
530.577	78.38
530.792	68.38
531.007	66.38
531.221	78.38
531.436	89.38
531.651	82.38
531.865	90.38
532.08	82.38
532.295	82.38
532.509	74.38
532.724	79.38
532.938	75.38
533.153	83.38
533.367	96.38
533.582	101.38
533.796	94.38
534.011	93.38
534.225	84.38
534.44	67.38
534.654	86.38
534.868	84.38
535.083	97.38
535.297	91.38
535.511	93.38
535.726	104.38
535.94	89.38
536.154	79.38
536.369	84.38
536.583	98.38
536.797	79.38
537.011	72.38
537.225	79.38
537.44	80.38
537.654	84.38
537.868	99.38
538.082	87.38
538.296	83.38
538.51	82.38
538.724	102.38
538.938	116.38
539.153	104.38
539.367	95.38
539.581	99.38
539.795	79.38
540.009	82.38
540.222	90.38
540.436	85.38
540.65	93.38
540.864	102.38
541.078	104.38
541.292	118.38
541.506	119.38
541.72	114.38
541.934	134.38
542.147	129.38
542.361	119.38
542.575	111.38
542.789	118.38
543.002	115.38
543.216	110.38
543.43	101.38
543.644	124.38
543.857	114.38
544.071	117.38
544.285	115.38
544.498	122.38
544.712	116.38
544.925	115.38
545.139	112.38
545.352	119.38
545.566	124.38
545.779	119.38
545.993	115.38
546.206	116.38
546.42	123.38
546.633	127.38
546.847	120.38
547.06	111.38
547.274	114.38
547.487	130.38
547.7	125.38
547.914	109.38
548.127	117.38
548.34	118.38
548.554	117.38
548.767	109.38
548.98	105.38
549.193	109.38
549.407	117.38
549.62	109.38
549.833	126.38
550.046	128.38
550.259	113.38
550.473	121.38
550.686	120.38
550.899	115.38
551.112	116.38
551.325	119.38
551.538	111.38
551.751	100.38
551.964	102.38
552.177	109.38
552.39	104.38
552.603	101.38
552.816	119.38
553.029	116.38
553.242	119.38
553.455	124.38
553.667	125.38
553.88	117.38
554.093	111.38
554.306	117.38
554.519	105.38
554.732	95.38
554.944	111.38
555.157	105.38
555.37	113.38
555.583	114.38
555.795	113.38
556.008	113.38
556.221	119.38
556.433	94.38
556.646	105.38
556.859	113.38
557.071	101.38
557.284	106.38
557.496	114.38
557.709	108.38
557.921	101.38
558.134	123.38
558.346	121.38
558.559	124.38
558.771	96.38
558.984	97.38
559.196	121.38
559.409	95.38
559.621	106.38
559.833	93.38
560.046	98.38
560.258	120.38
560.47	98.38
560.683	94.38
560.895	95.38
561.107	106.38
561.32	104.38
561.532	99.38
561.744	101.38
561.956	117.38
562.168	96.38
562.381	93.38
562.593	93.38
562.805	103.38
563.017	98.38
563.229	108.38
563.441	93.38
563.653	110.38
563.865	109.38
564.077	99.38
564.289	96.38
564.501	96.38
564.713	97.38
564.925	101.38
565.137	92.38
565.349	107.38
565.561	100.38
565.773	113.38
565.985	93.38
566.197	101.38
566.408	103.38
566.62	96.38
566.832	92.38
567.044	103.38
567.255	88.38
567.467	97.38
567.679	93.38
567.891	88.38
568.102	89.38
568.314	85.38
568.526	84.38
568.737	79.38
568.949	86.38
569.161	83.38
569.372	86.38
569.584	80.38
569.795	91.38
570.007	81.38
570.218	95.38
570.43	79.38
570.641	89.38
570.853	89.38
571.064	88.38
571.276	85.38
571.487	90.38
571.698	106.38
571.91	87.38
572.121	89.38
572.333	89.38
572.544	90.38
572.755	87.38
572.966	99.38
573.178	75.38
573.389	84.38
573.6	71.38
573.811	90.38
574.023	85.38
574.234	71.38
574.445	93.38
574.656	96.38
574.867	98.38
575.078	78.38
575.289	83.38
575.501	80.38
575.712	74.38
575.923	91.38
576.134	91.38
576.345	79.38
576.556	98.38
576.767	97.38
576.978	83.38
577.188	79.38
577.399	79.38
577.61	74.38
577.821	81.38
578.032	89.38
578.243	80.38
578.454	80.38
578.665	101.38
578.875	96.38
579.086	81.38
579.297	75.38
579.508	61.38
579.718	75.38
579.929	90.38
580.14	76.38
580.35	81.38
580.561	81.38
580.772	88.38
580.982	90.38
581.193	98.38
581.403	70.38
581.614	85.38
581.825	92.38
582.035	88.38
582.246	84.38
582.456	88.38
582.667	97.38
582.877	77.38
583.087	70.38
583.298	59.38
583.508	86.38
583.719	90.38
583.929	94.38
584.139	69.38
584.35	84.38
584.56	82.38
584.77	79.38
584.981	74.38
585.191	82.38
585.401	91.38
585.611	94.38
585.821	95.38
586.032	83.38
586.242	81.38
586.452	83.38
586.662	80.38
586.872	96.38
587.082	84.38
587.292	73.38
587.502	90.38
587.713	87.38
587.923	73.38
588.133	77.38
588.343	86.38
588.553	76.38
588.762	85.38
588.972	82.38
589.182	81.38
589.392	91.38
589.602	82.38
589.812	72.38
590.022	85.38
590.232	90.38
590.441	84.38
590.651	86.38
590.861	88.38
591.071	85.38
591.281	91.38
591.49	87.38
591.7	86.38
591.91	86.38
592.119	70.38
592.329	75.38
592.539	91.38
592.748	83.38
592.958	93.38
593.167	92.38
593.377	78.38
593.587	86.38
593.796	90.38
594.006	80.38
594.215	73.38
594.424	88.38
594.634	83.38
594.843	81.38
595.053	78.38
595.262	95.38
595.472	82.38
595.681	64.38
595.89	92.38
596.1	74.38
596.309	98.38
596.518	76.38
596.727	89.38
596.937	88.38
597.146	98.38
597.355	89.38
597.564	104.38
597.774	97.38
597.983	78.38
598.192	93.38
598.401	80.38
598.61	75.38
598.819	89.38
599.028	88.38
599.237	98.38
599.446	79.38
599.655	91.38
599.864	92.38
600.073	95.38
600.282	94.38
600.491	98.38
600.7	86.38
600.909	84.38
601.118	92.38
601.327	86.38
601.536	86.38
601.745	97.38
601.953	100.38
602.162	109.38
602.371	102.38
602.58	89.38
602.789	102.38
602.997	97.38
603.206	95.38
603.415	98.38
603.623	96.38
603.832	88.38
604.041	98.38
604.249	91.38
604.458	102.38
604.666	75.38
604.875	81.38
605.084	84.38
605.292	100.38
605.501	91.38
605.709	87.38
605.918	100.38
606.126	94.38
606.334	110.38
606.543	102.38
606.751	109.38
606.96	87.38
607.168	91.38
607.376	88.38
607.585	87.38
607.793	90.38
608.001	91.38
608.21	89.38
608.418	100.38
608.626	91.38
608.834	84.38
609.043	94.38
609.251	102.38
609.459	105.38
609.667	87.38
609.875	83.38
610.083	91.38
610.291	88.38
610.499	90.38
610.707	81.38
610.916	101.38
611.124	88.38
611.332	98.38
611.54	95.38
611.748	98.38
611.955	90.38
612.163	102.38
612.371	93.38
612.579	82.38
612.787	87.38
612.995	89.38
613.203	90.38
613.411	93.38
613.618	98.38
613.826	106.38
614.034	116.38
614.242	111.38
614.449	87.38
614.657	88.38
614.865	86.38
615.072	95.38
615.28	106.38
615.488	99.38
615.695	89.38
615.903	90.38
616.111	95.38
616.318	91.38
616.526	94.38
616.733	93.38
616.941	109.38
617.148	91.38
617.356	88.38
617.563	96.38
617.771	104.38
617.978	100.38
618.185	102.38
618.393	104.38
618.6	96.38
618.807	92.38
619.015	90.38
619.222	117.38
619.429	83.38
619.637	92.38
619.844	82.38
620.051	100.38
620.258	82.38
620.466	90.38
620.673	90.38
620.88	87.38
621.087	81.38
621.294	96.38
621.501	87.38
621.708	88.38
621.915	94.38
622.122	96.38
622.329	82.38
622.536	69.38
622.743	101.38
622.95	102.38
623.157	96.38
623.364	95.38
623.571	97.38
623.778	88.38
623.985	98.38
624.192	78.38
624.399	95.38
624.606	97.38
624.812	87.38
625.019	95.38
625.226	100.38
625.433	90.38
625.639	86.38
625.846	82.38
626.053	83.38
626.259	86.38
626.466	84.38
626.673	75.38
626.879	89.38
627.086	86.38
627.293	90.38
627.499	85.38
627.706	88.38
627.912	99.38
628.119	88.38
628.325	84.38
628.532	97.38
628.738	89.38
628.945	92.38
629.151	101.38
629.357	80.38
629.564	91.38
629.77	93.38
629.976	90.38
630.183	85.38
630.389	98.38
630.595	87.38
630.802	85.38
631.008	89.38
631.214	101.38
631.42	104.38
631.627	89.38
631.833	90.38
632.039	94.38
632.245	86.38
632.451	75.38
632.657	86.38
632.863	84.38
633.069	90.38
633.275	93.38
633.481	85.38
633.688	89.38
633.893	85.38
634.099	88.38
634.305	90.38
634.511	89.38
634.717	79.38
634.923	84.38
635.129	93.38
635.335	76.38
635.541	84.38
635.747	85.38
635.952	89.38
636.158	91.38
636.364	86.38
636.57	93.38
636.775	79.38
636.981	86.38
637.187	75.38
637.392	94.38
637.598	99.38
637.804	96.38
638.009	89.38
638.215	75.38
638.421	88.38
638.626	77.38
638.832	89.38
639.037	94.38
639.243	84.38
639.448	88.38
639.654	91.38
639.859	79.38
640.065	92.38
640.27	80.38
640.475	90.38
640.681	88.38
640.886	94.38
641.091	85.38
641.297	109.38
641.502	94.38
641.707	91.38
641.913	85.38
642.118	85.38
642.323	78.38
642.528	90.38
642.733	90.38
642.939	98.38
643.144	89.38
643.349	90.38
643.554	88.38
643.759	85.38
643.964	83.38
644.169	78.38
644.374	89.38
644.579	83.38
644.784	83.38
644.989	76.38
645.194	104.38
645.399	91.38
645.604	82.38
645.809	96.38
646.014	81.38
646.219	86.38
646.423	83.38
646.628	81.38
646.833	88.38
647.038	82.38
647.243	85.38
647.447	89.38
647.652	93.38
647.857	98.38
648.062	84.38
648.266	89.38
648.471	78.38
648.676	85.38
648.88	93.38
649.085	101.38
649.289	82.38
649.494	83.38
649.698	80.38
649.903	81.38
650.107	97.38
650.312	79.38
650.516	89.38
650.721	97.38
650.925	94.38
651.13	96.38
651.334	87.38
651.539	77.38
651.743	87.38
651.947	100.38
652.152	81.38
652.356	87.38
652.56	94.38
652.764	97.38
652.969	87.38
653.173	99.38
653.377	77.38
653.581	81.38
653.785	83.38
653.99	87.38
654.194	81.38
654.398	89.38
654.602	81.38
654.806	69.38
655.01	89.38
655.214	73.38
655.418	78.38
655.622	85.38
655.826	80.38
656.03	89.38
656.234	85.38
656.438	88.38
656.642	84.38
656.846	83.38
657.049	94.38
657.253	102.38
657.457	84.38
657.661	86.38
657.865	82.38
658.068	88.38
658.272	77.38
658.476	75.38
658.68	91.38
658.883	83.38
659.087	88.38
659.291	91.38
659.494	70.38
659.698	84.38
659.901	89.38
660.105	90.38
660.309	69.38
660.512	78.38
660.716	78.38
660.919	82.38
661.123	63.38
661.326	86.38
661.53	83.38
661.733	90.38
661.936	100.38
662.14	80.38
662.343	66.38
662.546	86.38
662.75	78.38
662.953	82.38
663.156	83.38
663.36	79.38
663.563	75.38
663.766	82.38
663.969	76.38
664.173	84.38
664.376	79.38
664.579	69.38
664.782	92.38
664.985	74.38
665.188	79.38
665.391	83.38
665.594	79.38
665.797	71.38
666	78.38
666.203	73.38
666.406	86.38
666.609	73.38
666.812	86.38
667.015	73.38
667.218	73.38
667.421	85.38
667.624	83.38
667.827	93.38
668.03	73.38
668.232	67.38
668.435	73.38
668.638	86.38
668.841	85.38
669.043	86.38
669.246	71.38
669.449	81.38
669.651	83.38
669.854	80.38
670.057	86.38
670.259	77.38
670.462	69.38
670.665	81.38
670.867	77.38
671.07	70.38
671.272	85.38
671.475	81.38
671.677	72.38
671.88	79.38
672.082	77.38
672.284	75.38
672.487	79.38
672.689	81.38
672.892	76.38
