Data from Zn(NO3)2Standard.Agarose3%.GreenCap.LampEnergy10E.O_HRD10591_15-07-48-946.txt Node
Date: Mon Jul 22 15:07:48 EDT 2019
User: cochatt
Spectrometer: HR+D1059
Trigger mode: 1
Integration Time (sec): 1.000000E-1
Scans to average: 1
Electric dark correction enabled: true
Nonlinearity correction enabled: false
Boxcar width: 0
XAxis mode: Wavelengths
Number of Pixels in Spectrum: 2048
>>>>>Begin Spectral Data<<<<<
223.165	-27.62
223.4	-27.62
223.635	-27.62
223.869	-10.62
224.104	-15.62
224.338	-12.62
224.573	-9.62
224.808	-3.62
225.042	-18.62
225.277	-10.62
225.511	6.38
225.746	7.38
225.98	-3.62
226.215	19.38
226.449	21.38
226.683	14.38
226.918	19.38
227.152	24.38
227.387	35.38
227.621	39.38
227.856	57.38
228.09	38.38
228.324	55.38
228.559	57.38
228.793	75.38
229.027	66.38
229.262	42.38
229.496	67.38
229.73	84.38
229.964	79.38
230.199	82.38
230.433	75.38
230.667	71.38
230.901	97.38
231.136	69.38
231.37	89.38
231.604	82.38
231.838	80.38
232.072	80.38
232.306	76.38
232.541	83.38
232.775	79.38
233.009	78.38
233.243	71.38
233.477	79.38
233.711	92.38
233.945	75.38
234.179	96.38
234.413	82.38
234.647	85.38
234.881	86.38
235.115	84.38
235.349	87.38
235.583	83.38
235.817	79.38
236.051	83.38
236.285	84.38
236.519	89.38
236.753	80.38
236.987	87.38
237.221	95.38
237.455	79.38
237.689	65.38
237.922	77.38
238.156	82.38
238.39	86.38
238.624	77.38
238.858	79.38
239.091	67.38
239.325	73.38
239.559	79.38
239.793	83.38
240.027	75.38
240.26	85.38
240.494	78.38
240.728	70.38
240.961	84.38
241.195	89.38
241.429	74.38
241.662	78.38
241.896	64.38
242.13	79.38
242.363	68.38
242.597	76.38
242.83	74.38
243.064	69.38
243.298	69.38
243.531	69.38
243.765	84.38
243.998	89.38
244.232	86.38
244.465	82.38
244.699	85.38
244.932	75.38
245.166	84.38
245.399	75.38
245.633	85.38
245.866	100.38
246.099	92.38
246.333	85.38
246.566	73.38
246.8	80.38
247.033	74.38
247.266	70.38
247.5	74.38
247.733	86.38
247.966	74.38
248.2	81.38
248.433	85.38
248.666	84.38
248.899	74.38
249.133	69.38
249.366	82.38
249.599	84.38
249.832	69.38
250.066	63.38
250.299	86.38
250.532	83.38
250.765	71.38
250.998	89.38
251.231	90.38
251.465	67.38
251.698	87.38
251.931	72.38
252.164	77.38
252.397	75.38
252.63	88.38
252.863	83.38
253.096	83.38
253.329	85.38
253.562	92.38
253.795	85.38
254.028	72.38
254.261	91.38
254.494	75.38
254.727	78.38
254.96	91.38
255.193	77.38
255.426	72.38
255.659	76.38
255.892	77.38
256.124	74.38
256.357	91.38
256.59	101.38
256.823	85.38
257.056	71.38
257.289	77.38
257.521	80.38
257.754	77.38
257.987	78.38
258.22	85.38
258.452	91.38
258.685	82.38
258.918	84.38
259.151	91.38
259.383	92.38
259.616	79.38
259.849	84.38
260.081	89.38
260.314	94.38
260.547	88.38
260.779	85.38
261.012	85.38
261.244	86.38
261.477	89.38
261.71	94.38
261.942	77.38
262.175	85.38
262.407	86.38
262.64	79.38
262.872	85.38
263.105	85.38
263.337	83.38
263.57	88.38
263.802	86.38
264.035	83.38
264.267	85.38
264.499	85.38
264.732	98.38
264.964	79.38
265.197	86.38
265.429	80.38
265.661	86.38
265.894	94.38
266.126	78.38
266.358	89.38
266.591	89.38
266.823	92.38
267.055	91.38
267.287	82.38
267.52	89.38
267.752	93.38
267.984	94.38
268.216	85.38
268.448	85.38
268.681	95.38
268.913	105.38
269.145	92.38
269.377	84.38
269.609	97.38
269.841	80.38
270.073	80.38
270.306	79.38
270.538	86.38
270.77	84.38
271.002	84.38
271.234	88.38
271.466	82.38
271.698	86.38
271.93	82.38
272.162	90.38
272.394	82.38
272.626	79.38
272.858	86.38
273.09	70.38
273.322	85.38
273.553	98.38
273.785	94.38
274.017	89.38
274.249	85.38
274.481	87.38
274.713	89.38
274.945	93.38
275.176	82.38
275.408	98.38
275.64	84.38
275.872	79.38
276.104	90.38
276.335	89.38
276.567	77.38
276.799	81.38
277.031	83.38
277.262	94.38
277.494	93.38
277.726	84.38
277.957	98.38
278.189	78.38
278.421	73.38
278.652	93.38
278.884	74.38
279.115	84.38
279.347	71.38
279.579	85.38
279.81	83.38
280.042	94.38
280.273	91.38
280.505	88.38
280.736	70.38
280.968	74.38
281.199	79.38
281.431	87.38
281.662	90.38
281.894	77.38
282.125	92.38
282.356	83.38
282.588	78.38
282.819	75.38
283.051	68.38
283.282	95.38
283.513	87.38
283.745	81.38
283.976	76.38
284.207	98.38
284.439	92.38
284.67	88.38
284.901	99.38
285.132	91.38
285.364	73.38
285.595	81.38
285.826	87.38
286.057	80.38
286.288	87.38
286.52	82.38
286.751	63.38
286.982	60.38
287.213	77.38
287.444	75.38
287.675	83.38
287.906	88.38
288.138	75.38
288.369	72.38
288.6	92.38
288.831	86.38
289.062	93.38
289.293	69.38
289.524	80.38
289.755	74.38
289.986	91.38
290.217	99.38
290.448	97.38
290.679	77.38
290.91	92.38
291.141	106.38
291.371	81.38
291.602	85.38
291.833	86.38
292.064	85.38
292.295	84.38
292.526	78.38
292.757	86.38
292.987	79.38
293.218	87.38
293.449	91.38
293.68	85.38
293.91	86.38
294.141	82.38
294.372	84.38
294.603	87.38
294.833	87.38
295.064	93.38
295.295	80.38
295.525	93.38
295.756	90.38
295.987	82.38
296.217	98.38
296.448	83.38
296.679	98.38
296.909	95.38
297.14	85.38
297.37	95.38
297.601	75.38
297.831	98.38
298.062	94.38
298.292	91.38
298.523	84.38
298.753	93.38
298.984	87.38
299.214	88.38
299.445	89.38
299.675	81.38
299.905	78.38
300.136	80.38
300.366	87.38
300.597	98.38
300.827	88.38
301.057	90.38
301.288	89.38
301.518	95.38
301.748	98.38
301.979	80.38
302.209	86.38
302.439	89.38
302.669	89.38
302.9	86.38
303.13	94.38
303.36	83.38
303.59	76.38
303.82	93.38
304.051	94.38
304.281	90.38
304.511	105.38
304.741	89.38
304.971	95.38
305.201	98.38
305.431	96.38
305.661	98.38
305.891	78.38
306.121	89.38
306.352	81.38
306.582	88.38
306.812	96.38
307.042	96.38
307.272	74.38
307.502	77.38
307.731	95.38
307.961	78.38
308.191	66.38
308.421	77.38
308.651	94.38
308.881	70.38
309.111	79.38
309.341	85.38
309.571	84.38
309.8	87.38
310.03	85.38
310.26	92.38
310.49	88.38
310.72	85.38
310.949	92.38
311.179	104.38
311.409	86.38
311.639	88.38
311.868	91.38
312.098	79.38
312.328	86.38
312.557	97.38
312.787	84.38
313.017	92.38
313.246	98.38
313.476	89.38
313.706	82.38
313.935	90.38
314.165	78.38
314.394	90.38
314.624	80.38
314.853	86.38
315.083	85.38
315.312	81.38
315.542	87.38
315.771	88.38
316.001	88.38
316.23	92.38
316.46	87.38
316.689	82.38
316.919	82.38
317.148	90.38
317.377	93.38
317.607	94.38
317.836	95.38
318.065	103.38
318.295	85.38
318.524	86.38
318.753	73.38
318.983	83.38
319.212	97.38
319.441	94.38
319.67	82.38
319.9	81.38
320.129	80.38
320.358	92.38
320.587	94.38
320.816	79.38
321.046	78.38
321.275	93.38
321.504	78.38
321.733	76.38
321.962	72.38
322.191	87.38
322.42	89.38
322.649	82.38
322.878	78.38
323.108	84.38
323.337	82.38
323.566	86.38
323.795	88.38
324.024	97.38
324.253	83.38
324.482	83.38
324.71	93.38
324.939	81.38
325.168	85.38
325.397	94.38
325.626	90.38
325.855	92.38
326.084	72.38
326.313	83.38
326.542	86.38
326.77	89.38
326.999	93.38
327.228	78.38
327.457	83.38
327.686	82.38
327.914	88.38
328.143	98.38
328.372	88.38
328.6	85.38
328.829	79.38
329.058	95.38
329.287	65.38
329.515	83.38
329.744	90.38
329.972	96.38
330.201	79.38
330.43	86.38
330.658	91.38
330.887	97.38
331.115	73.38
331.344	102.38
331.572	84.38
331.801	91.38
332.03	76.38
332.258	81.38
332.486	82.38
332.715	82.38
332.943	88.38
333.172	74.38
333.4	84.38
333.629	98.38
333.857	87.38
334.085	92.38
334.314	87.38
334.542	79.38
334.771	83.38
334.999	96.38
335.227	76.38
335.455	84.38
335.684	81.38
335.912	83.38
336.14	90.38
336.369	88.38
336.597	72.38
336.825	87.38
337.053	76.38
337.281	71.38
337.51	84.38
337.738	92.38
337.966	101.38
338.194	79.38
338.422	95.38
338.65	83.38
338.878	92.38
339.106	99.38
339.334	84.38
339.562	104.38
339.79	103.38
340.018	95.38
340.246	91.38
340.474	86.38
340.702	95.38
340.93	84.38
341.158	85.38
341.386	84.38
341.614	79.38
341.842	84.38
342.07	87.38
342.298	93.38
342.526	93.38
342.754	92.38
342.981	87.38
343.209	94.38
343.437	100.38
343.665	64.38
343.893	90.38
344.12	94.38
344.348	88.38
344.576	83.38
344.804	96.38
345.031	86.38
345.259	78.38
345.487	70.38
345.714	84.38
345.942	84.38
346.17	71.38
346.397	84.38
346.625	71.38
346.853	85.38
347.08	92.38
347.308	72.38
347.535	81.38
347.763	88.38
347.99	81.38
348.218	87.38
348.445	86.38
348.673	80.38
348.9	89.38
349.128	90.38
349.355	91.38
349.583	86.38
349.81	86.38
350.037	78.38
350.265	89.38
350.492	90.38
350.72	86.38
350.947	84.38
351.174	93.38
351.402	99.38
351.629	84.38
351.856	85.38
352.083	89.38
352.311	74.38
352.538	90.38
352.765	94.38
352.992	88.38
353.22	98.38
353.447	83.38
353.674	89.38
353.901	82.38
354.128	90.38
354.355	95.38
354.583	87.38
354.81	79.38
355.037	74.38
355.264	74.38
355.491	88.38
355.718	74.38
355.945	77.38
356.172	80.38
356.399	87.38
356.626	87.38
356.853	69.38
357.08	93.38
357.307	83.38
357.534	79.38
357.761	90.38
357.988	102.38
358.215	73.38
358.441	99.38
358.668	89.38
358.895	86.38
359.122	80.38
359.349	85.38
359.576	86.38
359.802	74.38
360.029	76.38
360.256	87.38
360.483	85.38
360.709	84.38
360.936	84.38
361.163	81.38
361.39	86.38
361.616	84.38
361.843	89.38
362.07	83.38
362.296	95.38
362.523	76.38
362.749	89.38
362.976	83.38
363.203	92.38
363.429	86.38
363.656	73.38
363.882	82.38
364.109	79.38
364.335	85.38
364.562	85.38
364.788	98.38
365.015	89.38
365.241	90.38
365.468	76.38
365.694	78.38
365.92	91.38
366.147	86.38
366.373	96.38
366.599	94.38
366.826	81.38
367.052	91.38
367.278	90.38
367.505	79.38
367.731	97.38
367.957	87.38
368.184	81.38
368.41	99.38
368.636	94.38
368.862	77.38
369.089	76.38
369.315	72.38
369.541	94.38
369.767	77.38
369.993	74.38
370.219	69.38
370.445	85.38
370.672	85.38
370.898	83.38
371.124	93.38
371.35	71.38
371.576	79.38
371.802	92.38
372.028	85.38
372.254	74.38
372.48	86.38
372.706	87.38
372.932	86.38
373.158	95.38
373.384	88.38
373.61	79.38
373.835	67.38
374.061	90.38
374.287	83.38
374.513	80.38
374.739	82.38
374.965	77.38
375.191	70.38
375.416	94.38
375.642	84.38
375.868	90.38
376.094	87.38
376.319	89.38
376.545	81.38
376.771	101.38
376.997	89.38
377.222	82.38
377.448	69.38
377.674	101.38
377.899	77.38
378.125	87.38
378.35	92.38
378.576	102.38
378.802	88.38
379.027	95.38
379.253	84.38
379.478	92.38
379.704	78.38
379.929	83.38
380.155	98.38
380.38	91.38
380.606	85.38
380.831	89.38
381.057	100.38
381.282	85.38
381.507	90.38
381.733	92.38
381.958	86.38
382.184	99.38
382.409	97.38
382.634	98.38
382.86	98.38
383.085	82.38
383.31	100.38
383.535	83.38
383.761	99.38
383.986	82.38
384.211	86.38
384.436	92.38
384.662	82.38
384.887	88.38
385.112	90.38
385.337	91.38
385.562	92.38
385.787	95.38
386.013	100.38
386.238	89.38
386.463	97.38
386.688	94.38
386.913	82.38
387.138	93.38
387.363	93.38
387.588	98.38
387.813	88.38
388.038	85.38
388.263	103.38
388.488	95.38
388.713	88.38
388.938	78.38
389.163	88.38
389.387	95.38
389.612	88.38
389.837	97.38
390.062	101.38
390.287	82.38
390.512	79.38
390.736	89.38
390.961	84.38
391.186	78.38
391.411	86.38
391.636	73.38
391.86	83.38
392.085	110.38
392.31	95.38
392.534	102.38
392.759	99.38
392.984	94.38
393.208	100.38
393.433	95.38
393.658	101.38
393.882	89.38
394.107	91.38
394.331	92.38
394.556	79.38
394.78	78.38
395.005	96.38
395.229	99.38
395.454	98.38
395.678	93.38
395.903	92.38
396.127	79.38
396.352	85.38
396.576	89.38
396.801	88.38
397.025	85.38
397.249	93.38
397.474	99.38
397.698	99.38
397.922	104.38
398.147	83.38
398.371	97.38
398.595	111.38
398.82	110.38
399.044	86.38
399.268	93.38
399.492	86.38
399.717	83.38
399.941	98.38
400.165	95.38
400.389	95.38
400.613	97.38
400.837	97.38
401.062	89.38
401.286	84.38
401.51	86.38
401.734	87.38
401.958	101.38
402.182	98.38
402.406	108.38
402.63	97.38
402.854	94.38
403.078	86.38
403.302	95.38
403.526	110.38
403.75	88.38
403.974	98.38
404.198	92.38
404.422	84.38
404.645	106.38
404.869	107.38
405.093	106.38
405.317	100.38
405.541	90.38
405.765	103.38
405.988	93.38
406.212	88.38
406.436	100.38
406.66	114.38
406.883	90.38
407.107	98.38
407.331	90.38
407.555	107.38
407.778	88.38
408.002	105.38
408.226	97.38
408.449	82.38
408.673	116.38
408.896	108.38
409.12	108.38
409.344	102.38
409.567	108.38
409.791	103.38
410.014	101.38
410.238	98.38
410.461	92.38
410.685	103.38
410.908	116.38
411.132	116.38
411.355	93.38
411.578	115.38
411.802	99.38
412.025	108.38
412.249	102.38
412.472	93.38
412.695	102.38
412.919	107.38
413.142	87.38
413.365	99.38
413.589	94.38
413.812	95.38
414.035	122.38
414.258	121.38
414.482	99.38
414.705	89.38
414.928	112.38
415.151	97.38
415.374	97.38
415.597	97.38
415.821	100.38
416.044	98.38
416.267	109.38
416.49	107.38
416.713	109.38
416.936	107.38
417.159	113.38
417.382	85.38
417.605	99.38
417.828	108.38
418.051	103.38
418.274	102.38
418.497	114.38
418.72	115.38
418.943	114.38
419.166	107.38
419.389	114.38
419.611	100.38
419.834	113.38
420.057	94.38
420.28	107.38
420.503	109.38
420.726	99.38
420.948	89.38
421.171	99.38
421.394	115.38
421.617	118.38
421.839	113.38
422.062	123.38
422.285	100.38
422.507	99.38
422.73	102.38
422.953	118.38
423.175	101.38
423.398	101.38
423.621	101.38
423.843	95.38
424.066	123.38
424.288	110.38
424.511	114.38
424.733	110.38
424.956	99.38
425.178	110.38
425.401	109.38
425.623	107.38
425.846	114.38
426.068	92.38
426.291	103.38
426.513	123.38
426.735	113.38
426.958	99.38
427.18	104.38
427.402	107.38
427.625	108.38
427.847	107.38
428.069	109.38
428.292	111.38
428.514	120.38
428.736	114.38
428.958	106.38
429.181	90.38
429.403	104.38
429.625	91.38
429.847	106.38
430.069	104.38
430.292	100.38
430.514	113.38
430.736	104.38
430.958	100.38
431.18	117.38
431.402	99.38
431.624	106.38
431.846	110.38
432.068	93.38
432.29	91.38
432.512	97.38
432.734	94.38
432.956	113.38
433.178	106.38
433.4	101.38
433.622	115.38
433.844	106.38
434.066	113.38
434.287	106.38
434.509	90.38
434.731	83.38
434.953	98.38
435.175	118.38
435.397	98.38
435.618	91.38
435.84	104.38
436.062	87.38
436.284	114.38
436.505	106.38
436.727	106.38
436.949	107.38
437.17	102.38
437.392	92.38
437.614	108.38
437.835	99.38
438.057	101.38
438.278	97.38
438.5	119.38
438.721	108.38
438.943	115.38
439.165	99.38
439.386	109.38
439.608	112.38
439.829	104.38
440.05	110.38
440.272	111.38
440.493	109.38
440.715	116.38
440.936	107.38
441.158	110.38
441.379	105.38
441.6	120.38
441.822	111.38
442.043	121.38
442.264	105.38
442.486	113.38
442.707	100.38
442.928	108.38
443.149	117.38
443.371	105.38
443.592	119.38
443.813	109.38
444.034	106.38
444.255	109.38
444.476	116.38
444.698	125.38
444.919	100.38
445.14	228.38
445.361	172.38
445.582	110.38
445.803	122.38
446.024	109.38
446.245	122.38
446.466	110.38
446.687	119.38
446.908	121.38
447.129	114.38
447.35	113.38
447.571	108.38
447.792	125.38
448.013	105.38
448.234	96.38
448.455	120.38
448.675	113.38
448.896	119.38
449.117	105.38
449.338	125.38
449.559	109.38
449.779	113.38
450	105.38
450.221	99.38
450.442	116.38
450.662	99.38
450.883	101.38
451.104	98.38
451.324	85.38
451.545	120.38
451.766	116.38
451.986	120.38
452.207	100.38
452.428	107.38
452.648	95.38
452.869	101.38
453.089	93.38
453.31	106.38
453.53	112.38
453.751	87.38
453.971	100.38
454.192	95.38
454.412	97.38
454.633	103.38
454.853	96.38
455.073	104.38
455.294	111.38
455.514	113.38
455.734	110.38
455.955	103.38
456.175	103.38
456.395	97.38
456.616	91.38
456.836	94.38
457.056	81.38
457.276	99.38
457.497	89.38
457.717	97.38
457.937	101.38
458.157	92.38
458.377	99.38
458.598	98.38
458.818	95.38
459.038	90.38
459.258	77.38
459.478	100.38
459.698	96.38
459.918	84.38
460.138	82.38
460.358	116.38
460.578	107.38
460.798	88.38
461.018	101.38
461.238	101.38
461.458	102.38
461.678	94.38
461.898	93.38
462.118	106.38
462.338	91.38
462.558	100.38
462.777	97.38
462.997	86.38
463.217	73.38
463.437	77.38
463.657	84.38
463.876	103.38
464.096	97.38
464.316	98.38
464.536	91.38
464.755	101.38
464.975	99.38
465.195	114.38
465.414	103.38
465.634	97.38
465.854	97.38
466.073	120.38
466.293	106.38
466.512	112.38
466.732	93.38
466.951	108.38
467.171	110.38
467.391	108.38
467.61	101.38
467.829	115.38
468.049	104.38
468.268	102.38
468.488	89.38
468.707	107.38
468.927	98.38
469.146	110.38
469.365	107.38
469.585	125.38
469.804	119.38
470.023	105.38
470.243	123.38
470.462	118.38
470.681	98.38
470.901	125.38
471.12	121.38
471.339	104.38
471.558	119.38
471.777	109.38
471.997	108.38
472.216	102.38
472.435	110.38
472.654	93.38
472.873	97.38
473.092	97.38
473.311	107.38
473.53	96.38
473.749	113.38
473.968	110.38
474.187	115.38
474.406	108.38
474.625	104.38
474.844	100.38
475.063	95.38
475.282	120.38
475.501	103.38
475.72	104.38
475.939	91.38
476.158	115.38
476.377	113.38
476.596	109.38
476.814	101.38
477.033	98.38
477.252	95.38
477.471	99.38
477.69	103.38
477.908	116.38
478.127	125.38
478.346	125.38
478.564	112.38
478.783	108.38
479.002	126.38
479.22	108.38
479.439	118.38
479.658	102.38
479.876	99.38
480.095	88.38
480.313	93.38
480.532	107.38
480.751	98.38
480.969	83.38
481.188	82.38
481.406	95.38
481.624	103.38
481.843	95.38
482.061	81.38
482.28	108.38
482.498	117.38
482.717	100.38
482.935	95.38
483.153	124.38
483.372	121.38
483.59	124.38
483.808	118.38
484.027	117.38
484.245	104.38
484.463	121.38
484.681	113.38
484.9	124.38
485.118	104.38
485.336	96.38
485.554	101.38
485.772	87.38
485.99	94.38
486.209	86.38
486.427	112.38
486.645	95.38
486.863	101.38
487.081	117.38
487.299	121.38
487.517	129.38
487.735	121.38
487.953	131.38
488.171	148.38
488.389	131.38
488.607	114.38
488.825	102.38
489.043	100.38
489.261	109.38
489.479	124.38
489.696	120.38
489.914	116.38
490.132	98.38
490.35	122.38
490.568	128.38
490.786	110.38
491.003	135.38
491.221	137.38
491.439	136.38
491.657	138.38
491.874	129.38
492.092	144.38
492.31	154.38
492.527	136.38
492.745	135.38
492.963	121.38
493.18	135.38
493.398	124.38
493.615	129.38
493.833	133.38
494.05	121.38
494.268	121.38
494.485	125.38
494.703	123.38
494.92	142.38
495.138	137.38
495.355	124.38
495.573	134.38
495.79	134.38
496.008	118.38
496.225	125.38
496.442	119.38
496.66	119.38
496.877	117.38
497.094	118.38
497.312	137.38
497.529	110.38
497.746	125.38
497.963	121.38
498.181	98.38
498.398	92.38
498.615	106.38
498.832	119.38
499.049	106.38
499.267	103.38
499.484	103.38
499.701	106.38
499.918	103.38
500.135	98.38
500.352	108.38
500.569	113.38
500.786	106.38
501.003	107.38
501.22	118.38
501.437	121.38
501.654	133.38
501.871	113.38
502.088	105.38
502.305	117.38
502.522	117.38
502.739	122.38
502.956	107.38
503.172	118.38
503.389	105.38
503.606	81.38
503.823	101.38
504.04	97.38
504.256	116.38
504.473	113.38
504.69	103.38
504.907	99.38
505.123	110.38
505.34	99.38
505.557	100.38
505.773	101.38
505.99	106.38
506.207	99.38
506.423	108.38
506.64	95.38
506.856	105.38
507.073	101.38
507.289	98.38
507.506	95.38
507.722	90.38
507.939	87.38
508.155	110.38
508.372	115.38
508.588	101.38
508.805	93.38
509.021	109.38
509.238	103.38
509.454	89.38
509.67	103.38
509.887	86.38
510.103	100.38
510.319	75.38
510.536	89.38
510.752	88.38
510.968	85.38
511.184	93.38
511.401	86.38
511.617	87.38
511.833	86.38
512.049	103.38
512.265	84.38
512.481	77.38
512.698	88.38
512.914	101.38
513.13	94.38
513.346	90.38
513.562	84.38
513.778	90.38
513.994	85.38
514.21	68.38
514.426	90.38
514.642	107.38
514.858	88.38
515.074	88.38
515.29	103.38
515.506	92.38
515.721	82.38
515.937	106.38
516.153	87.38
516.369	101.38
516.585	81.38
516.801	99.38
517.016	90.38
517.232	84.38
517.448	91.38
517.664	92.38
517.879	83.38
518.095	94.38
518.311	99.38
518.527	95.38
518.742	84.38
518.958	89.38
519.173	93.38
519.389	99.38
519.605	93.38
519.82	101.38
520.036	102.38
520.251	100.38
520.467	92.38
520.682	89.38
520.898	82.38
521.113	80.38
521.329	86.38
521.544	98.38
521.76	99.38
521.975	90.38
522.19	87.38
522.406	102.38
522.621	91.38
522.836	98.38
523.052	95.38
523.267	85.38
523.482	83.38
523.698	106.38
523.913	115.38
524.128	121.38
524.343	107.38
524.559	94.38
524.774	94.38
524.989	117.38
525.204	87.38
525.419	93.38
525.634	95.38
525.849	94.38
526.064	104.38
526.28	115.38
526.495	97.38
526.71	88.38
526.925	95.38
527.14	88.38
527.355	90.38
527.57	80.38
527.785	94.38
527.999	94.38
528.214	93.38
528.429	100.38
528.644	111.38
528.859	106.38
529.074	124.38
529.289	122.38
529.503	114.38
529.718	113.38
529.933	117.38
530.148	100.38
530.363	89.38
530.577	88.38
530.792	76.38
531.007	77.38
531.221	100.38
531.436	85.38
531.651	105.38
531.865	83.38
532.08	81.38
532.295	77.38
532.509	89.38
532.724	83.38
532.938	80.38
533.153	85.38
533.367	100.38
533.582	116.38
533.796	89.38
534.011	86.38
534.225	97.38
534.44	95.38
534.654	95.38
534.868	80.38
535.083	107.38
535.297	100.38
535.511	94.38
535.726	91.38
535.94	78.38
536.154	78.38
536.369	82.38
536.583	89.38
536.797	95.38
537.011	86.38
537.225	99.38
537.44	89.38
537.654	86.38
537.868	75.38
538.082	85.38
538.296	89.38
538.51	90.38
538.724	100.38
538.938	103.38
539.153	98.38
539.367	110.38
539.581	111.38
539.795	92.38
540.009	94.38
540.222	89.38
540.436	97.38
540.65	93.38
540.864	117.38
541.078	114.38
541.292	102.38
541.506	126.38
541.72	132.38
541.934	130.38
542.147	149.38
542.361	127.38
542.575	126.38
542.789	109.38
543.002	120.38
543.216	99.38
543.43	121.38
543.644	110.38
543.857	115.38
544.071	113.38
544.285	121.38
544.498	133.38
544.712	120.38
544.925	122.38
545.139	121.38
545.352	124.38
545.566	135.38
545.779	127.38
545.993	129.38
546.206	123.38
546.42	129.38
546.633	117.38
546.847	122.38
547.06	135.38
547.274	125.38
547.487	130.38
547.7	127.38
547.914	131.38
548.127	119.38
548.34	125.38
548.554	127.38
548.767	131.38
548.98	126.38
549.193	121.38
549.407	117.38
549.62	112.38
549.833	110.38
550.046	109.38
550.259	111.38
550.473	104.38
550.686	126.38
550.899	131.38
551.112	108.38
551.325	117.38
551.538	111.38
551.751	110.38
551.964	107.38
552.177	113.38
552.39	117.38
552.603	104.38
552.816	130.38
553.029	118.38
553.242	116.38
553.455	109.38
553.667	110.38
553.88	113.38
554.093	117.38
554.306	124.38
554.519	125.38
554.732	111.38
554.944	124.38
555.157	120.38
555.37	95.38
555.583	106.38
555.795	123.38
556.008	113.38
556.221	121.38
556.433	121.38
556.646	111.38
556.859	95.38
557.071	113.38
557.284	115.38
557.496	110.38
557.709	114.38
557.921	124.38
558.134	110.38
558.346	123.38
558.559	121.38
558.771	118.38
558.984	118.38
559.196	107.38
559.409	108.38
559.621	104.38
559.833	107.38
560.046	115.38
560.258	113.38
560.47	101.38
560.683	95.38
560.895	105.38
561.107	89.38
561.32	107.38
561.532	111.38
561.744	111.38
561.956	125.38
562.168	105.38
562.381	93.38
562.593	101.38
562.805	114.38
563.017	101.38
563.229	97.38
563.441	104.38
563.653	104.38
563.865	101.38
564.077	102.38
564.289	100.38
564.501	112.38
564.713	110.38
564.925	93.38
565.137	108.38
565.349	105.38
565.561	102.38
565.773	106.38
565.985	97.38
566.197	99.38
566.408	92.38
566.62	110.38
566.832	94.38
567.044	101.38
567.255	105.38
567.467	102.38
567.679	109.38
567.891	102.38
568.102	106.38
568.314	88.38
568.526	92.38
568.737	66.38
568.949	91.38
569.161	94.38
569.372	82.38
569.584	78.38
569.795	93.38
570.007	82.38
570.218	73.38
570.43	83.38
570.641	88.38
570.853	94.38
571.064	89.38
571.276	102.38
571.487	100.38
571.698	90.38
571.91	107.38
572.121	88.38
572.333	78.38
572.544	104.38
572.755	97.38
572.966	93.38
573.178	72.38
573.389	90.38
573.6	95.38
573.811	98.38
574.023	93.38
574.234	92.38
574.445	85.38
574.656	82.38
574.867	97.38
575.078	100.38
575.289	97.38
575.501	87.38
575.712	91.38
575.923	83.38
576.134	87.38
576.345	95.38
576.556	99.38
576.767	94.38
576.978	98.38
577.188	91.38
577.399	86.38
577.61	101.38
577.821	94.38
578.032	92.38
578.243	100.38
578.454	89.38
578.665	91.38
578.875	91.38
579.086	77.38
579.297	92.38
579.508	75.38
579.718	84.38
579.929	93.38
580.14	86.38
580.35	84.38
580.561	83.38
580.772	99.38
580.982	77.38
581.193	79.38
581.403	87.38
581.614	98.38
581.825	79.38
582.035	97.38
582.246	92.38
582.456	94.38
582.667	85.38
582.877	99.38
583.087	73.38
583.298	89.38
583.508	102.38
583.719	89.38
583.929	99.38
584.139	85.38
584.35	86.38
584.56	85.38
584.77	91.38
584.981	94.38
585.191	84.38
585.401	86.38
585.611	79.38
585.821	85.38
586.032	86.38
586.242	62.38
586.452	92.38
586.662	76.38
586.872	77.38
587.082	92.38
587.292	90.38
587.502	87.38
587.713	100.38
587.923	97.38
588.133	85.38
588.343	92.38
588.553	77.38
588.762	75.38
588.972	83.38
589.182	88.38
589.392	98.38
589.602	89.38
589.812	95.38
590.022	86.38
590.232	90.38
590.441	87.38
590.651	79.38
590.861	95.38
591.071	74.38
591.281	84.38
591.49	83.38
591.7	75.38
591.91	100.38
592.119	88.38
592.329	98.38
592.539	63.38
592.748	91.38
592.958	81.38
593.167	87.38
593.377	90.38
593.587	93.38
593.796	103.38
594.006	93.38
594.215	105.38
594.424	85.38
594.634	91.38
594.843	91.38
595.053	92.38
595.262	89.38
595.472	81.38
595.681	80.38
595.89	86.38
596.1	91.38
596.309	84.38
596.518	82.38
596.727	82.38
596.937	92.38
597.146	92.38
597.355	106.38
597.564	94.38
597.774	89.38
597.983	85.38
598.192	83.38
598.401	100.38
598.61	77.38
598.819	87.38
599.028	85.38
599.237	85.38
599.446	84.38
599.655	81.38
599.864	97.38
600.073	92.38
600.282	77.38
600.491	87.38
600.7	98.38
600.909	89.38
601.118	97.38
601.327	91.38
601.536	102.38
601.745	100.38
601.953	105.38
602.162	103.38
602.371	105.38
602.58	103.38
602.789	85.38
602.997	96.38
603.206	102.38
603.415	111.38
603.623	83.38
603.832	92.38
604.041	89.38
604.249	87.38
604.458	115.38
604.666	97.38
604.875	91.38
605.084	77.38
605.292	101.38
605.501	105.38
605.709	98.38
605.918	105.38
606.126	98.38
606.334	111.38
606.543	116.38
606.751	80.38
606.96	117.38
607.168	101.38
607.376	93.38
607.585	96.38
607.793	98.38
608.001	109.38
608.21	97.38
608.418	108.38
608.626	100.38
608.834	98.38
609.043	94.38
609.251	111.38
609.459	108.38
609.667	108.38
609.875	99.38
610.083	103.38
610.291	97.38
610.499	100.38
610.707	101.38
610.916	100.38
611.124	106.38
611.332	92.38
611.54	97.38
611.748	97.38
611.955	96.38
612.163	91.38
612.371	91.38
612.579	88.38
612.787	90.38
612.995	99.38
613.203	95.38
613.411	102.38
613.618	106.38
613.826	93.38
614.034	96.38
614.242	97.38
614.449	91.38
614.657	100.38
614.865	101.38
615.072	98.38
615.28	105.38
615.488	103.38
615.695	100.38
615.903	95.38
616.111	97.38
616.318	95.38
616.526	98.38
616.733	100.38
616.941	96.38
617.148	104.38
617.356	91.38
617.563	97.38
617.771	107.38
617.978	115.38
618.185	101.38
618.393	102.38
618.6	97.38
618.807	93.38
619.015	89.38
619.222	104.38
619.429	82.38
619.637	98.38
619.844	100.38
620.051	79.38
620.258	85.38
620.466	99.38
620.673	97.38
620.88	97.38
621.087	100.38
621.294	88.38
621.501	93.38
621.708	88.38
621.915	101.38
622.122	98.38
622.329	91.38
622.536	89.38
622.743	90.38
622.95	98.38
623.157	101.38
623.364	79.38
623.571	96.38
623.778	92.38
623.985	101.38
624.192	69.38
624.399	86.38
624.606	94.38
624.812	98.38
625.019	98.38
625.226	99.38
625.433	100.38
625.639	77.38
625.846	95.38
626.053	87.38
626.259	82.38
626.466	90.38
626.673	87.38
626.879	104.38
627.086	99.38
627.293	107.38
627.499	93.38
627.706	96.38
627.912	98.38
628.119	98.38
628.325	117.38
628.532	111.38
628.738	90.38
628.945	98.38
629.151	100.38
629.357	84.38
629.564	84.38
629.77	88.38
629.976	87.38
630.183	93.38
630.389	78.38
630.595	98.38
630.802	94.38
631.008	87.38
631.214	89.38
631.42	91.38
631.627	87.38
631.833	100.38
632.039	86.38
632.245	92.38
632.451	101.38
632.657	87.38
632.863	87.38
633.069	88.38
633.275	75.38
633.481	99.38
633.688	94.38
633.893	87.38
634.099	85.38
634.305	90.38
634.511	85.38
634.717	79.38
634.923	93.38
635.129	85.38
635.335	86.38
635.541	82.38
635.747	86.38
635.952	86.38
636.158	71.38
636.364	91.38
636.57	93.38
636.775	83.38
636.981	94.38
637.187	85.38
637.392	78.38
637.598	92.38
637.804	103.38
638.009	95.38
638.215	93.38
638.421	93.38
638.626	99.38
638.832	89.38
639.037	90.38
639.243	91.38
639.448	93.38
639.654	103.38
639.859	104.38
640.065	98.38
640.27	97.38
640.475	91.38
640.681	83.38
640.886	102.38
641.091	103.38
641.297	93.38
641.502	95.38
641.707	95.38
641.913	94.38
642.118	108.38
642.323	98.38
642.528	93.38
642.733	106.38
642.939	82.38
643.144	74.38
643.349	100.38
643.554	97.38
643.759	98.38
643.964	74.38
644.169	93.38
644.374	91.38
644.579	105.38
644.784	94.38
644.989	97.38
645.194	85.38
645.399	86.38
645.604	103.38
645.809	86.38
646.014	99.38
646.219	103.38
646.423	97.38
646.628	81.38
646.833	101.38
647.038	96.38
647.243	88.38
647.447	103.38
647.652	104.38
647.857	94.38
648.062	87.38
648.266	82.38
648.471	91.38
648.676	92.38
648.88	98.38
649.085	97.38
649.289	93.38
649.494	85.38
649.698	92.38
649.903	78.38
650.107	90.38
650.312	85.38
650.516	81.38
650.721	105.38
650.925	91.38
651.13	105.38
651.334	85.38
651.539	98.38
651.743	94.38
651.947	86.38
652.152	94.38
652.356	103.38
652.56	85.38
652.764	87.38
652.969	88.38
653.173	74.38
653.377	91.38
653.581	77.38
653.785	91.38
653.99	90.38
654.194	87.38
654.398	79.38
654.602	107.38
654.806	83.38
655.01	67.38
655.214	87.38
655.418	72.38
655.622	76.38
655.826	84.38
656.03	86.38
656.234	72.38
656.438	82.38
656.642	73.38
656.846	85.38
657.049	90.38
657.253	87.38
657.457	87.38
657.661	90.38
657.865	101.38
658.068	95.38
658.272	79.38
658.476	92.38
658.68	87.38
658.883	90.38
659.087	85.38
659.291	93.38
659.494	93.38
659.698	85.38
659.901	91.38
660.105	86.38
660.309	74.38
660.512	77.38
660.716	74.38
660.919	93.38
661.123	73.38
661.326	75.38
661.53	79.38
661.733	86.38
661.936	82.38
662.14	78.38
662.343	78.38
662.546	98.38
662.75	104.38
662.953	78.38
663.156	86.38
663.36	92.38
663.563	59.38
663.766	97.38
663.969	88.38
664.173	85.38
664.376	95.38
664.579	89.38
664.782	74.38
664.985	76.38
665.188	93.38
665.391	85.38
665.594	76.38
665.797	84.38
666	77.38
666.203	84.38
666.406	74.38
666.609	86.38
666.812	82.38
667.015	90.38
667.218	87.38
667.421	86.38
667.624	79.38
667.827	85.38
668.03	80.38
668.232	72.38
668.435	97.38
668.638	79.38
668.841	78.38
669.043	80.38
669.246	83.38
669.449	86.38
669.651	81.38
669.854	82.38
670.057	77.38
670.259	87.38
670.462	78.38
670.665	88.38
670.867	77.38
671.07	76.38
671.272	97.38
671.475	75.38
671.677	83.38
671.88	85.38
672.082	75.38
672.284	85.38
672.487	91.38
672.689	83.38
672.892	83.38
