Data from Zn(NO3)2Standard.Agarose3%.GreenCap.LampEnergy5.5.E.O_HRD10591_15-02-45-768.txt Node
Date: Mon Jul 22 15:02:45 EDT 2019
User: cochatt
Spectrometer: HR+D1059
Trigger mode: 1
Integration Time (sec): 1.000000E-1
Scans to average: 1
Electric dark correction enabled: true
Nonlinearity correction enabled: false
Boxcar width: 0
XAxis mode: Wavelengths
Number of Pixels in Spectrum: 2048
>>>>>Begin Spectral Data<<<<<
223.165	-0.06
223.4	-0.06
223.635	-0.06
223.869	-19.06
224.104	-9.06
224.338	-23.06
224.573	-26.06
224.808	-16.06
225.042	-19.06
225.277	8.94
225.511	-16.06
225.746	13.94
225.98	2.94
226.215	16.94
226.449	18.94
226.683	17.94
226.918	23.94
227.152	24.94
227.387	28.94
227.621	44.94
227.856	44.94
228.09	41.94
228.324	40.94
228.559	49.94
228.793	73.94
229.027	62.94
229.262	69.94
229.496	72.94
229.73	73.94
229.964	75.94
230.199	77.94
230.433	78.94
230.667	73.94
230.901	67.94
231.136	79.94
231.37	86.94
231.604	73.94
231.838	87.94
232.072	73.94
232.306	76.94
232.541	78.94
232.775	86.94
233.009	73.94
233.243	77.94
233.477	86.94
233.711	87.94
233.945	88.94
234.179	75.94
234.413	72.94
234.647	84.94
234.881	83.94
235.115	95.94
235.349	83.94
235.583	75.94
235.817	79.94
236.051	84.94
236.285	89.94
236.519	82.94
236.753	100.94
236.987	74.94
237.221	81.94
237.455	80.94
237.689	87.94
237.922	80.94
238.156	80.94
238.39	90.94
238.624	85.94
238.858	76.94
239.091	71.94
239.325	85.94
239.559	86.94
239.793	93.94
240.027	85.94
240.26	81.94
240.494	88.94
240.728	73.94
240.961	79.94
241.195	82.94
241.429	82.94
241.662	82.94
241.896	80.94
242.13	77.94
242.363	70.94
242.597	89.94
242.83	78.94
243.064	78.94
243.298	83.94
243.531	76.94
243.765	69.94
243.998	85.94
244.232	74.94
244.465	71.94
244.699	80.94
244.932	76.94
245.166	77.94
245.399	83.94
245.633	77.94
245.866	75.94
246.099	75.94
246.333	87.94
246.566	81.94
246.8	74.94
247.033	88.94
247.266	77.94
247.5	89.94
247.733	84.94
247.966	88.94
248.2	77.94
248.433	78.94
248.666	90.94
248.899	86.94
249.133	76.94
249.366	77.94
249.599	79.94
249.832	98.94
250.066	83.94
250.299	90.94
250.532	76.94
250.765	82.94
250.998	78.94
251.231	81.94
251.465	90.94
251.698	104.94
251.931	71.94
252.164	82.94
252.397	78.94
252.63	83.94
252.863	74.94
253.096	84.94
253.329	79.94
253.562	90.94
253.795	86.94
254.028	86.94
254.261	71.94
254.494	87.94
254.727	77.94
254.96	70.94
255.193	77.94
255.426	79.94
255.659	92.94
255.892	88.94
256.124	86.94
256.357	85.94
256.59	85.94
256.823	72.94
257.056	64.94
257.289	94.94
257.521	79.94
257.754	65.94
257.987	85.94
258.22	93.94
258.452	85.94
258.685	78.94
258.918	83.94
259.151	80.94
259.383	89.94
259.616	79.94
259.849	84.94
260.081	81.94
260.314	90.94
260.547	75.94
260.779	94.94
261.012	82.94
261.244	76.94
261.477	88.94
261.71	86.94
261.942	82.94
262.175	72.94
262.407	88.94
262.64	83.94
262.872	78.94
263.105	91.94
263.337	97.94
263.57	86.94
263.802	83.94
264.035	93.94
264.267	83.94
264.499	86.94
264.732	78.94
264.964	91.94
265.197	90.94
265.429	68.94
265.661	86.94
265.894	87.94
266.126	101.94
266.358	92.94
266.591	83.94
266.823	86.94
267.055	82.94
267.287	92.94
267.52	84.94
267.752	89.94
267.984	80.94
268.216	85.94
268.448	79.94
268.681	80.94
268.913	68.94
269.145	87.94
269.377	83.94
269.609	85.94
269.841	92.94
270.073	104.94
270.306	87.94
270.538	96.94
270.77	77.94
271.002	72.94
271.234	98.94
271.466	79.94
271.698	81.94
271.93	83.94
272.162	76.94
272.394	80.94
272.626	99.94
272.858	88.94
273.09	85.94
273.322	84.94
273.553	73.94
273.785	84.94
274.017	80.94
274.249	93.94
274.481	84.94
274.713	92.94
274.945	95.94
275.176	79.94
275.408	78.94
275.64	90.94
275.872	86.94
276.104	99.94
276.335	81.94
276.567	93.94
276.799	91.94
277.031	84.94
277.262	88.94
277.494	93.94
277.726	77.94
277.957	84.94
278.189	77.94
278.421	86.94
278.652	95.94
278.884	89.94
279.115	94.94
279.347	88.94
279.579	79.94
279.81	99.94
280.042	87.94
280.273	82.94
280.505	91.94
280.736	78.94
280.968	90.94
281.199	91.94
281.431	75.94
281.662	64.94
281.894	91.94
282.125	79.94
282.356	80.94
282.588	84.94
282.819	87.94
283.051	93.94
283.282	96.94
283.513	74.94
283.745	75.94
283.976	82.94
284.207	87.94
284.439	91.94
284.67	81.94
284.901	79.94
285.132	89.94
285.364	85.94
285.595	79.94
285.826	85.94
286.057	93.94
286.288	93.94
286.52	88.94
286.751	92.94
286.982	84.94
287.213	94.94
287.444	84.94
287.675	76.94
287.906	77.94
288.138	89.94
288.369	84.94
288.6	87.94
288.831	97.94
289.062	105.94
289.293	95.94
289.524	90.94
289.755	90.94
289.986	81.94
290.217	92.94
290.448	90.94
290.679	90.94
290.91	104.94
291.141	87.94
291.371	85.94
291.602	109.94
291.833	92.94
292.064	80.94
292.295	85.94
292.526	94.94
292.757	102.94
292.987	97.94
293.218	80.94
293.449	77.94
293.68	90.94
293.91	80.94
294.141	84.94
294.372	87.94
294.603	88.94
294.833	97.94
295.064	72.94
295.295	92.94
295.525	93.94
295.756	83.94
295.987	84.94
296.217	100.94
296.448	92.94
296.679	96.94
296.909	94.94
297.14	93.94
297.37	108.94
297.601	87.94
297.831	83.94
298.062	94.94
298.292	86.94
298.523	102.94
298.753	80.94
298.984	93.94
299.214	89.94
299.445	94.94
299.675	97.94
299.905	85.94
300.136	86.94
300.366	77.94
300.597	75.94
300.827	79.94
301.057	86.94
301.288	101.94
301.518	94.94
301.748	94.94
301.979	77.94
302.209	85.94
302.439	78.94
302.669	87.94
302.9	97.94
303.13	79.94
303.36	88.94
303.59	92.94
303.82	84.94
304.051	85.94
304.281	83.94
304.511	93.94
304.741	87.94
304.971	81.94
305.201	94.94
305.431	87.94
305.661	94.94
305.891	85.94
306.121	81.94
306.352	77.94
306.582	82.94
306.812	87.94
307.042	95.94
307.272	82.94
307.502	75.94
307.731	96.94
307.961	93.94
308.191	82.94
308.421	96.94
308.651	86.94
308.881	83.94
309.111	86.94
309.341	82.94
309.571	82.94
309.8	85.94
310.03	75.94
310.26	81.94
310.49	96.94
310.72	77.94
310.949	83.94
311.179	83.94
311.409	84.94
311.639	86.94
311.868	85.94
312.098	72.94
312.328	91.94
312.557	84.94
312.787	92.94
313.017	99.94
313.246	89.94
313.476	95.94
313.706	96.94
313.935	89.94
314.165	96.94
314.394	78.94
314.624	89.94
314.853	85.94
315.083	101.94
315.312	93.94
315.542	96.94
315.771	89.94
316.001	94.94
316.23	81.94
316.46	87.94
316.689	112.94
316.919	94.94
317.148	91.94
317.377	88.94
317.607	92.94
317.836	106.94
318.065	87.94
318.295	98.94
318.524	80.94
318.753	88.94
318.983	70.94
319.212	94.94
319.441	94.94
319.67	90.94
319.9	101.94
320.129	84.94
320.358	93.94
320.587	84.94
320.816	81.94
321.046	69.94
321.275	81.94
321.504	100.94
321.733	93.94
321.962	94.94
322.191	111.94
322.42	96.94
322.649	82.94
322.878	83.94
323.108	75.94
323.337	91.94
323.566	67.94
323.795	81.94
324.024	75.94
324.253	79.94
324.482	84.94
324.71	89.94
324.939	93.94
325.168	84.94
325.397	80.94
325.626	99.94
325.855	79.94
326.084	93.94
326.313	96.94
326.542	80.94
326.77	74.94
326.999	90.94
327.228	71.94
327.457	87.94
327.686	93.94
327.914	91.94
328.143	85.94
328.372	100.94
328.6	92.94
328.829	78.94
329.058	82.94
329.287	79.94
329.515	84.94
329.744	79.94
329.972	94.94
330.201	88.94
330.43	83.94
330.658	76.94
330.887	88.94
331.115	85.94
331.344	84.94
331.572	90.94
331.801	95.94
332.03	86.94
332.258	89.94
332.486	79.94
332.715	87.94
332.943	78.94
333.172	84.94
333.4	86.94
333.629	86.94
333.857	86.94
334.085	78.94
334.314	89.94
334.542	85.94
334.771	91.94
334.999	83.94
335.227	78.94
335.455	84.94
335.684	79.94
335.912	95.94
336.14	93.94
336.369	88.94
336.597	87.94
336.825	79.94
337.053	93.94
337.281	87.94
337.51	102.94
337.738	77.94
337.966	85.94
338.194	81.94
338.422	89.94
338.65	77.94
338.878	105.94
339.106	89.94
339.334	95.94
339.562	80.94
339.79	95.94
340.018	81.94
340.246	92.94
340.474	84.94
340.702	89.94
340.93	92.94
341.158	81.94
341.386	88.94
341.614	84.94
341.842	81.94
342.07	79.94
342.298	95.94
342.526	78.94
342.754	73.94
342.981	88.94
343.209	86.94
343.437	73.94
343.665	88.94
343.893	96.94
344.12	93.94
344.348	101.94
344.576	83.94
344.804	81.94
345.031	77.94
345.259	74.94
345.487	82.94
345.714	88.94
345.942	93.94
346.17	90.94
346.397	91.94
346.625	90.94
346.853	73.94
347.08	92.94
347.308	80.94
347.535	86.94
347.763	81.94
347.99	88.94
348.218	88.94
348.445	87.94
348.673	85.94
348.9	98.94
349.128	86.94
349.355	93.94
349.583	89.94
349.81	91.94
350.037	81.94
350.265	77.94
350.492	88.94
350.72	102.94
350.947	99.94
351.174	93.94
351.402	89.94
351.629	85.94
351.856	90.94
352.083	92.94
352.311	92.94
352.538	83.94
352.765	85.94
352.992	81.94
353.22	99.94
353.447	75.94
353.674	90.94
353.901	91.94
354.128	81.94
354.355	87.94
354.583	88.94
354.81	85.94
355.037	79.94
355.264	93.94
355.491	80.94
355.718	87.94
355.945	97.94
356.172	82.94
356.399	89.94
356.626	100.94
356.853	87.94
357.08	84.94
357.307	75.94
357.534	84.94
357.761	88.94
357.988	73.94
358.215	72.94
358.441	88.94
358.668	91.94
358.895	81.94
359.122	97.94
359.349	88.94
359.576	80.94
359.802	94.94
360.029	91.94
360.256	90.94
360.483	77.94
360.709	92.94
360.936	84.94
361.163	89.94
361.39	83.94
361.616	82.94
361.843	85.94
362.07	88.94
362.296	81.94
362.523	91.94
362.749	98.94
362.976	101.94
363.203	91.94
363.429	84.94
363.656	91.94
363.882	69.94
364.109	96.94
364.335	100.94
364.562	99.94
364.788	81.94
365.015	82.94
365.241	81.94
365.468	95.94
365.694	91.94
365.92	91.94
366.147	85.94
366.373	97.94
366.599	91.94
366.826	79.94
367.052	98.94
367.278	87.94
367.505	92.94
367.731	97.94
367.957	79.94
368.184	89.94
368.41	79.94
368.636	87.94
368.862	87.94
369.089	93.94
369.315	82.94
369.541	80.94
369.767	91.94
369.993	83.94
370.219	87.94
370.445	94.94
370.672	92.94
370.898	74.94
371.124	72.94
371.35	95.94
371.576	63.94
371.802	85.94
372.028	77.94
372.254	96.94
372.48	97.94
372.706	83.94
372.932	75.94
373.158	91.94
373.384	99.94
373.61	91.94
373.835	89.94
374.061	78.94
374.287	87.94
374.513	80.94
374.739	78.94
374.965	90.94
375.191	86.94
375.416	90.94
375.642	80.94
375.868	89.94
376.094	99.94
376.319	87.94
376.545	82.94
376.771	83.94
376.997	98.94
377.222	76.94
377.448	92.94
377.674	78.94
377.899	88.94
378.125	84.94
378.35	83.94
378.576	101.94
378.802	84.94
379.027	77.94
379.253	93.94
379.478	89.94
379.704	75.94
379.929	85.94
380.155	81.94
380.38	87.94
380.606	85.94
380.831	94.94
381.057	78.94
381.282	78.94
381.507	95.94
381.733	92.94
381.958	80.94
382.184	80.94
382.409	72.94
382.634	87.94
382.86	83.94
383.085	85.94
383.31	97.94
383.535	88.94
383.761	81.94
383.986	83.94
384.211	74.94
384.436	76.94
384.662	77.94
384.887	72.94
385.112	77.94
385.337	88.94
385.562	83.94
385.787	96.94
386.013	94.94
386.238	91.94
386.463	80.94
386.688	94.94
386.913	95.94
387.138	84.94
387.363	76.94
387.588	76.94
387.813	101.94
388.038	77.94
388.263	92.94
388.488	88.94
388.713	92.94
388.938	91.94
389.163	86.94
389.387	83.94
389.612	82.94
389.837	81.94
390.062	92.94
390.287	94.94
390.512	77.94
390.736	86.94
390.961	86.94
391.186	68.94
391.411	94.94
391.636	79.94
391.86	92.94
392.085	83.94
392.31	79.94
392.534	85.94
392.759	88.94
392.984	84.94
393.208	72.94
393.433	76.94
393.658	77.94
393.882	80.94
394.107	78.94
394.331	89.94
394.556	93.94
394.78	76.94
395.005	89.94
395.229	91.94
395.454	75.94
395.678	72.94
395.903	87.94
396.127	83.94
396.352	81.94
396.576	89.94
396.801	85.94
397.025	77.94
397.249	90.94
397.474	83.94
397.698	94.94
397.922	98.94
398.147	86.94
398.371	81.94
398.595	83.94
398.82	79.94
399.044	85.94
399.268	81.94
399.492	86.94
399.717	89.94
399.941	95.94
400.165	94.94
400.389	88.94
400.613	82.94
400.837	76.94
401.062	93.94
401.286	81.94
401.51	61.94
401.734	71.94
401.958	76.94
402.182	96.94
402.406	91.94
402.63	91.94
402.854	84.94
403.078	78.94
403.302	87.94
403.526	91.94
403.75	86.94
403.974	87.94
404.198	93.94
404.422	95.94
404.645	85.94
404.869	79.94
405.093	87.94
405.317	87.94
405.541	93.94
405.765	85.94
405.988	85.94
406.212	89.94
406.436	75.94
406.66	78.94
406.883	78.94
407.107	90.94
407.331	82.94
407.555	101.94
407.778	87.94
408.002	81.94
408.226	78.94
408.449	81.94
408.673	79.94
408.896	88.94
409.12	93.94
409.344	81.94
409.567	79.94
409.791	85.94
410.014	80.94
410.238	82.94
410.461	92.94
410.685	100.94
410.908	80.94
411.132	92.94
411.355	86.94
411.578	93.94
411.802	98.94
412.025	91.94
412.249	80.94
412.472	81.94
412.695	91.94
412.919	73.94
413.142	84.94
413.365	79.94
413.589	90.94
413.812	79.94
414.035	93.94
414.258	100.94
414.482	80.94
414.705	90.94
414.928	89.94
415.151	74.94
415.374	85.94
415.597	85.94
415.821	86.94
416.044	112.94
416.267	79.94
416.49	83.94
416.713	84.94
416.936	81.94
417.159	87.94
417.382	82.94
417.605	92.94
417.828	94.94
418.051	81.94
418.274	87.94
418.497	86.94
418.72	89.94
418.943	95.94
419.166	76.94
419.389	95.94
419.611	83.94
419.834	86.94
420.057	88.94
420.28	89.94
420.503	96.94
420.726	96.94
420.948	90.94
421.171	95.94
421.394	89.94
421.617	81.94
421.839	78.94
422.062	74.94
422.285	85.94
422.507	93.94
422.73	92.94
422.953	89.94
423.175	88.94
423.398	81.94
423.621	89.94
423.843	96.94
424.066	84.94
424.288	93.94
424.511	92.94
424.733	78.94
424.956	77.94
425.178	92.94
425.401	98.94
425.623	95.94
425.846	89.94
426.068	105.94
426.291	98.94
426.513	85.94
426.735	96.94
426.958	88.94
427.18	99.94
427.402	88.94
427.625	88.94
427.847	96.94
428.069	104.94
428.292	90.94
428.514	88.94
428.736	92.94
428.958	90.94
429.181	101.94
429.403	83.94
429.625	79.94
429.847	91.94
430.069	86.94
430.292	86.94
430.514	85.94
430.736	95.94
430.958	95.94
431.18	81.94
431.402	88.94
431.624	78.94
431.846	84.94
432.068	83.94
432.29	71.94
432.512	89.94
432.734	87.94
432.956	93.94
433.178	90.94
433.4	81.94
433.622	96.94
433.844	84.94
434.066	88.94
434.287	88.94
434.509	77.94
434.731	107.94
434.953	86.94
435.175	87.94
435.397	81.94
435.618	69.94
435.84	84.94
436.062	87.94
436.284	81.94
436.505	97.94
436.727	76.94
436.949	86.94
437.17	85.94
437.392	103.94
437.614	94.94
437.835	85.94
438.057	95.94
438.278	95.94
438.5	90.94
438.721	91.94
438.943	96.94
439.165	84.94
439.386	96.94
439.608	94.94
439.829	87.94
440.05	92.94
440.272	90.94
440.493	89.94
440.715	92.94
440.936	93.94
441.158	102.94
441.379	103.94
441.6	84.94
441.822	90.94
442.043	97.94
442.264	98.94
442.486	92.94
442.707	92.94
442.928	89.94
443.149	94.94
443.371	89.94
443.592	83.94
443.813	87.94
444.034	85.94
444.255	94.94
444.476	97.94
444.698	92.94
444.919	97.94
445.14	213.94
445.361	139.94
445.582	93.94
445.803	98.94
446.024	100.94
446.245	101.94
446.466	93.94
446.687	91.94
446.908	99.94
447.129	99.94
447.35	87.94
447.571	85.94
447.792	101.94
448.013	98.94
448.234	92.94
448.455	95.94
448.675	93.94
448.896	89.94
449.117	80.94
449.338	89.94
449.559	88.94
449.779	85.94
450	92.94
450.221	99.94
450.442	81.94
450.662	82.94
450.883	96.94
451.104	80.94
451.324	92.94
451.545	103.94
451.766	94.94
451.986	85.94
452.207	86.94
452.428	87.94
452.648	87.94
452.869	80.94
453.089	81.94
453.31	81.94
453.53	84.94
453.751	90.94
453.971	99.94
454.192	83.94
454.412	68.94
454.633	97.94
454.853	91.94
455.073	87.94
455.294	78.94
455.514	90.94
455.734	89.94
455.955	89.94
456.175	88.94
456.395	91.94
456.616	77.94
456.836	92.94
457.056	95.94
457.276	110.94
457.497	87.94
457.717	78.94
457.937	80.94
458.157	89.94
458.377	90.94
458.598	73.94
458.818	91.94
459.038	81.94
459.258	79.94
459.478	78.94
459.698	80.94
459.918	92.94
460.138	84.94
460.358	86.94
460.578	76.94
460.798	93.94
461.018	82.94
461.238	78.94
461.458	90.94
461.678	96.94
461.898	87.94
462.118	95.94
462.338	88.94
462.558	86.94
462.777	87.94
462.997	88.94
463.217	86.94
463.437	87.94
463.657	79.94
463.876	77.94
464.096	100.94
464.316	71.94
464.536	89.94
464.755	89.94
464.975	79.94
465.195	87.94
465.414	79.94
465.634	84.94
465.854	75.94
466.073	94.94
466.293	94.94
466.512	79.94
466.732	95.94
466.951	92.94
467.171	94.94
467.391	95.94
467.61	88.94
467.829	96.94
468.049	94.94
468.268	85.94
468.488	80.94
468.707	99.94
468.927	79.94
469.146	88.94
469.365	95.94
469.585	90.94
469.804	96.94
470.023	97.94
470.243	76.94
470.462	81.94
470.681	81.94
470.901	95.94
471.12	91.94
471.339	97.94
471.558	80.94
471.777	104.94
471.997	99.94
472.216	95.94
472.435	93.94
472.654	78.94
472.873	84.94
473.092	86.94
473.311	95.94
473.53	99.94
473.749	91.94
473.968	92.94
474.187	90.94
474.406	95.94
474.625	97.94
474.844	87.94
475.063	84.94
475.282	103.94
475.501	93.94
475.72	76.94
475.939	92.94
476.158	97.94
476.377	103.94
476.596	81.94
476.814	104.94
477.033	92.94
477.252	90.94
477.471	76.94
477.69	94.94
477.908	83.94
478.127	97.94
478.346	91.94
478.564	83.94
478.783	97.94
479.002	112.94
479.22	90.94
479.439	96.94
479.658	79.94
479.876	89.94
480.095	78.94
480.313	91.94
480.532	93.94
480.751	93.94
480.969	81.94
481.188	91.94
481.406	71.94
481.624	80.94
481.843	90.94
482.061	81.94
482.28	81.94
482.498	74.94
482.717	76.94
482.935	92.94
483.153	92.94
483.372	86.94
483.59	103.94
483.808	81.94
484.027	78.94
484.245	73.94
484.463	97.94
484.681	102.94
484.9	99.94
485.118	93.94
485.336	98.94
485.554	89.94
485.772	96.94
485.99	93.94
486.209	83.94
486.427	88.94
486.645	83.94
486.863	86.94
487.081	104.94
487.299	79.94
487.517	97.94
487.735	96.94
487.953	101.94
488.171	92.94
488.389	94.94
488.607	88.94
488.825	101.94
489.043	88.94
489.261	86.94
489.479	99.94
489.696	98.94
489.914	84.94
490.132	82.94
490.35	84.94
490.568	103.94
490.786	90.94
491.003	108.94
491.221	104.94
491.439	93.94
491.657	89.94
491.874	103.94
492.092	111.94
492.31	119.94
492.527	117.94
492.745	88.94
492.963	106.94
493.18	111.94
493.398	105.94
493.615	109.94
493.833	98.94
494.05	107.94
494.268	105.94
494.485	96.94
494.703	109.94
494.92	105.94
495.138	92.94
495.355	87.94
495.573	93.94
495.79	102.94
496.008	110.94
496.225	108.94
496.442	94.94
496.66	102.94
496.877	92.94
497.094	108.94
497.312	108.94
497.529	96.94
497.746	99.94
497.963	92.94
498.181	92.94
498.398	83.94
498.615	91.94
498.832	98.94
499.049	91.94
499.267	81.94
499.484	110.94
499.701	93.94
499.918	107.94
500.135	93.94
500.352	80.94
500.569	84.94
500.786	105.94
501.003	99.94
501.22	86.94
501.437	93.94
501.654	98.94
501.871	103.94
502.088	95.94
502.305	84.94
502.522	97.94
502.739	88.94
502.956	98.94
503.172	89.94
503.389	88.94
503.606	88.94
503.823	85.94
504.04	88.94
504.256	89.94
504.473	88.94
504.69	82.94
504.907	91.94
505.123	92.94
505.34	92.94
505.557	96.94
505.773	87.94
505.99	85.94
506.207	96.94
506.423	95.94
506.64	91.94
506.856	83.94
507.073	96.94
507.289	94.94
507.506	88.94
507.722	91.94
507.939	85.94
508.155	94.94
508.372	96.94
508.588	75.94
508.805	95.94
509.021	91.94
509.238	91.94
509.454	100.94
509.67	84.94
509.887	95.94
510.103	73.94
510.319	85.94
510.536	92.94
510.752	87.94
510.968	88.94
511.184	98.94
511.401	102.94
511.617	91.94
511.833	88.94
512.049	73.94
512.265	71.94
512.481	107.94
512.698	85.94
512.914	78.94
513.13	103.94
513.346	94.94
513.562	98.94
513.778	81.94
513.994	83.94
514.21	81.94
514.426	85.94
514.642	79.94
514.858	91.94
515.074	83.94
515.29	77.94
515.506	81.94
515.721	96.94
515.937	90.94
516.153	70.94
516.369	82.94
516.585	87.94
516.801	92.94
517.016	79.94
517.232	84.94
517.448	81.94
517.664	84.94
517.879	95.94
518.095	64.94
518.311	82.94
518.527	93.94
518.742	98.94
518.958	84.94
519.173	103.94
519.389	85.94
519.605	91.94
519.82	79.94
520.036	99.94
520.251	73.94
520.467	92.94
520.682	84.94
520.898	91.94
521.113	80.94
521.329	87.94
521.544	85.94
521.76	101.94
521.975	83.94
522.19	86.94
522.406	81.94
522.621	91.94
522.836	101.94
523.052	83.94
523.267	93.94
523.482	86.94
523.698	89.94
523.913	84.94
524.128	93.94
524.343	89.94
524.559	86.94
524.774	87.94
524.989	91.94
525.204	83.94
525.419	91.94
525.634	97.94
525.849	94.94
526.064	89.94
526.28	93.94
526.495	101.94
526.71	78.94
526.925	68.94
527.14	74.94
527.355	94.94
527.57	94.94
527.785	82.94
527.999	72.94
528.214	97.94
528.429	91.94
528.644	88.94
528.859	99.94
529.074	80.94
529.289	91.94
529.503	104.94
529.718	95.94
529.933	87.94
530.148	95.94
530.363	74.94
530.577	78.94
530.792	76.94
531.007	83.94
531.221	73.94
531.436	91.94
531.651	96.94
531.865	87.94
532.08	78.94
532.295	79.94
532.509	83.94
532.724	84.94
532.938	97.94
533.153	95.94
533.367	81.94
533.582	104.94
533.796	93.94
534.011	91.94
534.225	88.94
534.44	85.94
534.654	84.94
534.868	93.94
535.083	91.94
535.297	80.94
535.511	85.94
535.726	82.94
535.94	91.94
536.154	90.94
536.369	93.94
536.583	93.94
536.797	87.94
537.011	85.94
537.225	87.94
537.44	89.94
537.654	86.94
537.868	92.94
538.082	101.94
538.296	88.94
538.51	83.94
538.724	91.94
538.938	95.94
539.153	89.94
539.367	88.94
539.581	97.94
539.795	98.94
540.009	91.94
540.222	97.94
540.436	92.94
540.65	85.94
540.864	87.94
541.078	90.94
541.292	87.94
541.506	98.94
541.72	100.94
541.934	102.94
542.147	104.94
542.361	89.94
542.575	111.94
542.789	88.94
543.002	91.94
543.216	102.94
543.43	95.94
543.644	99.94
543.857	105.94
544.071	95.94
544.285	101.94
544.498	108.94
544.712	104.94
544.925	95.94
545.139	111.94
545.352	105.94
545.566	98.94
545.779	115.94
545.993	113.94
546.206	112.94
546.42	100.94
546.633	104.94
546.847	105.94
547.06	115.94
547.274	96.94
547.487	102.94
547.7	101.94
547.914	98.94
548.127	101.94
548.34	103.94
548.554	95.94
548.767	95.94
548.98	96.94
549.193	107.94
549.407	100.94
549.62	99.94
549.833	94.94
550.046	90.94
550.259	92.94
550.473	104.94
550.686	94.94
550.899	104.94
551.112	95.94
551.325	108.94
551.538	104.94
551.751	84.94
551.964	100.94
552.177	102.94
552.39	96.94
552.603	96.94
552.816	97.94
553.029	94.94
553.242	100.94
553.455	104.94
553.667	104.94
553.88	92.94
554.093	107.94
554.306	91.94
554.519	93.94
554.732	107.94
554.944	95.94
555.157	94.94
555.37	109.94
555.583	102.94
555.795	93.94
556.008	100.94
556.221	102.94
556.433	86.94
556.646	101.94
556.859	95.94
557.071	104.94
557.284	105.94
557.496	104.94
557.709	81.94
557.921	93.94
558.134	95.94
558.346	95.94
558.559	106.94
558.771	97.94
558.984	91.94
559.196	95.94
559.409	108.94
559.621	85.94
559.833	85.94
560.046	96.94
560.258	80.94
560.47	92.94
560.683	104.94
560.895	99.94
561.107	85.94
561.32	94.94
561.532	106.94
561.744	89.94
561.956	88.94
562.168	91.94
562.381	93.94
562.593	101.94
562.805	94.94
563.017	96.94
563.229	96.94
563.441	83.94
563.653	95.94
563.865	93.94
564.077	93.94
564.289	94.94
564.501	83.94
564.713	94.94
564.925	99.94
565.137	90.94
565.349	97.94
565.561	86.94
565.773	97.94
565.985	89.94
566.197	91.94
566.408	89.94
566.62	88.94
566.832	97.94
567.044	87.94
567.255	86.94
567.467	88.94
567.679	101.94
567.891	83.94
568.102	87.94
568.314	99.94
568.526	105.94
568.737	98.94
568.949	91.94
569.161	99.94
569.372	97.94
569.584	88.94
569.795	92.94
570.007	95.94
570.218	91.94
570.43	100.94
570.641	92.94
570.853	101.94
571.064	86.94
571.276	101.94
571.487	88.94
571.698	100.94
571.91	88.94
572.121	92.94
572.333	96.94
572.544	88.94
572.755	88.94
572.966	85.94
573.178	82.94
573.389	87.94
573.6	81.94
573.811	82.94
574.023	87.94
574.234	77.94
574.445	85.94
574.656	84.94
574.867	100.94
575.078	90.94
575.289	86.94
575.501	87.94
575.712	93.94
575.923	102.94
576.134	85.94
576.345	91.94
576.556	98.94
576.767	85.94
576.978	82.94
577.188	84.94
577.399	96.94
577.61	87.94
577.821	78.94
578.032	95.94
578.243	93.94
578.454	95.94
578.665	94.94
578.875	98.94
579.086	85.94
579.297	88.94
579.508	85.94
579.718	84.94
579.929	98.94
580.14	92.94
580.35	82.94
580.561	84.94
580.772	90.94
580.982	88.94
581.193	103.94
581.403	81.94
581.614	93.94
581.825	79.94
582.035	91.94
582.246	101.94
582.456	88.94
582.667	88.94
582.877	81.94
583.087	81.94
583.298	95.94
583.508	84.94
583.719	83.94
583.929	104.94
584.139	94.94
584.35	85.94
584.56	74.94
584.77	94.94
584.981	72.94
585.191	87.94
585.401	99.94
585.611	84.94
585.821	91.94
586.032	87.94
586.242	87.94
586.452	94.94
586.662	82.94
586.872	86.94
587.082	84.94
587.292	82.94
587.502	96.94
587.713	83.94
587.923	86.94
588.133	93.94
588.343	66.94
588.553	88.94
588.762	89.94
588.972	101.94
589.182	89.94
589.392	98.94
589.602	72.94
589.812	87.94
590.022	88.94
590.232	78.94
590.441	99.94
590.651	93.94
590.861	88.94
591.071	78.94
591.281	86.94
591.49	88.94
591.7	95.94
591.91	95.94
592.119	73.94
592.329	94.94
592.539	81.94
592.748	101.94
592.958	97.94
593.167	91.94
593.377	88.94
593.587	100.94
593.796	81.94
594.006	82.94
594.215	92.94
594.424	103.94
594.634	81.94
594.843	94.94
595.053	96.94
595.262	85.94
595.472	93.94
595.681	102.94
595.89	83.94
596.1	87.94
596.309	93.94
596.518	96.94
596.727	100.94
596.937	88.94
597.146	85.94
597.355	80.94
597.564	98.94
597.774	86.94
597.983	75.94
598.192	75.94
598.401	85.94
598.61	87.94
598.819	97.94
599.028	95.94
599.237	92.94
599.446	95.94
599.655	95.94
599.864	97.94
600.073	92.94
600.282	96.94
600.491	82.94
600.7	87.94
600.909	80.94
601.118	85.94
601.327	86.94
601.536	84.94
601.745	81.94
601.953	100.94
602.162	87.94
602.371	88.94
602.58	107.94
602.789	108.94
602.997	96.94
603.206	101.94
603.415	83.94
603.623	101.94
603.832	102.94
604.041	91.94
604.249	110.94
604.458	96.94
604.666	87.94
604.875	86.94
605.084	86.94
605.292	95.94
605.501	90.94
605.709	91.94
605.918	95.94
606.126	78.94
606.334	90.94
606.543	96.94
606.751	96.94
606.96	88.94
607.168	105.94
607.376	102.94
607.585	99.94
607.793	92.94
608.001	95.94
608.21	98.94
608.418	85.94
608.626	81.94
608.834	87.94
609.043	94.94
609.251	87.94
609.459	95.94
609.667	84.94
609.875	85.94
610.083	97.94
610.291	91.94
610.499	95.94
610.707	89.94
610.916	96.94
611.124	95.94
611.332	101.94
611.54	99.94
611.748	101.94
611.955	104.94
612.163	81.94
612.371	95.94
612.579	96.94
612.787	102.94
612.995	99.94
613.203	92.94
613.411	101.94
613.618	81.94
613.826	95.94
614.034	81.94
614.242	88.94
614.449	90.94
614.657	87.94
614.865	94.94
615.072	93.94
615.28	89.94
615.488	106.94
615.695	103.94
615.903	101.94
616.111	93.94
616.318	87.94
616.526	88.94
616.733	85.94
616.941	98.94
617.148	89.94
617.356	101.94
617.563	101.94
617.771	80.94
617.978	101.94
618.185	84.94
618.393	96.94
618.6	77.94
618.807	94.94
619.015	80.94
619.222	92.94
619.429	98.94
619.637	90.94
619.844	91.94
620.051	85.94
620.258	96.94
620.466	88.94
620.673	96.94
620.88	96.94
621.087	87.94
621.294	78.94
621.501	90.94
621.708	91.94
621.915	80.94
622.122	96.94
622.329	92.94
622.536	101.94
622.743	106.94
622.95	87.94
623.157	91.94
623.364	93.94
623.571	84.94
623.778	108.94
623.985	99.94
624.192	91.94
624.399	95.94
624.606	91.94
624.812	87.94
625.019	81.94
625.226	99.94
625.433	98.94
625.639	95.94
625.846	88.94
626.053	80.94
626.259	98.94
626.466	93.94
626.673	84.94
626.879	88.94
627.086	96.94
627.293	89.94
627.499	97.94
627.706	86.94
627.912	91.94
628.119	84.94
628.325	98.94
628.532	78.94
628.738	87.94
628.945	98.94
629.151	86.94
629.357	81.94
629.564	94.94
629.77	78.94
629.976	83.94
630.183	91.94
630.389	94.94
630.595	96.94
630.802	92.94
631.008	92.94
631.214	79.94
631.42	93.94
631.627	86.94
631.833	91.94
632.039	82.94
632.245	97.94
632.451	95.94
632.657	92.94
632.863	96.94
633.069	95.94
633.275	100.94
633.481	79.94
633.688	95.94
633.893	92.94
634.099	79.94
634.305	87.94
634.511	88.94
634.717	78.94
634.923	78.94
635.129	97.94
635.335	104.94
635.541	88.94
635.747	91.94
635.952	83.94
636.158	80.94
636.364	97.94
636.57	89.94
636.775	85.94
636.981	96.94
637.187	97.94
637.392	87.94
637.598	98.94
637.804	82.94
638.009	84.94
638.215	78.94
638.421	87.94
638.626	92.94
638.832	91.94
639.037	95.94
639.243	100.94
639.448	83.94
639.654	74.94
639.859	88.94
640.065	91.94
640.27	91.94
640.475	97.94
640.681	92.94
640.886	88.94
641.091	80.94
641.297	102.94
641.502	95.94
641.707	86.94
641.913	90.94
642.118	91.94
642.323	91.94
642.528	91.94
642.733	83.94
642.939	84.94
643.144	88.94
643.349	93.94
643.554	99.94
643.759	101.94
643.964	91.94
644.169	96.94
644.374	85.94
644.579	97.94
644.784	84.94
644.989	93.94
645.194	93.94
645.399	81.94
645.604	79.94
645.809	78.94
646.014	84.94
646.219	96.94
646.423	78.94
646.628	94.94
646.833	94.94
647.038	75.94
647.243	73.94
647.447	99.94
647.652	86.94
647.857	80.94
648.062	92.94
648.266	83.94
648.471	88.94
648.676	88.94
648.88	91.94
649.085	92.94
649.289	77.94
649.494	84.94
649.698	78.94
649.903	75.94
650.107	102.94
650.312	85.94
650.516	85.94
650.721	90.94
650.925	81.94
651.13	79.94
651.334	87.94
651.539	81.94
651.743	83.94
651.947	85.94
652.152	103.94
652.356	92.94
652.56	84.94
652.764	74.94
652.969	92.94
653.173	90.94
653.377	86.94
653.581	96.94
653.785	91.94
653.99	82.94
654.194	85.94
654.398	82.94
654.602	91.94
654.806	90.94
655.01	94.94
655.214	84.94
655.418	86.94
655.622	67.94
655.826	83.94
656.03	87.94
656.234	92.94
656.438	70.94
656.642	83.94
656.846	85.94
657.049	91.94
657.253	78.94
657.457	84.94
657.661	85.94
657.865	94.94
658.068	96.94
658.272	102.94
658.476	80.94
658.68	83.94
658.883	82.94
659.087	79.94
659.291	73.94
659.494	88.94
659.698	92.94
659.901	87.94
660.105	82.94
660.309	86.94
660.512	91.94
660.716	77.94
660.919	81.94
661.123	80.94
661.326	91.94
661.53	88.94
661.733	94.94
661.936	89.94
662.14	91.94
662.343	86.94
662.546	96.94
662.75	97.94
662.953	93.94
663.156	90.94
663.36	88.94
663.563	94.94
663.766	79.94
663.969	89.94
664.173	88.94
664.376	89.94
664.579	94.94
664.782	83.94
664.985	82.94
665.188	73.94
665.391	90.94
665.594	73.94
665.797	82.94
666	80.94
666.203	81.94
666.406	90.94
666.609	94.94
666.812	87.94
667.015	75.94
667.218	82.94
667.421	84.94
667.624	89.94
667.827	86.94
668.03	74.94
668.232	87.94
668.435	84.94
668.638	78.94
668.841	87.94
669.043	88.94
669.246	76.94
669.449	88.94
669.651	86.94
669.854	81.94
670.057	85.94
670.259	92.94
670.462	88.94
670.665	76.94
670.867	95.94
671.07	75.94
671.272	83.94
671.475	78.94
671.677	77.94
671.88	80.94
672.082	88.94
672.284	81.94
672.487	79.94
672.689	87.94
672.892	86.94
