Data from Zn(NO3)2Standard.Agarose3%.GreenCap.LampEnergy10E.O_HRD10591_15-07-41-946.txt Node
Date: Mon Jul 22 15:07:41 EDT 2019
User: cochatt
Spectrometer: HR+D1059
Trigger mode: 1
Integration Time (sec): 1.000000E-1
Scans to average: 1
Electric dark correction enabled: true
Nonlinearity correction enabled: false
Boxcar width: 0
XAxis mode: Wavelengths
Number of Pixels in Spectrum: 2048
>>>>>Begin Spectral Data<<<<<
223.165	-15.94
223.4	-15.94
223.635	-15.94
223.869	-15.94
224.104	-10.94
224.338	-13.94
224.573	-11.94
224.808	-5.94
225.042	-12.94
225.277	-10.94
225.511	-12.94
225.746	1.06
225.98	3.06
226.215	16.06
226.449	19.06
226.683	11.06
226.918	33.06
227.152	28.06
227.387	38.06
227.621	43.06
227.856	47.06
228.09	47.06
228.324	45.06
228.559	56.06
228.793	55.06
229.027	54.06
229.262	58.06
229.496	72.06
229.73	82.06
229.964	77.06
230.199	80.06
230.433	78.06
230.667	89.06
230.901	69.06
231.136	74.06
231.37	80.06
231.604	79.06
231.838	79.06
232.072	74.06
232.306	68.06
232.541	77.06
232.775	77.06
233.009	87.06
233.243	76.06
233.477	63.06
233.711	76.06
233.945	64.06
234.179	79.06
234.413	100.06
234.647	87.06
234.881	82.06
235.115	82.06
235.349	63.06
235.583	76.06
235.817	73.06
236.051	77.06
236.285	70.06
236.519	86.06
236.753	74.06
236.987	74.06
237.221	88.06
237.455	72.06
237.689	79.06
237.922	86.06
238.156	84.06
238.39	73.06
238.624	96.06
238.858	68.06
239.091	89.06
239.325	76.06
239.559	74.06
239.793	68.06
240.027	88.06
240.26	78.06
240.494	89.06
240.728	77.06
240.961	82.06
241.195	81.06
241.429	70.06
241.662	64.06
241.896	83.06
242.13	83.06
242.363	76.06
242.597	74.06
242.83	77.06
243.064	83.06
243.298	67.06
243.531	72.06
243.765	82.06
243.998	78.06
244.232	81.06
244.465	85.06
244.699	78.06
244.932	76.06
245.166	72.06
245.399	77.06
245.633	75.06
245.866	69.06
246.099	89.06
246.333	77.06
246.566	74.06
246.8	71.06
247.033	86.06
247.266	76.06
247.5	79.06
247.733	86.06
247.966	88.06
248.2	77.06
248.433	77.06
248.666	85.06
248.899	88.06
249.133	75.06
249.366	73.06
249.599	90.06
249.832	81.06
250.066	85.06
250.299	93.06
250.532	88.06
250.765	88.06
250.998	99.06
251.231	76.06
251.465	79.06
251.698	86.06
251.931	72.06
252.164	70.06
252.397	82.06
252.63	95.06
252.863	86.06
253.096	88.06
253.329	74.06
253.562	79.06
253.795	70.06
254.028	79.06
254.261	83.06
254.494	78.06
254.727	82.06
254.96	78.06
255.193	97.06
255.426	87.06
255.659	85.06
255.892	80.06
256.124	76.06
256.357	78.06
256.59	89.06
256.823	79.06
257.056	84.06
257.289	91.06
257.521	90.06
257.754	65.06
257.987	84.06
258.22	83.06
258.452	82.06
258.685	62.06
258.918	89.06
259.151	81.06
259.383	86.06
259.616	64.06
259.849	78.06
260.081	74.06
260.314	75.06
260.547	79.06
260.779	70.06
261.012	79.06
261.244	92.06
261.477	104.06
261.71	78.06
261.942	86.06
262.175	86.06
262.407	82.06
262.64	81.06
262.872	87.06
263.105	84.06
263.337	83.06
263.57	86.06
263.802	96.06
264.035	97.06
264.267	89.06
264.499	83.06
264.732	86.06
264.964	78.06
265.197	93.06
265.429	78.06
265.661	84.06
265.894	86.06
266.126	93.06
266.358	85.06
266.591	86.06
266.823	98.06
267.055	77.06
267.287	91.06
267.52	78.06
267.752	82.06
267.984	80.06
268.216	90.06
268.448	86.06
268.681	86.06
268.913	90.06
269.145	83.06
269.377	84.06
269.609	85.06
269.841	74.06
270.073	72.06
270.306	62.06
270.538	76.06
270.77	83.06
271.002	86.06
271.234	81.06
271.466	74.06
271.698	72.06
271.93	86.06
272.162	77.06
272.394	93.06
272.626	76.06
272.858	79.06
273.09	79.06
273.322	89.06
273.553	84.06
273.785	67.06
274.017	89.06
274.249	82.06
274.481	91.06
274.713	75.06
274.945	95.06
275.176	94.06
275.408	96.06
275.64	102.06
275.872	87.06
276.104	78.06
276.335	91.06
276.567	79.06
276.799	90.06
277.031	92.06
277.262	88.06
277.494	86.06
277.726	93.06
277.957	83.06
278.189	96.06
278.421	79.06
278.652	90.06
278.884	83.06
279.115	97.06
279.347	98.06
279.579	77.06
279.81	82.06
280.042	74.06
280.273	92.06
280.505	69.06
280.736	70.06
280.968	84.06
281.199	87.06
281.431	95.06
281.662	84.06
281.894	84.06
282.125	92.06
282.356	92.06
282.588	88.06
282.819	89.06
283.051	87.06
283.282	98.06
283.513	88.06
283.745	77.06
283.976	81.06
284.207	92.06
284.439	91.06
284.67	89.06
284.901	79.06
285.132	86.06
285.364	109.06
285.595	98.06
285.826	94.06
286.057	91.06
286.288	92.06
286.52	91.06
286.751	89.06
286.982	85.06
287.213	73.06
287.444	80.06
287.675	92.06
287.906	81.06
288.138	83.06
288.369	78.06
288.6	94.06
288.831	89.06
289.062	80.06
289.293	77.06
289.524	96.06
289.755	82.06
289.986	91.06
290.217	81.06
290.448	87.06
290.679	90.06
290.91	82.06
291.141	72.06
291.371	76.06
291.602	90.06
291.833	100.06
292.064	90.06
292.295	89.06
292.526	91.06
292.757	71.06
292.987	72.06
293.218	86.06
293.449	78.06
293.68	86.06
293.91	82.06
294.141	67.06
294.372	87.06
294.603	76.06
294.833	76.06
295.064	84.06
295.295	94.06
295.525	72.06
295.756	84.06
295.987	93.06
296.217	93.06
296.448	84.06
296.679	87.06
296.909	73.06
297.14	82.06
297.37	84.06
297.601	87.06
297.831	81.06
298.062	85.06
298.292	85.06
298.523	84.06
298.753	89.06
298.984	91.06
299.214	87.06
299.445	81.06
299.675	79.06
299.905	80.06
300.136	98.06
300.366	85.06
300.597	85.06
300.827	91.06
301.057	91.06
301.288	76.06
301.518	77.06
301.748	69.06
301.979	90.06
302.209	90.06
302.439	82.06
302.669	92.06
302.9	80.06
303.13	104.06
303.36	97.06
303.59	79.06
303.82	87.06
304.051	88.06
304.281	93.06
304.511	91.06
304.741	84.06
304.971	87.06
305.201	81.06
305.431	87.06
305.661	83.06
305.891	96.06
306.121	103.06
306.352	101.06
306.582	83.06
306.812	92.06
307.042	91.06
307.272	78.06
307.502	80.06
307.731	85.06
307.961	107.06
308.191	101.06
308.421	103.06
308.651	91.06
308.881	86.06
309.111	85.06
309.341	91.06
309.571	82.06
309.8	89.06
310.03	88.06
310.26	88.06
310.49	93.06
310.72	85.06
310.949	91.06
311.179	86.06
311.409	73.06
311.639	92.06
311.868	100.06
312.098	91.06
312.328	92.06
312.557	103.06
312.787	73.06
313.017	89.06
313.246	84.06
313.476	85.06
313.706	77.06
313.935	78.06
314.165	84.06
314.394	94.06
314.624	81.06
314.853	97.06
315.083	83.06
315.312	88.06
315.542	93.06
315.771	92.06
316.001	73.06
316.23	82.06
316.46	86.06
316.689	85.06
316.919	97.06
317.148	84.06
317.377	92.06
317.607	90.06
317.836	82.06
318.065	93.06
318.295	85.06
318.524	81.06
318.753	92.06
318.983	88.06
319.212	90.06
319.441	88.06
319.67	84.06
319.9	84.06
320.129	80.06
320.358	82.06
320.587	63.06
320.816	99.06
321.046	72.06
321.275	97.06
321.504	92.06
321.733	87.06
321.962	76.06
322.191	89.06
322.42	75.06
322.649	94.06
322.878	96.06
323.108	84.06
323.337	66.06
323.566	84.06
323.795	83.06
324.024	77.06
324.253	83.06
324.482	70.06
324.71	77.06
324.939	106.06
325.168	103.06
325.397	88.06
325.626	90.06
325.855	98.06
326.084	85.06
326.313	100.06
326.542	87.06
326.77	100.06
326.999	86.06
327.228	91.06
327.457	88.06
327.686	82.06
327.914	83.06
328.143	87.06
328.372	81.06
328.6	106.06
328.829	96.06
329.058	89.06
329.287	90.06
329.515	93.06
329.744	97.06
329.972	98.06
330.201	87.06
330.43	88.06
330.658	86.06
330.887	99.06
331.115	91.06
331.344	85.06
331.572	75.06
331.801	78.06
332.03	76.06
332.258	79.06
332.486	90.06
332.715	88.06
332.943	91.06
333.172	69.06
333.4	98.06
333.629	84.06
333.857	87.06
334.085	77.06
334.314	70.06
334.542	96.06
334.771	81.06
334.999	88.06
335.227	88.06
335.455	81.06
335.684	84.06
335.912	90.06
336.14	78.06
336.369	74.06
336.597	85.06
336.825	82.06
337.053	77.06
337.281	93.06
337.51	106.06
337.738	83.06
337.966	80.06
338.194	90.06
338.422	80.06
338.65	87.06
338.878	98.06
339.106	92.06
339.334	103.06
339.562	102.06
339.79	79.06
340.018	86.06
340.246	84.06
340.474	87.06
340.702	101.06
340.93	87.06
341.158	79.06
341.386	92.06
341.614	73.06
341.842	97.06
342.07	86.06
342.298	101.06
342.526	90.06
342.754	93.06
342.981	88.06
343.209	93.06
343.437	76.06
343.665	79.06
343.893	84.06
344.12	70.06
344.348	84.06
344.576	84.06
344.804	85.06
345.031	86.06
345.259	75.06
345.487	81.06
345.714	79.06
345.942	101.06
346.17	83.06
346.397	84.06
346.625	86.06
346.853	86.06
347.08	96.06
347.308	99.06
347.535	83.06
347.763	95.06
347.99	86.06
348.218	92.06
348.445	86.06
348.673	104.06
348.9	90.06
349.128	90.06
349.355	83.06
349.583	107.06
349.81	79.06
350.037	89.06
350.265	80.06
350.492	83.06
350.72	89.06
350.947	91.06
351.174	94.06
351.402	95.06
351.629	96.06
351.856	87.06
352.083	79.06
352.311	95.06
352.538	80.06
352.765	100.06
352.992	87.06
353.22	86.06
353.447	83.06
353.674	84.06
353.901	81.06
354.128	95.06
354.355	76.06
354.583	111.06
354.81	86.06
355.037	90.06
355.264	84.06
355.491	97.06
355.718	80.06
355.945	74.06
356.172	95.06
356.399	80.06
356.626	92.06
356.853	97.06
357.08	79.06
357.307	78.06
357.534	83.06
357.761	80.06
357.988	78.06
358.215	85.06
358.441	85.06
358.668	90.06
358.895	88.06
359.122	84.06
359.349	92.06
359.576	92.06
359.802	88.06
360.029	85.06
360.256	96.06
360.483	88.06
360.709	89.06
360.936	98.06
361.163	79.06
361.39	81.06
361.616	75.06
361.843	84.06
362.07	67.06
362.296	69.06
362.523	90.06
362.749	87.06
362.976	106.06
363.203	96.06
363.429	85.06
363.656	90.06
363.882	79.06
364.109	94.06
364.335	87.06
364.562	93.06
364.788	75.06
365.015	85.06
365.241	83.06
365.468	80.06
365.694	88.06
365.92	89.06
366.147	85.06
366.373	93.06
366.599	85.06
366.826	89.06
367.052	94.06
367.278	98.06
367.505	99.06
367.731	88.06
367.957	90.06
368.184	101.06
368.41	97.06
368.636	82.06
368.862	86.06
369.089	88.06
369.315	71.06
369.541	77.06
369.767	76.06
369.993	90.06
370.219	75.06
370.445	85.06
370.672	87.06
370.898	87.06
371.124	92.06
371.35	90.06
371.576	98.06
371.802	99.06
372.028	90.06
372.254	75.06
372.48	94.06
372.706	88.06
372.932	79.06
373.158	101.06
373.384	94.06
373.61	108.06
373.835	86.06
374.061	85.06
374.287	101.06
374.513	86.06
374.739	94.06
374.965	98.06
375.191	78.06
375.416	89.06
375.642	95.06
375.868	91.06
376.094	85.06
376.319	105.06
376.545	77.06
376.771	102.06
376.997	94.06
377.222	83.06
377.448	90.06
377.674	86.06
377.899	91.06
378.125	83.06
378.35	70.06
378.576	93.06
378.802	98.06
379.027	99.06
379.253	97.06
379.478	90.06
379.704	95.06
379.929	91.06
380.155	87.06
380.38	89.06
380.606	87.06
380.831	88.06
381.057	86.06
381.282	89.06
381.507	88.06
381.733	82.06
381.958	87.06
382.184	91.06
382.409	84.06
382.634	93.06
382.86	89.06
383.085	99.06
383.31	92.06
383.535	101.06
383.761	86.06
383.986	91.06
384.211	92.06
384.436	89.06
384.662	94.06
384.887	88.06
385.112	87.06
385.337	91.06
385.562	89.06
385.787	79.06
386.013	105.06
386.238	98.06
386.463	83.06
386.688	95.06
386.913	99.06
387.138	80.06
387.363	88.06
387.588	99.06
387.813	94.06
388.038	91.06
388.263	82.06
388.488	81.06
388.713	102.06
388.938	109.06
389.163	84.06
389.387	98.06
389.612	91.06
389.837	84.06
390.062	91.06
390.287	93.06
390.512	95.06
390.736	92.06
390.961	90.06
391.186	90.06
391.411	95.06
391.636	86.06
391.86	73.06
392.085	86.06
392.31	84.06
392.534	101.06
392.759	101.06
392.984	107.06
393.208	94.06
393.433	114.06
393.658	89.06
393.882	101.06
394.107	85.06
394.331	101.06
394.556	102.06
394.78	94.06
395.005	93.06
395.229	90.06
395.454	91.06
395.678	84.06
395.903	86.06
396.127	99.06
396.352	96.06
396.576	95.06
396.801	100.06
397.025	94.06
397.249	93.06
397.474	100.06
397.698	98.06
397.922	92.06
398.147	93.06
398.371	99.06
398.595	83.06
398.82	97.06
399.044	99.06
399.268	101.06
399.492	107.06
399.717	101.06
399.941	92.06
400.165	104.06
400.389	95.06
400.613	108.06
400.837	94.06
401.062	90.06
401.286	96.06
401.51	102.06
401.734	86.06
401.958	81.06
402.182	97.06
402.406	87.06
402.63	104.06
402.854	95.06
403.078	81.06
403.302	93.06
403.526	91.06
403.75	102.06
403.974	98.06
404.198	99.06
404.422	97.06
404.645	93.06
404.869	95.06
405.093	108.06
405.317	105.06
405.541	98.06
405.765	96.06
405.988	101.06
406.212	98.06
406.436	106.06
406.66	95.06
406.883	112.06
407.107	110.06
407.331	102.06
407.555	109.06
407.778	104.06
408.002	86.06
408.226	92.06
408.449	114.06
408.673	94.06
408.896	110.06
409.12	92.06
409.344	86.06
409.567	91.06
409.791	93.06
410.014	99.06
410.238	101.06
410.461	105.06
410.685	102.06
410.908	108.06
411.132	96.06
411.355	95.06
411.578	108.06
411.802	112.06
412.025	100.06
412.249	97.06
412.472	107.06
412.695	103.06
412.919	106.06
413.142	120.06
413.365	82.06
413.589	103.06
413.812	102.06
414.035	112.06
414.258	92.06
414.482	102.06
414.705	107.06
414.928	99.06
415.151	97.06
415.374	111.06
415.597	108.06
415.821	117.06
416.044	103.06
416.267	96.06
416.49	102.06
416.713	104.06
416.936	94.06
417.159	118.06
417.382	107.06
417.605	100.06
417.828	117.06
418.051	94.06
418.274	117.06
418.497	107.06
418.72	97.06
418.943	105.06
419.166	93.06
419.389	116.06
419.611	118.06
419.834	114.06
420.057	121.06
420.28	110.06
420.503	109.06
420.726	91.06
420.948	106.06
421.171	98.06
421.394	110.06
421.617	114.06
421.839	111.06
422.062	110.06
422.285	107.06
422.507	100.06
422.73	99.06
422.953	112.06
423.175	107.06
423.398	114.06
423.621	108.06
423.843	108.06
424.066	106.06
424.288	92.06
424.511	115.06
424.733	116.06
424.956	124.06
425.178	111.06
425.401	119.06
425.623	100.06
425.846	87.06
426.068	109.06
426.291	109.06
426.513	104.06
426.735	110.06
426.958	94.06
427.18	123.06
427.402	115.06
427.625	116.06
427.847	115.06
428.069	101.06
428.292	99.06
428.514	104.06
428.736	108.06
428.958	111.06
429.181	102.06
429.403	103.06
429.625	116.06
429.847	101.06
430.069	101.06
430.292	127.06
430.514	109.06
430.736	103.06
430.958	104.06
431.18	107.06
431.402	99.06
431.624	84.06
431.846	89.06
432.068	84.06
432.29	83.06
432.512	109.06
432.734	112.06
432.956	109.06
433.178	114.06
433.4	116.06
433.622	105.06
433.844	120.06
434.066	106.06
434.287	102.06
434.509	93.06
434.731	95.06
434.953	87.06
435.175	112.06
435.397	101.06
435.618	112.06
435.84	92.06
436.062	95.06
436.284	98.06
436.505	103.06
436.727	100.06
436.949	115.06
437.17	108.06
437.392	94.06
437.614	106.06
437.835	97.06
438.057	100.06
438.278	79.06
438.5	108.06
438.721	111.06
438.943	116.06
439.165	108.06
439.386	110.06
439.608	104.06
439.829	112.06
440.05	108.06
440.272	116.06
440.493	111.06
440.715	120.06
440.936	102.06
441.158	98.06
441.379	131.06
441.6	108.06
441.822	104.06
442.043	103.06
442.264	104.06
442.486	105.06
442.707	110.06
442.928	110.06
443.149	114.06
443.371	107.06
443.592	91.06
443.813	96.06
444.034	99.06
444.255	107.06
444.476	109.06
444.698	115.06
444.919	118.06
445.14	233.06
445.361	170.06
445.582	122.06
445.803	95.06
446.024	99.06
446.245	108.06
446.466	110.06
446.687	126.06
446.908	119.06
447.129	118.06
447.35	106.06
447.571	97.06
447.792	118.06
448.013	101.06
448.234	112.06
448.455	109.06
448.675	110.06
448.896	107.06
449.117	120.06
449.338	89.06
449.559	103.06
449.779	101.06
450	109.06
450.221	108.06
450.442	118.06
450.662	116.06
450.883	108.06
451.104	101.06
451.324	98.06
451.545	107.06
451.766	114.06
451.986	92.06
452.207	98.06
452.428	103.06
452.648	92.06
452.869	100.06
453.089	104.06
453.31	103.06
453.53	96.06
453.751	93.06
453.971	80.06
454.192	96.06
454.412	97.06
454.633	109.06
454.853	106.06
455.073	91.06
455.294	92.06
455.514	91.06
455.734	104.06
455.955	91.06
456.175	91.06
456.395	96.06
456.616	107.06
456.836	92.06
457.056	94.06
457.276	101.06
457.497	93.06
457.717	89.06
457.937	103.06
458.157	105.06
458.377	97.06
458.598	85.06
458.818	87.06
459.038	77.06
459.258	87.06
459.478	88.06
459.698	80.06
459.918	93.06
460.138	93.06
460.358	102.06
460.578	77.06
460.798	92.06
461.018	102.06
461.238	93.06
461.458	89.06
461.678	91.06
461.898	115.06
462.118	116.06
462.338	102.06
462.558	110.06
462.777	89.06
462.997	99.06
463.217	82.06
463.437	88.06
463.657	91.06
463.876	113.06
464.096	107.06
464.316	96.06
464.536	103.06
464.755	89.06
464.975	79.06
465.195	92.06
465.414	111.06
465.634	103.06
465.854	99.06
466.073	102.06
466.293	94.06
466.512	104.06
466.732	117.06
466.951	104.06
467.171	95.06
467.391	105.06
467.61	102.06
467.829	102.06
468.049	102.06
468.268	108.06
468.488	120.06
468.707	106.06
468.927	120.06
469.146	117.06
469.365	116.06
469.585	96.06
469.804	130.06
470.023	115.06
470.243	113.06
470.462	122.06
470.681	111.06
470.901	122.06
471.12	107.06
471.339	111.06
471.558	121.06
471.777	128.06
471.997	104.06
472.216	99.06
472.435	105.06
472.654	93.06
472.873	91.06
473.092	115.06
473.311	105.06
473.53	108.06
473.749	112.06
473.968	103.06
474.187	99.06
474.406	100.06
474.625	105.06
474.844	104.06
475.063	118.06
475.282	111.06
475.501	99.06
475.72	114.06
475.939	118.06
476.158	114.06
476.377	104.06
476.596	96.06
476.814	97.06
477.033	108.06
477.252	107.06
477.471	105.06
477.69	124.06
477.908	120.06
478.127	115.06
478.346	108.06
478.564	122.06
478.783	94.06
479.002	116.06
479.22	110.06
479.439	123.06
479.658	94.06
479.876	92.06
480.095	80.06
480.313	106.06
480.532	105.06
480.751	102.06
480.969	93.06
481.188	95.06
481.406	71.06
481.624	88.06
481.843	74.06
482.061	70.06
482.28	98.06
482.498	112.06
482.717	97.06
482.935	94.06
483.153	112.06
483.372	107.06
483.59	113.06
483.808	114.06
484.027	107.06
484.245	110.06
484.463	113.06
484.681	133.06
484.9	110.06
485.118	124.06
485.336	84.06
485.554	90.06
485.772	98.06
485.99	101.06
486.209	105.06
486.427	106.06
486.645	106.06
486.863	93.06
487.081	105.06
487.299	123.06
487.517	108.06
487.735	130.06
487.953	140.06
488.171	138.06
488.389	119.06
488.607	127.06
488.825	110.06
489.043	104.06
489.261	116.06
489.479	110.06
489.696	120.06
489.914	114.06
490.132	125.06
490.35	120.06
490.568	124.06
490.786	114.06
491.003	120.06
491.221	127.06
491.439	138.06
491.657	144.06
491.874	126.06
492.092	165.06
492.31	164.06
492.527	144.06
492.745	150.06
492.963	154.06
493.18	133.06
493.398	127.06
493.615	118.06
493.833	138.06
494.05	127.06
494.268	124.06
494.485	118.06
494.703	126.06
494.92	112.06
495.138	131.06
495.355	119.06
495.573	138.06
495.79	129.06
496.008	123.06
496.225	122.06
496.442	111.06
496.66	135.06
496.877	136.06
497.094	122.06
497.312	116.06
497.529	129.06
497.746	128.06
497.963	111.06
498.181	107.06
498.398	116.06
498.615	103.06
498.832	107.06
499.049	96.06
499.267	117.06
499.484	102.06
499.701	105.06
499.918	107.06
500.135	116.06
500.352	126.06
500.569	120.06
500.786	108.06
501.003	117.06
501.22	104.06
501.437	107.06
501.654	101.06
501.871	127.06
502.088	116.06
502.305	106.06
502.522	89.06
502.739	99.06
502.956	117.06
503.172	113.06
503.389	107.06
503.606	105.06
503.823	111.06
504.04	110.06
504.256	110.06
504.473	92.06
504.69	99.06
504.907	106.06
505.123	97.06
505.34	94.06
505.557	110.06
505.773	110.06
505.99	100.06
506.207	100.06
506.423	116.06
506.64	103.06
506.856	107.06
507.073	97.06
507.289	95.06
507.506	106.06
507.722	90.06
507.939	94.06
508.155	105.06
508.372	105.06
508.588	91.06
508.805	114.06
509.021	91.06
509.238	93.06
509.454	87.06
509.67	98.06
509.887	89.06
510.103	82.06
510.319	84.06
510.536	83.06
510.752	100.06
510.968	89.06
511.184	92.06
511.401	91.06
511.617	86.06
511.833	85.06
512.049	81.06
512.265	87.06
512.481	94.06
512.698	91.06
512.914	89.06
513.13	90.06
513.346	98.06
513.562	89.06
513.778	86.06
513.994	82.06
514.21	101.06
514.426	104.06
514.642	100.06
514.858	89.06
515.074	87.06
515.29	96.06
515.506	82.06
515.721	91.06
515.937	90.06
516.153	81.06
516.369	91.06
516.585	93.06
516.801	89.06
517.016	78.06
517.232	85.06
517.448	75.06
517.664	85.06
517.879	86.06
518.095	87.06
518.311	91.06
518.527	86.06
518.742	90.06
518.958	91.06
519.173	86.06
519.389	101.06
519.605	89.06
519.82	84.06
520.036	102.06
520.251	87.06
520.467	113.06
520.682	97.06
520.898	79.06
521.113	86.06
521.329	86.06
521.544	83.06
521.76	78.06
521.975	78.06
522.19	74.06
522.406	103.06
522.621	94.06
522.836	98.06
523.052	100.06
523.267	102.06
523.482	107.06
523.698	94.06
523.913	104.06
524.128	103.06
524.343	117.06
524.559	108.06
524.774	110.06
524.989	107.06
525.204	102.06
525.419	110.06
525.634	102.06
525.849	81.06
526.064	94.06
526.28	98.06
526.495	90.06
526.71	87.06
526.925	97.06
527.14	95.06
527.355	88.06
527.57	93.06
527.785	87.06
527.999	88.06
528.214	94.06
528.429	92.06
528.644	107.06
528.859	121.06
529.074	112.06
529.289	122.06
529.503	124.06
529.718	121.06
529.933	103.06
530.148	102.06
530.363	88.06
530.577	82.06
530.792	83.06
531.007	71.06
531.221	73.06
531.436	84.06
531.651	84.06
531.865	90.06
532.08	85.06
532.295	87.06
532.509	80.06
532.724	65.06
532.938	84.06
533.153	94.06
533.367	106.06
533.582	112.06
533.796	96.06
534.011	88.06
534.225	81.06
534.44	88.06
534.654	83.06
534.868	96.06
535.083	98.06
535.297	123.06
535.511	90.06
535.726	103.06
535.94	108.06
536.154	87.06
536.369	83.06
536.583	94.06
536.797	88.06
537.011	94.06
537.225	85.06
537.44	84.06
537.654	86.06
537.868	86.06
538.082	91.06
538.296	97.06
538.51	107.06
538.724	109.06
538.938	118.06
539.153	109.06
539.367	122.06
539.581	95.06
539.795	94.06
540.009	94.06
540.222	86.06
540.436	87.06
540.65	110.06
540.864	112.06
541.078	122.06
541.292	144.06
541.506	129.06
541.72	114.06
541.934	112.06
542.147	124.06
542.361	131.06
542.575	128.06
542.789	114.06
543.002	105.06
543.216	116.06
543.43	105.06
543.644	118.06
543.857	107.06
544.071	132.06
544.285	130.06
544.498	122.06
544.712	113.06
544.925	123.06
545.139	123.06
545.352	115.06
545.566	122.06
545.779	132.06
545.993	124.06
546.206	126.06
546.42	118.06
546.633	115.06
546.847	130.06
547.06	123.06
547.274	126.06
547.487	134.06
547.7	132.06
547.914	120.06
548.127	130.06
548.34	118.06
548.554	117.06
548.767	123.06
548.98	130.06
549.193	134.06
549.407	120.06
549.62	126.06
549.833	126.06
550.046	140.06
550.259	106.06
550.473	126.06
550.686	123.06
550.899	115.06
551.112	120.06
551.325	97.06
551.538	107.06
551.751	100.06
551.964	105.06
552.177	122.06
552.39	122.06
552.603	123.06
552.816	122.06
553.029	105.06
553.242	111.06
553.455	117.06
553.667	121.06
553.88	139.06
554.093	126.06
554.306	123.06
554.519	128.06
554.732	118.06
554.944	124.06
555.157	106.06
555.37	112.06
555.583	109.06
555.795	124.06
556.008	102.06
556.221	115.06
556.433	122.06
556.646	110.06
556.859	114.06
557.071	120.06
557.284	100.06
557.496	114.06
557.709	119.06
557.921	127.06
558.134	117.06
558.346	121.06
558.559	118.06
558.771	124.06
558.984	117.06
559.196	117.06
559.409	105.06
559.621	106.06
559.833	105.06
560.046	93.06
560.258	97.06
560.47	101.06
560.683	98.06
560.895	90.06
561.107	109.06
561.32	107.06
561.532	104.06
561.744	111.06
561.956	98.06
562.168	114.06
562.381	96.06
562.593	102.06
562.805	105.06
563.017	92.06
563.229	111.06
563.441	98.06
563.653	93.06
563.865	102.06
564.077	113.06
564.289	116.06
564.501	100.06
564.713	110.06
564.925	103.06
565.137	93.06
565.349	117.06
565.561	107.06
565.773	103.06
565.985	106.06
566.197	110.06
566.408	111.06
566.62	119.06
566.832	111.06
567.044	100.06
567.255	103.06
567.467	100.06
567.679	95.06
567.891	100.06
568.102	108.06
568.314	86.06
568.526	94.06
568.737	95.06
568.949	89.06
569.161	95.06
569.372	95.06
569.584	89.06
569.795	80.06
570.007	88.06
570.218	86.06
570.43	86.06
570.641	90.06
570.853	89.06
571.064	93.06
571.276	91.06
571.487	106.06
571.698	98.06
571.91	113.06
572.121	100.06
572.333	89.06
572.544	101.06
572.755	90.06
572.966	103.06
573.178	88.06
573.389	83.06
573.6	84.06
573.811	89.06
574.023	91.06
574.234	80.06
574.445	79.06
574.656	102.06
574.867	96.06
575.078	88.06
575.289	95.06
575.501	95.06
575.712	64.06
575.923	96.06
576.134	88.06
576.345	89.06
576.556	80.06
576.767	93.06
576.978	87.06
577.188	102.06
577.399	85.06
577.61	82.06
577.821	93.06
578.032	94.06
578.243	77.06
578.454	99.06
578.665	79.06
578.875	92.06
579.086	93.06
579.297	90.06
579.508	80.06
579.718	79.06
579.929	85.06
580.14	88.06
580.35	88.06
580.561	90.06
580.772	79.06
580.982	86.06
581.193	84.06
581.403	105.06
581.614	96.06
581.825	91.06
582.035	87.06
582.246	79.06
582.456	87.06
582.667	104.06
582.877	83.06
583.087	83.06
583.298	106.06
583.508	87.06
583.719	79.06
583.929	91.06
584.139	80.06
584.35	76.06
584.56	100.06
584.77	96.06
584.981	81.06
585.191	85.06
585.401	69.06
585.611	94.06
585.821	91.06
586.032	86.06
586.242	74.06
586.452	74.06
586.662	72.06
586.872	93.06
587.082	80.06
587.292	98.06
587.502	92.06
587.713	90.06
587.923	80.06
588.133	86.06
588.343	91.06
588.553	82.06
588.762	87.06
588.972	89.06
589.182	70.06
589.392	86.06
589.602	81.06
589.812	88.06
590.022	86.06
590.232	72.06
590.441	95.06
590.651	79.06
590.861	75.06
591.071	96.06
591.281	90.06
591.49	82.06
591.7	79.06
591.91	84.06
592.119	93.06
592.329	101.06
592.539	87.06
592.748	90.06
592.958	87.06
593.167	80.06
593.377	78.06
593.587	96.06
593.796	92.06
594.006	84.06
594.215	92.06
594.424	114.06
594.634	94.06
594.843	87.06
595.053	97.06
595.262	80.06
595.472	94.06
595.681	80.06
595.89	99.06
596.1	88.06
596.309	87.06
596.518	87.06
596.727	97.06
596.937	79.06
597.146	90.06
597.355	98.06
597.564	89.06
597.774	91.06
597.983	83.06
598.192	75.06
598.401	94.06
598.61	89.06
598.819	87.06
599.028	91.06
599.237	97.06
599.446	96.06
599.655	90.06
599.864	94.06
600.073	83.06
600.282	88.06
600.491	108.06
600.7	95.06
600.909	92.06
601.118	109.06
601.327	94.06
601.536	90.06
601.745	96.06
601.953	82.06
602.162	96.06
602.371	98.06
602.58	102.06
602.789	91.06
602.997	112.06
603.206	95.06
603.415	95.06
603.623	110.06
603.832	98.06
604.041	95.06
604.249	88.06
604.458	91.06
604.666	106.06
604.875	93.06
605.084	83.06
605.292	92.06
605.501	105.06
605.709	93.06
605.918	106.06
606.126	96.06
606.334	110.06
606.543	103.06
606.751	127.06
606.96	100.06
607.168	114.06
607.376	91.06
607.585	105.06
607.793	84.06
608.001	96.06
608.21	106.06
608.418	108.06
608.626	97.06
608.834	97.06
609.043	92.06
609.251	98.06
609.459	102.06
609.667	105.06
609.875	102.06
610.083	102.06
610.291	102.06
610.499	107.06
610.707	104.06
610.916	98.06
611.124	94.06
611.332	107.06
611.54	103.06
611.748	96.06
611.955	91.06
612.163	87.06
612.371	106.06
612.579	89.06
612.787	102.06
612.995	101.06
613.203	101.06
613.411	84.06
613.618	90.06
613.826	105.06
614.034	113.06
614.242	102.06
614.449	106.06
614.657	103.06
614.865	96.06
615.072	117.06
615.28	115.06
615.488	88.06
615.695	103.06
615.903	109.06
616.111	105.06
616.318	110.06
616.526	96.06
616.733	100.06
616.941	103.06
617.148	101.06
617.356	95.06
617.563	104.06
617.771	106.06
617.978	93.06
618.185	109.06
618.393	87.06
618.6	122.06
618.807	116.06
619.015	106.06
619.222	87.06
619.429	111.06
619.637	92.06
619.844	82.06
620.051	94.06
620.258	98.06
620.466	95.06
620.673	98.06
620.88	93.06
621.087	90.06
621.294	103.06
621.501	95.06
621.708	90.06
621.915	85.06
622.122	106.06
622.329	86.06
622.536	91.06
622.743	88.06
622.95	103.06
623.157	92.06
623.364	97.06
623.571	109.06
623.778	93.06
623.985	90.06
624.192	93.06
624.399	97.06
624.606	99.06
624.812	89.06
625.019	101.06
625.226	94.06
625.433	85.06
625.639	89.06
625.846	94.06
626.053	84.06
626.259	99.06
626.466	97.06
626.673	87.06
626.879	92.06
627.086	95.06
627.293	97.06
627.499	102.06
627.706	90.06
627.912	85.06
628.119	93.06
628.325	99.06
628.532	96.06
628.738	78.06
628.945	92.06
629.151	94.06
629.357	104.06
629.564	100.06
629.77	97.06
629.976	80.06
630.183	90.06
630.389	100.06
630.595	91.06
630.802	100.06
631.008	98.06
631.214	95.06
631.42	91.06
631.627	82.06
631.833	91.06
632.039	90.06
632.245	103.06
632.451	96.06
632.657	95.06
632.863	95.06
633.069	100.06
633.275	115.06
633.481	86.06
633.688	90.06
633.893	83.06
634.099	94.06
634.305	97.06
634.511	87.06
634.717	88.06
634.923	89.06
635.129	75.06
635.335	95.06
635.541	89.06
635.747	86.06
635.952	103.06
636.158	88.06
636.364	100.06
636.57	91.06
636.775	105.06
636.981	90.06
637.187	103.06
637.392	104.06
637.598	107.06
637.804	88.06
638.009	100.06
638.215	100.06
638.421	91.06
638.626	109.06
638.832	90.06
639.037	89.06
639.243	90.06
639.448	83.06
639.654	110.06
639.859	97.06
640.065	79.06
640.27	95.06
640.475	92.06
640.681	97.06
640.886	99.06
641.091	86.06
641.297	98.06
641.502	100.06
641.707	110.06
641.913	108.06
642.118	99.06
642.323	91.06
642.528	102.06
642.733	102.06
642.939	114.06
643.144	90.06
643.349	107.06
643.554	105.06
643.759	90.06
643.964	92.06
644.169	96.06
644.374	86.06
644.579	94.06
644.784	96.06
644.989	101.06
645.194	102.06
645.399	87.06
645.604	92.06
645.809	104.06
646.014	98.06
646.219	98.06
646.423	86.06
646.628	94.06
646.833	104.06
647.038	95.06
647.243	113.06
647.447	94.06
647.652	92.06
647.857	95.06
648.062	85.06
648.266	83.06
648.471	75.06
648.676	98.06
648.88	102.06
649.085	95.06
649.289	88.06
649.494	98.06
649.698	87.06
649.903	86.06
650.107	100.06
650.312	100.06
650.516	88.06
650.721	94.06
650.925	95.06
651.13	93.06
651.334	86.06
651.539	92.06
651.743	91.06
651.947	80.06
652.152	98.06
652.356	93.06
652.56	87.06
652.764	101.06
652.969	97.06
653.173	97.06
653.377	97.06
653.581	84.06
653.785	83.06
653.99	94.06
654.194	93.06
654.398	92.06
654.602	94.06
654.806	98.06
655.01	108.06
655.214	91.06
655.418	91.06
655.622	83.06
655.826	102.06
656.03	91.06
656.234	94.06
656.438	88.06
656.642	101.06
656.846	91.06
657.049	79.06
657.253	98.06
657.457	89.06
657.661	95.06
657.865	73.06
658.068	89.06
658.272	102.06
658.476	79.06
658.68	81.06
658.883	82.06
659.087	75.06
659.291	80.06
659.494	85.06
659.698	93.06
659.901	93.06
660.105	80.06
660.309	78.06
660.512	72.06
660.716	92.06
660.919	77.06
661.123	88.06
661.326	89.06
661.53	80.06
661.733	98.06
661.936	94.06
662.14	80.06
662.343	87.06
662.546	80.06
662.75	79.06
662.953	85.06
663.156	85.06
663.36	82.06
663.563	77.06
663.766	79.06
663.969	78.06
664.173	81.06
664.376	75.06
664.579	79.06
664.782	76.06
664.985	74.06
665.188	108.06
665.391	106.06
665.594	99.06
665.797	96.06
666	91.06
666.203	82.06
666.406	80.06
666.609	82.06
666.812	86.06
667.015	79.06
667.218	72.06
667.421	85.06
667.624	74.06
667.827	82.06
668.03	66.06
668.232	84.06
668.435	76.06
668.638	86.06
668.841	84.06
669.043	88.06
669.246	71.06
669.449	95.06
669.651	82.06
669.854	64.06
670.057	83.06
670.259	70.06
670.462	76.06
670.665	95.06
670.867	92.06
671.07	94.06
671.272	85.06
671.475	93.06
671.677	84.06
671.88	90.06
672.082	89.06
672.284	86.06
672.487	87.06
672.689	85.06
672.892	90.06
