Data from Zn(NO3)2Standard.Agarose3%.GreenCap.LampEnergy5.5.E.O_HRD10591_15-02-12-768.txt Node
Date: Mon Jul 22 15:02:12 EDT 2019
User: cochatt
Spectrometer: HR+D1059
Trigger mode: 1
Integration Time (sec): 1.000000E-1
Scans to average: 1
Electric dark correction enabled: true
Nonlinearity correction enabled: false
Boxcar width: 0
XAxis mode: Wavelengths
Number of Pixels in Spectrum: 2048
>>>>>Begin Spectral Data<<<<<
223.165	-6.25
223.4	-6.25
223.635	-6.25
223.869	-24.25
224.104	-27.25
224.338	4.75
224.573	-7.25
224.808	-21.25
225.042	-3.25
225.277	-3.25
225.511	-13.25
225.746	12.75
225.98	0.75
226.215	0.75
226.449	12.75
226.683	21.75
226.918	31.75
227.152	20.75
227.387	33.75
227.621	47.75
227.856	42.75
228.09	28.75
228.324	47.75
228.559	46.75
228.793	50.75
229.027	59.75
229.262	67.75
229.496	71.75
229.73	62.75
229.964	69.75
230.199	65.75
230.433	69.75
230.667	82.75
230.901	90.75
231.136	77.75
231.37	90.75
231.604	77.75
231.838	71.75
232.072	71.75
232.306	86.75
232.541	74.75
232.775	73.75
233.009	80.75
233.243	84.75
233.477	54.75
233.711	80.75
233.945	76.75
234.179	80.75
234.413	83.75
234.647	97.75
234.881	75.75
235.115	71.75
235.349	78.75
235.583	72.75
235.817	79.75
236.051	73.75
236.285	61.75
236.519	70.75
236.753	68.75
236.987	78.75
237.221	78.75
237.455	62.75
237.689	68.75
237.922	80.75
238.156	66.75
238.39	80.75
238.624	73.75
238.858	81.75
239.091	61.75
239.325	52.75
239.559	66.75
239.793	79.75
240.027	73.75
240.26	58.75
240.494	70.75
240.728	69.75
240.961	77.75
241.195	79.75
241.429	78.75
241.662	78.75
241.896	71.75
242.13	74.75
242.363	63.75
242.597	77.75
242.83	69.75
243.064	72.75
243.298	71.75
243.531	68.75
243.765	65.75
243.998	83.75
244.232	65.75
244.465	77.75
244.699	82.75
244.932	73.75
245.166	70.75
245.399	65.75
245.633	74.75
245.866	75.75
246.099	80.75
246.333	68.75
246.566	76.75
246.8	75.75
247.033	85.75
247.266	66.75
247.5	85.75
247.733	80.75
247.966	81.75
248.2	81.75
248.433	80.75
248.666	77.75
248.899	78.75
249.133	83.75
249.366	62.75
249.599	81.75
249.832	67.75
250.066	76.75
250.299	66.75
250.532	72.75
250.765	79.75
250.998	75.75
251.231	73.75
251.465	69.75
251.698	87.75
251.931	85.75
252.164	83.75
252.397	77.75
252.63	67.75
252.863	74.75
253.096	73.75
253.329	74.75
253.562	80.75
253.795	85.75
254.028	81.75
254.261	74.75
254.494	80.75
254.727	73.75
254.96	82.75
255.193	81.75
255.426	73.75
255.659	76.75
255.892	94.75
256.124	58.75
256.357	72.75
256.59	87.75
256.823	78.75
257.056	87.75
257.289	67.75
257.521	63.75
257.754	76.75
257.987	77.75
258.22	88.75
258.452	91.75
258.685	80.75
258.918	66.75
259.151	81.75
259.383	85.75
259.616	88.75
259.849	85.75
260.081	86.75
260.314	76.75
260.547	72.75
260.779	70.75
261.012	86.75
261.244	74.75
261.477	76.75
261.71	74.75
261.942	91.75
262.175	84.75
262.407	80.75
262.64	70.75
262.872	70.75
263.105	60.75
263.337	67.75
263.57	71.75
263.802	71.75
264.035	72.75
264.267	78.75
264.499	82.75
264.732	80.75
264.964	78.75
265.197	77.75
265.429	78.75
265.661	85.75
265.894	84.75
266.126	84.75
266.358	85.75
266.591	71.75
266.823	81.75
267.055	74.75
267.287	56.75
267.52	80.75
267.752	94.75
267.984	72.75
268.216	70.75
268.448	74.75
268.681	80.75
268.913	83.75
269.145	84.75
269.377	65.75
269.609	79.75
269.841	81.75
270.073	77.75
270.306	76.75
270.538	78.75
270.77	85.75
271.002	77.75
271.234	86.75
271.466	78.75
271.698	72.75
271.93	85.75
272.162	85.75
272.394	94.75
272.626	75.75
272.858	58.75
273.09	88.75
273.322	89.75
273.553	84.75
273.785	87.75
274.017	77.75
274.249	92.75
274.481	83.75
274.713	84.75
274.945	90.75
275.176	81.75
275.408	98.75
275.64	73.75
275.872	61.75
276.104	80.75
276.335	85.75
276.567	89.75
276.799	81.75
277.031	74.75
277.262	88.75
277.494	81.75
277.726	83.75
277.957	84.75
278.189	70.75
278.421	84.75
278.652	93.75
278.884	88.75
279.115	78.75
279.347	84.75
279.579	86.75
279.81	79.75
280.042	76.75
280.273	85.75
280.505	56.75
280.736	78.75
280.968	86.75
281.199	85.75
281.431	82.75
281.662	99.75
281.894	79.75
282.125	62.75
282.356	86.75
282.588	81.75
282.819	94.75
283.051	76.75
283.282	81.75
283.513	86.75
283.745	75.75
283.976	81.75
284.207	71.75
284.439	81.75
284.67	84.75
284.901	86.75
285.132	87.75
285.364	88.75
285.595	70.75
285.826	78.75
286.057	86.75
286.288	64.75
286.52	75.75
286.751	73.75
286.982	76.75
287.213	67.75
287.444	83.75
287.675	96.75
287.906	79.75
288.138	94.75
288.369	87.75
288.6	83.75
288.831	92.75
289.062	85.75
289.293	78.75
289.524	71.75
289.755	87.75
289.986	74.75
290.217	72.75
290.448	74.75
290.679	93.75
290.91	87.75
291.141	75.75
291.371	93.75
291.602	78.75
291.833	77.75
292.064	90.75
292.295	76.75
292.526	71.75
292.757	95.75
292.987	83.75
293.218	86.75
293.449	98.75
293.68	91.75
293.91	86.75
294.141	87.75
294.372	81.75
294.603	83.75
294.833	86.75
295.064	97.75
295.295	92.75
295.525	82.75
295.756	64.75
295.987	74.75
296.217	72.75
296.448	89.75
296.679	92.75
296.909	89.75
297.14	87.75
297.37	84.75
297.601	84.75
297.831	69.75
298.062	76.75
298.292	82.75
298.523	93.75
298.753	82.75
298.984	91.75
299.214	82.75
299.445	99.75
299.675	89.75
299.905	81.75
300.136	78.75
300.366	91.75
300.597	89.75
300.827	80.75
301.057	96.75
301.288	74.75
301.518	89.75
301.748	77.75
301.979	80.75
302.209	77.75
302.439	70.75
302.669	72.75
302.9	86.75
303.13	73.75
303.36	90.75
303.59	82.75
303.82	77.75
304.051	96.75
304.281	90.75
304.511	76.75
304.741	88.75
304.971	86.75
305.201	84.75
305.431	76.75
305.661	74.75
305.891	78.75
306.121	78.75
306.352	70.75
306.582	83.75
306.812	83.75
307.042	78.75
307.272	74.75
307.502	92.75
307.731	76.75
307.961	80.75
308.191	90.75
308.421	72.75
308.651	73.75
308.881	87.75
309.111	90.75
309.341	76.75
309.571	91.75
309.8	87.75
310.03	80.75
310.26	89.75
310.49	86.75
310.72	78.75
310.949	96.75
311.179	91.75
311.409	84.75
311.639	80.75
311.868	93.75
312.098	80.75
312.328	80.75
312.557	87.75
312.787	77.75
313.017	74.75
313.246	88.75
313.476	88.75
313.706	80.75
313.935	86.75
314.165	88.75
314.394	71.75
314.624	88.75
314.853	84.75
315.083	73.75
315.312	83.75
315.542	81.75
315.771	59.75
316.001	81.75
316.23	78.75
316.46	63.75
316.689	82.75
316.919	89.75
317.148	94.75
317.377	86.75
317.607	80.75
317.836	80.75
318.065	86.75
318.295	91.75
318.524	82.75
318.753	71.75
318.983	91.75
319.212	95.75
319.441	74.75
319.67	79.75
319.9	82.75
320.129	81.75
320.358	61.75
320.587	76.75
320.816	79.75
321.046	74.75
321.275	77.75
321.504	80.75
321.733	93.75
321.962	94.75
322.191	73.75
322.42	78.75
322.649	83.75
322.878	84.75
323.108	88.75
323.337	94.75
323.566	87.75
323.795	88.75
324.024	80.75
324.253	88.75
324.482	92.75
324.71	82.75
324.939	78.75
325.168	83.75
325.397	71.75
325.626	64.75
325.855	67.75
326.084	90.75
326.313	87.75
326.542	73.75
326.77	88.75
326.999	83.75
327.228	88.75
327.457	72.75
327.686	77.75
327.914	77.75
328.143	91.75
328.372	76.75
328.6	70.75
328.829	76.75
329.058	81.75
329.287	83.75
329.515	85.75
329.744	74.75
329.972	74.75
330.201	85.75
330.43	87.75
330.658	74.75
330.887	92.75
331.115	87.75
331.344	78.75
331.572	93.75
331.801	83.75
332.03	73.75
332.258	75.75
332.486	86.75
332.715	71.75
332.943	78.75
333.172	82.75
333.4	82.75
333.629	80.75
333.857	66.75
334.085	71.75
334.314	78.75
334.542	83.75
334.771	82.75
334.999	83.75
335.227	80.75
335.455	84.75
335.684	87.75
335.912	76.75
336.14	84.75
336.369	86.75
336.597	81.75
336.825	80.75
337.053	87.75
337.281	76.75
337.51	80.75
337.738	76.75
337.966	89.75
338.194	72.75
338.422	97.75
338.65	76.75
338.878	87.75
339.106	90.75
339.334	79.75
339.562	80.75
339.79	77.75
340.018	85.75
340.246	75.75
340.474	84.75
340.702	76.75
340.93	75.75
341.158	75.75
341.386	88.75
341.614	81.75
341.842	77.75
342.07	81.75
342.298	79.75
342.526	77.75
342.754	82.75
342.981	79.75
343.209	77.75
343.437	73.75
343.665	81.75
343.893	77.75
344.12	83.75
344.348	69.75
344.576	73.75
344.804	80.75
345.031	69.75
345.259	72.75
345.487	71.75
345.714	90.75
345.942	89.75
346.17	82.75
346.397	74.75
346.625	85.75
346.853	75.75
347.08	78.75
347.308	83.75
347.535	84.75
347.763	85.75
347.99	84.75
348.218	84.75
348.445	72.75
348.673	73.75
348.9	78.75
349.128	84.75
349.355	82.75
349.583	82.75
349.81	76.75
350.037	84.75
350.265	90.75
350.492	74.75
350.72	65.75
350.947	82.75
351.174	80.75
351.402	65.75
351.629	92.75
351.856	89.75
352.083	82.75
352.311	85.75
352.538	74.75
352.765	84.75
352.992	80.75
353.22	81.75
353.447	66.75
353.674	74.75
353.901	74.75
354.128	90.75
354.355	77.75
354.583	73.75
354.81	85.75
355.037	83.75
355.264	82.75
355.491	79.75
355.718	71.75
355.945	79.75
356.172	64.75
356.399	88.75
356.626	79.75
356.853	83.75
357.08	76.75
357.307	80.75
357.534	76.75
357.761	77.75
357.988	77.75
358.215	80.75
358.441	75.75
358.668	82.75
358.895	64.75
359.122	84.75
359.349	75.75
359.576	71.75
359.802	81.75
360.029	69.75
360.256	76.75
360.483	74.75
360.709	82.75
360.936	93.75
361.163	100.75
361.39	87.75
361.616	87.75
361.843	93.75
362.07	94.75
362.296	83.75
362.523	80.75
362.749	94.75
362.976	79.75
363.203	86.75
363.429	70.75
363.656	74.75
363.882	76.75
364.109	86.75
364.335	84.75
364.562	79.75
364.788	72.75
365.015	66.75
365.241	75.75
365.468	71.75
365.694	77.75
365.92	88.75
366.147	84.75
366.373	74.75
366.599	83.75
366.826	76.75
367.052	61.75
367.278	78.75
367.505	84.75
367.731	68.75
367.957	83.75
368.184	82.75
368.41	81.75
368.636	75.75
368.862	78.75
369.089	87.75
369.315	73.75
369.541	68.75
369.767	86.75
369.993	68.75
370.219	80.75
370.445	73.75
370.672	79.75
370.898	83.75
371.124	74.75
371.35	73.75
371.576	77.75
371.802	77.75
372.028	74.75
372.254	71.75
372.48	82.75
372.706	84.75
372.932	79.75
373.158	89.75
373.384	86.75
373.61	77.75
373.835	73.75
374.061	76.75
374.287	82.75
374.513	74.75
374.739	82.75
374.965	92.75
375.191	72.75
375.416	85.75
375.642	96.75
375.868	93.75
376.094	73.75
376.319	60.75
376.545	80.75
376.771	85.75
376.997	78.75
377.222	86.75
377.448	69.75
377.674	93.75
377.899	76.75
378.125	82.75
378.35	86.75
378.576	88.75
378.802	80.75
379.027	88.75
379.253	82.75
379.478	72.75
379.704	77.75
379.929	80.75
380.155	81.75
380.38	92.75
380.606	82.75
380.831	77.75
381.057	81.75
381.282	85.75
381.507	86.75
381.733	73.75
381.958	102.75
382.184	77.75
382.409	82.75
382.634	82.75
382.86	74.75
383.085	74.75
383.31	75.75
383.535	79.75
383.761	88.75
383.986	76.75
384.211	70.75
384.436	87.75
384.662	77.75
384.887	73.75
385.112	76.75
385.337	84.75
385.562	75.75
385.787	82.75
386.013	101.75
386.238	85.75
386.463	86.75
386.688	72.75
386.913	84.75
387.138	81.75
387.363	77.75
387.588	77.75
387.813	74.75
388.038	74.75
388.263	91.75
388.488	72.75
388.713	79.75
388.938	82.75
389.163	68.75
389.387	86.75
389.612	65.75
389.837	88.75
390.062	81.75
390.287	79.75
390.512	76.75
390.736	81.75
390.961	79.75
391.186	77.75
391.411	65.75
391.636	73.75
391.86	87.75
392.085	88.75
392.31	82.75
392.534	86.75
392.759	62.75
392.984	81.75
393.208	87.75
393.433	80.75
393.658	85.75
393.882	74.75
394.107	85.75
394.331	69.75
394.556	84.75
394.78	69.75
395.005	69.75
395.229	74.75
395.454	94.75
395.678	85.75
395.903	78.75
396.127	82.75
396.352	66.75
396.576	85.75
396.801	90.75
397.025	73.75
397.249	85.75
397.474	82.75
397.698	79.75
397.922	86.75
398.147	77.75
398.371	76.75
398.595	82.75
398.82	90.75
399.044	62.75
399.268	66.75
399.492	79.75
399.717	90.75
399.941	86.75
400.165	80.75
400.389	83.75
400.613	85.75
400.837	77.75
401.062	68.75
401.286	84.75
401.51	66.75
401.734	72.75
401.958	71.75
402.182	87.75
402.406	90.75
402.63	93.75
402.854	79.75
403.078	77.75
403.302	71.75
403.526	88.75
403.75	72.75
403.974	80.75
404.198	92.75
404.422	93.75
404.645	88.75
404.869	77.75
405.093	81.75
405.317	86.75
405.541	81.75
405.765	92.75
405.988	94.75
406.212	75.75
406.436	85.75
406.66	93.75
406.883	76.75
407.107	82.75
407.331	86.75
407.555	88.75
407.778	88.75
408.002	89.75
408.226	94.75
408.449	102.75
408.673	85.75
408.896	93.75
409.12	76.75
409.344	78.75
409.567	68.75
409.791	93.75
410.014	91.75
410.238	94.75
410.461	83.75
410.685	88.75
410.908	90.75
411.132	93.75
411.355	71.75
411.578	64.75
411.802	83.75
412.025	72.75
412.249	75.75
412.472	76.75
412.695	65.75
412.919	74.75
413.142	66.75
413.365	77.75
413.589	85.75
413.812	86.75
414.035	81.75
414.258	69.75
414.482	78.75
414.705	80.75
414.928	95.75
415.151	77.75
415.374	74.75
415.597	76.75
415.821	84.75
416.044	80.75
416.267	98.75
416.49	95.75
416.713	85.75
416.936	69.75
417.159	74.75
417.382	79.75
417.605	96.75
417.828	89.75
418.051	72.75
418.274	86.75
418.497	95.75
418.72	76.75
418.943	83.75
419.166	85.75
419.389	86.75
419.611	90.75
419.834	95.75
420.057	81.75
420.28	89.75
420.503	92.75
420.726	69.75
420.948	64.75
421.171	85.75
421.394	80.75
421.617	95.75
421.839	86.75
422.062	80.75
422.285	100.75
422.507	82.75
422.73	85.75
422.953	80.75
423.175	81.75
423.398	85.75
423.621	89.75
423.843	80.75
424.066	75.75
424.288	73.75
424.511	93.75
424.733	77.75
424.956	91.75
425.178	92.75
425.401	87.75
425.623	71.75
425.846	93.75
426.068	88.75
426.291	89.75
426.513	92.75
426.735	88.75
426.958	82.75
427.18	83.75
427.402	80.75
427.625	81.75
427.847	81.75
428.069	83.75
428.292	93.75
428.514	73.75
428.736	86.75
428.958	89.75
429.181	98.75
429.403	91.75
429.625	82.75
429.847	89.75
430.069	82.75
430.292	84.75
430.514	96.75
430.736	68.75
430.958	81.75
431.18	75.75
431.402	81.75
431.624	84.75
431.846	77.75
432.068	77.75
432.29	78.75
432.512	64.75
432.734	70.75
432.956	85.75
433.178	88.75
433.4	79.75
433.622	88.75
433.844	85.75
434.066	79.75
434.287	72.75
434.509	64.75
434.731	71.75
434.953	93.75
435.175	77.75
435.397	82.75
435.618	77.75
435.84	81.75
436.062	74.75
436.284	87.75
436.505	79.75
436.727	77.75
436.949	80.75
437.17	86.75
437.392	81.75
437.614	76.75
437.835	85.75
438.057	74.75
438.278	79.75
438.5	80.75
438.721	70.75
438.943	82.75
439.165	87.75
439.386	83.75
439.608	91.75
439.829	84.75
440.05	70.75
440.272	85.75
440.493	85.75
440.715	91.75
440.936	92.75
441.158	83.75
441.379	89.75
441.6	81.75
441.822	84.75
442.043	85.75
442.264	87.75
442.486	78.75
442.707	86.75
442.928	105.75
443.149	86.75
443.371	92.75
443.592	92.75
443.813	84.75
444.034	82.75
444.255	88.75
444.476	93.75
444.698	69.75
444.919	91.75
445.14	212.75
445.361	151.75
445.582	78.75
445.803	76.75
446.024	81.75
446.245	84.75
446.466	89.75
446.687	93.75
446.908	96.75
447.129	88.75
447.35	80.75
447.571	86.75
447.792	87.75
448.013	70.75
448.234	99.75
448.455	102.75
448.675	97.75
448.896	79.75
449.117	91.75
449.338	91.75
449.559	80.75
449.779	91.75
450	93.75
450.221	79.75
450.442	88.75
450.662	74.75
450.883	85.75
451.104	97.75
451.324	93.75
451.545	90.75
451.766	89.75
451.986	80.75
452.207	98.75
452.428	76.75
452.648	91.75
452.869	93.75
453.089	86.75
453.31	82.75
453.53	84.75
453.751	67.75
453.971	79.75
454.192	76.75
454.412	85.75
454.633	81.75
454.853	86.75
455.073	101.75
455.294	85.75
455.514	97.75
455.734	100.75
455.955	84.75
456.175	90.75
456.395	93.75
456.616	84.75
456.836	76.75
457.056	89.75
457.276	92.75
457.497	98.75
457.717	77.75
457.937	90.75
458.157	88.75
458.377	74.75
458.598	75.75
458.818	86.75
459.038	89.75
459.258	84.75
459.478	76.75
459.698	77.75
459.918	87.75
460.138	70.75
460.358	79.75
460.578	84.75
460.798	80.75
461.018	88.75
461.238	81.75
461.458	94.75
461.678	87.75
461.898	77.75
462.118	97.75
462.338	92.75
462.558	91.75
462.777	75.75
462.997	73.75
463.217	84.75
463.437	80.75
463.657	72.75
463.876	81.75
464.096	79.75
464.316	82.75
464.536	84.75
464.755	92.75
464.975	82.75
465.195	75.75
465.414	79.75
465.634	85.75
465.854	89.75
466.073	91.75
466.293	90.75
466.512	89.75
466.732	90.75
466.951	83.75
467.171	72.75
467.391	77.75
467.61	84.75
467.829	95.75
468.049	73.75
468.268	77.75
468.488	87.75
468.707	80.75
468.927	85.75
469.146	84.75
469.365	92.75
469.585	74.75
469.804	80.75
470.023	92.75
470.243	91.75
470.462	92.75
470.681	74.75
470.901	86.75
471.12	99.75
471.339	94.75
471.558	98.75
471.777	79.75
471.997	77.75
472.216	81.75
472.435	83.75
472.654	83.75
472.873	88.75
473.092	74.75
473.311	78.75
473.53	86.75
473.749	80.75
473.968	84.75
474.187	98.75
474.406	83.75
474.625	85.75
474.844	91.75
475.063	102.75
475.282	98.75
475.501	89.75
475.72	80.75
475.939	80.75
476.158	87.75
476.377	79.75
476.596	84.75
476.814	80.75
477.033	82.75
477.252	72.75
477.471	78.75
477.69	87.75
477.908	92.75
478.127	94.75
478.346	86.75
478.564	89.75
478.783	94.75
479.002	84.75
479.22	87.75
479.439	77.75
479.658	88.75
479.876	75.75
480.095	76.75
480.313	87.75
480.532	78.75
480.751	67.75
480.969	84.75
481.188	78.75
481.406	82.75
481.624	88.75
481.843	89.75
482.061	77.75
482.28	88.75
482.498	82.75
482.717	95.75
482.935	88.75
483.153	80.75
483.372	80.75
483.59	97.75
483.808	83.75
484.027	72.75
484.245	94.75
484.463	90.75
484.681	92.75
484.9	95.75
485.118	89.75
485.336	77.75
485.554	66.75
485.772	81.75
485.99	85.75
486.209	81.75
486.427	80.75
486.645	92.75
486.863	87.75
487.081	99.75
487.299	86.75
487.517	102.75
487.735	94.75
487.953	83.75
488.171	97.75
488.389	106.75
488.607	85.75
488.825	97.75
489.043	82.75
489.261	70.75
489.479	99.75
489.696	97.75
489.914	94.75
490.132	82.75
490.35	103.75
490.568	87.75
490.786	99.75
491.003	101.75
491.221	93.75
491.439	108.75
491.657	86.75
491.874	99.75
492.092	110.75
492.31	114.75
492.527	98.75
492.745	89.75
492.963	106.75
493.18	88.75
493.398	103.75
493.615	91.75
493.833	96.75
494.05	106.75
494.268	109.75
494.485	83.75
494.703	95.75
494.92	89.75
495.138	80.75
495.355	94.75
495.573	96.75
495.79	93.75
496.008	109.75
496.225	96.75
496.442	101.75
496.66	88.75
496.877	96.75
497.094	92.75
497.312	93.75
497.529	99.75
497.746	88.75
497.963	92.75
498.181	86.75
498.398	90.75
498.615	89.75
498.832	89.75
499.049	77.75
499.267	81.75
499.484	79.75
499.701	77.75
499.918	92.75
500.135	94.75
500.352	86.75
500.569	86.75
500.786	95.75
501.003	96.75
501.22	102.75
501.437	84.75
501.654	90.75
501.871	81.75
502.088	92.75
502.305	90.75
502.522	100.75
502.739	80.75
502.956	87.75
503.172	85.75
503.389	85.75
503.606	85.75
503.823	92.75
504.04	98.75
504.256	80.75
504.473	72.75
504.69	92.75
504.907	99.75
505.123	84.75
505.34	86.75
505.557	85.75
505.773	80.75
505.99	81.75
506.207	86.75
506.423	83.75
506.64	93.75
506.856	74.75
507.073	91.75
507.289	83.75
507.506	98.75
507.722	84.75
507.939	100.75
508.155	88.75
508.372	81.75
508.588	99.75
508.805	78.75
509.021	78.75
509.238	86.75
509.454	106.75
509.67	99.75
509.887	74.75
510.103	75.75
510.319	95.75
510.536	87.75
510.752	65.75
510.968	72.75
511.184	78.75
511.401	82.75
511.617	86.75
511.833	73.75
512.049	80.75
512.265	84.75
512.481	86.75
512.698	82.75
512.914	80.75
513.13	85.75
513.346	92.75
513.562	80.75
513.778	74.75
513.994	73.75
514.21	79.75
514.426	79.75
514.642	86.75
514.858	82.75
515.074	67.75
515.29	82.75
515.506	66.75
515.721	80.75
515.937	61.75
516.153	80.75
516.369	75.75
516.585	91.75
516.801	93.75
517.016	81.75
517.232	74.75
517.448	83.75
517.664	86.75
517.879	98.75
518.095	85.75
518.311	81.75
518.527	85.75
518.742	87.75
518.958	82.75
519.173	101.75
519.389	77.75
519.605	77.75
519.82	71.75
520.036	75.75
520.251	97.75
520.467	76.75
520.682	86.75
520.898	91.75
521.113	84.75
521.329	69.75
521.544	68.75
521.76	79.75
521.975	75.75
522.19	83.75
522.406	71.75
522.621	88.75
522.836	78.75
523.052	83.75
523.267	74.75
523.482	88.75
523.698	88.75
523.913	85.75
524.128	85.75
524.343	85.75
524.559	86.75
524.774	76.75
524.989	92.75
525.204	89.75
525.419	88.75
525.634	85.75
525.849	84.75
526.064	82.75
526.28	91.75
526.495	98.75
526.71	92.75
526.925	90.75
527.14	68.75
527.355	81.75
527.57	80.75
527.785	82.75
527.999	85.75
528.214	84.75
528.429	94.75
528.644	89.75
528.859	99.75
529.074	97.75
529.289	86.75
529.503	69.75
529.718	76.75
529.933	84.75
530.148	92.75
530.363	80.75
530.577	83.75
530.792	69.75
531.007	82.75
531.221	87.75
531.436	86.75
531.651	92.75
531.865	81.75
532.08	97.75
532.295	93.75
532.509	80.75
532.724	80.75
532.938	85.75
533.153	74.75
533.367	79.75
533.582	89.75
533.796	82.75
534.011	88.75
534.225	77.75
534.44	94.75
534.654	90.75
534.868	83.75
535.083	93.75
535.297	76.75
535.511	81.75
535.726	79.75
535.94	69.75
536.154	79.75
536.369	74.75
536.583	81.75
536.797	76.75
537.011	73.75
537.225	81.75
537.44	81.75
537.654	78.75
537.868	74.75
538.082	87.75
538.296	89.75
538.51	94.75
538.724	87.75
538.938	84.75
539.153	88.75
539.367	85.75
539.581	92.75
539.795	83.75
540.009	74.75
540.222	81.75
540.436	100.75
540.65	89.75
540.864	90.75
541.078	87.75
541.292	90.75
541.506	100.75
541.72	98.75
541.934	87.75
542.147	111.75
542.361	112.75
542.575	101.75
542.789	83.75
543.002	86.75
543.216	93.75
543.43	98.75
543.644	89.75
543.857	100.75
544.071	92.75
544.285	99.75
544.498	104.75
544.712	96.75
544.925	98.75
545.139	89.75
545.352	98.75
545.566	102.75
545.779	103.75
545.993	98.75
546.206	108.75
546.42	102.75
546.633	91.75
546.847	117.75
547.06	99.75
547.274	101.75
547.487	100.75
547.7	96.75
547.914	102.75
548.127	88.75
548.34	98.75
548.554	89.75
548.767	108.75
548.98	103.75
549.193	87.75
549.407	99.75
549.62	86.75
549.833	90.75
550.046	92.75
550.259	98.75
550.473	93.75
550.686	98.75
550.899	95.75
551.112	98.75
551.325	84.75
551.538	86.75
551.751	83.75
551.964	84.75
552.177	109.75
552.39	90.75
552.603	106.75
552.816	105.75
553.029	97.75
553.242	102.75
553.455	111.75
553.667	106.75
553.88	104.75
554.093	88.75
554.306	65.75
554.519	84.75
554.732	90.75
554.944	104.75
555.157	97.75
555.37	93.75
555.583	102.75
555.795	97.75
556.008	94.75
556.221	89.75
556.433	97.75
556.646	88.75
556.859	91.75
557.071	94.75
557.284	84.75
557.496	96.75
557.709	94.75
557.921	94.75
558.134	77.75
558.346	79.75
558.559	92.75
558.771	89.75
558.984	95.75
559.196	74.75
559.409	87.75
559.621	82.75
559.833	95.75
560.046	95.75
560.258	89.75
560.47	94.75
560.683	85.75
560.895	74.75
561.107	89.75
561.32	100.75
561.532	80.75
561.744	84.75
561.956	101.75
562.168	90.75
562.381	82.75
562.593	84.75
562.805	84.75
563.017	102.75
563.229	79.75
563.441	88.75
563.653	98.75
563.865	85.75
564.077	90.75
564.289	97.75
564.501	104.75
564.713	80.75
564.925	83.75
565.137	93.75
565.349	95.75
565.561	94.75
565.773	88.75
565.985	85.75
566.197	72.75
566.408	83.75
566.62	85.75
566.832	92.75
567.044	96.75
567.255	89.75
567.467	89.75
567.679	79.75
567.891	80.75
568.102	97.75
568.314	74.75
568.526	74.75
568.737	84.75
568.949	74.75
569.161	85.75
569.372	87.75
569.584	83.75
569.795	79.75
570.007	68.75
570.218	85.75
570.43	82.75
570.641	81.75
570.853	79.75
571.064	82.75
571.276	76.75
571.487	77.75
571.698	84.75
571.91	89.75
572.121	83.75
572.333	97.75
572.544	88.75
572.755	85.75
572.966	77.75
573.178	95.75
573.389	91.75
573.6	66.75
573.811	81.75
574.023	83.75
574.234	82.75
574.445	88.75
574.656	86.75
574.867	83.75
575.078	71.75
575.289	76.75
575.501	98.75
575.712	80.75
575.923	90.75
576.134	88.75
576.345	83.75
576.556	77.75
576.767	85.75
576.978	87.75
577.188	77.75
577.399	82.75
577.61	94.75
577.821	81.75
578.032	93.75
578.243	90.75
578.454	85.75
578.665	77.75
578.875	74.75
579.086	80.75
579.297	74.75
579.508	77.75
579.718	92.75
579.929	87.75
580.14	85.75
580.35	70.75
580.561	66.75
580.772	88.75
580.982	82.75
581.193	91.75
581.403	98.75
581.614	93.75
581.825	78.75
582.035	74.75
582.246	79.75
582.456	81.75
582.667	64.75
582.877	80.75
583.087	88.75
583.298	86.75
583.508	94.75
583.719	90.75
583.929	86.75
584.139	74.75
584.35	79.75
584.56	86.75
584.77	89.75
584.981	78.75
585.191	78.75
585.401	77.75
585.611	80.75
585.821	84.75
586.032	71.75
586.242	89.75
586.452	94.75
586.662	76.75
586.872	74.75
587.082	84.75
587.292	71.75
587.502	87.75
587.713	87.75
587.923	85.75
588.133	81.75
588.343	85.75
588.553	81.75
588.762	71.75
588.972	81.75
589.182	82.75
589.392	79.75
589.602	82.75
589.812	82.75
590.022	85.75
590.232	74.75
590.441	71.75
590.651	78.75
590.861	76.75
591.071	93.75
591.281	88.75
591.49	86.75
591.7	83.75
591.91	73.75
592.119	76.75
592.329	80.75
592.539	74.75
592.748	68.75
592.958	73.75
593.167	85.75
593.377	72.75
593.587	92.75
593.796	95.75
594.006	77.75
594.215	98.75
594.424	85.75
594.634	85.75
594.843	83.75
595.053	75.75
595.262	84.75
595.472	77.75
595.681	87.75
595.89	80.75
596.1	79.75
596.309	80.75
596.518	92.75
596.727	74.75
596.937	99.75
597.146	89.75
597.355	87.75
597.564	83.75
597.774	86.75
597.983	88.75
598.192	77.75
598.401	98.75
598.61	88.75
598.819	70.75
599.028	85.75
599.237	86.75
599.446	85.75
599.655	84.75
599.864	86.75
600.073	91.75
600.282	76.75
600.491	81.75
600.7	86.75
600.909	84.75
601.118	75.75
601.327	94.75
601.536	103.75
601.745	90.75
601.953	94.75
602.162	98.75
602.371	86.75
602.58	84.75
602.789	83.75
602.997	84.75
603.206	97.75
603.415	81.75
603.623	103.75
603.832	93.75
604.041	84.75
604.249	84.75
604.458	95.75
604.666	82.75
604.875	90.75
605.084	89.75
605.292	84.75
605.501	86.75
605.709	85.75
605.918	86.75
606.126	93.75
606.334	88.75
606.543	93.75
606.751	103.75
606.96	83.75
607.168	77.75
607.376	79.75
607.585	87.75
607.793	83.75
608.001	85.75
608.21	86.75
608.418	80.75
608.626	85.75
608.834	84.75
609.043	94.75
609.251	91.75
609.459	88.75
609.667	84.75
609.875	77.75
610.083	85.75
610.291	53.75
610.499	80.75
610.707	88.75
610.916	85.75
611.124	79.75
611.332	82.75
611.54	81.75
611.748	88.75
611.955	100.75
612.163	98.75
612.371	95.75
612.579	88.75
612.787	95.75
612.995	93.75
613.203	84.75
613.411	90.75
613.618	89.75
613.826	82.75
614.034	67.75
614.242	96.75
614.449	92.75
614.657	82.75
614.865	84.75
615.072	78.75
615.28	89.75
615.488	78.75
615.695	74.75
615.903	69.75
616.111	86.75
616.318	99.75
616.526	85.75
616.733	93.75
616.941	80.75
617.148	82.75
617.356	77.75
617.563	94.75
617.771	67.75
617.978	82.75
618.185	90.75
618.393	96.75
618.6	82.75
618.807	87.75
619.015	90.75
619.222	79.75
619.429	78.75
619.637	90.75
619.844	94.75
620.051	94.75
620.258	84.75
620.466	93.75
620.673	71.75
620.88	84.75
621.087	67.75
621.294	92.75
621.501	71.75
621.708	90.75
621.915	94.75
622.122	95.75
622.329	78.75
622.536	102.75
622.743	79.75
622.95	76.75
623.157	88.75
623.364	92.75
623.571	84.75
623.778	87.75
623.985	76.75
624.192	73.75
624.399	94.75
624.606	100.75
624.812	100.75
625.019	86.75
625.226	92.75
625.433	90.75
625.639	81.75
625.846	91.75
626.053	73.75
626.259	78.75
626.466	77.75
626.673	88.75
626.879	86.75
627.086	85.75
627.293	82.75
627.499	92.75
627.706	86.75
627.912	81.75
628.119	89.75
628.325	88.75
628.532	80.75
628.738	79.75
628.945	81.75
629.151	89.75
629.357	85.75
629.564	84.75
629.77	87.75
629.976	87.75
630.183	87.75
630.389	82.75
630.595	92.75
630.802	90.75
631.008	84.75
631.214	76.75
631.42	78.75
631.627	89.75
631.833	86.75
632.039	73.75
632.245	80.75
632.451	80.75
632.657	68.75
632.863	83.75
633.069	82.75
633.275	100.75
633.481	84.75
633.688	84.75
633.893	75.75
634.099	95.75
634.305	93.75
634.511	69.75
634.717	69.75
634.923	70.75
635.129	93.75
635.335	72.75
635.541	86.75
635.747	81.75
635.952	82.75
636.158	85.75
636.364	67.75
636.57	81.75
636.775	86.75
636.981	79.75
637.187	81.75
637.392	74.75
637.598	78.75
637.804	68.75
638.009	94.75
638.215	79.75
638.421	93.75
638.626	84.75
638.832	93.75
639.037	81.75
639.243	85.75
639.448	97.75
639.654	102.75
639.859	79.75
640.065	86.75
640.27	74.75
640.475	98.75
640.681	76.75
640.886	70.75
641.091	88.75
641.297	87.75
641.502	80.75
641.707	91.75
641.913	85.75
642.118	82.75
642.323	90.75
642.528	89.75
642.733	88.75
642.939	92.75
643.144	97.75
643.349	95.75
643.554	98.75
643.759	88.75
643.964	82.75
644.169	97.75
644.374	68.75
644.579	78.75
644.784	78.75
644.989	72.75
645.194	90.75
645.399	96.75
645.604	76.75
645.809	83.75
646.014	87.75
646.219	96.75
646.423	88.75
646.628	80.75
646.833	87.75
647.038	71.75
647.243	84.75
647.447	86.75
647.652	86.75
647.857	89.75
648.062	75.75
648.266	74.75
648.471	84.75
648.676	85.75
648.88	70.75
649.085	90.75
649.289	85.75
649.494	82.75
649.698	85.75
649.903	65.75
650.107	82.75
650.312	83.75
650.516	78.75
650.721	92.75
650.925	78.75
651.13	86.75
651.334	78.75
651.539	69.75
651.743	72.75
651.947	77.75
652.152	78.75
652.356	86.75
652.56	88.75
652.764	84.75
652.969	77.75
653.173	78.75
653.377	92.75
653.581	81.75
653.785	85.75
653.99	79.75
654.194	71.75
654.398	83.75
654.602	77.75
654.806	82.75
655.01	80.75
655.214	83.75
655.418	90.75
655.622	85.75
655.826	82.75
656.03	85.75
656.234	91.75
656.438	83.75
656.642	91.75
656.846	91.75
657.049	88.75
657.253	85.75
657.457	88.75
657.661	82.75
657.865	89.75
658.068	74.75
658.272	89.75
658.476	73.75
658.68	67.75
658.883	85.75
659.087	79.75
659.291	79.75
659.494	74.75
659.698	86.75
659.901	77.75
660.105	78.75
660.309	80.75
660.512	89.75
660.716	94.75
660.919	86.75
661.123	96.75
661.326	79.75
661.53	76.75
661.733	78.75
661.936	84.75
662.14	82.75
662.343	81.75
662.546	68.75
662.75	78.75
662.953	73.75
663.156	64.75
663.36	77.75
663.563	68.75
663.766	82.75
663.969	73.75
664.173	86.75
664.376	73.75
664.579	67.75
664.782	90.75
664.985	88.75
665.188	74.75
665.391	85.75
665.594	76.75
665.797	87.75
666	78.75
666.203	81.75
666.406	83.75
666.609	80.75
666.812	66.75
667.015	88.75
667.218	84.75
667.421	60.75
667.624	92.75
667.827	75.75
668.03	83.75
668.232	82.75
668.435	81.75
668.638	74.75
668.841	84.75
669.043	82.75
669.246	84.75
669.449	70.75
669.651	75.75
669.854	91.75
670.057	74.75
670.259	80.75
670.462	72.75
670.665	72.75
670.867	88.75
671.07	81.75
671.272	91.75
671.475	81.75
671.677	75.75
671.88	79.75
672.082	98.75
672.284	66.75
672.487	74.75
672.689	78.75
672.892	85.75
