Data from Zn(NO3)2Standard.Agarose3%.GreenCap.LampEnergy10E.O_HRD10591_15-07-15-944.txt Node
Date: Mon Jul 22 15:07:15 EDT 2019
User: cochatt
Spectrometer: HR+D1059
Trigger mode: 1
Integration Time (sec): 1.000000E-1
Scans to average: 1
Electric dark correction enabled: true
Nonlinearity correction enabled: false
Boxcar width: 0
XAxis mode: Wavelengths
Number of Pixels in Spectrum: 2048
>>>>>Begin Spectral Data<<<<<
223.165	-8.31
223.4	-8.31
223.635	-8.31
223.869	-18.31
224.104	-20.31
224.338	-11.31
224.573	-14.31
224.808	-6.31
225.042	-3.31
225.277	-13.31
225.511	0.69
225.746	8.69
225.98	-0.31
226.215	16.69
226.449	13.69
226.683	17.69
226.918	6.69
227.152	31.69
227.387	34.69
227.621	45.69
227.856	51.69
228.09	35.69
228.324	53.69
228.559	48.69
228.793	50.69
229.027	63.69
229.262	60.69
229.496	62.69
229.73	76.69
229.964	76.69
230.199	77.69
230.433	67.69
230.667	77.69
230.901	76.69
231.136	79.69
231.37	78.69
231.604	84.69
231.838	89.69
232.072	74.69
232.306	76.69
232.541	83.69
232.775	93.69
233.009	73.69
233.243	85.69
233.477	80.69
233.711	90.69
233.945	93.69
234.179	88.69
234.413	77.69
234.647	67.69
234.881	72.69
235.115	87.69
235.349	70.69
235.583	80.69
235.817	78.69
236.051	83.69
236.285	80.69
236.519	93.69
236.753	75.69
236.987	80.69
237.221	74.69
237.455	94.69
237.689	81.69
237.922	75.69
238.156	93.69
238.39	78.69
238.624	71.69
238.858	76.69
239.091	82.69
239.325	66.69
239.559	82.69
239.793	63.69
240.027	90.69
240.26	75.69
240.494	65.69
240.728	77.69
240.961	74.69
241.195	74.69
241.429	89.69
241.662	86.69
241.896	92.69
242.13	63.69
242.363	75.69
242.597	68.69
242.83	78.69
243.064	98.69
243.298	87.69
243.531	88.69
243.765	83.69
243.998	71.69
244.232	82.69
244.465	81.69
244.699	92.69
244.932	78.69
245.166	68.69
245.399	81.69
245.633	91.69
245.866	81.69
246.099	77.69
246.333	69.69
246.566	92.69
246.8	76.69
247.033	83.69
247.266	70.69
247.5	82.69
247.733	79.69
247.966	76.69
248.2	66.69
248.433	64.69
248.666	71.69
248.899	73.69
249.133	78.69
249.366	89.69
249.599	79.69
249.832	79.69
250.066	85.69
250.299	75.69
250.532	73.69
250.765	100.69
250.998	81.69
251.231	74.69
251.465	59.69
251.698	75.69
251.931	84.69
252.164	81.69
252.397	85.69
252.63	78.69
252.863	74.69
253.096	70.69
253.329	82.69
253.562	82.69
253.795	84.69
254.028	85.69
254.261	84.69
254.494	87.69
254.727	84.69
254.96	87.69
255.193	81.69
255.426	87.69
255.659	77.69
255.892	85.69
256.124	79.69
256.357	94.69
256.59	85.69
256.823	80.69
257.056	82.69
257.289	86.69
257.521	82.69
257.754	94.69
257.987	83.69
258.22	70.69
258.452	80.69
258.685	94.69
258.918	94.69
259.151	90.69
259.383	91.69
259.616	78.69
259.849	68.69
260.081	74.69
260.314	88.69
260.547	96.69
260.779	103.69
261.012	81.69
261.244	75.69
261.477	87.69
261.71	88.69
261.942	74.69
262.175	99.69
262.407	83.69
262.64	74.69
262.872	82.69
263.105	94.69
263.337	79.69
263.57	76.69
263.802	71.69
264.035	89.69
264.267	91.69
264.499	92.69
264.732	96.69
264.964	89.69
265.197	79.69
265.429	63.69
265.661	75.69
265.894	86.69
266.126	84.69
266.358	65.69
266.591	78.69
266.823	88.69
267.055	88.69
267.287	70.69
267.52	87.69
267.752	83.69
267.984	87.69
268.216	83.69
268.448	90.69
268.681	76.69
268.913	86.69
269.145	73.69
269.377	98.69
269.609	70.69
269.841	87.69
270.073	67.69
270.306	75.69
270.538	77.69
270.77	87.69
271.002	86.69
271.234	76.69
271.466	91.69
271.698	80.69
271.93	90.69
272.162	86.69
272.394	78.69
272.626	72.69
272.858	75.69
273.09	74.69
273.322	94.69
273.553	70.69
273.785	82.69
274.017	77.69
274.249	84.69
274.481	105.69
274.713	85.69
274.945	91.69
275.176	76.69
275.408	93.69
275.64	81.69
275.872	90.69
276.104	87.69
276.335	86.69
276.567	89.69
276.799	81.69
277.031	90.69
277.262	85.69
277.494	98.69
277.726	98.69
277.957	81.69
278.189	86.69
278.421	78.69
278.652	87.69
278.884	89.69
279.115	81.69
279.347	88.69
279.579	79.69
279.81	94.69
280.042	90.69
280.273	94.69
280.505	75.69
280.736	79.69
280.968	75.69
281.199	100.69
281.431	93.69
281.662	87.69
281.894	84.69
282.125	83.69
282.356	85.69
282.588	89.69
282.819	78.69
283.051	74.69
283.282	86.69
283.513	72.69
283.745	66.69
283.976	79.69
284.207	102.69
284.439	90.69
284.67	89.69
284.901	76.69
285.132	77.69
285.364	85.69
285.595	85.69
285.826	84.69
286.057	87.69
286.288	96.69
286.52	87.69
286.751	74.69
286.982	80.69
287.213	84.69
287.444	103.69
287.675	82.69
287.906	83.69
288.138	93.69
288.369	86.69
288.6	86.69
288.831	77.69
289.062	80.69
289.293	87.69
289.524	85.69
289.755	85.69
289.986	97.69
290.217	86.69
290.448	79.69
290.679	87.69
290.91	93.69
291.141	86.69
291.371	91.69
291.602	74.69
291.833	76.69
292.064	94.69
292.295	92.69
292.526	110.69
292.757	78.69
292.987	78.69
293.218	93.69
293.449	101.69
293.68	85.69
293.91	73.69
294.141	87.69
294.372	81.69
294.603	80.69
294.833	93.69
295.064	96.69
295.295	86.69
295.525	82.69
295.756	92.69
295.987	95.69
296.217	95.69
296.448	90.69
296.679	81.69
296.909	78.69
297.14	90.69
297.37	84.69
297.601	86.69
297.831	85.69
298.062	90.69
298.292	84.69
298.523	78.69
298.753	85.69
298.984	79.69
299.214	92.69
299.445	95.69
299.675	80.69
299.905	74.69
300.136	82.69
300.366	83.69
300.597	97.69
300.827	89.69
301.057	77.69
301.288	82.69
301.518	93.69
301.748	88.69
301.979	87.69
302.209	81.69
302.439	84.69
302.669	74.69
302.9	77.69
303.13	87.69
303.36	93.69
303.59	76.69
303.82	75.69
304.051	100.69
304.281	81.69
304.511	97.69
304.741	84.69
304.971	93.69
305.201	74.69
305.431	83.69
305.661	84.69
305.891	81.69
306.121	84.69
306.352	90.69
306.582	91.69
306.812	94.69
307.042	81.69
307.272	65.69
307.502	94.69
307.731	83.69
307.961	94.69
308.191	88.69
308.421	90.69
308.651	86.69
308.881	84.69
309.111	93.69
309.341	71.69
309.571	70.69
309.8	98.69
310.03	91.69
310.26	76.69
310.49	71.69
310.72	86.69
310.949	79.69
311.179	90.69
311.409	75.69
311.639	84.69
311.868	73.69
312.098	74.69
312.328	86.69
312.557	82.69
312.787	87.69
313.017	77.69
313.246	93.69
313.476	85.69
313.706	68.69
313.935	88.69
314.165	83.69
314.394	70.69
314.624	81.69
314.853	91.69
315.083	89.69
315.312	89.69
315.542	99.69
315.771	81.69
316.001	83.69
316.23	94.69
316.46	80.69
316.689	90.69
316.919	88.69
317.148	97.69
317.377	84.69
317.607	77.69
317.836	87.69
318.065	88.69
318.295	87.69
318.524	82.69
318.753	95.69
318.983	91.69
319.212	81.69
319.441	89.69
319.67	90.69
319.9	89.69
320.129	86.69
320.358	89.69
320.587	82.69
320.816	78.69
321.046	85.69
321.275	80.69
321.504	96.69
321.733	85.69
321.962	88.69
322.191	93.69
322.42	84.69
322.649	79.69
322.878	85.69
323.108	99.69
323.337	84.69
323.566	82.69
323.795	98.69
324.024	82.69
324.253	87.69
324.482	90.69
324.71	76.69
324.939	91.69
325.168	78.69
325.397	98.69
325.626	90.69
325.855	88.69
326.084	92.69
326.313	78.69
326.542	86.69
326.77	85.69
326.999	79.69
327.228	79.69
327.457	90.69
327.686	106.69
327.914	86.69
328.143	81.69
328.372	91.69
328.6	101.69
328.829	93.69
329.058	92.69
329.287	95.69
329.515	86.69
329.744	80.69
329.972	91.69
330.201	82.69
330.43	83.69
330.658	98.69
330.887	99.69
331.115	99.69
331.344	79.69
331.572	86.69
331.801	89.69
332.03	75.69
332.258	86.69
332.486	80.69
332.715	87.69
332.943	83.69
333.172	86.69
333.4	94.69
333.629	91.69
333.857	82.69
334.085	74.69
334.314	93.69
334.542	85.69
334.771	98.69
334.999	90.69
335.227	82.69
335.455	69.69
335.684	87.69
335.912	75.69
336.14	83.69
336.369	84.69
336.597	91.69
336.825	78.69
337.053	97.69
337.281	99.69
337.51	93.69
337.738	72.69
337.966	84.69
338.194	85.69
338.422	95.69
338.65	83.69
338.878	80.69
339.106	76.69
339.334	97.69
339.562	95.69
339.79	79.69
340.018	89.69
340.246	82.69
340.474	87.69
340.702	83.69
340.93	90.69
341.158	80.69
341.386	84.69
341.614	102.69
341.842	90.69
342.07	88.69
342.298	83.69
342.526	89.69
342.754	83.69
342.981	91.69
343.209	90.69
343.437	90.69
343.665	72.69
343.893	87.69
344.12	83.69
344.348	80.69
344.576	77.69
344.804	91.69
345.031	86.69
345.259	96.69
345.487	86.69
345.714	93.69
345.942	74.69
346.17	82.69
346.397	75.69
346.625	85.69
346.853	83.69
347.08	86.69
347.308	79.69
347.535	92.69
347.763	81.69
347.99	73.69
348.218	85.69
348.445	84.69
348.673	81.69
348.9	95.69
349.128	98.69
349.355	85.69
349.583	75.69
349.81	87.69
350.037	80.69
350.265	85.69
350.492	85.69
350.72	82.69
350.947	95.69
351.174	77.69
351.402	81.69
351.629	76.69
351.856	89.69
352.083	89.69
352.311	84.69
352.538	90.69
352.765	86.69
352.992	100.69
353.22	90.69
353.447	100.69
353.674	99.69
353.901	87.69
354.128	84.69
354.355	95.69
354.583	86.69
354.81	93.69
355.037	81.69
355.264	88.69
355.491	70.69
355.718	87.69
355.945	94.69
356.172	76.69
356.399	86.69
356.626	107.69
356.853	94.69
357.08	83.69
357.307	85.69
357.534	80.69
357.761	87.69
357.988	91.69
358.215	85.69
358.441	88.69
358.668	86.69
358.895	81.69
359.122	70.69
359.349	82.69
359.576	76.69
359.802	86.69
360.029	68.69
360.256	81.69
360.483	88.69
360.709	90.69
360.936	90.69
361.163	96.69
361.39	86.69
361.616	76.69
361.843	87.69
362.07	87.69
362.296	82.69
362.523	77.69
362.749	85.69
362.976	86.69
363.203	108.69
363.429	83.69
363.656	91.69
363.882	83.69
364.109	92.69
364.335	75.69
364.562	78.69
364.788	86.69
365.015	79.69
365.241	85.69
365.468	92.69
365.694	97.69
365.92	76.69
366.147	82.69
366.373	87.69
366.599	83.69
366.826	79.69
367.052	83.69
367.278	83.69
367.505	100.69
367.731	78.69
367.957	86.69
368.184	85.69
368.41	80.69
368.636	91.69
368.862	87.69
369.089	93.69
369.315	79.69
369.541	96.69
369.767	78.69
369.993	83.69
370.219	94.69
370.445	106.69
370.672	86.69
370.898	73.69
371.124	89.69
371.35	88.69
371.576	73.69
371.802	75.69
372.028	87.69
372.254	85.69
372.48	99.69
372.706	84.69
372.932	83.69
373.158	79.69
373.384	83.69
373.61	84.69
373.835	89.69
374.061	76.69
374.287	82.69
374.513	95.69
374.739	89.69
374.965	93.69
375.191	85.69
375.416	82.69
375.642	88.69
375.868	86.69
376.094	93.69
376.319	90.69
376.545	95.69
376.771	85.69
376.997	90.69
377.222	84.69
377.448	67.69
377.674	87.69
377.899	73.69
378.125	66.69
378.35	95.69
378.576	85.69
378.802	94.69
379.027	87.69
379.253	92.69
379.478	96.69
379.704	79.69
379.929	99.69
380.155	86.69
380.38	92.69
380.606	89.69
380.831	83.69
381.057	102.69
381.282	89.69
381.507	86.69
381.733	90.69
381.958	101.69
382.184	102.69
382.409	77.69
382.634	85.69
382.86	99.69
383.085	85.69
383.31	90.69
383.535	93.69
383.761	78.69
383.986	85.69
384.211	88.69
384.436	93.69
384.662	86.69
384.887	86.69
385.112	95.69
385.337	85.69
385.562	87.69
385.787	94.69
386.013	88.69
386.238	107.69
386.463	95.69
386.688	93.69
386.913	102.69
387.138	78.69
387.363	76.69
387.588	101.69
387.813	97.69
388.038	91.69
388.263	89.69
388.488	91.69
388.713	95.69
388.938	97.69
389.163	95.69
389.387	92.69
389.612	90.69
389.837	88.69
390.062	93.69
390.287	76.69
390.512	87.69
390.736	99.69
390.961	91.69
391.186	87.69
391.411	111.69
391.636	101.69
391.86	88.69
392.085	94.69
392.31	98.69
392.534	77.69
392.759	84.69
392.984	93.69
393.208	101.69
393.433	88.69
393.658	92.69
393.882	89.69
394.107	97.69
394.331	93.69
394.556	98.69
394.78	94.69
395.005	103.69
395.229	103.69
395.454	89.69
395.678	82.69
395.903	78.69
396.127	103.69
396.352	92.69
396.576	97.69
396.801	94.69
397.025	89.69
397.249	94.69
397.474	102.69
397.698	89.69
397.922	86.69
398.147	82.69
398.371	107.69
398.595	89.69
398.82	85.69
399.044	88.69
399.268	104.69
399.492	95.69
399.717	96.69
399.941	96.69
400.165	104.69
400.389	89.69
400.613	101.69
400.837	93.69
401.062	101.69
401.286	99.69
401.51	103.69
401.734	105.69
401.958	92.69
402.182	84.69
402.406	101.69
402.63	90.69
402.854	102.69
403.078	109.69
403.302	97.69
403.526	100.69
403.75	97.69
403.974	115.69
404.198	103.69
404.422	101.69
404.645	104.69
404.869	97.69
405.093	101.69
405.317	99.69
405.541	114.69
405.765	104.69
405.988	83.69
406.212	102.69
406.436	108.69
406.66	110.69
406.883	91.69
407.107	92.69
407.331	92.69
407.555	126.69
407.778	107.69
408.002	102.69
408.226	97.69
408.449	90.69
408.673	96.69
408.896	95.69
409.12	102.69
409.344	111.69
409.567	106.69
409.791	95.69
410.014	105.69
410.238	97.69
410.461	88.69
410.685	108.69
410.908	91.69
411.132	117.69
411.355	96.69
411.578	87.69
411.802	114.69
412.025	105.69
412.249	107.69
412.472	105.69
412.695	110.69
412.919	88.69
413.142	103.69
413.365	108.69
413.589	101.69
413.812	109.69
414.035	111.69
414.258	93.69
414.482	109.69
414.705	102.69
414.928	112.69
415.151	105.69
415.374	104.69
415.597	101.69
415.821	99.69
416.044	109.69
416.267	114.69
416.49	93.69
416.713	104.69
416.936	103.69
417.159	105.69
417.382	102.69
417.605	108.69
417.828	115.69
418.051	101.69
418.274	98.69
418.497	109.69
418.72	104.69
418.943	98.69
419.166	122.69
419.389	107.69
419.611	98.69
419.834	106.69
420.057	94.69
420.28	117.69
420.503	108.69
420.726	94.69
420.948	100.69
421.171	115.69
421.394	100.69
421.617	107.69
421.839	113.69
422.062	107.69
422.285	102.69
422.507	110.69
422.73	87.69
422.953	104.69
423.175	114.69
423.398	99.69
423.621	109.69
423.843	108.69
424.066	106.69
424.288	107.69
424.511	114.69
424.733	122.69
424.956	110.69
425.178	113.69
425.401	107.69
425.623	109.69
425.846	114.69
426.068	102.69
426.291	117.69
426.513	117.69
426.735	110.69
426.958	125.69
427.18	106.69
427.402	113.69
427.625	93.69
427.847	102.69
428.069	114.69
428.292	100.69
428.514	110.69
428.736	108.69
428.958	115.69
429.181	106.69
429.403	119.69
429.625	97.69
429.847	114.69
430.069	106.69
430.292	118.69
430.514	93.69
430.736	103.69
430.958	105.69
431.18	113.69
431.402	113.69
431.624	108.69
431.846	103.69
432.068	88.69
432.29	99.69
432.512	105.69
432.734	99.69
432.956	113.69
433.178	114.69
433.4	102.69
433.622	97.69
433.844	126.69
434.066	113.69
434.287	94.69
434.509	86.69
434.731	94.69
434.953	93.69
435.175	102.69
435.397	106.69
435.618	103.69
435.84	97.69
436.062	106.69
436.284	113.69
436.505	100.69
436.727	89.69
436.949	108.69
437.17	104.69
437.392	94.69
437.614	87.69
437.835	97.69
438.057	87.69
438.278	94.69
438.5	99.69
438.721	106.69
438.943	123.69
439.165	109.69
439.386	98.69
439.608	111.69
439.829	123.69
440.05	107.69
440.272	106.69
440.493	116.69
440.715	111.69
440.936	115.69
441.158	119.69
441.379	107.69
441.6	110.69
441.822	114.69
442.043	118.69
442.264	115.69
442.486	113.69
442.707	111.69
442.928	118.69
443.149	119.69
443.371	108.69
443.592	87.69
443.813	105.69
444.034	113.69
444.255	104.69
444.476	108.69
444.698	104.69
444.919	111.69
445.14	231.69
445.361	153.69
445.582	117.69
445.803	118.69
446.024	118.69
446.245	103.69
446.466	121.69
446.687	122.69
446.908	117.69
447.129	116.69
447.35	121.69
447.571	113.69
447.792	120.69
448.013	118.69
448.234	113.69
448.455	107.69
448.675	113.69
448.896	113.69
449.117	107.69
449.338	102.69
449.559	108.69
449.779	105.69
450	106.69
450.221	114.69
450.442	107.69
450.662	123.69
450.883	124.69
451.104	101.69
451.324	107.69
451.545	98.69
451.766	114.69
451.986	100.69
452.207	113.69
452.428	113.69
452.648	101.69
452.869	105.69
453.089	95.69
453.31	110.69
453.53	104.69
453.751	101.69
453.971	79.69
454.192	104.69
454.412	85.69
454.633	104.69
454.853	107.69
455.073	101.69
455.294	87.69
455.514	106.69
455.734	105.69
455.955	102.69
456.175	98.69
456.395	107.69
456.616	87.69
456.836	93.69
457.056	105.69
457.276	108.69
457.497	94.69
457.717	85.69
457.937	96.69
458.157	89.69
458.377	88.69
458.598	102.69
458.818	91.69
459.038	87.69
459.258	91.69
459.478	89.69
459.698	99.69
459.918	97.69
460.138	92.69
460.358	103.69
460.578	103.69
460.798	98.69
461.018	93.69
461.238	99.69
461.458	103.69
461.678	96.69
461.898	107.69
462.118	109.69
462.338	103.69
462.558	95.69
462.777	115.69
462.997	105.69
463.217	93.69
463.437	90.69
463.657	83.69
463.876	105.69
464.096	105.69
464.316	93.69
464.536	104.69
464.755	89.69
464.975	86.69
465.195	95.69
465.414	107.69
465.634	84.69
465.854	117.69
466.073	106.69
466.293	98.69
466.512	105.69
466.732	105.69
466.951	123.69
467.171	102.69
467.391	104.69
467.61	115.69
467.829	117.69
468.049	118.69
468.268	102.69
468.488	119.69
468.707	105.69
468.927	109.69
469.146	111.69
469.365	108.69
469.585	109.69
469.804	108.69
470.023	115.69
470.243	101.69
470.462	106.69
470.681	118.69
470.901	115.69
471.12	125.69
471.339	106.69
471.558	102.69
471.777	124.69
471.997	106.69
472.216	115.69
472.435	113.69
472.654	97.69
472.873	97.69
473.092	104.69
473.311	101.69
473.53	104.69
473.749	96.69
473.968	104.69
474.187	100.69
474.406	94.69
474.625	105.69
474.844	103.69
475.063	116.69
475.282	97.69
475.501	117.69
475.72	100.69
475.939	107.69
476.158	101.69
476.377	118.69
476.596	102.69
476.814	110.69
477.033	102.69
477.252	97.69
477.471	98.69
477.69	104.69
477.908	112.69
478.127	107.69
478.346	115.69
478.564	104.69
478.783	98.69
479.002	100.69
479.22	101.69
479.439	103.69
479.658	98.69
479.876	89.69
480.095	92.69
480.313	98.69
480.532	104.69
480.751	89.69
480.969	94.69
481.188	90.69
481.406	86.69
481.624	87.69
481.843	90.69
482.061	83.69
482.28	103.69
482.498	103.69
482.717	96.69
482.935	111.69
483.153	125.69
483.372	121.69
483.59	110.69
483.808	109.69
484.027	120.69
484.245	119.69
484.463	110.69
484.681	117.69
484.9	117.69
485.118	114.69
485.336	112.69
485.554	107.69
485.772	94.69
485.99	109.69
486.209	91.69
486.427	103.69
486.645	103.69
486.863	117.69
487.081	133.69
487.299	114.69
487.517	97.69
487.735	136.69
487.953	131.69
488.171	131.69
488.389	124.69
488.607	113.69
488.825	107.69
489.043	101.69
489.261	86.69
489.479	118.69
489.696	109.69
489.914	103.69
490.132	116.69
490.35	109.69
490.568	120.69
490.786	123.69
491.003	126.69
491.221	139.69
491.439	142.69
491.657	134.69
491.874	147.69
492.092	138.69
492.31	152.69
492.527	154.69
492.745	152.69
492.963	131.69
493.18	130.69
493.398	137.69
493.615	125.69
493.833	124.69
494.05	124.69
494.268	137.69
494.485	110.69
494.703	132.69
494.92	133.69
495.138	128.69
495.355	148.69
495.573	126.69
495.79	118.69
496.008	121.69
496.225	117.69
496.442	114.69
496.66	129.69
496.877	118.69
497.094	113.69
497.312	134.69
497.529	125.69
497.746	110.69
497.963	103.69
498.181	106.69
498.398	108.69
498.615	110.69
498.832	110.69
499.049	108.69
499.267	99.69
499.484	105.69
499.701	115.69
499.918	114.69
500.135	105.69
500.352	107.69
500.569	118.69
500.786	115.69
501.003	102.69
501.22	124.69
501.437	117.69
501.654	116.69
501.871	118.69
502.088	102.69
502.305	105.69
502.522	124.69
502.739	119.69
502.956	110.69
503.172	105.69
503.389	102.69
503.606	107.69
503.823	102.69
504.04	121.69
504.256	107.69
504.473	98.69
504.69	110.69
504.907	105.69
505.123	110.69
505.34	93.69
505.557	112.69
505.773	109.69
505.99	102.69
506.207	105.69
506.423	100.69
506.64	101.69
506.856	94.69
507.073	95.69
507.289	92.69
507.506	92.69
507.722	94.69
507.939	103.69
508.155	105.69
508.372	105.69
508.588	108.69
508.805	85.69
509.021	94.69
509.238	94.69
509.454	104.69
509.67	60.69
509.887	79.69
510.103	103.69
510.319	105.69
510.536	87.69
510.752	97.69
510.968	85.69
511.184	89.69
511.401	97.69
511.617	95.69
511.833	85.69
512.049	94.69
512.265	91.69
512.481	90.69
512.698	89.69
512.914	98.69
513.13	102.69
513.346	91.69
513.562	72.69
513.778	81.69
513.994	92.69
514.21	86.69
514.426	88.69
514.642	91.69
514.858	86.69
515.074	94.69
515.29	97.69
515.506	74.69
515.721	101.69
515.937	90.69
516.153	77.69
516.369	89.69
516.585	102.69
516.801	99.69
517.016	91.69
517.232	82.69
517.448	78.69
517.664	99.69
517.879	100.69
518.095	86.69
518.311	103.69
518.527	92.69
518.742	85.69
518.958	93.69
519.173	96.69
519.389	94.69
519.605	100.69
519.82	86.69
520.036	83.69
520.251	106.69
520.467	108.69
520.682	92.69
520.898	87.69
521.113	88.69
521.329	91.69
521.544	92.69
521.76	93.69
521.975	92.69
522.19	89.69
522.406	81.69
522.621	98.69
522.836	104.69
523.052	103.69
523.267	99.69
523.482	107.69
523.698	93.69
523.913	102.69
524.128	95.69
524.343	118.69
524.559	105.69
524.774	107.69
524.989	96.69
525.204	103.69
525.419	96.69
525.634	102.69
525.849	94.69
526.064	96.69
526.28	81.69
526.495	82.69
526.71	75.69
526.925	91.69
527.14	85.69
527.355	91.69
527.57	104.69
527.785	85.69
527.999	86.69
528.214	103.69
528.429	94.69
528.644	103.69
528.859	110.69
529.074	110.69
529.289	119.69
529.503	117.69
529.718	102.69
529.933	115.69
530.148	116.69
530.363	100.69
530.577	89.69
530.792	81.69
531.007	79.69
531.221	83.69
531.436	79.69
531.651	88.69
531.865	89.69
532.08	90.69
532.295	85.69
532.509	90.69
532.724	76.69
532.938	88.69
533.153	90.69
533.367	109.69
533.582	102.69
533.796	113.69
534.011	96.69
534.225	86.69
534.44	74.69
534.654	90.69
534.868	85.69
535.083	93.69
535.297	101.69
535.511	113.69
535.726	95.69
535.94	100.69
536.154	87.69
536.369	82.69
536.583	84.69
536.797	91.69
537.011	92.69
537.225	95.69
537.44	101.69
537.654	88.69
537.868	92.69
538.082	79.69
538.296	74.69
538.51	90.69
538.724	99.69
538.938	111.69
539.153	111.69
539.367	104.69
539.581	102.69
539.795	99.69
540.009	96.69
540.222	93.69
540.436	92.69
540.65	106.69
540.864	109.69
541.078	115.69
541.292	114.69
541.506	115.69
541.72	119.69
541.934	124.69
542.147	129.69
542.361	125.69
542.575	114.69
542.789	107.69
543.002	109.69
543.216	102.69
543.43	106.69
543.644	100.69
543.857	126.69
544.071	110.69
544.285	138.69
544.498	120.69
544.712	113.69
544.925	103.69
545.139	105.69
545.352	127.69
545.566	127.69
545.779	114.69
545.993	123.69
546.206	105.69
546.42	123.69
546.633	139.69
546.847	134.69
547.06	129.69
547.274	123.69
547.487	130.69
547.7	139.69
547.914	115.69
548.127	113.69
548.34	137.69
548.554	127.69
548.767	134.69
548.98	134.69
549.193	126.69
549.407	125.69
549.62	133.69
549.833	124.69
550.046	123.69
550.259	131.69
550.473	109.69
550.686	102.69
550.899	113.69
551.112	119.69
551.325	112.69
551.538	110.69
551.751	90.69
551.964	90.69
552.177	107.69
552.39	122.69
552.603	122.69
552.816	115.69
553.029	118.69
553.242	119.69
553.455	119.69
553.667	126.69
553.88	116.69
554.093	109.69
554.306	109.69
554.519	123.69
554.732	106.69
554.944	113.69
555.157	117.69
555.37	111.69
555.583	111.69
555.795	110.69
556.008	128.69
556.221	124.69
556.433	113.69
556.646	109.69
556.859	100.69
557.071	118.69
557.284	107.69
557.496	112.69
557.709	109.69
557.921	124.69
558.134	117.69
558.346	114.69
558.559	111.69
558.771	110.69
558.984	109.69
559.196	119.69
559.409	112.69
559.621	101.69
559.833	97.69
560.046	115.69
560.258	116.69
560.47	116.69
560.683	101.69
560.895	103.69
561.107	109.69
561.32	113.69
561.532	103.69
561.744	97.69
561.956	107.69
562.168	112.69
562.381	101.69
562.593	94.69
562.805	113.69
563.017	113.69
563.229	99.69
563.441	120.69
563.653	118.69
563.865	103.69
564.077	87.69
564.289	105.69
564.501	103.69
564.713	123.69
564.925	119.69
565.137	102.69
565.349	115.69
565.561	116.69
565.773	92.69
565.985	92.69
566.197	95.69
566.408	102.69
566.62	93.69
566.832	95.69
567.044	105.69
567.255	110.69
567.467	99.69
567.679	88.69
567.891	116.69
568.102	100.69
568.314	104.69
568.526	99.69
568.737	91.69
568.949	84.69
569.161	97.69
569.372	92.69
569.584	90.69
569.795	81.69
570.007	89.69
570.218	86.69
570.43	85.69
570.641	82.69
570.853	78.69
571.064	82.69
571.276	95.69
571.487	113.69
571.698	104.69
571.91	87.69
572.121	90.69
572.333	80.69
572.544	79.69
572.755	90.69
572.966	92.69
573.178	87.69
573.389	88.69
573.6	73.69
573.811	76.69
574.023	97.69
574.234	77.69
574.445	89.69
574.656	86.69
574.867	81.69
575.078	91.69
575.289	98.69
575.501	86.69
575.712	82.69
575.923	82.69
576.134	91.69
576.345	85.69
576.556	90.69
576.767	93.69
576.978	98.69
577.188	77.69
577.399	92.69
577.61	93.69
577.821	93.69
578.032	92.69
578.243	94.69
578.454	78.69
578.665	90.69
578.875	86.69
579.086	94.69
579.297	88.69
579.508	89.69
579.718	85.69
579.929	74.69
580.14	99.69
580.35	89.69
580.561	83.69
580.772	96.69
580.982	86.69
581.193	84.69
581.403	92.69
581.614	93.69
581.825	88.69
582.035	85.69
582.246	91.69
582.456	84.69
582.667	84.69
582.877	107.69
583.087	70.69
583.298	85.69
583.508	78.69
583.719	101.69
583.929	96.69
584.139	92.69
584.35	85.69
584.56	93.69
584.77	74.69
584.981	96.69
585.191	78.69
585.401	83.69
585.611	104.69
585.821	85.69
586.032	92.69
586.242	90.69
586.452	75.69
586.662	91.69
586.872	75.69
587.082	76.69
587.292	76.69
587.502	83.69
587.713	91.69
587.923	89.69
588.133	88.69
588.343	94.69
588.553	89.69
588.762	99.69
588.972	86.69
589.182	89.69
589.392	81.69
589.602	82.69
589.812	98.69
590.022	81.69
590.232	91.69
590.441	87.69
590.651	84.69
590.861	85.69
591.071	75.69
591.281	86.69
591.49	91.69
591.7	87.69
591.91	85.69
592.119	81.69
592.329	83.69
592.539	87.69
592.748	74.69
592.958	74.69
593.167	88.69
593.377	89.69
593.587	85.69
593.796	94.69
594.006	84.69
594.215	83.69
594.424	71.69
594.634	84.69
594.843	89.69
595.053	77.69
595.262	83.69
595.472	102.69
595.681	70.69
595.89	98.69
596.1	94.69
596.309	86.69
596.518	99.69
596.727	85.69
596.937	93.69
597.146	91.69
597.355	75.69
597.564	84.69
597.774	95.69
597.983	87.69
598.192	93.69
598.401	78.69
598.61	95.69
598.819	87.69
599.028	98.69
599.237	102.69
599.446	85.69
599.655	103.69
599.864	90.69
600.073	92.69
600.282	92.69
600.491	106.69
600.7	97.69
600.909	77.69
601.118	90.69
601.327	108.69
601.536	99.69
601.745	110.69
601.953	90.69
602.162	102.69
602.371	108.69
602.58	99.69
602.789	90.69
602.997	107.69
603.206	105.69
603.415	100.69
603.623	108.69
603.832	100.69
604.041	97.69
604.249	93.69
604.458	101.69
604.666	79.69
604.875	89.69
605.084	103.69
605.292	94.69
605.501	93.69
605.709	94.69
605.918	84.69
606.126	106.69
606.334	100.69
606.543	87.69
606.751	94.69
606.96	100.69
607.168	100.69
607.376	103.69
607.585	105.69
607.793	86.69
608.001	97.69
608.21	106.69
608.418	97.69
608.626	93.69
608.834	92.69
609.043	99.69
609.251	100.69
609.459	98.69
609.667	91.69
609.875	101.69
610.083	113.69
610.291	106.69
610.499	108.69
610.707	99.69
610.916	99.69
611.124	100.69
611.332	102.69
611.54	101.69
611.748	92.69
611.955	98.69
612.163	95.69
612.371	87.69
612.579	80.69
612.787	107.69
612.995	90.69
613.203	104.69
613.411	90.69
613.618	79.69
613.826	97.69
614.034	109.69
614.242	104.69
614.449	108.69
614.657	101.69
614.865	110.69
615.072	97.69
615.28	97.69
615.488	91.69
615.695	105.69
615.903	101.69
616.111	112.69
616.318	101.69
616.526	105.69
616.733	99.69
616.941	94.69
617.148	84.69
617.356	103.69
617.563	95.69
617.771	92.69
617.978	94.69
618.185	97.69
618.393	91.69
618.6	103.69
618.807	102.69
619.015	92.69
619.222	102.69
619.429	88.69
619.637	99.69
619.844	88.69
620.051	99.69
620.258	104.69
620.466	96.69
620.673	99.69
620.88	84.69
621.087	117.69
621.294	103.69
621.501	87.69
621.708	110.69
621.915	103.69
622.122	104.69
622.329	87.69
622.536	102.69
622.743	110.69
622.95	92.69
623.157	111.69
623.364	106.69
623.571	100.69
623.778	113.69
623.985	108.69
624.192	94.69
624.399	96.69
624.606	91.69
624.812	102.69
625.019	104.69
625.226	94.69
625.433	102.69
625.639	92.69
625.846	93.69
626.053	84.69
626.259	67.69
626.466	101.69
626.673	84.69
626.879	98.69
627.086	100.69
627.293	89.69
627.499	105.69
627.706	99.69
627.912	93.69
628.119	107.69
628.325	124.69
628.532	85.69
628.738	98.69
628.945	88.69
629.151	90.69
629.357	82.69
629.564	94.69
629.77	99.69
629.976	97.69
630.183	80.69
630.389	89.69
630.595	93.69
630.802	89.69
631.008	85.69
631.214	98.69
631.42	85.69
631.627	95.69
631.833	90.69
632.039	94.69
632.245	86.69
632.451	94.69
632.657	101.69
632.863	83.69
633.069	90.69
633.275	97.69
633.481	89.69
633.688	99.69
633.893	102.69
634.099	103.69
634.305	90.69
634.511	99.69
634.717	97.69
634.923	91.69
635.129	95.69
635.335	106.69
635.541	79.69
635.747	90.69
635.952	94.69
636.158	105.69
636.364	94.69
636.57	98.69
636.775	107.69
636.981	101.69
637.187	79.69
637.392	72.69
637.598	89.69
637.804	95.69
638.009	106.69
638.215	90.69
638.421	83.69
638.626	106.69
638.832	90.69
639.037	83.69
639.243	101.69
639.448	95.69
639.654	102.69
639.859	110.69
640.065	92.69
640.27	87.69
640.475	93.69
640.681	91.69
640.886	84.69
641.091	89.69
641.297	91.69
641.502	91.69
641.707	93.69
641.913	100.69
642.118	91.69
642.323	93.69
642.528	87.69
642.733	93.69
642.939	84.69
643.144	97.69
643.349	91.69
643.554	99.69
643.759	113.69
643.964	102.69
644.169	92.69
644.374	82.69
644.579	88.69
644.784	92.69
644.989	103.69
645.194	94.69
645.399	103.69
645.604	97.69
645.809	86.69
646.014	87.69
646.219	73.69
646.423	73.69
646.628	83.69
646.833	93.69
647.038	103.69
647.243	93.69
647.447	94.69
647.652	95.69
647.857	102.69
648.062	91.69
648.266	91.69
648.471	94.69
648.676	76.69
648.88	84.69
649.085	85.69
649.289	99.69
649.494	97.69
649.698	96.69
649.903	93.69
650.107	92.69
650.312	96.69
650.516	91.69
650.721	87.69
650.925	102.69
651.13	93.69
651.334	86.69
651.539	80.69
651.743	96.69
651.947	95.69
652.152	86.69
652.356	83.69
652.56	106.69
652.764	95.69
652.969	97.69
653.173	79.69
653.377	77.69
653.581	93.69
653.785	94.69
653.99	100.69
654.194	101.69
654.398	85.69
654.602	85.69
654.806	85.69
655.01	99.69
655.214	95.69
655.418	93.69
655.622	93.69
655.826	87.69
656.03	90.69
656.234	91.69
656.438	85.69
656.642	80.69
656.846	100.69
657.049	90.69
657.253	102.69
657.457	76.69
657.661	74.69
657.865	79.69
658.068	105.69
658.272	89.69
658.476	94.69
658.68	81.69
658.883	77.69
659.087	82.69
659.291	80.69
659.494	80.69
659.698	67.69
659.901	86.69
660.105	83.69
660.309	81.69
660.512	91.69
660.716	86.69
660.919	72.69
661.123	82.69
661.326	86.69
661.53	83.69
661.733	76.69
661.936	78.69
662.14	88.69
662.343	100.69
662.546	75.69
662.75	78.69
662.953	85.69
663.156	83.69
663.36	85.69
663.563	88.69
663.766	69.69
663.969	87.69
664.173	91.69
664.376	89.69
664.579	76.69
664.782	90.69
664.985	81.69
665.188	89.69
665.391	89.69
665.594	76.69
665.797	72.69
666	72.69
666.203	90.69
666.406	78.69
666.609	87.69
666.812	97.69
667.015	83.69
667.218	92.69
667.421	81.69
667.624	75.69
667.827	80.69
668.03	76.69
668.232	88.69
668.435	83.69
668.638	78.69
668.841	89.69
669.043	72.69
669.246	72.69
669.449	80.69
669.651	81.69
669.854	84.69
670.057	71.69
670.259	83.69
670.462	100.69
670.665	76.69
670.867	85.69
671.07	66.69
671.272	87.69
671.475	83.69
671.677	80.69
671.88	89.69
672.082	79.69
672.284	90.69
672.487	76.69
672.689	80.69
672.892	80.69
