Data from Zn(NO3)2Standard.Agarose3%.GreenCap.LampEnergy5.5.E.O_HRD10591_15-01-16-767.txt Node
Date: Mon Jul 22 15:01:16 EDT 2019
User: cochatt
Spectrometer: HR+D1059
Trigger mode: 1
Integration Time (sec): 1.000000E-1
Scans to average: 1
Electric dark correction enabled: true
Nonlinearity correction enabled: false
Boxcar width: 0
XAxis mode: Wavelengths
Number of Pixels in Spectrum: 2048
>>>>>Begin Spectral Data<<<<<
223.165	-18.94
223.4	-18.94
223.635	-18.94
223.869	-26.94
224.104	-23.94
224.338	-14.94
224.573	-16.94
224.808	-11.94
225.042	-10.94
225.277	11.06
225.511	-5.94
225.746	6.06
225.98	15.06
226.215	4.06
226.449	21.06
226.683	32.06
226.918	18.06
227.152	23.06
227.387	23.06
227.621	34.06
227.856	40.06
228.09	30.06
228.324	46.06
228.559	47.06
228.793	51.06
229.027	54.06
229.262	62.06
229.496	70.06
229.73	68.06
229.964	64.06
230.199	66.06
230.433	77.06
230.667	67.06
230.901	60.06
231.136	74.06
231.37	80.06
231.604	71.06
231.838	68.06
232.072	75.06
232.306	90.06
232.541	77.06
232.775	75.06
233.009	79.06
233.243	58.06
233.477	86.06
233.711	75.06
233.945	77.06
234.179	73.06
234.413	83.06
234.647	72.06
234.881	94.06
235.115	82.06
235.349	72.06
235.583	73.06
235.817	65.06
236.051	75.06
236.285	65.06
236.519	65.06
236.753	67.06
236.987	59.06
237.221	79.06
237.455	73.06
237.689	88.06
237.922	79.06
238.156	62.06
238.39	79.06
238.624	64.06
238.858	75.06
239.091	76.06
239.325	77.06
239.559	84.06
239.793	64.06
240.027	75.06
240.26	84.06
240.494	80.06
240.728	75.06
240.961	73.06
241.195	85.06
241.429	64.06
241.662	74.06
241.896	80.06
242.13	77.06
242.363	74.06
242.597	73.06
242.83	73.06
243.064	80.06
243.298	66.06
243.531	71.06
243.765	67.06
243.998	70.06
244.232	89.06
244.465	66.06
244.699	81.06
244.932	79.06
245.166	69.06
245.399	72.06
245.633	64.06
245.866	77.06
246.099	59.06
246.333	70.06
246.566	68.06
246.8	76.06
247.033	66.06
247.266	81.06
247.5	81.06
247.733	74.06
247.966	64.06
248.2	72.06
248.433	70.06
248.666	71.06
248.899	71.06
249.133	68.06
249.366	75.06
249.599	60.06
249.832	65.06
250.066	73.06
250.299	73.06
250.532	78.06
250.765	69.06
250.998	80.06
251.231	77.06
251.465	72.06
251.698	78.06
251.931	69.06
252.164	73.06
252.397	77.06
252.63	74.06
252.863	74.06
253.096	70.06
253.329	89.06
253.562	70.06
253.795	74.06
254.028	89.06
254.261	69.06
254.494	88.06
254.727	96.06
254.96	83.06
255.193	84.06
255.426	81.06
255.659	81.06
255.892	76.06
256.124	78.06
256.357	73.06
256.59	69.06
256.823	81.06
257.056	96.06
257.289	89.06
257.521	70.06
257.754	74.06
257.987	74.06
258.22	89.06
258.452	71.06
258.685	70.06
258.918	71.06
259.151	81.06
259.383	75.06
259.616	73.06
259.849	86.06
260.081	77.06
260.314	68.06
260.547	82.06
260.779	70.06
261.012	75.06
261.244	71.06
261.477	73.06
261.71	78.06
261.942	73.06
262.175	63.06
262.407	94.06
262.64	80.06
262.872	82.06
263.105	87.06
263.337	70.06
263.57	87.06
263.802	72.06
264.035	81.06
264.267	81.06
264.499	77.06
264.732	79.06
264.964	82.06
265.197	71.06
265.429	85.06
265.661	78.06
265.894	83.06
266.126	90.06
266.358	67.06
266.591	71.06
266.823	97.06
267.055	79.06
267.287	99.06
267.52	86.06
267.752	79.06
267.984	74.06
268.216	75.06
268.448	86.06
268.681	77.06
268.913	78.06
269.145	62.06
269.377	77.06
269.609	77.06
269.841	88.06
270.073	90.06
270.306	82.06
270.538	83.06
270.77	74.06
271.002	86.06
271.234	93.06
271.466	57.06
271.698	84.06
271.93	86.06
272.162	78.06
272.394	78.06
272.626	81.06
272.858	70.06
273.09	79.06
273.322	83.06
273.553	77.06
273.785	77.06
274.017	71.06
274.249	80.06
274.481	58.06
274.713	72.06
274.945	82.06
275.176	79.06
275.408	77.06
275.64	79.06
275.872	89.06
276.104	81.06
276.335	83.06
276.567	93.06
276.799	88.06
277.031	85.06
277.262	81.06
277.494	87.06
277.726	84.06
277.957	87.06
278.189	81.06
278.421	66.06
278.652	82.06
278.884	74.06
279.115	74.06
279.347	77.06
279.579	63.06
279.81	79.06
280.042	82.06
280.273	86.06
280.505	83.06
280.736	82.06
280.968	82.06
281.199	76.06
281.431	82.06
281.662	83.06
281.894	105.06
282.125	79.06
282.356	81.06
282.588	83.06
282.819	89.06
283.051	80.06
283.282	76.06
283.513	83.06
283.745	71.06
283.976	72.06
284.207	74.06
284.439	89.06
284.67	77.06
284.901	73.06
285.132	76.06
285.364	89.06
285.595	83.06
285.826	93.06
286.057	83.06
286.288	71.06
286.52	80.06
286.751	86.06
286.982	70.06
287.213	85.06
287.444	69.06
287.675	61.06
287.906	87.06
288.138	73.06
288.369	91.06
288.6	85.06
288.831	86.06
289.062	79.06
289.293	74.06
289.524	87.06
289.755	70.06
289.986	77.06
290.217	84.06
290.448	78.06
290.679	90.06
290.91	94.06
291.141	71.06
291.371	89.06
291.602	70.06
291.833	79.06
292.064	77.06
292.295	87.06
292.526	85.06
292.757	79.06
292.987	91.06
293.218	70.06
293.449	88.06
293.68	71.06
293.91	81.06
294.141	91.06
294.372	88.06
294.603	90.06
294.833	72.06
295.064	77.06
295.295	80.06
295.525	80.06
295.756	78.06
295.987	87.06
296.217	73.06
296.448	89.06
296.679	88.06
296.909	76.06
297.14	69.06
297.37	80.06
297.601	87.06
297.831	69.06
298.062	81.06
298.292	81.06
298.523	79.06
298.753	69.06
298.984	79.06
299.214	74.06
299.445	87.06
299.675	69.06
299.905	77.06
300.136	85.06
300.366	84.06
300.597	83.06
300.827	79.06
301.057	76.06
301.288	84.06
301.518	81.06
301.748	81.06
301.979	73.06
302.209	70.06
302.439	65.06
302.669	77.06
302.9	62.06
303.13	83.06
303.36	84.06
303.59	65.06
303.82	83.06
304.051	82.06
304.281	95.06
304.511	87.06
304.741	85.06
304.971	78.06
305.201	89.06
305.431	84.06
305.661	84.06
305.891	82.06
306.121	71.06
306.352	82.06
306.582	89.06
306.812	82.06
307.042	75.06
307.272	82.06
307.502	70.06
307.731	82.06
307.961	83.06
308.191	94.06
308.421	81.06
308.651	84.06
308.881	81.06
309.111	99.06
309.341	72.06
309.571	72.06
309.8	76.06
310.03	71.06
310.26	77.06
310.49	73.06
310.72	66.06
310.949	81.06
311.179	74.06
311.409	78.06
311.639	87.06
311.868	75.06
312.098	81.06
312.328	92.06
312.557	86.06
312.787	72.06
313.017	74.06
313.246	90.06
313.476	87.06
313.706	91.06
313.935	86.06
314.165	70.06
314.394	74.06
314.624	84.06
314.853	88.06
315.083	81.06
315.312	84.06
315.542	75.06
315.771	82.06
316.001	87.06
316.23	94.06
316.46	88.06
316.689	74.06
316.919	88.06
317.148	95.06
317.377	97.06
317.607	85.06
317.836	66.06
318.065	76.06
318.295	75.06
318.524	82.06
318.753	75.06
318.983	72.06
319.212	87.06
319.441	86.06
319.67	88.06
319.9	83.06
320.129	80.06
320.358	81.06
320.587	78.06
320.816	77.06
321.046	80.06
321.275	91.06
321.504	72.06
321.733	79.06
321.962	81.06
322.191	75.06
322.42	86.06
322.649	87.06
322.878	83.06
323.108	93.06
323.337	91.06
323.566	88.06
323.795	83.06
324.024	84.06
324.253	70.06
324.482	92.06
324.71	83.06
324.939	81.06
325.168	77.06
325.397	75.06
325.626	83.06
325.855	90.06
326.084	90.06
326.313	81.06
326.542	70.06
326.77	83.06
326.999	73.06
327.228	90.06
327.457	89.06
327.686	75.06
327.914	72.06
328.143	82.06
328.372	72.06
328.6	86.06
328.829	82.06
329.058	79.06
329.287	86.06
329.515	89.06
329.744	91.06
329.972	75.06
330.201	73.06
330.43	84.06
330.658	78.06
330.887	93.06
331.115	72.06
331.344	86.06
331.572	83.06
331.801	73.06
332.03	84.06
332.258	68.06
332.486	84.06
332.715	82.06
332.943	89.06
333.172	82.06
333.4	72.06
333.629	87.06
333.857	87.06
334.085	77.06
334.314	85.06
334.542	94.06
334.771	76.06
334.999	77.06
335.227	88.06
335.455	80.06
335.684	71.06
335.912	78.06
336.14	72.06
336.369	89.06
336.597	72.06
336.825	85.06
337.053	89.06
337.281	82.06
337.51	77.06
337.738	78.06
337.966	74.06
338.194	69.06
338.422	72.06
338.65	77.06
338.878	85.06
339.106	83.06
339.334	90.06
339.562	69.06
339.79	69.06
340.018	87.06
340.246	93.06
340.474	77.06
340.702	80.06
340.93	82.06
341.158	89.06
341.386	76.06
341.614	82.06
341.842	90.06
342.07	85.06
342.298	82.06
342.526	90.06
342.754	77.06
342.981	77.06
343.209	86.06
343.437	84.06
343.665	68.06
343.893	79.06
344.12	81.06
344.348	97.06
344.576	85.06
344.804	84.06
345.031	80.06
345.259	96.06
345.487	93.06
345.714	81.06
345.942	82.06
346.17	73.06
346.397	80.06
346.625	69.06
346.853	73.06
347.08	78.06
347.308	80.06
347.535	79.06
347.763	84.06
347.99	88.06
348.218	83.06
348.445	81.06
348.673	76.06
348.9	91.06
349.128	91.06
349.355	85.06
349.583	88.06
349.81	69.06
350.037	57.06
350.265	87.06
350.492	78.06
350.72	88.06
350.947	75.06
351.174	67.06
351.402	80.06
351.629	87.06
351.856	81.06
352.083	86.06
352.311	82.06
352.538	78.06
352.765	94.06
352.992	85.06
353.22	85.06
353.447	71.06
353.674	75.06
353.901	76.06
354.128	80.06
354.355	69.06
354.583	65.06
354.81	70.06
355.037	80.06
355.264	82.06
355.491	85.06
355.718	74.06
355.945	75.06
356.172	76.06
356.399	84.06
356.626	73.06
356.853	95.06
357.08	83.06
357.307	88.06
357.534	80.06
357.761	89.06
357.988	85.06
358.215	78.06
358.441	82.06
358.668	75.06
358.895	75.06
359.122	80.06
359.349	87.06
359.576	68.06
359.802	67.06
360.029	77.06
360.256	78.06
360.483	76.06
360.709	88.06
360.936	94.06
361.163	99.06
361.39	81.06
361.616	92.06
361.843	89.06
362.07	88.06
362.296	84.06
362.523	88.06
362.749	86.06
362.976	77.06
363.203	68.06
363.429	83.06
363.656	86.06
363.882	88.06
364.109	74.06
364.335	85.06
364.562	79.06
364.788	85.06
365.015	86.06
365.241	79.06
365.468	79.06
365.694	73.06
365.92	79.06
366.147	81.06
366.373	78.06
366.599	65.06
366.826	79.06
367.052	72.06
367.278	89.06
367.505	83.06
367.731	99.06
367.957	84.06
368.184	86.06
368.41	87.06
368.636	84.06
368.862	79.06
369.089	67.06
369.315	95.06
369.541	91.06
369.767	78.06
369.993	67.06
370.219	74.06
370.445	63.06
370.672	84.06
370.898	65.06
371.124	85.06
371.35	94.06
371.576	81.06
371.802	75.06
372.028	76.06
372.254	85.06
372.48	63.06
372.706	86.06
372.932	92.06
373.158	79.06
373.384	90.06
373.61	87.06
373.835	86.06
374.061	86.06
374.287	75.06
374.513	93.06
374.739	73.06
374.965	79.06
375.191	71.06
375.416	85.06
375.642	86.06
375.868	85.06
376.094	71.06
376.319	93.06
376.545	76.06
376.771	77.06
376.997	78.06
377.222	68.06
377.448	91.06
377.674	85.06
377.899	85.06
378.125	57.06
378.35	75.06
378.576	81.06
378.802	81.06
379.027	86.06
379.253	75.06
379.478	83.06
379.704	79.06
379.929	88.06
380.155	74.06
380.38	78.06
380.606	81.06
380.831	70.06
381.057	88.06
381.282	86.06
381.507	82.06
381.733	75.06
381.958	83.06
382.184	81.06
382.409	78.06
382.634	91.06
382.86	87.06
383.085	86.06
383.31	89.06
383.535	92.06
383.761	82.06
383.986	69.06
384.211	71.06
384.436	99.06
384.662	86.06
384.887	83.06
385.112	93.06
385.337	78.06
385.562	69.06
385.787	101.06
386.013	82.06
386.238	89.06
386.463	71.06
386.688	87.06
386.913	81.06
387.138	86.06
387.363	77.06
387.588	73.06
387.813	82.06
388.038	84.06
388.263	87.06
388.488	79.06
388.713	55.06
388.938	73.06
389.163	79.06
389.387	80.06
389.612	75.06
389.837	88.06
390.062	65.06
390.287	78.06
390.512	69.06
390.736	66.06
390.961	72.06
391.186	83.06
391.411	77.06
391.636	100.06
391.86	92.06
392.085	73.06
392.31	75.06
392.534	69.06
392.759	85.06
392.984	79.06
393.208	71.06
393.433	70.06
393.658	74.06
393.882	88.06
394.107	84.06
394.331	82.06
394.556	92.06
394.78	74.06
395.005	93.06
395.229	70.06
395.454	71.06
395.678	99.06
395.903	83.06
396.127	87.06
396.352	88.06
396.576	81.06
396.801	80.06
397.025	76.06
397.249	89.06
397.474	82.06
397.698	104.06
397.922	94.06
398.147	85.06
398.371	87.06
398.595	81.06
398.82	73.06
399.044	70.06
399.268	80.06
399.492	82.06
399.717	78.06
399.941	70.06
400.165	75.06
400.389	78.06
400.613	84.06
400.837	75.06
401.062	81.06
401.286	96.06
401.51	87.06
401.734	81.06
401.958	80.06
402.182	84.06
402.406	95.06
402.63	73.06
402.854	78.06
403.078	87.06
403.302	87.06
403.526	86.06
403.75	77.06
403.974	75.06
404.198	93.06
404.422	73.06
404.645	74.06
404.869	74.06
405.093	94.06
405.317	89.06
405.541	83.06
405.765	78.06
405.988	84.06
406.212	74.06
406.436	67.06
406.66	85.06
406.883	83.06
407.107	77.06
407.331	86.06
407.555	79.06
407.778	87.06
408.002	87.06
408.226	85.06
408.449	83.06
408.673	88.06
408.896	84.06
409.12	82.06
409.344	74.06
409.567	92.06
409.791	71.06
410.014	84.06
410.238	77.06
410.461	84.06
410.685	87.06
410.908	70.06
411.132	88.06
411.355	78.06
411.578	87.06
411.802	91.06
412.025	65.06
412.249	86.06
412.472	77.06
412.695	85.06
412.919	79.06
413.142	88.06
413.365	83.06
413.589	75.06
413.812	87.06
414.035	84.06
414.258	91.06
414.482	85.06
414.705	82.06
414.928	93.06
415.151	77.06
415.374	77.06
415.597	85.06
415.821	65.06
416.044	97.06
416.267	86.06
416.49	85.06
416.713	85.06
416.936	76.06
417.159	96.06
417.382	82.06
417.605	84.06
417.828	85.06
418.051	93.06
418.274	86.06
418.497	81.06
418.72	82.06
418.943	91.06
419.166	89.06
419.389	64.06
419.611	75.06
419.834	91.06
420.057	72.06
420.28	79.06
420.503	73.06
420.726	94.06
420.948	73.06
421.171	82.06
421.394	86.06
421.617	88.06
421.839	95.06
422.062	95.06
422.285	82.06
422.507	76.06
422.73	79.06
422.953	93.06
423.175	97.06
423.398	80.06
423.621	96.06
423.843	82.06
424.066	86.06
424.288	92.06
424.511	86.06
424.733	94.06
424.956	81.06
425.178	78.06
425.401	90.06
425.623	87.06
425.846	94.06
426.068	84.06
426.291	86.06
426.513	63.06
426.735	90.06
426.958	99.06
427.18	99.06
427.402	81.06
427.625	86.06
427.847	101.06
428.069	83.06
428.292	107.06
428.514	74.06
428.736	88.06
428.958	92.06
429.181	78.06
429.403	79.06
429.625	93.06
429.847	94.06
430.069	77.06
430.292	87.06
430.514	96.06
430.736	95.06
430.958	88.06
431.18	86.06
431.402	85.06
431.624	81.06
431.846	70.06
432.068	72.06
432.29	80.06
432.512	83.06
432.734	69.06
432.956	88.06
433.178	82.06
433.4	94.06
433.622	83.06
433.844	77.06
434.066	71.06
434.287	69.06
434.509	87.06
434.731	85.06
434.953	93.06
435.175	76.06
435.397	86.06
435.618	82.06
435.84	80.06
436.062	93.06
436.284	94.06
436.505	88.06
436.727	73.06
436.949	79.06
437.17	77.06
437.392	87.06
437.614	73.06
437.835	79.06
438.057	78.06
438.278	86.06
438.5	75.06
438.721	91.06
438.943	95.06
439.165	87.06
439.386	86.06
439.608	109.06
439.829	70.06
440.05	81.06
440.272	102.06
440.493	80.06
440.715	90.06
440.936	94.06
441.158	90.06
441.379	85.06
441.6	78.06
441.822	77.06
442.043	83.06
442.264	82.06
442.486	86.06
442.707	85.06
442.928	99.06
443.149	88.06
443.371	91.06
443.592	78.06
443.813	87.06
444.034	79.06
444.255	95.06
444.476	72.06
444.698	81.06
444.919	88.06
445.14	194.06
445.361	134.06
445.582	82.06
445.803	86.06
446.024	88.06
446.245	97.06
446.466	95.06
446.687	83.06
446.908	75.06
447.129	100.06
447.35	79.06
447.571	92.06
447.792	89.06
448.013	81.06
448.234	95.06
448.455	98.06
448.675	97.06
448.896	72.06
449.117	82.06
449.338	96.06
449.559	86.06
449.779	84.06
450	82.06
450.221	86.06
450.442	78.06
450.662	97.06
450.883	80.06
451.104	92.06
451.324	83.06
451.545	72.06
451.766	87.06
451.986	82.06
452.207	86.06
452.428	82.06
452.648	97.06
452.869	68.06
453.089	82.06
453.31	75.06
453.53	81.06
453.751	83.06
453.971	85.06
454.192	97.06
454.412	72.06
454.633	90.06
454.853	77.06
455.073	93.06
455.294	82.06
455.514	94.06
455.734	77.06
455.955	93.06
456.175	81.06
456.395	93.06
456.616	86.06
456.836	73.06
457.056	85.06
457.276	86.06
457.497	71.06
457.717	81.06
457.937	79.06
458.157	71.06
458.377	94.06
458.598	87.06
458.818	84.06
459.038	81.06
459.258	86.06
459.478	61.06
459.698	74.06
459.918	65.06
460.138	80.06
460.358	89.06
460.578	86.06
460.798	101.06
461.018	103.06
461.238	85.06
461.458	69.06
461.678	91.06
461.898	87.06
462.118	90.06
462.338	85.06
462.558	100.06
462.777	86.06
462.997	82.06
463.217	73.06
463.437	85.06
463.657	97.06
463.876	79.06
464.096	95.06
464.316	75.06
464.536	82.06
464.755	86.06
464.975	79.06
465.195	81.06
465.414	93.06
465.634	88.06
465.854	79.06
466.073	88.06
466.293	85.06
466.512	100.06
466.732	87.06
466.951	76.06
467.171	102.06
467.391	94.06
467.61	94.06
467.829	99.06
468.049	104.06
468.268	82.06
468.488	80.06
468.707	85.06
468.927	72.06
469.146	74.06
469.365	81.06
469.585	93.06
469.804	84.06
470.023	87.06
470.243	82.06
470.462	78.06
470.681	94.06
470.901	76.06
471.12	82.06
471.339	80.06
471.558	87.06
471.777	99.06
471.997	82.06
472.216	82.06
472.435	83.06
472.654	74.06
472.873	82.06
473.092	98.06
473.311	83.06
473.53	82.06
473.749	92.06
473.968	82.06
474.187	97.06
474.406	73.06
474.625	92.06
474.844	89.06
475.063	83.06
475.282	97.06
475.501	82.06
475.72	85.06
475.939	95.06
476.158	81.06
476.377	88.06
476.596	81.06
476.814	89.06
477.033	82.06
477.252	68.06
477.471	90.06
477.69	97.06
477.908	97.06
478.127	88.06
478.346	93.06
478.564	95.06
478.783	82.06
479.002	81.06
479.22	84.06
479.439	90.06
479.658	95.06
479.876	80.06
480.095	90.06
480.313	85.06
480.532	89.06
480.751	81.06
480.969	74.06
481.188	76.06
481.406	76.06
481.624	82.06
481.843	79.06
482.061	81.06
482.28	81.06
482.498	83.06
482.717	67.06
482.935	69.06
483.153	79.06
483.372	82.06
483.59	90.06
483.808	86.06
484.027	86.06
484.245	86.06
484.463	74.06
484.681	84.06
484.9	94.06
485.118	89.06
485.336	93.06
485.554	78.06
485.772	70.06
485.99	74.06
486.209	87.06
486.427	89.06
486.645	79.06
486.863	75.06
487.081	86.06
487.299	75.06
487.517	101.06
487.735	77.06
487.953	84.06
488.171	100.06
488.389	105.06
488.607	90.06
488.825	85.06
489.043	99.06
489.261	95.06
489.479	85.06
489.696	83.06
489.914	84.06
490.132	95.06
490.35	91.06
490.568	87.06
490.786	97.06
491.003	116.06
491.221	87.06
491.439	85.06
491.657	112.06
491.874	96.06
492.092	97.06
492.31	116.06
492.527	96.06
492.745	100.06
492.963	107.06
493.18	102.06
493.398	95.06
493.615	102.06
493.833	100.06
494.05	81.06
494.268	107.06
494.485	102.06
494.703	85.06
494.92	95.06
495.138	90.06
495.355	99.06
495.573	97.06
495.79	113.06
496.008	100.06
496.225	94.06
496.442	95.06
496.66	109.06
496.877	92.06
497.094	89.06
497.312	92.06
497.529	96.06
497.746	100.06
497.963	90.06
498.181	88.06
498.398	91.06
498.615	80.06
498.832	75.06
499.049	92.06
499.267	90.06
499.484	89.06
499.701	81.06
499.918	85.06
500.135	91.06
500.352	85.06
500.569	81.06
500.786	88.06
501.003	91.06
501.22	84.06
501.437	87.06
501.654	87.06
501.871	93.06
502.088	90.06
502.305	86.06
502.522	90.06
502.739	84.06
502.956	97.06
503.172	87.06
503.389	91.06
503.606	92.06
503.823	81.06
504.04	89.06
504.256	80.06
504.473	102.06
504.69	94.06
504.907	78.06
505.123	99.06
505.34	86.06
505.557	93.06
505.773	80.06
505.99	87.06
506.207	76.06
506.423	91.06
506.64	99.06
506.856	89.06
507.073	85.06
507.289	87.06
507.506	86.06
507.722	90.06
507.939	75.06
508.155	99.06
508.372	75.06
508.588	81.06
508.805	97.06
509.021	84.06
509.238	89.06
509.454	77.06
509.67	83.06
509.887	86.06
510.103	94.06
510.319	88.06
510.536	69.06
510.752	77.06
510.968	82.06
511.184	73.06
511.401	82.06
511.617	72.06
511.833	81.06
512.049	83.06
512.265	65.06
512.481	87.06
512.698	93.06
512.914	84.06
513.13	69.06
513.346	81.06
513.562	66.06
513.778	83.06
513.994	71.06
514.21	83.06
514.426	81.06
514.642	97.06
514.858	74.06
515.074	93.06
515.29	95.06
515.506	67.06
515.721	79.06
515.937	73.06
516.153	93.06
516.369	84.06
516.585	85.06
516.801	90.06
517.016	87.06
517.232	82.06
517.448	75.06
517.664	69.06
517.879	74.06
518.095	80.06
518.311	85.06
518.527	86.06
518.742	79.06
518.958	80.06
519.173	78.06
519.389	90.06
519.605	81.06
519.82	77.06
520.036	82.06
520.251	82.06
520.467	77.06
520.682	87.06
520.898	75.06
521.113	80.06
521.329	77.06
521.544	82.06
521.76	74.06
521.975	84.06
522.19	81.06
522.406	82.06
522.621	82.06
522.836	78.06
523.052	80.06
523.267	88.06
523.482	85.06
523.698	73.06
523.913	91.06
524.128	78.06
524.343	79.06
524.559	94.06
524.774	83.06
524.989	87.06
525.204	61.06
525.419	83.06
525.634	87.06
525.849	89.06
526.064	72.06
526.28	80.06
526.495	69.06
526.71	69.06
526.925	75.06
527.14	83.06
527.355	72.06
527.57	75.06
527.785	61.06
527.999	83.06
528.214	83.06
528.429	80.06
528.644	79.06
528.859	87.06
529.074	90.06
529.289	106.06
529.503	97.06
529.718	82.06
529.933	92.06
530.148	93.06
530.363	85.06
530.577	71.06
530.792	95.06
531.007	82.06
531.221	75.06
531.436	76.06
531.651	71.06
531.865	87.06
532.08	83.06
532.295	80.06
532.509	71.06
532.724	91.06
532.938	84.06
533.153	72.06
533.367	84.06
533.582	89.06
533.796	86.06
534.011	95.06
534.225	90.06
534.44	85.06
534.654	86.06
534.868	68.06
535.083	77.06
535.297	84.06
535.511	82.06
535.726	71.06
535.94	77.06
536.154	77.06
536.369	89.06
536.583	71.06
536.797	78.06
537.011	72.06
537.225	79.06
537.44	67.06
537.654	93.06
537.868	81.06
538.082	81.06
538.296	75.06
538.51	84.06
538.724	82.06
538.938	80.06
539.153	98.06
539.367	93.06
539.581	87.06
539.795	90.06
540.009	79.06
540.222	88.06
540.436	81.06
540.65	87.06
540.864	70.06
541.078	102.06
541.292	99.06
541.506	96.06
541.72	103.06
541.934	101.06
542.147	96.06
542.361	87.06
542.575	104.06
542.789	81.06
543.002	96.06
543.216	91.06
543.43	75.06
543.644	91.06
543.857	98.06
544.071	85.06
544.285	102.06
544.498	87.06
544.712	97.06
544.925	100.06
545.139	88.06
545.352	103.06
545.566	99.06
545.779	95.06
545.993	84.06
546.206	102.06
546.42	100.06
546.633	86.06
546.847	89.06
547.06	94.06
547.274	102.06
547.487	97.06
547.7	95.06
547.914	96.06
548.127	91.06
548.34	86.06
548.554	80.06
548.767	98.06
548.98	99.06
549.193	86.06
549.407	92.06
549.62	96.06
549.833	100.06
550.046	82.06
550.259	76.06
550.473	105.06
550.686	94.06
550.899	86.06
551.112	98.06
551.325	98.06
551.538	83.06
551.751	90.06
551.964	80.06
552.177	74.06
552.39	93.06
552.603	95.06
552.816	94.06
553.029	94.06
553.242	97.06
553.455	98.06
553.667	86.06
553.88	89.06
554.093	83.06
554.306	97.06
554.519	94.06
554.732	97.06
554.944	83.06
555.157	89.06
555.37	90.06
555.583	79.06
555.795	90.06
556.008	82.06
556.221	70.06
556.433	80.06
556.646	99.06
556.859	81.06
557.071	101.06
557.284	106.06
557.496	81.06
557.709	84.06
557.921	92.06
558.134	101.06
558.346	96.06
558.559	88.06
558.771	69.06
558.984	84.06
559.196	99.06
559.409	91.06
559.621	93.06
559.833	90.06
560.046	99.06
560.258	87.06
560.47	88.06
560.683	83.06
560.895	95.06
561.107	86.06
561.32	117.06
561.532	80.06
561.744	87.06
561.956	98.06
562.168	94.06
562.381	78.06
562.593	75.06
562.805	94.06
563.017	88.06
563.229	92.06
563.441	91.06
563.653	84.06
563.865	79.06
564.077	84.06
564.289	84.06
564.501	89.06
564.713	78.06
564.925	71.06
565.137	97.06
565.349	101.06
565.561	104.06
565.773	93.06
565.985	90.06
566.197	86.06
566.408	85.06
566.62	78.06
566.832	77.06
567.044	89.06
567.255	74.06
567.467	69.06
567.679	62.06
567.891	78.06
568.102	70.06
568.314	78.06
568.526	79.06
568.737	83.06
568.949	97.06
569.161	85.06
569.372	67.06
569.584	83.06
569.795	93.06
570.007	85.06
570.218	70.06
570.43	94.06
570.641	67.06
570.853	83.06
571.064	87.06
571.276	82.06
571.487	84.06
571.698	89.06
571.91	84.06
572.121	73.06
572.333	87.06
572.544	86.06
572.755	68.06
572.966	85.06
573.178	82.06
573.389	75.06
573.6	80.06
573.811	81.06
574.023	83.06
574.234	83.06
574.445	83.06
574.656	88.06
574.867	85.06
575.078	88.06
575.289	83.06
575.501	84.06
575.712	82.06
575.923	89.06
576.134	89.06
576.345	75.06
576.556	85.06
576.767	87.06
576.978	82.06
577.188	80.06
577.399	83.06
577.61	90.06
577.821	73.06
578.032	72.06
578.243	48.06
578.454	93.06
578.665	80.06
578.875	77.06
579.086	95.06
579.297	75.06
579.508	73.06
579.718	81.06
579.929	75.06
580.14	83.06
580.35	78.06
580.561	83.06
580.772	79.06
580.982	80.06
581.193	91.06
581.403	76.06
581.614	90.06
581.825	55.06
582.035	71.06
582.246	94.06
582.456	78.06
582.667	82.06
582.877	81.06
583.087	94.06
583.298	79.06
583.508	82.06
583.719	77.06
583.929	78.06
584.139	71.06
584.35	78.06
584.56	75.06
584.77	70.06
584.981	95.06
585.191	86.06
585.401	90.06
585.611	74.06
585.821	78.06
586.032	85.06
586.242	80.06
586.452	72.06
586.662	90.06
586.872	71.06
587.082	73.06
587.292	84.06
587.502	85.06
587.713	77.06
587.923	77.06
588.133	77.06
588.343	85.06
588.553	75.06
588.762	85.06
588.972	93.06
589.182	87.06
589.392	70.06
589.602	68.06
589.812	89.06
590.022	91.06
590.232	68.06
590.441	96.06
590.651	74.06
590.861	85.06
591.071	75.06
591.281	64.06
591.49	70.06
591.7	87.06
591.91	75.06
592.119	76.06
592.329	78.06
592.539	88.06
592.748	74.06
592.958	81.06
593.167	88.06
593.377	85.06
593.587	92.06
593.796	91.06
594.006	82.06
594.215	69.06
594.424	80.06
594.634	79.06
594.843	75.06
595.053	93.06
595.262	88.06
595.472	77.06
595.681	79.06
595.89	85.06
596.1	88.06
596.309	85.06
596.518	70.06
596.727	89.06
596.937	86.06
597.146	77.06
597.355	66.06
597.564	75.06
597.774	84.06
597.983	79.06
598.192	79.06
598.401	80.06
598.61	77.06
598.819	82.06
599.028	84.06
599.237	85.06
599.446	68.06
599.655	67.06
599.864	79.06
600.073	84.06
600.282	84.06
600.491	90.06
600.7	77.06
600.909	86.06
601.118	84.06
601.327	90.06
601.536	85.06
601.745	89.06
601.953	87.06
602.162	88.06
602.371	73.06
602.58	82.06
602.789	80.06
602.997	87.06
603.206	86.06
603.415	89.06
603.623	90.06
603.832	81.06
604.041	72.06
604.249	84.06
604.458	87.06
604.666	74.06
604.875	97.06
605.084	90.06
605.292	83.06
605.501	103.06
605.709	81.06
605.918	93.06
606.126	85.06
606.334	81.06
606.543	87.06
606.751	86.06
606.96	89.06
607.168	79.06
607.376	85.06
607.585	89.06
607.793	81.06
608.001	83.06
608.21	70.06
608.418	76.06
608.626	85.06
608.834	81.06
609.043	84.06
609.251	90.06
609.459	74.06
609.667	81.06
609.875	79.06
610.083	80.06
610.291	83.06
610.499	90.06
610.707	86.06
610.916	92.06
611.124	78.06
611.332	88.06
611.54	92.06
611.748	86.06
611.955	83.06
612.163	99.06
612.371	83.06
612.579	81.06
612.787	89.06
612.995	91.06
613.203	84.06
613.411	86.06
613.618	86.06
613.826	86.06
614.034	81.06
614.242	82.06
614.449	77.06
614.657	70.06
614.865	88.06
615.072	85.06
615.28	76.06
615.488	90.06
615.695	82.06
615.903	85.06
616.111	78.06
616.318	93.06
616.526	87.06
616.733	91.06
616.941	88.06
617.148	78.06
617.356	82.06
617.563	81.06
617.771	97.06
617.978	90.06
618.185	85.06
618.393	83.06
618.6	90.06
618.807	81.06
619.015	101.06
619.222	99.06
619.429	81.06
619.637	90.06
619.844	85.06
620.051	93.06
620.258	79.06
620.466	86.06
620.673	91.06
620.88	74.06
621.087	80.06
621.294	90.06
621.501	83.06
621.708	102.06
621.915	78.06
622.122	79.06
622.329	72.06
622.536	79.06
622.743	87.06
622.95	82.06
623.157	86.06
623.364	79.06
623.571	78.06
623.778	89.06
623.985	85.06
624.192	89.06
624.399	78.06
624.606	69.06
624.812	88.06
625.019	83.06
625.226	85.06
625.433	100.06
625.639	85.06
625.846	77.06
626.053	82.06
626.259	83.06
626.466	75.06
626.673	75.06
626.879	87.06
627.086	105.06
627.293	80.06
627.499	83.06
627.706	80.06
627.912	73.06
628.119	77.06
628.325	90.06
628.532	93.06
628.738	83.06
628.945	82.06
629.151	80.06
629.357	78.06
629.564	82.06
629.77	81.06
629.976	80.06
630.183	94.06
630.389	96.06
630.595	91.06
630.802	76.06
631.008	94.06
631.214	84.06
631.42	84.06
631.627	82.06
631.833	76.06
632.039	64.06
632.245	85.06
632.451	86.06
632.657	78.06
632.863	91.06
633.069	75.06
633.275	76.06
633.481	89.06
633.688	72.06
633.893	87.06
634.099	84.06
634.305	86.06
634.511	85.06
634.717	87.06
634.923	80.06
635.129	93.06
635.335	92.06
635.541	88.06
635.747	90.06
635.952	85.06
636.158	84.06
636.364	76.06
636.57	85.06
636.775	69.06
636.981	75.06
637.187	80.06
637.392	75.06
637.598	90.06
637.804	74.06
638.009	72.06
638.215	70.06
638.421	88.06
638.626	87.06
638.832	79.06
639.037	86.06
639.243	89.06
639.448	79.06
639.654	82.06
639.859	74.06
640.065	85.06
640.27	82.06
640.475	91.06
640.681	82.06
640.886	99.06
641.091	96.06
641.297	88.06
641.502	83.06
641.707	87.06
641.913	81.06
642.118	83.06
642.323	79.06
642.528	90.06
642.733	95.06
642.939	80.06
643.144	74.06
643.349	91.06
643.554	83.06
643.759	79.06
643.964	75.06
644.169	70.06
644.374	79.06
644.579	75.06
644.784	80.06
644.989	89.06
645.194	96.06
645.399	86.06
645.604	82.06
645.809	76.06
646.014	71.06
646.219	97.06
646.423	94.06
646.628	89.06
646.833	78.06
647.038	85.06
647.243	91.06
647.447	91.06
647.652	84.06
647.857	94.06
648.062	87.06
648.266	78.06
648.471	74.06
648.676	87.06
648.88	90.06
649.085	87.06
649.289	89.06
649.494	83.06
649.698	78.06
649.903	70.06
650.107	83.06
650.312	65.06
650.516	81.06
650.721	80.06
650.925	97.06
651.13	79.06
651.334	83.06
651.539	89.06
651.743	72.06
651.947	78.06
652.152	68.06
652.356	73.06
652.56	81.06
652.764	91.06
652.969	94.06
653.173	81.06
653.377	85.06
653.581	76.06
653.785	82.06
653.99	88.06
654.194	68.06
654.398	66.06
654.602	81.06
654.806	80.06
655.01	82.06
655.214	77.06
655.418	85.06
655.622	67.06
655.826	86.06
656.03	82.06
656.234	74.06
656.438	69.06
656.642	80.06
656.846	90.06
657.049	71.06
657.253	66.06
657.457	70.06
657.661	70.06
657.865	85.06
658.068	77.06
658.272	68.06
658.476	70.06
658.68	79.06
658.883	76.06
659.087	78.06
659.291	80.06
659.494	82.06
659.698	75.06
659.901	71.06
660.105	85.06
660.309	69.06
660.512	86.06
660.716	75.06
660.919	85.06
661.123	77.06
661.326	81.06
661.53	86.06
661.733	84.06
661.936	89.06
662.14	79.06
662.343	87.06
662.546	85.06
662.75	79.06
662.953	80.06
663.156	79.06
663.36	89.06
663.563	66.06
663.766	79.06
663.969	82.06
664.173	82.06
664.376	84.06
664.579	78.06
664.782	85.06
664.985	82.06
665.188	82.06
665.391	79.06
665.594	73.06
665.797	77.06
666	77.06
666.203	73.06
666.406	85.06
666.609	83.06
666.812	79.06
667.015	68.06
667.218	86.06
667.421	87.06
667.624	92.06
667.827	82.06
668.03	78.06
668.232	88.06
668.435	73.06
668.638	75.06
668.841	68.06
669.043	79.06
669.246	83.06
669.449	66.06
669.651	70.06
669.854	70.06
670.057	81.06
670.259	84.06
670.462	75.06
670.665	96.06
670.867	86.06
671.07	82.06
671.272	76.06
671.475	85.06
671.677	90.06
671.88	87.06
672.082	75.06
672.284	88.06
672.487	76.06
672.689	72.06
672.892	71.06
