Data from Zn(NO3)2Standard.Agarose3%.GreenCap.LampEnergy5.5.E.O_HRD10591_15-01-54-769.txt Node
Date: Mon Jul 22 15:01:54 EDT 2019
User: cochatt
Spectrometer: HR+D1059
Trigger mode: 1
Integration Time (sec): 1.000000E-1
Scans to average: 1
Electric dark correction enabled: true
Nonlinearity correction enabled: false
Boxcar width: 0
XAxis mode: Wavelengths
Number of Pixels in Spectrum: 2048
>>>>>Begin Spectral Data<<<<<
223.165	-6.25
223.4	-6.25
223.635	-6.25
223.869	-5.25
224.104	-27.25
224.338	-8.25
224.573	-7.25
224.808	-13.25
225.042	-12.25
225.277	-19.25
225.511	-7.25
225.746	5.75
225.98	4.75
226.215	10.75
226.449	10.75
226.683	13.75
226.918	23.75
227.152	36.75
227.387	42.75
227.621	41.75
227.856	42.75
228.09	53.75
228.324	52.75
228.559	57.75
228.793	57.75
229.027	63.75
229.262	71.75
229.496	67.75
229.73	60.75
229.964	77.75
230.199	72.75
230.433	72.75
230.667	73.75
230.901	91.75
231.136	90.75
231.37	88.75
231.604	83.75
231.838	86.75
232.072	80.75
232.306	77.75
232.541	74.75
232.775	85.75
233.009	89.75
233.243	74.75
233.477	81.75
233.711	92.75
233.945	69.75
234.179	85.75
234.413	96.75
234.647	66.75
234.881	70.75
235.115	83.75
235.349	81.75
235.583	80.75
235.817	82.75
236.051	88.75
236.285	68.75
236.519	76.75
236.753	72.75
236.987	80.75
237.221	64.75
237.455	75.75
237.689	73.75
237.922	72.75
238.156	84.75
238.39	67.75
238.624	76.75
238.858	81.75
239.091	76.75
239.325	70.75
239.559	81.75
239.793	71.75
240.027	86.75
240.26	77.75
240.494	80.75
240.728	92.75
240.961	62.75
241.195	84.75
241.429	78.75
241.662	66.75
241.896	57.75
242.13	84.75
242.363	76.75
242.597	77.75
242.83	87.75
243.064	68.75
243.298	78.75
243.531	84.75
243.765	79.75
243.998	82.75
244.232	84.75
244.465	84.75
244.699	73.75
244.932	87.75
245.166	73.75
245.399	79.75
245.633	76.75
245.866	70.75
246.099	79.75
246.333	85.75
246.566	82.75
246.8	70.75
247.033	80.75
247.266	84.75
247.5	75.75
247.733	84.75
247.966	77.75
248.2	80.75
248.433	72.75
248.666	78.75
248.899	84.75
249.133	81.75
249.366	78.75
249.599	67.75
249.832	70.75
250.066	90.75
250.299	90.75
250.532	84.75
250.765	84.75
250.998	78.75
251.231	84.75
251.465	63.75
251.698	80.75
251.931	84.75
252.164	77.75
252.397	82.75
252.63	85.75
252.863	66.75
253.096	74.75
253.329	91.75
253.562	76.75
253.795	49.75
254.028	71.75
254.261	88.75
254.494	82.75
254.727	86.75
254.96	69.75
255.193	69.75
255.426	78.75
255.659	74.75
255.892	75.75
256.124	78.75
256.357	67.75
256.59	69.75
256.823	80.75
257.056	99.75
257.289	84.75
257.521	76.75
257.754	59.75
257.987	71.75
258.22	82.75
258.452	74.75
258.685	80.75
258.918	80.75
259.151	80.75
259.383	92.75
259.616	84.75
259.849	83.75
260.081	73.75
260.314	72.75
260.547	92.75
260.779	84.75
261.012	75.75
261.244	86.75
261.477	76.75
261.71	103.75
261.942	75.75
262.175	81.75
262.407	86.75
262.64	79.75
262.872	82.75
263.105	76.75
263.337	91.75
263.57	88.75
263.802	59.75
264.035	93.75
264.267	62.75
264.499	68.75
264.732	79.75
264.964	74.75
265.197	77.75
265.429	80.75
265.661	91.75
265.894	88.75
266.126	88.75
266.358	82.75
266.591	84.75
266.823	77.75
267.055	80.75
267.287	78.75
267.52	85.75
267.752	68.75
267.984	71.75
268.216	71.75
268.448	75.75
268.681	75.75
268.913	70.75
269.145	68.75
269.377	81.75
269.609	75.75
269.841	89.75
270.073	70.75
270.306	81.75
270.538	77.75
270.77	73.75
271.002	92.75
271.234	78.75
271.466	78.75
271.698	81.75
271.93	83.75
272.162	87.75
272.394	76.75
272.626	84.75
272.858	84.75
273.09	75.75
273.322	92.75
273.553	81.75
273.785	82.75
274.017	79.75
274.249	86.75
274.481	73.75
274.713	87.75
274.945	80.75
275.176	80.75
275.408	76.75
275.64	70.75
275.872	90.75
276.104	85.75
276.335	80.75
276.567	73.75
276.799	78.75
277.031	79.75
277.262	78.75
277.494	85.75
277.726	78.75
277.957	84.75
278.189	83.75
278.421	82.75
278.652	80.75
278.884	86.75
279.115	83.75
279.347	91.75
279.579	101.75
279.81	77.75
280.042	90.75
280.273	75.75
280.505	74.75
280.736	78.75
280.968	72.75
281.199	80.75
281.431	85.75
281.662	91.75
281.894	80.75
282.125	91.75
282.356	91.75
282.588	88.75
282.819	91.75
283.051	82.75
283.282	74.75
283.513	92.75
283.745	88.75
283.976	90.75
284.207	89.75
284.439	89.75
284.67	77.75
284.901	92.75
285.132	92.75
285.364	80.75
285.595	85.75
285.826	89.75
286.057	75.75
286.288	87.75
286.52	84.75
286.751	75.75
286.982	87.75
287.213	83.75
287.444	78.75
287.675	84.75
287.906	84.75
288.138	77.75
288.369	77.75
288.6	73.75
288.831	74.75
289.062	86.75
289.293	73.75
289.524	83.75
289.755	80.75
289.986	75.75
290.217	96.75
290.448	87.75
290.679	86.75
290.91	83.75
291.141	80.75
291.371	97.75
291.602	87.75
291.833	75.75
292.064	87.75
292.295	83.75
292.526	96.75
292.757	81.75
292.987	82.75
293.218	84.75
293.449	94.75
293.68	98.75
293.91	74.75
294.141	84.75
294.372	74.75
294.603	69.75
294.833	92.75
295.064	75.75
295.295	81.75
295.525	97.75
295.756	87.75
295.987	90.75
296.217	91.75
296.448	79.75
296.679	81.75
296.909	87.75
297.14	80.75
297.37	82.75
297.601	77.75
297.831	88.75
298.062	79.75
298.292	90.75
298.523	72.75
298.753	83.75
298.984	81.75
299.214	85.75
299.445	82.75
299.675	79.75
299.905	88.75
300.136	80.75
300.366	92.75
300.597	91.75
300.827	105.75
301.057	84.75
301.288	94.75
301.518	88.75
301.748	80.75
301.979	91.75
302.209	82.75
302.439	78.75
302.669	91.75
302.9	88.75
303.13	85.75
303.36	89.75
303.59	92.75
303.82	96.75
304.051	91.75
304.281	92.75
304.511	87.75
304.741	80.75
304.971	76.75
305.201	82.75
305.431	87.75
305.661	74.75
305.891	90.75
306.121	78.75
306.352	87.75
306.582	91.75
306.812	82.75
307.042	75.75
307.272	96.75
307.502	87.75
307.731	79.75
307.961	75.75
308.191	74.75
308.421	92.75
308.651	84.75
308.881	83.75
309.111	83.75
309.341	97.75
309.571	86.75
309.8	86.75
310.03	69.75
310.26	62.75
310.49	78.75
310.72	82.75
310.949	76.75
311.179	88.75
311.409	90.75
311.639	71.75
311.868	76.75
312.098	82.75
312.328	89.75
312.557	77.75
312.787	85.75
313.017	96.75
313.246	99.75
313.476	77.75
313.706	83.75
313.935	81.75
314.165	87.75
314.394	81.75
314.624	77.75
314.853	84.75
315.083	75.75
315.312	88.75
315.542	97.75
315.771	78.75
316.001	88.75
316.23	95.75
316.46	85.75
316.689	75.75
316.919	96.75
317.148	82.75
317.377	78.75
317.607	83.75
317.836	72.75
318.065	77.75
318.295	106.75
318.524	86.75
318.753	81.75
318.983	90.75
319.212	88.75
319.441	86.75
319.67	71.75
319.9	77.75
320.129	84.75
320.358	85.75
320.587	82.75
320.816	105.75
321.046	90.75
321.275	81.75
321.504	86.75
321.733	74.75
321.962	91.75
322.191	76.75
322.42	84.75
322.649	89.75
322.878	71.75
323.108	93.75
323.337	91.75
323.566	75.75
323.795	78.75
324.024	86.75
324.253	78.75
324.482	91.75
324.71	88.75
324.939	86.75
325.168	83.75
325.397	86.75
325.626	84.75
325.855	73.75
326.084	82.75
326.313	78.75
326.542	77.75
326.77	75.75
326.999	86.75
327.228	88.75
327.457	70.75
327.686	87.75
327.914	89.75
328.143	98.75
328.372	93.75
328.6	86.75
328.829	91.75
329.058	82.75
329.287	88.75
329.515	77.75
329.744	89.75
329.972	87.75
330.201	86.75
330.43	77.75
330.658	85.75
330.887	82.75
331.115	89.75
331.344	88.75
331.572	100.75
331.801	75.75
332.03	89.75
332.258	72.75
332.486	84.75
332.715	87.75
332.943	83.75
333.172	85.75
333.4	92.75
333.629	89.75
333.857	78.75
334.085	96.75
334.314	82.75
334.542	94.75
334.771	96.75
334.999	90.75
335.227	90.75
335.455	82.75
335.684	93.75
335.912	85.75
336.14	71.75
336.369	84.75
336.597	86.75
336.825	88.75
337.053	100.75
337.281	77.75
337.51	72.75
337.738	91.75
337.966	84.75
338.194	85.75
338.422	96.75
338.65	81.75
338.878	80.75
339.106	83.75
339.334	94.75
339.562	89.75
339.79	87.75
340.018	78.75
340.246	91.75
340.474	89.75
340.702	77.75
340.93	89.75
341.158	92.75
341.386	87.75
341.614	74.75
341.842	87.75
342.07	79.75
342.298	73.75
342.526	87.75
342.754	91.75
342.981	86.75
343.209	86.75
343.437	87.75
343.665	89.75
343.893	85.75
344.12	88.75
344.348	89.75
344.576	75.75
344.804	78.75
345.031	93.75
345.259	90.75
345.487	88.75
345.714	83.75
345.942	82.75
346.17	79.75
346.397	88.75
346.625	94.75
346.853	79.75
347.08	75.75
347.308	88.75
347.535	91.75
347.763	80.75
347.99	97.75
348.218	82.75
348.445	76.75
348.673	85.75
348.9	91.75
349.128	90.75
349.355	96.75
349.583	82.75
349.81	84.75
350.037	78.75
350.265	84.75
350.492	77.75
350.72	80.75
350.947	90.75
351.174	83.75
351.402	84.75
351.629	83.75
351.856	75.75
352.083	71.75
352.311	70.75
352.538	82.75
352.765	99.75
352.992	85.75
353.22	66.75
353.447	94.75
353.674	87.75
353.901	84.75
354.128	86.75
354.355	77.75
354.583	90.75
354.81	90.75
355.037	85.75
355.264	88.75
355.491	77.75
355.718	68.75
355.945	91.75
356.172	67.75
356.399	82.75
356.626	77.75
356.853	92.75
357.08	85.75
357.307	88.75
357.534	76.75
357.761	103.75
357.988	86.75
358.215	82.75
358.441	84.75
358.668	73.75
358.895	85.75
359.122	86.75
359.349	80.75
359.576	98.75
359.802	76.75
360.029	82.75
360.256	80.75
360.483	103.75
360.709	94.75
360.936	87.75
361.163	81.75
361.39	80.75
361.616	81.75
361.843	98.75
362.07	92.75
362.296	84.75
362.523	79.75
362.749	72.75
362.976	73.75
363.203	87.75
363.429	79.75
363.656	86.75
363.882	77.75
364.109	83.75
364.335	92.75
364.562	81.75
364.788	81.75
365.015	81.75
365.241	84.75
365.468	104.75
365.694	67.75
365.92	87.75
366.147	76.75
366.373	84.75
366.599	75.75
366.826	78.75
367.052	85.75
367.278	91.75
367.505	80.75
367.731	66.75
367.957	77.75
368.184	78.75
368.41	68.75
368.636	87.75
368.862	93.75
369.089	81.75
369.315	80.75
369.541	76.75
369.767	79.75
369.993	85.75
370.219	84.75
370.445	81.75
370.672	81.75
370.898	80.75
371.124	88.75
371.35	81.75
371.576	88.75
371.802	74.75
372.028	80.75
372.254	65.75
372.48	77.75
372.706	81.75
372.932	70.75
373.158	75.75
373.384	72.75
373.61	92.75
373.835	68.75
374.061	78.75
374.287	90.75
374.513	83.75
374.739	78.75
374.965	83.75
375.191	103.75
375.416	92.75
375.642	76.75
375.868	91.75
376.094	74.75
376.319	82.75
376.545	77.75
376.771	77.75
376.997	84.75
377.222	92.75
377.448	92.75
377.674	88.75
377.899	82.75
378.125	81.75
378.35	88.75
378.576	76.75
378.802	95.75
379.027	79.75
379.253	94.75
379.478	69.75
379.704	86.75
379.929	94.75
380.155	83.75
380.38	85.75
380.606	99.75
380.831	83.75
381.057	90.75
381.282	73.75
381.507	88.75
381.733	78.75
381.958	93.75
382.184	78.75
382.409	86.75
382.634	80.75
382.86	85.75
383.085	76.75
383.31	92.75
383.535	91.75
383.761	95.75
383.986	84.75
384.211	81.75
384.436	73.75
384.662	78.75
384.887	76.75
385.112	88.75
385.337	85.75
385.562	99.75
385.787	85.75
386.013	101.75
386.238	84.75
386.463	87.75
386.688	84.75
386.913	77.75
387.138	77.75
387.363	91.75
387.588	77.75
387.813	90.75
388.038	86.75
388.263	82.75
388.488	76.75
388.713	93.75
388.938	86.75
389.163	90.75
389.387	85.75
389.612	72.75
389.837	86.75
390.062	77.75
390.287	83.75
390.512	82.75
390.736	78.75
390.961	74.75
391.186	91.75
391.411	75.75
391.636	89.75
391.86	77.75
392.085	77.75
392.31	78.75
392.534	96.75
392.759	83.75
392.984	82.75
393.208	83.75
393.433	86.75
393.658	83.75
393.882	72.75
394.107	77.75
394.331	76.75
394.556	84.75
394.78	78.75
395.005	77.75
395.229	83.75
395.454	92.75
395.678	86.75
395.903	80.75
396.127	83.75
396.352	69.75
396.576	90.75
396.801	89.75
397.025	91.75
397.249	85.75
397.474	77.75
397.698	78.75
397.922	88.75
398.147	83.75
398.371	86.75
398.595	88.75
398.82	82.75
399.044	78.75
399.268	90.75
399.492	89.75
399.717	81.75
399.941	85.75
400.165	73.75
400.389	84.75
400.613	80.75
400.837	91.75
401.062	82.75
401.286	83.75
401.51	83.75
401.734	88.75
401.958	83.75
402.182	85.75
402.406	83.75
402.63	81.75
402.854	72.75
403.078	84.75
403.302	89.75
403.526	83.75
403.75	81.75
403.974	85.75
404.198	78.75
404.422	91.75
404.645	93.75
404.869	76.75
405.093	77.75
405.317	84.75
405.541	84.75
405.765	87.75
405.988	94.75
406.212	76.75
406.436	97.75
406.66	89.75
406.883	90.75
407.107	89.75
407.331	88.75
407.555	80.75
407.778	92.75
408.002	88.75
408.226	85.75
408.449	95.75
408.673	87.75
408.896	93.75
409.12	91.75
409.344	93.75
409.567	84.75
409.791	96.75
410.014	91.75
410.238	85.75
410.461	93.75
410.685	86.75
410.908	83.75
411.132	82.75
411.355	82.75
411.578	85.75
411.802	71.75
412.025	83.75
412.249	84.75
412.472	81.75
412.695	96.75
412.919	97.75
413.142	82.75
413.365	90.75
413.589	88.75
413.812	99.75
414.035	87.75
414.258	86.75
414.482	80.75
414.705	83.75
414.928	90.75
415.151	83.75
415.374	93.75
415.597	91.75
415.821	89.75
416.044	72.75
416.267	77.75
416.49	82.75
416.713	85.75
416.936	99.75
417.159	86.75
417.382	78.75
417.605	89.75
417.828	80.75
418.051	91.75
418.274	78.75
418.497	84.75
418.72	86.75
418.943	85.75
419.166	96.75
419.389	103.75
419.611	72.75
419.834	74.75
420.057	90.75
420.28	75.75
420.503	86.75
420.726	85.75
420.948	86.75
421.171	72.75
421.394	84.75
421.617	86.75
421.839	79.75
422.062	85.75
422.285	82.75
422.507	82.75
422.73	89.75
422.953	88.75
423.175	84.75
423.398	81.75
423.621	74.75
423.843	80.75
424.066	88.75
424.288	94.75
424.511	86.75
424.733	86.75
424.956	72.75
425.178	93.75
425.401	78.75
425.623	88.75
425.846	77.75
426.068	85.75
426.291	81.75
426.513	100.75
426.735	97.75
426.958	84.75
427.18	74.75
427.402	85.75
427.625	82.75
427.847	98.75
428.069	94.75
428.292	92.75
428.514	73.75
428.736	82.75
428.958	90.75
429.181	87.75
429.403	85.75
429.625	89.75
429.847	93.75
430.069	86.75
430.292	88.75
430.514	86.75
430.736	70.75
430.958	80.75
431.18	87.75
431.402	95.75
431.624	93.75
431.846	76.75
432.068	86.75
432.29	74.75
432.512	89.75
432.734	89.75
432.956	89.75
433.178	81.75
433.4	76.75
433.622	98.75
433.844	84.75
434.066	98.75
434.287	83.75
434.509	90.75
434.731	92.75
434.953	86.75
435.175	89.75
435.397	90.75
435.618	93.75
435.84	65.75
436.062	79.75
436.284	78.75
436.505	82.75
436.727	90.75
436.949	96.75
437.17	95.75
437.392	97.75
437.614	89.75
437.835	91.75
438.057	88.75
438.278	89.75
438.5	79.75
438.721	102.75
438.943	82.75
439.165	78.75
439.386	70.75
439.608	95.75
439.829	87.75
440.05	101.75
440.272	110.75
440.493	94.75
440.715	88.75
440.936	82.75
441.158	90.75
441.379	93.75
441.6	86.75
441.822	89.75
442.043	98.75
442.264	90.75
442.486	84.75
442.707	76.75
442.928	77.75
443.149	89.75
443.371	91.75
443.592	101.75
443.813	90.75
444.034	74.75
444.255	87.75
444.476	92.75
444.698	88.75
444.919	83.75
445.14	217.75
445.361	141.75
445.582	95.75
445.803	86.75
446.024	92.75
446.245	106.75
446.466	92.75
446.687	93.75
446.908	92.75
447.129	86.75
447.35	92.75
447.571	90.75
447.792	92.75
448.013	91.75
448.234	87.75
448.455	88.75
448.675	87.75
448.896	107.75
449.117	92.75
449.338	82.75
449.559	95.75
449.779	90.75
450	87.75
450.221	84.75
450.442	92.75
450.662	87.75
450.883	90.75
451.104	79.75
451.324	86.75
451.545	99.75
451.766	97.75
451.986	82.75
452.207	88.75
452.428	81.75
452.648	98.75
452.869	87.75
453.089	89.75
453.31	68.75
453.53	89.75
453.751	82.75
453.971	92.75
454.192	83.75
454.412	97.75
454.633	93.75
454.853	90.75
455.073	78.75
455.294	74.75
455.514	93.75
455.734	71.75
455.955	90.75
456.175	84.75
456.395	92.75
456.616	75.75
456.836	87.75
457.056	92.75
457.276	74.75
457.497	86.75
457.717	92.75
457.937	86.75
458.157	85.75
458.377	75.75
458.598	78.75
458.818	93.75
459.038	95.75
459.258	82.75
459.478	91.75
459.698	78.75
459.918	86.75
460.138	74.75
460.358	78.75
460.578	92.75
460.798	73.75
461.018	97.75
461.238	85.75
461.458	81.75
461.678	81.75
461.898	90.75
462.118	86.75
462.338	82.75
462.558	93.75
462.777	78.75
462.997	79.75
463.217	73.75
463.437	93.75
463.657	96.75
463.876	86.75
464.096	95.75
464.316	81.75
464.536	83.75
464.755	76.75
464.975	85.75
465.195	70.75
465.414	92.75
465.634	80.75
465.854	81.75
466.073	81.75
466.293	95.75
466.512	92.75
466.732	83.75
466.951	92.75
467.171	76.75
467.391	99.75
467.61	86.75
467.829	97.75
468.049	90.75
468.268	74.75
468.488	93.75
468.707	100.75
468.927	93.75
469.146	77.75
469.365	77.75
469.585	90.75
469.804	90.75
470.023	89.75
470.243	92.75
470.462	88.75
470.681	88.75
470.901	94.75
471.12	77.75
471.339	94.75
471.558	69.75
471.777	87.75
471.997	100.75
472.216	80.75
472.435	95.75
472.654	94.75
472.873	99.75
473.092	81.75
473.311	90.75
473.53	90.75
473.749	93.75
473.968	94.75
474.187	88.75
474.406	81.75
474.625	89.75
474.844	78.75
475.063	84.75
475.282	81.75
475.501	82.75
475.72	97.75
475.939	86.75
476.158	83.75
476.377	101.75
476.596	95.75
476.814	82.75
477.033	94.75
477.252	95.75
477.471	91.75
477.69	86.75
477.908	87.75
478.127	103.75
478.346	88.75
478.564	91.75
478.783	98.75
479.002	88.75
479.22	90.75
479.439	89.75
479.658	105.75
479.876	84.75
480.095	84.75
480.313	68.75
480.532	77.75
480.751	82.75
480.969	94.75
481.188	90.75
481.406	82.75
481.624	69.75
481.843	79.75
482.061	69.75
482.28	69.75
482.498	85.75
482.717	91.75
482.935	83.75
483.153	93.75
483.372	83.75
483.59	93.75
483.808	91.75
484.027	93.75
484.245	90.75
484.463	100.75
484.681	88.75
484.9	78.75
485.118	107.75
485.336	73.75
485.554	85.75
485.772	85.75
485.99	88.75
486.209	78.75
486.427	90.75
486.645	78.75
486.863	103.75
487.081	83.75
487.299	90.75
487.517	105.75
487.735	102.75
487.953	98.75
488.171	90.75
488.389	87.75
488.607	96.75
488.825	87.75
489.043	102.75
489.261	90.75
489.479	97.75
489.696	86.75
489.914	90.75
490.132	91.75
490.35	101.75
490.568	88.75
490.786	98.75
491.003	97.75
491.221	97.75
491.439	101.75
491.657	100.75
491.874	98.75
492.092	119.75
492.31	109.75
492.527	118.75
492.745	109.75
492.963	96.75
493.18	105.75
493.398	102.75
493.615	95.75
493.833	93.75
494.05	95.75
494.268	95.75
494.485	112.75
494.703	106.75
494.92	108.75
495.138	103.75
495.355	91.75
495.573	92.75
495.79	106.75
496.008	104.75
496.225	101.75
496.442	78.75
496.66	88.75
496.877	105.75
497.094	89.75
497.312	97.75
497.529	88.75
497.746	94.75
497.963	87.75
498.181	92.75
498.398	82.75
498.615	96.75
498.832	94.75
499.049	89.75
499.267	93.75
499.484	74.75
499.701	82.75
499.918	87.75
500.135	89.75
500.352	91.75
500.569	91.75
500.786	101.75
501.003	85.75
501.22	108.75
501.437	79.75
501.654	94.75
501.871	100.75
502.088	98.75
502.305	96.75
502.522	91.75
502.739	81.75
502.956	82.75
503.172	97.75
503.389	88.75
503.606	82.75
503.823	77.75
504.04	88.75
504.256	97.75
504.473	88.75
504.69	83.75
504.907	105.75
505.123	99.75
505.34	92.75
505.557	103.75
505.773	91.75
505.99	89.75
506.207	85.75
506.423	84.75
506.64	90.75
506.856	85.75
507.073	95.75
507.289	90.75
507.506	92.75
507.722	103.75
507.939	82.75
508.155	78.75
508.372	96.75
508.588	72.75
508.805	86.75
509.021	85.75
509.238	90.75
509.454	83.75
509.67	83.75
509.887	84.75
510.103	77.75
510.319	88.75
510.536	96.75
510.752	72.75
510.968	90.75
511.184	89.75
511.401	77.75
511.617	99.75
511.833	82.75
512.049	83.75
512.265	97.75
512.481	82.75
512.698	88.75
512.914	72.75
513.13	83.75
513.346	88.75
513.562	87.75
513.778	85.75
513.994	96.75
514.21	81.75
514.426	76.75
514.642	73.75
514.858	80.75
515.074	80.75
515.29	87.75
515.506	81.75
515.721	82.75
515.937	74.75
516.153	87.75
516.369	68.75
516.585	73.75
516.801	80.75
517.016	73.75
517.232	76.75
517.448	96.75
517.664	74.75
517.879	81.75
518.095	86.75
518.311	94.75
518.527	90.75
518.742	86.75
518.958	80.75
519.173	81.75
519.389	87.75
519.605	86.75
519.82	81.75
520.036	84.75
520.251	80.75
520.467	92.75
520.682	78.75
520.898	78.75
521.113	63.75
521.329	89.75
521.544	86.75
521.76	79.75
521.975	83.75
522.19	79.75
522.406	91.75
522.621	76.75
522.836	81.75
523.052	76.75
523.267	79.75
523.482	94.75
523.698	83.75
523.913	93.75
524.128	96.75
524.343	91.75
524.559	76.75
524.774	100.75
524.989	97.75
525.204	92.75
525.419	90.75
525.634	79.75
525.849	102.75
526.064	99.75
526.28	75.75
526.495	85.75
526.71	82.75
526.925	84.75
527.14	87.75
527.355	80.75
527.57	91.75
527.785	75.75
527.999	67.75
528.214	79.75
528.429	92.75
528.644	101.75
528.859	91.75
529.074	86.75
529.289	109.75
529.503	115.75
529.718	87.75
529.933	92.75
530.148	92.75
530.363	79.75
530.577	99.75
530.792	87.75
531.007	84.75
531.221	82.75
531.436	78.75
531.651	72.75
531.865	88.75
532.08	79.75
532.295	89.75
532.509	81.75
532.724	91.75
532.938	84.75
533.153	80.75
533.367	94.75
533.582	90.75
533.796	98.75
534.011	78.75
534.225	86.75
534.44	89.75
534.654	80.75
534.868	91.75
535.083	90.75
535.297	93.75
535.511	93.75
535.726	87.75
535.94	98.75
536.154	96.75
536.369	87.75
536.583	88.75
536.797	64.75
537.011	73.75
537.225	101.75
537.44	90.75
537.654	87.75
537.868	81.75
538.082	91.75
538.296	86.75
538.51	80.75
538.724	88.75
538.938	90.75
539.153	74.75
539.367	81.75
539.581	88.75
539.795	82.75
540.009	89.75
540.222	87.75
540.436	89.75
540.65	93.75
540.864	88.75
541.078	93.75
541.292	98.75
541.506	100.75
541.72	112.75
541.934	90.75
542.147	102.75
542.361	101.75
542.575	94.75
542.789	89.75
543.002	90.75
543.216	96.75
543.43	113.75
543.644	93.75
543.857	91.75
544.071	99.75
544.285	100.75
544.498	108.75
544.712	89.75
544.925	105.75
545.139	103.75
545.352	100.75
545.566	106.75
545.779	89.75
545.993	107.75
546.206	103.75
546.42	110.75
546.633	110.75
546.847	104.75
547.06	97.75
547.274	103.75
547.487	103.75
547.7	104.75
547.914	98.75
548.127	88.75
548.34	94.75
548.554	98.75
548.767	106.75
548.98	92.75
549.193	97.75
549.407	104.75
549.62	88.75
549.833	101.75
550.046	93.75
550.259	87.75
550.473	89.75
550.686	103.75
550.899	106.75
551.112	108.75
551.325	94.75
551.538	101.75
551.751	88.75
551.964	92.75
552.177	85.75
552.39	105.75
552.603	94.75
552.816	101.75
553.029	110.75
553.242	97.75
553.455	93.75
553.667	114.75
553.88	85.75
554.093	87.75
554.306	87.75
554.519	109.75
554.732	86.75
554.944	96.75
555.157	92.75
555.37	91.75
555.583	102.75
555.795	88.75
556.008	80.75
556.221	97.75
556.433	95.75
556.646	100.75
556.859	83.75
557.071	91.75
557.284	89.75
557.496	101.75
557.709	97.75
557.921	89.75
558.134	100.75
558.346	92.75
558.559	98.75
558.771	82.75
558.984	84.75
559.196	89.75
559.409	96.75
559.621	95.75
559.833	103.75
560.046	94.75
560.258	88.75
560.47	99.75
560.683	99.75
560.895	95.75
561.107	89.75
561.32	109.75
561.532	88.75
561.744	102.75
561.956	95.75
562.168	93.75
562.381	87.75
562.593	91.75
562.805	79.75
563.017	82.75
563.229	103.75
563.441	98.75
563.653	99.75
563.865	86.75
564.077	94.75
564.289	81.75
564.501	90.75
564.713	98.75
564.925	91.75
565.137	81.75
565.349	80.75
565.561	98.75
565.773	92.75
565.985	88.75
566.197	85.75
566.408	72.75
566.62	94.75
566.832	94.75
567.044	104.75
567.255	106.75
567.467	81.75
567.679	85.75
567.891	82.75
568.102	85.75
568.314	78.75
568.526	87.75
568.737	99.75
568.949	82.75
569.161	87.75
569.372	80.75
569.584	89.75
569.795	99.75
570.007	78.75
570.218	90.75
570.43	96.75
570.641	91.75
570.853	93.75
571.064	89.75
571.276	83.75
571.487	85.75
571.698	90.75
571.91	95.75
572.121	75.75
572.333	86.75
572.544	94.75
572.755	98.75
572.966	62.75
573.178	84.75
573.389	93.75
573.6	82.75
573.811	78.75
574.023	76.75
574.234	92.75
574.445	77.75
574.656	85.75
574.867	94.75
575.078	88.75
575.289	75.75
575.501	93.75
575.712	81.75
575.923	69.75
576.134	97.75
576.345	77.75
576.556	84.75
576.767	93.75
576.978	90.75
577.188	85.75
577.399	84.75
577.61	80.75
577.821	90.75
578.032	82.75
578.243	80.75
578.454	76.75
578.665	87.75
578.875	91.75
579.086	81.75
579.297	94.75
579.508	88.75
579.718	89.75
579.929	85.75
580.14	91.75
580.35	92.75
580.561	89.75
580.772	97.75
580.982	81.75
581.193	88.75
581.403	101.75
581.614	100.75
581.825	90.75
582.035	81.75
582.246	84.75
582.456	86.75
582.667	81.75
582.877	76.75
583.087	70.75
583.298	81.75
583.508	78.75
583.719	82.75
583.929	86.75
584.139	92.75
584.35	100.75
584.56	78.75
584.77	86.75
584.981	79.75
585.191	75.75
585.401	78.75
585.611	89.75
585.821	81.75
586.032	79.75
586.242	88.75
586.452	81.75
586.662	94.75
586.872	94.75
587.082	84.75
587.292	80.75
587.502	96.75
587.713	88.75
587.923	70.75
588.133	76.75
588.343	83.75
588.553	81.75
588.762	84.75
588.972	84.75
589.182	93.75
589.392	95.75
589.602	78.75
589.812	86.75
590.022	86.75
590.232	93.75
590.441	98.75
590.651	93.75
590.861	81.75
591.071	79.75
591.281	85.75
591.49	84.75
591.7	75.75
591.91	83.75
592.119	87.75
592.329	84.75
592.539	86.75
592.748	82.75
592.958	83.75
593.167	81.75
593.377	76.75
593.587	97.75
593.796	89.75
594.006	91.75
594.215	93.75
594.424	88.75
594.634	86.75
594.843	76.75
595.053	81.75
595.262	85.75
595.472	94.75
595.681	76.75
595.89	83.75
596.1	74.75
596.309	94.75
596.518	87.75
596.727	87.75
596.937	86.75
597.146	93.75
597.355	90.75
597.564	87.75
597.774	89.75
597.983	90.75
598.192	92.75
598.401	90.75
598.61	71.75
598.819	82.75
599.028	91.75
599.237	97.75
599.446	93.75
599.655	93.75
599.864	86.75
600.073	82.75
600.282	92.75
600.491	71.75
600.7	100.75
600.909	77.75
601.118	92.75
601.327	84.75
601.536	80.75
601.745	87.75
601.953	101.75
602.162	97.75
602.371	82.75
602.58	80.75
602.789	81.75
602.997	108.75
603.206	93.75
603.415	82.75
603.623	100.75
603.832	93.75
604.041	95.75
604.249	96.75
604.458	95.75
604.666	83.75
604.875	90.75
605.084	76.75
605.292	85.75
605.501	93.75
605.709	93.75
605.918	86.75
606.126	92.75
606.334	83.75
606.543	100.75
606.751	103.75
606.96	86.75
607.168	88.75
607.376	84.75
607.585	92.75
607.793	100.75
608.001	97.75
608.21	92.75
608.418	89.75
608.626	94.75
608.834	79.75
609.043	88.75
609.251	88.75
609.459	83.75
609.667	94.75
609.875	99.75
610.083	75.75
610.291	96.75
610.499	84.75
610.707	87.75
610.916	84.75
611.124	94.75
611.332	94.75
611.54	87.75
611.748	78.75
611.955	92.75
612.163	98.75
612.371	75.75
612.579	87.75
612.787	75.75
612.995	95.75
613.203	77.75
613.411	94.75
613.618	88.75
613.826	95.75
614.034	105.75
614.242	91.75
614.449	90.75
614.657	86.75
614.865	102.75
615.072	91.75
615.28	97.75
615.488	77.75
615.695	79.75
615.903	102.75
616.111	86.75
616.318	94.75
616.526	99.75
616.733	94.75
616.941	78.75
617.148	88.75
617.356	86.75
617.563	102.75
617.771	109.75
617.978	95.75
618.185	93.75
618.393	83.75
618.6	82.75
618.807	97.75
619.015	86.75
619.222	88.75
619.429	84.75
619.637	75.75
619.844	89.75
620.051	80.75
620.258	85.75
620.466	89.75
620.673	81.75
620.88	91.75
621.087	89.75
621.294	84.75
621.501	79.75
621.708	87.75
621.915	93.75
622.122	88.75
622.329	97.75
622.536	85.75
622.743	85.75
622.95	86.75
623.157	92.75
623.364	98.75
623.571	96.75
623.778	97.75
623.985	83.75
624.192	71.75
624.399	78.75
624.606	82.75
624.812	90.75
625.019	89.75
625.226	93.75
625.433	105.75
625.639	82.75
625.846	85.75
626.053	75.75
626.259	75.75
626.466	102.75
626.673	84.75
626.879	94.75
627.086	77.75
627.293	89.75
627.499	89.75
627.706	90.75
627.912	83.75
628.119	75.75
628.325	90.75
628.532	98.75
628.738	91.75
628.945	101.75
629.151	92.75
629.357	86.75
629.564	75.75
629.77	83.75
629.976	76.75
630.183	93.75
630.389	87.75
630.595	80.75
630.802	80.75
631.008	95.75
631.214	83.75
631.42	94.75
631.627	84.75
631.833	92.75
632.039	101.75
632.245	82.75
632.451	87.75
632.657	98.75
632.863	98.75
633.069	86.75
633.275	90.75
633.481	89.75
633.688	77.75
633.893	92.75
634.099	99.75
634.305	75.75
634.511	92.75
634.717	90.75
634.923	76.75
635.129	84.75
635.335	87.75
635.541	71.75
635.747	84.75
635.952	83.75
636.158	85.75
636.364	98.75
636.57	94.75
636.775	87.75
636.981	91.75
637.187	83.75
637.392	90.75
637.598	91.75
637.804	75.75
638.009	96.75
638.215	69.75
638.421	80.75
638.626	90.75
638.832	84.75
639.037	94.75
639.243	92.75
639.448	75.75
639.654	79.75
639.859	97.75
640.065	78.75
640.27	78.75
640.475	93.75
640.681	89.75
640.886	105.75
641.091	83.75
641.297	81.75
641.502	82.75
641.707	78.75
641.913	96.75
642.118	98.75
642.323	99.75
642.528	91.75
642.733	91.75
642.939	86.75
643.144	82.75
643.349	89.75
643.554	96.75
643.759	96.75
643.964	78.75
644.169	87.75
644.374	78.75
644.579	94.75
644.784	90.75
644.989	87.75
645.194	97.75
645.399	89.75
645.604	75.75
645.809	85.75
646.014	79.75
646.219	75.75
646.423	91.75
646.628	86.75
646.833	85.75
647.038	101.75
647.243	96.75
647.447	91.75
647.652	85.75
647.857	90.75
648.062	77.75
648.266	77.75
648.471	67.75
648.676	86.75
648.88	88.75
649.085	90.75
649.289	88.75
649.494	83.75
649.698	99.75
649.903	81.75
650.107	81.75
650.312	77.75
650.516	85.75
650.721	87.75
650.925	97.75
651.13	81.75
651.334	85.75
651.539	85.75
651.743	57.75
651.947	95.75
652.152	102.75
652.356	93.75
652.56	104.75
652.764	97.75
652.969	82.75
653.173	80.75
653.377	78.75
653.581	77.75
653.785	82.75
653.99	79.75
654.194	90.75
654.398	73.75
654.602	97.75
654.806	86.75
655.01	89.75
655.214	91.75
655.418	70.75
655.622	90.75
655.826	68.75
656.03	88.75
656.234	94.75
656.438	82.75
656.642	77.75
656.846	68.75
657.049	91.75
657.253	91.75
657.457	81.75
657.661	86.75
657.865	79.75
658.068	81.75
658.272	78.75
658.476	88.75
658.68	94.75
658.883	82.75
659.087	96.75
659.291	83.75
659.494	86.75
659.698	68.75
659.901	84.75
660.105	77.75
660.309	81.75
660.512	81.75
660.716	88.75
660.919	85.75
661.123	96.75
661.326	75.75
661.53	95.75
661.733	88.75
661.936	98.75
662.14	93.75
662.343	94.75
662.546	81.75
662.75	69.75
662.953	75.75
663.156	75.75
663.36	74.75
663.563	89.75
663.766	87.75
663.969	77.75
664.173	69.75
664.376	74.75
664.579	66.75
664.782	81.75
664.985	87.75
665.188	78.75
665.391	89.75
665.594	84.75
665.797	101.75
666	85.75
666.203	77.75
666.406	78.75
666.609	73.75
666.812	96.75
667.015	88.75
667.218	88.75
667.421	84.75
667.624	78.75
667.827	93.75
668.03	85.75
668.232	80.75
668.435	103.75
668.638	81.75
668.841	91.75
669.043	79.75
669.246	94.75
669.449	96.75
669.651	68.75
669.854	67.75
670.057	81.75
670.259	77.75
670.462	92.75
670.665	78.75
670.867	94.75
671.07	74.75
671.272	77.75
671.475	83.75
671.677	80.75
671.88	80.75
672.082	77.75
672.284	93.75
672.487	83.75
672.689	81.75
672.892	83.75
