Data from Zn(NO3)2Standard.Agarose3%.GreenCap.LampEnergy10E.O_HRD10591_15-08-26-949.txt Node
Date: Mon Jul 22 15:08:26 EDT 2019
User: cochatt
Spectrometer: HR+D1059
Trigger mode: 1
Integration Time (sec): 1.000000E-1
Scans to average: 1
Electric dark correction enabled: true
Nonlinearity correction enabled: false
Boxcar width: 0
XAxis mode: Wavelengths
Number of Pixels in Spectrum: 2048
>>>>>Begin Spectral Data<<<<<
223.165	-7.12
223.4	-7.12
223.635	-7.12
223.869	-22.12
224.104	-15.12
224.338	-25.12
224.573	-15.12
224.808	-4.12
225.042	-11.12
225.277	4.88
225.511	-5.12
225.746	-1.12
225.98	8.88
226.215	8.88
226.449	2.88
226.683	23.88
226.918	22.88
227.152	33.88
227.387	40.88
227.621	44.88
227.856	37.88
228.09	49.88
228.324	43.88
228.559	62.88
228.793	54.88
229.027	60.88
229.262	64.88
229.496	65.88
229.73	86.88
229.964	70.88
230.199	94.88
230.433	72.88
230.667	93.88
230.901	92.88
231.136	91.88
231.37	74.88
231.604	81.88
231.838	75.88
232.072	74.88
232.306	81.88
232.541	77.88
232.775	85.88
233.009	83.88
233.243	73.88
233.477	76.88
233.711	79.88
233.945	86.88
234.179	81.88
234.413	82.88
234.647	77.88
234.881	90.88
235.115	71.88
235.349	72.88
235.583	81.88
235.817	97.88
236.051	87.88
236.285	80.88
236.519	79.88
236.753	63.88
236.987	76.88
237.221	64.88
237.455	78.88
237.689	77.88
237.922	72.88
238.156	70.88
238.39	75.88
238.624	75.88
238.858	79.88
239.091	76.88
239.325	82.88
239.559	68.88
239.793	72.88
240.027	80.88
240.26	74.88
240.494	72.88
240.728	77.88
240.961	69.88
241.195	72.88
241.429	75.88
241.662	69.88
241.896	74.88
242.13	78.88
242.363	90.88
242.597	74.88
242.83	77.88
243.064	78.88
243.298	83.88
243.531	80.88
243.765	70.88
243.998	69.88
244.232	61.88
244.465	90.88
244.699	76.88
244.932	78.88
245.166	89.88
245.399	91.88
245.633	70.88
245.866	86.88
246.099	80.88
246.333	75.88
246.566	72.88
246.8	83.88
247.033	80.88
247.266	64.88
247.5	92.88
247.733	75.88
247.966	78.88
248.2	84.88
248.433	80.88
248.666	85.88
248.899	78.88
249.133	87.88
249.366	75.88
249.599	86.88
249.832	85.88
250.066	86.88
250.299	75.88
250.532	63.88
250.765	66.88
250.998	89.88
251.231	70.88
251.465	68.88
251.698	78.88
251.931	86.88
252.164	78.88
252.397	67.88
252.63	72.88
252.863	82.88
253.096	79.88
253.329	78.88
253.562	71.88
253.795	83.88
254.028	90.88
254.261	70.88
254.494	78.88
254.727	73.88
254.96	73.88
255.193	79.88
255.426	81.88
255.659	72.88
255.892	73.88
256.124	83.88
256.357	77.88
256.59	82.88
256.823	70.88
257.056	84.88
257.289	86.88
257.521	77.88
257.754	88.88
257.987	70.88
258.22	85.88
258.452	69.88
258.685	72.88
258.918	72.88
259.151	69.88
259.383	96.88
259.616	85.88
259.849	75.88
260.081	86.88
260.314	78.88
260.547	84.88
260.779	75.88
261.012	81.88
261.244	86.88
261.477	86.88
261.71	83.88
261.942	71.88
262.175	73.88
262.407	82.88
262.64	78.88
262.872	85.88
263.105	74.88
263.337	83.88
263.57	76.88
263.802	92.88
264.035	97.88
264.267	76.88
264.499	73.88
264.732	73.88
264.964	78.88
265.197	89.88
265.429	101.88
265.661	84.88
265.894	91.88
266.126	87.88
266.358	85.88
266.591	76.88
266.823	79.88
267.055	72.88
267.287	70.88
267.52	71.88
267.752	93.88
267.984	86.88
268.216	81.88
268.448	66.88
268.681	75.88
268.913	78.88
269.145	84.88
269.377	89.88
269.609	86.88
269.841	90.88
270.073	71.88
270.306	72.88
270.538	86.88
270.77	81.88
271.002	93.88
271.234	92.88
271.466	74.88
271.698	74.88
271.93	83.88
272.162	100.88
272.394	86.88
272.626	70.88
272.858	89.88
273.09	74.88
273.322	94.88
273.553	91.88
273.785	84.88
274.017	82.88
274.249	91.88
274.481	64.88
274.713	84.88
274.945	73.88
275.176	75.88
275.408	99.88
275.64	75.88
275.872	84.88
276.104	90.88
276.335	88.88
276.567	78.88
276.799	72.88
277.031	82.88
277.262	72.88
277.494	83.88
277.726	93.88
277.957	86.88
278.189	79.88
278.421	88.88
278.652	80.88
278.884	85.88
279.115	84.88
279.347	80.88
279.579	86.88
279.81	74.88
280.042	88.88
280.273	91.88
280.505	86.88
280.736	80.88
280.968	76.88
281.199	84.88
281.431	93.88
281.662	80.88
281.894	84.88
282.125	79.88
282.356	78.88
282.588	80.88
282.819	79.88
283.051	78.88
283.282	76.88
283.513	89.88
283.745	83.88
283.976	86.88
284.207	91.88
284.439	80.88
284.67	71.88
284.901	85.88
285.132	86.88
285.364	89.88
285.595	78.88
285.826	81.88
286.057	92.88
286.288	84.88
286.52	81.88
286.751	60.88
286.982	81.88
287.213	84.88
287.444	78.88
287.675	78.88
287.906	89.88
288.138	93.88
288.369	82.88
288.6	78.88
288.831	83.88
289.062	91.88
289.293	81.88
289.524	88.88
289.755	100.88
289.986	89.88
290.217	85.88
290.448	86.88
290.679	81.88
290.91	87.88
291.141	72.88
291.371	76.88
291.602	76.88
291.833	88.88
292.064	96.88
292.295	86.88
292.526	92.88
292.757	83.88
292.987	71.88
293.218	81.88
293.449	92.88
293.68	86.88
293.91	89.88
294.141	88.88
294.372	92.88
294.603	82.88
294.833	78.88
295.064	84.88
295.295	85.88
295.525	87.88
295.756	70.88
295.987	76.88
296.217	77.88
296.448	88.88
296.679	86.88
296.909	65.88
297.14	81.88
297.37	77.88
297.601	81.88
297.831	82.88
298.062	90.88
298.292	88.88
298.523	81.88
298.753	83.88
298.984	81.88
299.214	99.88
299.445	84.88
299.675	77.88
299.905	86.88
300.136	70.88
300.366	87.88
300.597	88.88
300.827	73.88
301.057	94.88
301.288	78.88
301.518	74.88
301.748	82.88
301.979	86.88
302.209	84.88
302.439	78.88
302.669	73.88
302.9	79.88
303.13	83.88
303.36	86.88
303.59	85.88
303.82	78.88
304.051	88.88
304.281	85.88
304.511	85.88
304.741	92.88
304.971	85.88
305.201	70.88
305.431	88.88
305.661	93.88
305.891	84.88
306.121	76.88
306.352	77.88
306.582	80.88
306.812	82.88
307.042	89.88
307.272	86.88
307.502	94.88
307.731	76.88
307.961	81.88
308.191	98.88
308.421	85.88
308.651	88.88
308.881	82.88
309.111	99.88
309.341	79.88
309.571	81.88
309.8	76.88
310.03	80.88
310.26	90.88
310.49	86.88
310.72	71.88
310.949	86.88
311.179	92.88
311.409	93.88
311.639	96.88
311.868	80.88
312.098	88.88
312.328	103.88
312.557	90.88
312.787	69.88
313.017	92.88
313.246	92.88
313.476	83.88
313.706	89.88
313.935	88.88
314.165	85.88
314.394	93.88
314.624	104.88
314.853	86.88
315.083	78.88
315.312	82.88
315.542	69.88
315.771	81.88
316.001	81.88
316.23	83.88
316.46	87.88
316.689	93.88
316.919	82.88
317.148	89.88
317.377	85.88
317.607	84.88
317.836	83.88
318.065	77.88
318.295	84.88
318.524	89.88
318.753	92.88
318.983	77.88
319.212	101.88
319.441	78.88
319.67	68.88
319.9	80.88
320.129	84.88
320.358	83.88
320.587	78.88
320.816	80.88
321.046	69.88
321.275	68.88
321.504	90.88
321.733	86.88
321.962	78.88
322.191	87.88
322.42	88.88
322.649	107.88
322.878	85.88
323.108	80.88
323.337	70.88
323.566	85.88
323.795	101.88
324.024	93.88
324.253	94.88
324.482	102.88
324.71	104.88
324.939	90.88
325.168	84.88
325.397	92.88
325.626	87.88
325.855	93.88
326.084	82.88
326.313	77.88
326.542	82.88
326.77	69.88
326.999	80.88
327.228	85.88
327.457	86.88
327.686	79.88
327.914	88.88
328.143	82.88
328.372	86.88
328.6	71.88
328.829	77.88
329.058	88.88
329.287	73.88
329.515	90.88
329.744	96.88
329.972	73.88
330.201	77.88
330.43	80.88
330.658	79.88
330.887	82.88
331.115	93.88
331.344	91.88
331.572	86.88
331.801	88.88
332.03	82.88
332.258	83.88
332.486	86.88
332.715	97.88
332.943	79.88
333.172	103.88
333.4	81.88
333.629	77.88
333.857	99.88
334.085	81.88
334.314	76.88
334.542	81.88
334.771	82.88
334.999	90.88
335.227	84.88
335.455	90.88
335.684	81.88
335.912	77.88
336.14	87.88
336.369	95.88
336.597	92.88
336.825	83.88
337.053	74.88
337.281	82.88
337.51	83.88
337.738	86.88
337.966	84.88
338.194	70.88
338.422	87.88
338.65	85.88
338.878	94.88
339.106	83.88
339.334	93.88
339.562	78.88
339.79	93.88
340.018	85.88
340.246	78.88
340.474	75.88
340.702	76.88
340.93	87.88
341.158	91.88
341.386	85.88
341.614	80.88
341.842	72.88
342.07	85.88
342.298	84.88
342.526	77.88
342.754	94.88
342.981	84.88
343.209	88.88
343.437	75.88
343.665	94.88
343.893	89.88
344.12	78.88
344.348	69.88
344.576	95.88
344.804	71.88
345.031	82.88
345.259	81.88
345.487	81.88
345.714	79.88
345.942	94.88
346.17	84.88
346.397	87.88
346.625	81.88
346.853	91.88
347.08	78.88
347.308	90.88
347.535	83.88
347.763	82.88
347.99	95.88
348.218	92.88
348.445	85.88
348.673	84.88
348.9	86.88
349.128	90.88
349.355	77.88
349.583	83.88
349.81	82.88
350.037	78.88
350.265	102.88
350.492	91.88
350.72	85.88
350.947	81.88
351.174	92.88
351.402	83.88
351.629	78.88
351.856	84.88
352.083	65.88
352.311	88.88
352.538	85.88
352.765	92.88
352.992	84.88
353.22	80.88
353.447	83.88
353.674	98.88
353.901	90.88
354.128	81.88
354.355	78.88
354.583	81.88
354.81	80.88
355.037	74.88
355.264	92.88
355.491	87.88
355.718	91.88
355.945	87.88
356.172	87.88
356.399	83.88
356.626	90.88
356.853	76.88
357.08	88.88
357.307	73.88
357.534	77.88
357.761	78.88
357.988	78.88
358.215	86.88
358.441	82.88
358.668	87.88
358.895	84.88
359.122	84.88
359.349	87.88
359.576	91.88
359.802	75.88
360.029	85.88
360.256	87.88
360.483	88.88
360.709	83.88
360.936	89.88
361.163	87.88
361.39	86.88
361.616	83.88
361.843	86.88
362.07	96.88
362.296	76.88
362.523	70.88
362.749	98.88
362.976	69.88
363.203	89.88
363.429	82.88
363.656	84.88
363.882	78.88
364.109	78.88
364.335	89.88
364.562	79.88
364.788	89.88
365.015	88.88
365.241	94.88
365.468	101.88
365.694	84.88
365.92	81.88
366.147	71.88
366.373	81.88
366.599	81.88
366.826	85.88
367.052	92.88
367.278	83.88
367.505	95.88
367.731	68.88
367.957	92.88
368.184	96.88
368.41	74.88
368.636	69.88
368.862	81.88
369.089	80.88
369.315	79.88
369.541	81.88
369.767	86.88
369.993	88.88
370.219	82.88
370.445	85.88
370.672	88.88
370.898	90.88
371.124	88.88
371.35	90.88
371.576	93.88
371.802	91.88
372.028	77.88
372.254	86.88
372.48	79.88
372.706	93.88
372.932	94.88
373.158	99.88
373.384	112.88
373.61	90.88
373.835	77.88
374.061	76.88
374.287	92.88
374.513	79.88
374.739	86.88
374.965	86.88
375.191	102.88
375.416	90.88
375.642	93.88
375.868	95.88
376.094	87.88
376.319	90.88
376.545	89.88
376.771	89.88
376.997	93.88
377.222	107.88
377.448	90.88
377.674	101.88
377.899	81.88
378.125	80.88
378.35	98.88
378.576	93.88
378.802	86.88
379.027	98.88
379.253	90.88
379.478	88.88
379.704	91.88
379.929	102.88
380.155	93.88
380.38	82.88
380.606	80.88
380.831	101.88
381.057	117.88
381.282	87.88
381.507	98.88
381.733	85.88
381.958	78.88
382.184	84.88
382.409	80.88
382.634	80.88
382.86	82.88
383.085	78.88
383.31	83.88
383.535	99.88
383.761	74.88
383.986	88.88
384.211	87.88
384.436	86.88
384.662	96.88
384.887	96.88
385.112	96.88
385.337	84.88
385.562	104.88
385.787	90.88
386.013	110.88
386.238	91.88
386.463	83.88
386.688	74.88
386.913	88.88
387.138	85.88
387.363	90.88
387.588	86.88
387.813	91.88
388.038	72.88
388.263	96.88
388.488	92.88
388.713	96.88
388.938	95.88
389.163	84.88
389.387	77.88
389.612	99.88
389.837	94.88
390.062	87.88
390.287	104.88
390.512	89.88
390.736	88.88
390.961	92.88
391.186	90.88
391.411	78.88
391.636	96.88
391.86	96.88
392.085	94.88
392.31	91.88
392.534	89.88
392.759	84.88
392.984	98.88
393.208	89.88
393.433	93.88
393.658	91.88
393.882	83.88
394.107	98.88
394.331	94.88
394.556	96.88
394.78	91.88
395.005	90.88
395.229	98.88
395.454	90.88
395.678	94.88
395.903	90.88
396.127	93.88
396.352	91.88
396.576	96.88
396.801	95.88
397.025	88.88
397.249	102.88
397.474	104.88
397.698	101.88
397.922	92.88
398.147	101.88
398.371	94.88
398.595	81.88
398.82	94.88
399.044	106.88
399.268	86.88
399.492	96.88
399.717	93.88
399.941	94.88
400.165	96.88
400.389	97.88
400.613	94.88
400.837	98.88
401.062	96.88
401.286	92.88
401.51	98.88
401.734	92.88
401.958	106.88
402.182	98.88
402.406	94.88
402.63	89.88
402.854	100.88
403.078	106.88
403.302	90.88
403.526	101.88
403.75	100.88
403.974	98.88
404.198	98.88
404.422	92.88
404.645	89.88
404.869	102.88
405.093	99.88
405.317	93.88
405.541	112.88
405.765	89.88
405.988	104.88
406.212	101.88
406.436	105.88
406.66	100.88
406.883	105.88
407.107	93.88
407.331	93.88
407.555	89.88
407.778	105.88
408.002	97.88
408.226	91.88
408.449	108.88
408.673	106.88
408.896	101.88
409.12	97.88
409.344	87.88
409.567	97.88
409.791	94.88
410.014	103.88
410.238	94.88
410.461	96.88
410.685	112.88
410.908	115.88
411.132	112.88
411.355	92.88
411.578	96.88
411.802	102.88
412.025	85.88
412.249	106.88
412.472	109.88
412.695	100.88
412.919	112.88
413.142	98.88
413.365	102.88
413.589	107.88
413.812	116.88
414.035	121.88
414.258	96.88
414.482	93.88
414.705	106.88
414.928	98.88
415.151	101.88
415.374	102.88
415.597	109.88
415.821	92.88
416.044	103.88
416.267	94.88
416.49	93.88
416.713	104.88
416.936	106.88
417.159	105.88
417.382	96.88
417.605	108.88
417.828	124.88
418.051	101.88
418.274	105.88
418.497	106.88
418.72	110.88
418.943	102.88
419.166	104.88
419.389	102.88
419.611	102.88
419.834	106.88
420.057	101.88
420.28	109.88
420.503	111.88
420.726	93.88
420.948	109.88
421.171	101.88
421.394	118.88
421.617	106.88
421.839	117.88
422.062	104.88
422.285	105.88
422.507	113.88
422.73	113.88
422.953	117.88
423.175	103.88
423.398	112.88
423.621	115.88
423.843	107.88
424.066	104.88
424.288	122.88
424.511	120.88
424.733	108.88
424.956	114.88
425.178	99.88
425.401	92.88
425.623	106.88
425.846	113.88
426.068	113.88
426.291	120.88
426.513	97.88
426.735	114.88
426.958	105.88
427.18	116.88
427.402	114.88
427.625	106.88
427.847	101.88
428.069	116.88
428.292	114.88
428.514	100.88
428.736	110.88
428.958	104.88
429.181	105.88
429.403	105.88
429.625	106.88
429.847	103.88
430.069	105.88
430.292	108.88
430.514	99.88
430.736	122.88
430.958	113.88
431.18	105.88
431.402	109.88
431.624	99.88
431.846	111.88
432.068	94.88
432.29	83.88
432.512	105.88
432.734	106.88
432.956	86.88
433.178	118.88
433.4	99.88
433.622	105.88
433.844	101.88
434.066	90.88
434.287	108.88
434.509	81.88
434.731	82.88
434.953	97.88
435.175	101.88
435.397	108.88
435.618	90.88
435.84	92.88
436.062	106.88
436.284	99.88
436.505	96.88
436.727	112.88
436.949	112.88
437.17	108.88
437.392	98.88
437.614	100.88
437.835	99.88
438.057	84.88
438.278	93.88
438.5	91.88
438.721	107.88
438.943	112.88
439.165	115.88
439.386	109.88
439.608	112.88
439.829	104.88
440.05	101.88
440.272	99.88
440.493	128.88
440.715	122.88
440.936	120.88
441.158	112.88
441.379	104.88
441.6	110.88
441.822	118.88
442.043	98.88
442.264	103.88
442.486	104.88
442.707	116.88
442.928	109.88
443.149	113.88
443.371	109.88
443.592	116.88
443.813	113.88
444.034	110.88
444.255	105.88
444.476	124.88
444.698	110.88
444.919	113.88
445.14	195.88
445.361	136.88
445.582	106.88
445.803	111.88
446.024	118.88
446.245	113.88
446.466	126.88
446.687	131.88
446.908	118.88
447.129	102.88
447.35	127.88
447.571	107.88
447.792	106.88
448.013	125.88
448.234	105.88
448.455	130.88
448.675	108.88
448.896	116.88
449.117	128.88
449.338	118.88
449.559	101.88
449.779	94.88
450	88.88
450.221	102.88
450.442	105.88
450.662	113.88
450.883	112.88
451.104	105.88
451.324	103.88
451.545	99.88
451.766	120.88
451.986	98.88
452.207	97.88
452.428	115.88
452.648	100.88
452.869	105.88
453.089	105.88
453.31	86.88
453.53	102.88
453.751	82.88
453.971	100.88
454.192	79.88
454.412	89.88
454.633	95.88
454.853	106.88
455.073	108.88
455.294	106.88
455.514	99.88
455.734	110.88
455.955	114.88
456.175	99.88
456.395	103.88
456.616	108.88
456.836	92.88
457.056	93.88
457.276	89.88
457.497	83.88
457.717	90.88
457.937	94.88
458.157	100.88
458.377	91.88
458.598	89.88
458.818	97.88
459.038	88.88
459.258	96.88
459.478	86.88
459.698	80.88
459.918	85.88
460.138	85.88
460.358	97.88
460.578	97.88
460.798	114.88
461.018	102.88
461.238	96.88
461.458	97.88
461.678	116.88
461.898	101.88
462.118	96.88
462.338	99.88
462.558	93.88
462.777	100.88
462.997	90.88
463.217	96.88
463.437	91.88
463.657	103.88
463.876	96.88
464.096	99.88
464.316	98.88
464.536	97.88
464.755	108.88
464.975	91.88
465.195	113.88
465.414	86.88
465.634	102.88
465.854	92.88
466.073	98.88
466.293	87.88
466.512	99.88
466.732	105.88
466.951	88.88
467.171	119.88
467.391	126.88
467.61	99.88
467.829	106.88
468.049	109.88
468.268	108.88
468.488	116.88
468.707	96.88
468.927	110.88
469.146	105.88
469.365	105.88
469.585	110.88
469.804	113.88
470.023	102.88
470.243	114.88
470.462	114.88
470.681	121.88
470.901	108.88
471.12	94.88
471.339	118.88
471.558	112.88
471.777	102.88
471.997	96.88
472.216	95.88
472.435	92.88
472.654	101.88
472.873	105.88
473.092	95.88
473.311	99.88
473.53	119.88
473.749	115.88
473.968	103.88
474.187	104.88
474.406	103.88
474.625	93.88
474.844	93.88
475.063	99.88
475.282	114.88
475.501	104.88
475.72	106.88
475.939	103.88
476.158	101.88
476.377	107.88
476.596	116.88
476.814	92.88
477.033	91.88
477.252	95.88
477.471	112.88
477.69	107.88
477.908	99.88
478.127	113.88
478.346	100.88
478.564	104.88
478.783	85.88
479.002	97.88
479.22	104.88
479.439	118.88
479.658	107.88
479.876	95.88
480.095	92.88
480.313	99.88
480.532	107.88
480.751	88.88
480.969	95.88
481.188	83.88
481.406	85.88
481.624	89.88
481.843	81.88
482.061	88.88
482.28	86.88
482.498	104.88
482.717	85.88
482.935	106.88
483.153	114.88
483.372	99.88
483.59	112.88
483.808	97.88
484.027	101.88
484.245	111.88
484.463	121.88
484.681	112.88
484.9	109.88
485.118	107.88
485.336	104.88
485.554	89.88
485.772	91.88
485.99	93.88
486.209	118.88
486.427	94.88
486.645	100.88
486.863	97.88
487.081	108.88
487.299	115.88
487.517	120.88
487.735	121.88
487.953	126.88
488.171	123.88
488.389	128.88
488.607	128.88
488.825	109.88
489.043	114.88
489.261	110.88
489.479	109.88
489.696	120.88
489.914	115.88
490.132	110.88
490.35	118.88
490.568	112.88
490.786	110.88
491.003	124.88
491.221	126.88
491.439	132.88
491.657	138.88
491.874	137.88
492.092	136.88
492.31	167.88
492.527	153.88
492.745	142.88
492.963	135.88
493.18	142.88
493.398	130.88
493.615	139.88
493.833	136.88
494.05	132.88
494.268	124.88
494.485	128.88
494.703	130.88
494.92	116.88
495.138	134.88
495.355	143.88
495.573	124.88
495.79	117.88
496.008	120.88
496.225	126.88
496.442	136.88
496.66	126.88
496.877	119.88
497.094	142.88
497.312	127.88
497.529	120.88
497.746	108.88
497.963	106.88
498.181	98.88
498.398	99.88
498.615	107.88
498.832	112.88
499.049	107.88
499.267	102.88
499.484	126.88
499.701	123.88
499.918	100.88
500.135	111.88
500.352	106.88
500.569	124.88
500.786	116.88
501.003	122.88
501.22	116.88
501.437	110.88
501.654	112.88
501.871	96.88
502.088	107.88
502.305	103.88
502.522	106.88
502.739	117.88
502.956	107.88
503.172	101.88
503.389	89.88
503.606	109.88
503.823	93.88
504.04	87.88
504.256	112.88
504.473	107.88
504.69	101.88
504.907	104.88
505.123	98.88
505.34	96.88
505.557	101.88
505.773	105.88
505.99	94.88
506.207	93.88
506.423	97.88
506.64	109.88
506.856	113.88
507.073	94.88
507.289	94.88
507.506	117.88
507.722	112.88
507.939	94.88
508.155	90.88
508.372	106.88
508.588	98.88
508.805	96.88
509.021	99.88
509.238	98.88
509.454	91.88
509.67	95.88
509.887	100.88
510.103	105.88
510.319	89.88
510.536	98.88
510.752	91.88
510.968	90.88
511.184	61.88
511.401	90.88
511.617	77.88
511.833	91.88
512.049	77.88
512.265	83.88
512.481	90.88
512.698	93.88
512.914	98.88
513.13	85.88
513.346	83.88
513.562	84.88
513.778	93.88
513.994	99.88
514.21	84.88
514.426	98.88
514.642	93.88
514.858	86.88
515.074	84.88
515.29	88.88
515.506	70.88
515.721	88.88
515.937	93.88
516.153	76.88
516.369	83.88
516.585	84.88
516.801	85.88
517.016	70.88
517.232	87.88
517.448	95.88
517.664	90.88
517.879	91.88
518.095	82.88
518.311	82.88
518.527	79.88
518.742	90.88
518.958	91.88
519.173	100.88
519.389	93.88
519.605	89.88
519.82	98.88
520.036	103.88
520.251	88.88
520.467	100.88
520.682	89.88
520.898	85.88
521.113	91.88
521.329	94.88
521.544	85.88
521.76	98.88
521.975	94.88
522.19	89.88
522.406	88.88
522.621	95.88
522.836	94.88
523.052	107.88
523.267	99.88
523.482	76.88
523.698	93.88
523.913	106.88
524.128	103.88
524.343	98.88
524.559	105.88
524.774	84.88
524.989	98.88
525.204	113.88
525.419	108.88
525.634	116.88
525.849	97.88
526.064	89.88
526.28	90.88
526.495	85.88
526.71	84.88
526.925	78.88
527.14	75.88
527.355	78.88
527.57	77.88
527.785	92.88
527.999	88.88
528.214	86.88
528.429	113.88
528.644	100.88
528.859	111.88
529.074	121.88
529.289	114.88
529.503	110.88
529.718	120.88
529.933	92.88
530.148	95.88
530.363	93.88
530.577	90.88
530.792	80.88
531.007	89.88
531.221	97.88
531.436	83.88
531.651	95.88
531.865	85.88
532.08	82.88
532.295	85.88
532.509	85.88
532.724	91.88
532.938	78.88
533.153	80.88
533.367	85.88
533.582	101.88
533.796	120.88
534.011	93.88
534.225	98.88
534.44	78.88
534.654	91.88
534.868	86.88
535.083	88.88
535.297	84.88
535.511	99.88
535.726	91.88
535.94	81.88
536.154	86.88
536.369	82.88
536.583	81.88
536.797	83.88
537.011	82.88
537.225	70.88
537.44	96.88
537.654	85.88
537.868	97.88
538.082	78.88
538.296	89.88
538.51	94.88
538.724	104.88
538.938	90.88
539.153	120.88
539.367	104.88
539.581	100.88
539.795	88.88
540.009	89.88
540.222	84.88
540.436	100.88
540.65	106.88
540.864	105.88
541.078	124.88
541.292	106.88
541.506	116.88
541.72	131.88
541.934	143.88
542.147	148.88
542.361	132.88
542.575	117.88
542.789	111.88
543.002	130.88
543.216	107.88
543.43	96.88
543.644	116.88
543.857	105.88
544.071	104.88
544.285	120.88
544.498	122.88
544.712	119.88
544.925	131.88
545.139	111.88
545.352	113.88
545.566	129.88
545.779	129.88
545.993	114.88
546.206	121.88
546.42	136.88
546.633	114.88
546.847	118.88
547.06	133.88
547.274	124.88
547.487	121.88
547.7	123.88
547.914	123.88
548.127	126.88
548.34	125.88
548.554	109.88
548.767	126.88
548.98	126.88
549.193	106.88
549.407	119.88
549.62	122.88
549.833	120.88
550.046	127.88
550.259	128.88
550.473	121.88
550.686	116.88
550.899	126.88
551.112	110.88
551.325	108.88
551.538	104.88
551.751	112.88
551.964	103.88
552.177	96.88
552.39	114.88
552.603	116.88
552.816	126.88
553.029	125.88
553.242	107.88
553.455	119.88
553.667	130.88
553.88	128.88
554.093	122.88
554.306	118.88
554.519	120.88
554.732	105.88
554.944	130.88
555.157	115.88
555.37	126.88
555.583	108.88
555.795	110.88
556.008	104.88
556.221	96.88
556.433	100.88
556.646	115.88
556.859	114.88
557.071	116.88
557.284	114.88
557.496	115.88
557.709	102.88
557.921	112.88
558.134	116.88
558.346	115.88
558.559	105.88
558.771	112.88
558.984	117.88
559.196	115.88
559.409	119.88
559.621	105.88
559.833	108.88
560.046	95.88
560.258	101.88
560.47	98.88
560.683	104.88
560.895	99.88
561.107	90.88
561.32	100.88
561.532	104.88
561.744	102.88
561.956	108.88
562.168	106.88
562.381	107.88
562.593	105.88
562.805	116.88
563.017	108.88
563.229	104.88
563.441	101.88
563.653	96.88
563.865	97.88
564.077	110.88
564.289	105.88
564.501	104.88
564.713	108.88
564.925	100.88
565.137	111.88
565.349	96.88
565.561	96.88
565.773	88.88
565.985	85.88
566.197	100.88
566.408	114.88
566.62	100.88
566.832	106.88
567.044	101.88
567.255	113.88
567.467	111.88
567.679	107.88
567.891	87.88
568.102	77.88
568.314	93.88
568.526	85.88
568.737	88.88
568.949	77.88
569.161	82.88
569.372	83.88
569.584	86.88
569.795	78.88
570.007	76.88
570.218	83.88
570.43	75.88
570.641	104.88
570.853	93.88
571.064	97.88
571.276	79.88
571.487	96.88
571.698	93.88
571.91	97.88
572.121	112.88
572.333	91.88
572.544	90.88
572.755	82.88
572.966	83.88
573.178	79.88
573.389	82.88
573.6	84.88
573.811	81.88
574.023	82.88
574.234	83.88
574.445	91.88
574.656	85.88
574.867	96.88
575.078	91.88
575.289	93.88
575.501	78.88
575.712	96.88
575.923	85.88
576.134	88.88
576.345	95.88
576.556	80.88
576.767	77.88
576.978	104.88
577.188	81.88
577.399	85.88
577.61	100.88
577.821	82.88
578.032	90.88
578.243	102.88
578.454	84.88
578.665	95.88
578.875	94.88
579.086	92.88
579.297	98.88
579.508	84.88
579.718	87.88
579.929	85.88
580.14	92.88
580.35	100.88
580.561	95.88
580.772	81.88
580.982	100.88
581.193	103.88
581.403	90.88
581.614	99.88
581.825	83.88
582.035	78.88
582.246	84.88
582.456	89.88
582.667	84.88
582.877	95.88
583.087	84.88
583.298	77.88
583.508	103.88
583.719	80.88
583.929	81.88
584.139	89.88
584.35	95.88
584.56	79.88
584.77	95.88
584.981	78.88
585.191	88.88
585.401	89.88
585.611	85.88
585.821	81.88
586.032	76.88
586.242	96.88
586.452	97.88
586.662	67.88
586.872	78.88
587.082	80.88
587.292	92.88
587.502	87.88
587.713	101.88
587.923	89.88
588.133	74.88
588.343	83.88
588.553	88.88
588.762	96.88
588.972	89.88
589.182	74.88
589.392	75.88
589.602	85.88
589.812	89.88
590.022	106.88
590.232	80.88
590.441	85.88
590.651	101.88
590.861	79.88
591.071	69.88
591.281	93.88
591.49	81.88
591.7	70.88
591.91	81.88
592.119	90.88
592.329	81.88
592.539	78.88
592.748	80.88
592.958	94.88
593.167	92.88
593.377	79.88
593.587	85.88
593.796	96.88
594.006	96.88
594.215	100.88
594.424	69.88
594.634	84.88
594.843	94.88
595.053	88.88
595.262	84.88
595.472	81.88
595.681	79.88
595.89	85.88
596.1	93.88
596.309	94.88
596.518	80.88
596.727	92.88
596.937	83.88
597.146	84.88
597.355	82.88
597.564	91.88
597.774	93.88
597.983	88.88
598.192	77.88
598.401	80.88
598.61	96.88
598.819	97.88
599.028	84.88
599.237	82.88
599.446	99.88
599.655	85.88
599.864	88.88
600.073	76.88
600.282	87.88
600.491	83.88
600.7	89.88
600.909	85.88
601.118	87.88
601.327	89.88
601.536	92.88
601.745	99.88
601.953	103.88
602.162	110.88
602.371	104.88
602.58	99.88
602.789	110.88
602.997	104.88
603.206	94.88
603.415	97.88
603.623	93.88
603.832	79.88
604.041	95.88
604.249	91.88
604.458	100.88
604.666	89.88
604.875	77.88
605.084	108.88
605.292	82.88
605.501	92.88
605.709	90.88
605.918	97.88
606.126	88.88
606.334	92.88
606.543	102.88
606.751	105.88
606.96	90.88
607.168	102.88
607.376	76.88
607.585	93.88
607.793	92.88
608.001	95.88
608.21	92.88
608.418	85.88
608.626	105.88
608.834	94.88
609.043	95.88
609.251	112.88
609.459	95.88
609.667	95.88
609.875	94.88
610.083	100.88
610.291	93.88
610.499	109.88
610.707	103.88
610.916	106.88
611.124	99.88
611.332	98.88
611.54	87.88
611.748	98.88
611.955	101.88
612.163	116.88
612.371	82.88
612.579	98.88
612.787	91.88
612.995	108.88
613.203	103.88
613.411	100.88
613.618	88.88
613.826	81.88
614.034	87.88
614.242	101.88
614.449	89.88
614.657	89.88
614.865	87.88
615.072	91.88
615.28	88.88
615.488	102.88
615.695	93.88
615.903	89.88
616.111	98.88
616.318	107.88
616.526	110.88
616.733	97.88
616.941	93.88
617.148	95.88
617.356	96.88
617.563	100.88
617.771	98.88
617.978	113.88
618.185	101.88
618.393	99.88
618.6	93.88
618.807	94.88
619.015	79.88
619.222	89.88
619.429	109.88
619.637	90.88
619.844	83.88
620.051	96.88
620.258	100.88
620.466	105.88
620.673	101.88
620.88	98.88
621.087	85.88
621.294	93.88
621.501	81.88
621.708	88.88
621.915	100.88
622.122	95.88
622.329	102.88
622.536	92.88
622.743	105.88
622.95	101.88
623.157	98.88
623.364	106.88
623.571	93.88
623.778	83.88
623.985	97.88
624.192	98.88
624.399	92.88
624.606	92.88
624.812	99.88
625.019	96.88
625.226	97.88
625.433	102.88
625.639	103.88
625.846	96.88
626.053	102.88
626.259	90.88
626.466	89.88
626.673	84.88
626.879	91.88
627.086	92.88
627.293	101.88
627.499	90.88
627.706	89.88
627.912	92.88
628.119	92.88
628.325	98.88
628.532	81.88
628.738	108.88
628.945	97.88
629.151	96.88
629.357	92.88
629.564	85.88
629.77	98.88
629.976	104.88
630.183	93.88
630.389	86.88
630.595	88.88
630.802	93.88
631.008	84.88
631.214	104.88
631.42	98.88
631.627	93.88
631.833	101.88
632.039	94.88
632.245	90.88
632.451	93.88
632.657	108.88
632.863	97.88
633.069	103.88
633.275	84.88
633.481	87.88
633.688	92.88
633.893	96.88
634.099	77.88
634.305	85.88
634.511	92.88
634.717	86.88
634.923	92.88
635.129	87.88
635.335	97.88
635.541	98.88
635.747	89.88
635.952	69.88
636.158	99.88
636.364	94.88
636.57	92.88
636.775	97.88
636.981	100.88
637.187	74.88
637.392	83.88
637.598	82.88
637.804	75.88
638.009	101.88
638.215	112.88
638.421	90.88
638.626	106.88
638.832	104.88
639.037	81.88
639.243	88.88
639.448	84.88
639.654	98.88
639.859	90.88
640.065	92.88
640.27	96.88
640.475	97.88
640.681	84.88
640.886	84.88
641.091	79.88
641.297	89.88
641.502	91.88
641.707	106.88
641.913	99.88
642.118	93.88
642.323	81.88
642.528	102.88
642.733	85.88
642.939	100.88
643.144	95.88
643.349	103.88
643.554	89.88
643.759	100.88
643.964	101.88
644.169	100.88
644.374	85.88
644.579	78.88
644.784	98.88
644.989	91.88
645.194	91.88
645.399	74.88
645.604	98.88
645.809	100.88
646.014	99.88
646.219	92.88
646.423	92.88
646.628	110.88
646.833	92.88
647.038	86.88
647.243	80.88
647.447	94.88
647.652	89.88
647.857	79.88
648.062	91.88
648.266	97.88
648.471	93.88
648.676	82.88
648.88	78.88
649.085	79.88
649.289	93.88
649.494	99.88
649.698	74.88
649.903	93.88
650.107	78.88
650.312	88.88
650.516	92.88
650.721	84.88
650.925	87.88
651.13	88.88
651.334	79.88
651.539	101.88
651.743	80.88
651.947	96.88
652.152	88.88
652.356	99.88
652.56	98.88
652.764	92.88
652.969	85.88
653.173	81.88
653.377	77.88
653.581	74.88
653.785	91.88
653.99	95.88
654.194	84.88
654.398	90.88
654.602	92.88
654.806	90.88
655.01	93.88
655.214	74.88
655.418	80.88
655.622	97.88
655.826	89.88
656.03	88.88
656.234	74.88
656.438	85.88
656.642	96.88
656.846	85.88
657.049	89.88
657.253	91.88
657.457	86.88
657.661	77.88
657.865	84.88
658.068	80.88
658.272	80.88
658.476	84.88
658.68	73.88
658.883	94.88
659.087	84.88
659.291	100.88
659.494	81.88
659.698	80.88
659.901	82.88
660.105	82.88
660.309	86.88
660.512	80.88
660.716	82.88
660.919	67.88
661.123	75.88
661.326	92.88
661.53	75.88
661.733	96.88
661.936	76.88
662.14	83.88
662.343	94.88
662.546	92.88
662.75	91.88
662.953	83.88
663.156	87.88
663.36	81.88
663.563	79.88
663.766	76.88
663.969	93.88
664.173	89.88
664.376	82.88
664.579	89.88
664.782	92.88
664.985	75.88
665.188	92.88
665.391	77.88
665.594	67.88
665.797	77.88
666	79.88
666.203	84.88
666.406	84.88
666.609	89.88
666.812	65.88
667.015	81.88
667.218	90.88
667.421	81.88
667.624	81.88
667.827	80.88
668.03	71.88
668.232	83.88
668.435	82.88
668.638	81.88
668.841	75.88
669.043	85.88
669.246	78.88
669.449	71.88
669.651	72.88
669.854	69.88
670.057	76.88
670.259	84.88
670.462	82.88
670.665	79.88
670.867	74.88
671.07	74.88
671.272	83.88
671.475	90.88
671.677	89.88
671.88	69.88
672.082	85.88
672.284	81.88
672.487	91.88
672.689	82.88
672.892	84.88
