Data from Zn(NO3)2Standard.Agarose3%.GreenCap.LampEnergy5.5.E.O_HRD10591_15-03-20-767.txt Node
Date: Mon Jul 22 15:03:20 EDT 2019
User: cochatt
Spectrometer: HR+D1059
Trigger mode: 1
Integration Time (sec): 1.000000E-1
Scans to average: 1
Electric dark correction enabled: true
Nonlinearity correction enabled: false
Boxcar width: 0
XAxis mode: Wavelengths
Number of Pixels in Spectrum: 2048
>>>>>Begin Spectral Data<<<<<
223.165	-11.12
223.4	-11.12
223.635	-11.12
223.869	-20.12
224.104	-16.12
224.338	-17.12
224.573	-12.12
224.808	2.88
225.042	-6.12
225.277	-2.12
225.511	6.88
225.746	-2.12
225.98	-2.12
226.215	-2.12
226.449	13.88
226.683	14.88
226.918	27.88
227.152	24.88
227.387	38.88
227.621	58.88
227.856	36.88
228.09	54.88
228.324	63.88
228.559	50.88
228.793	53.88
229.027	65.88
229.262	65.88
229.496	68.88
229.73	58.88
229.964	70.88
230.199	70.88
230.433	68.88
230.667	75.88
230.901	81.88
231.136	88.88
231.37	79.88
231.604	92.88
231.838	84.88
232.072	73.88
232.306	87.88
232.541	86.88
232.775	85.88
233.009	86.88
233.243	91.88
233.477	103.88
233.711	84.88
233.945	87.88
234.179	82.88
234.413	95.88
234.647	86.88
234.881	82.88
235.115	93.88
235.349	79.88
235.583	76.88
235.817	85.88
236.051	70.88
236.285	79.88
236.519	82.88
236.753	73.88
236.987	68.88
237.221	66.88
237.455	74.88
237.689	70.88
237.922	82.88
238.156	90.88
238.39	81.88
238.624	71.88
238.858	67.88
239.091	68.88
239.325	76.88
239.559	74.88
239.793	82.88
240.027	68.88
240.26	83.88
240.494	92.88
240.728	80.88
240.961	88.88
241.195	76.88
241.429	79.88
241.662	83.88
241.896	77.88
242.13	82.88
242.363	76.88
242.597	69.88
242.83	70.88
243.064	70.88
243.298	67.88
243.531	75.88
243.765	84.88
243.998	101.88
244.232	72.88
244.465	81.88
244.699	75.88
244.932	85.88
245.166	75.88
245.399	85.88
245.633	78.88
245.866	91.88
246.099	82.88
246.333	75.88
246.566	74.88
246.8	90.88
247.033	71.88
247.266	80.88
247.5	77.88
247.733	78.88
247.966	78.88
248.2	84.88
248.433	76.88
248.666	78.88
248.899	77.88
249.133	83.88
249.366	79.88
249.599	79.88
249.832	62.88
250.066	81.88
250.299	73.88
250.532	87.88
250.765	81.88
250.998	79.88
251.231	70.88
251.465	86.88
251.698	68.88
251.931	79.88
252.164	84.88
252.397	82.88
252.63	68.88
252.863	70.88
253.096	65.88
253.329	84.88
253.562	78.88
253.795	84.88
254.028	72.88
254.261	82.88
254.494	98.88
254.727	69.88
254.96	82.88
255.193	89.88
255.426	89.88
255.659	85.88
255.892	77.88
256.124	82.88
256.357	74.88
256.59	74.88
256.823	78.88
257.056	74.88
257.289	78.88
257.521	90.88
257.754	80.88
257.987	70.88
258.22	73.88
258.452	87.88
258.685	84.88
258.918	76.88
259.151	90.88
259.383	77.88
259.616	79.88
259.849	70.88
260.081	83.88
260.314	78.88
260.547	69.88
260.779	83.88
261.012	81.88
261.244	80.88
261.477	85.88
261.71	90.88
261.942	82.88
262.175	94.88
262.407	97.88
262.64	74.88
262.872	89.88
263.105	83.88
263.337	79.88
263.57	82.88
263.802	100.88
264.035	84.88
264.267	80.88
264.499	79.88
264.732	91.88
264.964	79.88
265.197	73.88
265.429	97.88
265.661	73.88
265.894	76.88
266.126	82.88
266.358	92.88
266.591	88.88
266.823	82.88
267.055	91.88
267.287	79.88
267.52	79.88
267.752	71.88
267.984	73.88
268.216	79.88
268.448	85.88
268.681	78.88
268.913	71.88
269.145	91.88
269.377	76.88
269.609	86.88
269.841	83.88
270.073	86.88
270.306	97.88
270.538	83.88
270.77	84.88
271.002	83.88
271.234	83.88
271.466	91.88
271.698	77.88
271.93	91.88
272.162	91.88
272.394	84.88
272.626	94.88
272.858	75.88
273.09	90.88
273.322	105.88
273.553	68.88
273.785	77.88
274.017	86.88
274.249	86.88
274.481	83.88
274.713	81.88
274.945	84.88
275.176	84.88
275.408	81.88
275.64	97.88
275.872	101.88
276.104	84.88
276.335	84.88
276.567	75.88
276.799	89.88
277.031	92.88
277.262	67.88
277.494	94.88
277.726	83.88
277.957	85.88
278.189	86.88
278.421	82.88
278.652	89.88
278.884	83.88
279.115	79.88
279.347	82.88
279.579	90.88
279.81	95.88
280.042	85.88
280.273	80.88
280.505	86.88
280.736	79.88
280.968	78.88
281.199	84.88
281.431	76.88
281.662	76.88
281.894	70.88
282.125	82.88
282.356	85.88
282.588	80.88
282.819	79.88
283.051	87.88
283.282	75.88
283.513	83.88
283.745	79.88
283.976	83.88
284.207	77.88
284.439	77.88
284.67	82.88
284.901	87.88
285.132	96.88
285.364	92.88
285.595	85.88
285.826	90.88
286.057	80.88
286.288	88.88
286.52	80.88
286.751	82.88
286.982	102.88
287.213	74.88
287.444	79.88
287.675	88.88
287.906	95.88
288.138	86.88
288.369	82.88
288.6	99.88
288.831	100.88
289.062	79.88
289.293	81.88
289.524	94.88
289.755	83.88
289.986	98.88
290.217	101.88
290.448	82.88
290.679	84.88
290.91	99.88
291.141	73.88
291.371	91.88
291.602	85.88
291.833	78.88
292.064	85.88
292.295	69.88
292.526	87.88
292.757	90.88
292.987	88.88
293.218	94.88
293.449	83.88
293.68	68.88
293.91	76.88
294.141	82.88
294.372	96.88
294.603	82.88
294.833	87.88
295.064	78.88
295.295	78.88
295.525	84.88
295.756	97.88
295.987	83.88
296.217	89.88
296.448	82.88
296.679	91.88
296.909	86.88
297.14	88.88
297.37	87.88
297.601	81.88
297.831	92.88
298.062	92.88
298.292	89.88
298.523	98.88
298.753	81.88
298.984	85.88
299.214	79.88
299.445	87.88
299.675	89.88
299.905	100.88
300.136	82.88
300.366	80.88
300.597	76.88
300.827	90.88
301.057	86.88
301.288	83.88
301.518	80.88
301.748	85.88
301.979	79.88
302.209	75.88
302.439	82.88
302.669	99.88
302.9	89.88
303.13	87.88
303.36	97.88
303.59	78.88
303.82	89.88
304.051	83.88
304.281	77.88
304.511	79.88
304.741	87.88
304.971	71.88
305.201	87.88
305.431	93.88
305.661	84.88
305.891	82.88
306.121	90.88
306.352	84.88
306.582	78.88
306.812	90.88
307.042	90.88
307.272	89.88
307.502	79.88
307.731	85.88
307.961	102.88
308.191	98.88
308.421	79.88
308.651	83.88
308.881	77.88
309.111	105.88
309.341	93.88
309.571	97.88
309.8	72.88
310.03	94.88
310.26	88.88
310.49	82.88
310.72	84.88
310.949	78.88
311.179	87.88
311.409	94.88
311.639	81.88
311.868	92.88
312.098	88.88
312.328	88.88
312.557	88.88
312.787	95.88
313.017	81.88
313.246	91.88
313.476	83.88
313.706	88.88
313.935	76.88
314.165	75.88
314.394	73.88
314.624	87.88
314.853	108.88
315.083	78.88
315.312	93.88
315.542	85.88
315.771	91.88
316.001	93.88
316.23	97.88
316.46	95.88
316.689	88.88
316.919	92.88
317.148	93.88
317.377	91.88
317.607	99.88
317.836	88.88
318.065	89.88
318.295	81.88
318.524	97.88
318.753	82.88
318.983	88.88
319.212	102.88
319.441	90.88
319.67	96.88
319.9	76.88
320.129	93.88
320.358	91.88
320.587	89.88
320.816	85.88
321.046	88.88
321.275	84.88
321.504	80.88
321.733	91.88
321.962	92.88
322.191	91.88
322.42	90.88
322.649	89.88
322.878	86.88
323.108	83.88
323.337	89.88
323.566	93.88
323.795	71.88
324.024	92.88
324.253	85.88
324.482	82.88
324.71	84.88
324.939	85.88
325.168	79.88
325.397	75.88
325.626	81.88
325.855	74.88
326.084	88.88
326.313	88.88
326.542	87.88
326.77	76.88
326.999	77.88
327.228	87.88
327.457	94.88
327.686	78.88
327.914	85.88
328.143	101.88
328.372	85.88
328.6	78.88
328.829	89.88
329.058	85.88
329.287	77.88
329.515	86.88
329.744	84.88
329.972	86.88
330.201	83.88
330.43	89.88
330.658	79.88
330.887	82.88
331.115	101.88
331.344	93.88
331.572	100.88
331.801	86.88
332.03	82.88
332.258	76.88
332.486	86.88
332.715	75.88
332.943	97.88
333.172	95.88
333.4	102.88
333.629	87.88
333.857	76.88
334.085	69.88
334.314	86.88
334.542	74.88
334.771	73.88
334.999	77.88
335.227	94.88
335.455	92.88
335.684	82.88
335.912	82.88
336.14	86.88
336.369	88.88
336.597	66.88
336.825	88.88
337.053	80.88
337.281	72.88
337.51	87.88
337.738	87.88
337.966	93.88
338.194	95.88
338.422	75.88
338.65	91.88
338.878	87.88
339.106	87.88
339.334	91.88
339.562	78.88
339.79	86.88
340.018	83.88
340.246	83.88
340.474	83.88
340.702	84.88
340.93	77.88
341.158	77.88
341.386	93.88
341.614	81.88
341.842	89.88
342.07	95.88
342.298	81.88
342.526	78.88
342.754	75.88
342.981	89.88
343.209	86.88
343.437	78.88
343.665	74.88
343.893	85.88
344.12	85.88
344.348	86.88
344.576	89.88
344.804	74.88
345.031	94.88
345.259	81.88
345.487	84.88
345.714	93.88
345.942	94.88
346.17	90.88
346.397	87.88
346.625	78.88
346.853	83.88
347.08	79.88
347.308	85.88
347.535	92.88
347.763	96.88
347.99	98.88
348.218	92.88
348.445	77.88
348.673	78.88
348.9	93.88
349.128	97.88
349.355	79.88
349.583	97.88
349.81	84.88
350.037	84.88
350.265	83.88
350.492	80.88
350.72	78.88
350.947	79.88
351.174	84.88
351.402	87.88
351.629	78.88
351.856	87.88
352.083	87.88
352.311	79.88
352.538	75.88
352.765	83.88
352.992	90.88
353.22	85.88
353.447	88.88
353.674	94.88
353.901	90.88
354.128	79.88
354.355	92.88
354.583	85.88
354.81	72.88
355.037	94.88
355.264	81.88
355.491	87.88
355.718	99.88
355.945	98.88
356.172	87.88
356.399	81.88
356.626	90.88
356.853	75.88
357.08	76.88
357.307	85.88
357.534	88.88
357.761	84.88
357.988	84.88
358.215	79.88
358.441	86.88
358.668	90.88
358.895	80.88
359.122	79.88
359.349	72.88
359.576	85.88
359.802	97.88
360.029	86.88
360.256	85.88
360.483	84.88
360.709	81.88
360.936	78.88
361.163	90.88
361.39	75.88
361.616	77.88
361.843	91.88
362.07	72.88
362.296	85.88
362.523	78.88
362.749	89.88
362.976	86.88
363.203	87.88
363.429	89.88
363.656	83.88
363.882	82.88
364.109	81.88
364.335	86.88
364.562	83.88
364.788	87.88
365.015	81.88
365.241	77.88
365.468	94.88
365.694	85.88
365.92	71.88
366.147	81.88
366.373	88.88
366.599	82.88
366.826	100.88
367.052	75.88
367.278	87.88
367.505	85.88
367.731	76.88
367.957	77.88
368.184	81.88
368.41	74.88
368.636	88.88
368.862	85.88
369.089	79.88
369.315	88.88
369.541	68.88
369.767	77.88
369.993	93.88
370.219	99.88
370.445	80.88
370.672	83.88
370.898	78.88
371.124	88.88
371.35	79.88
371.576	79.88
371.802	96.88
372.028	82.88
372.254	92.88
372.48	87.88
372.706	78.88
372.932	88.88
373.158	79.88
373.384	84.88
373.61	79.88
373.835	91.88
374.061	83.88
374.287	85.88
374.513	78.88
374.739	86.88
374.965	86.88
375.191	94.88
375.416	89.88
375.642	76.88
375.868	98.88
376.094	90.88
376.319	73.88
376.545	81.88
376.771	86.88
376.997	78.88
377.222	88.88
377.448	88.88
377.674	87.88
377.899	82.88
378.125	85.88
378.35	89.88
378.576	86.88
378.802	84.88
379.027	79.88
379.253	88.88
379.478	90.88
379.704	90.88
379.929	78.88
380.155	90.88
380.38	95.88
380.606	84.88
380.831	81.88
381.057	87.88
381.282	86.88
381.507	84.88
381.733	89.88
381.958	80.88
382.184	83.88
382.409	85.88
382.634	75.88
382.86	97.88
383.085	69.88
383.31	86.88
383.535	102.88
383.761	73.88
383.986	73.88
384.211	86.88
384.436	79.88
384.662	85.88
384.887	83.88
385.112	87.88
385.337	76.88
385.562	84.88
385.787	84.88
386.013	83.88
386.238	91.88
386.463	86.88
386.688	89.88
386.913	79.88
387.138	78.88
387.363	85.88
387.588	95.88
387.813	84.88
388.038	76.88
388.263	63.88
388.488	82.88
388.713	92.88
388.938	74.88
389.163	78.88
389.387	82.88
389.612	65.88
389.837	90.88
390.062	84.88
390.287	84.88
390.512	87.88
390.736	87.88
390.961	67.88
391.186	84.88
391.411	83.88
391.636	86.88
391.86	86.88
392.085	87.88
392.31	74.88
392.534	90.88
392.759	80.88
392.984	78.88
393.208	87.88
393.433	82.88
393.658	80.88
393.882	85.88
394.107	86.88
394.331	77.88
394.556	82.88
394.78	78.88
395.005	95.88
395.229	79.88
395.454	97.88
395.678	85.88
395.903	93.88
396.127	84.88
396.352	78.88
396.576	86.88
396.801	87.88
397.025	77.88
397.249	94.88
397.474	91.88
397.698	81.88
397.922	87.88
398.147	90.88
398.371	91.88
398.595	86.88
398.82	105.88
399.044	74.88
399.268	82.88
399.492	83.88
399.717	80.88
399.941	76.88
400.165	89.88
400.389	84.88
400.613	78.88
400.837	82.88
401.062	79.88
401.286	97.88
401.51	86.88
401.734	74.88
401.958	91.88
402.182	87.88
402.406	96.88
402.63	88.88
402.854	88.88
403.078	73.88
403.302	83.88
403.526	89.88
403.75	98.88
403.974	87.88
404.198	86.88
404.422	95.88
404.645	75.88
404.869	86.88
405.093	95.88
405.317	88.88
405.541	86.88
405.765	91.88
405.988	72.88
406.212	89.88
406.436	87.88
406.66	83.88
406.883	99.88
407.107	95.88
407.331	90.88
407.555	94.88
407.778	86.88
408.002	89.88
408.226	82.88
408.449	82.88
408.673	76.88
408.896	96.88
409.12	87.88
409.344	93.88
409.567	79.88
409.791	70.88
410.014	75.88
410.238	74.88
410.461	85.88
410.685	97.88
410.908	90.88
411.132	82.88
411.355	79.88
411.578	89.88
411.802	77.88
412.025	79.88
412.249	94.88
412.472	87.88
412.695	87.88
412.919	71.88
413.142	100.88
413.365	88.88
413.589	96.88
413.812	79.88
414.035	92.88
414.258	100.88
414.482	78.88
414.705	88.88
414.928	83.88
415.151	93.88
415.374	98.88
415.597	88.88
415.821	79.88
416.044	94.88
416.267	79.88
416.49	86.88
416.713	90.88
416.936	96.88
417.159	74.88
417.382	98.88
417.605	90.88
417.828	90.88
418.051	81.88
418.274	91.88
418.497	81.88
418.72	79.88
418.943	98.88
419.166	95.88
419.389	86.88
419.611	91.88
419.834	106.88
420.057	98.88
420.28	87.88
420.503	103.88
420.726	88.88
420.948	91.88
421.171	88.88
421.394	93.88
421.617	92.88
421.839	91.88
422.062	95.88
422.285	76.88
422.507	88.88
422.73	77.88
422.953	84.88
423.175	75.88
423.398	82.88
423.621	81.88
423.843	80.88
424.066	91.88
424.288	102.88
424.511	93.88
424.733	105.88
424.956	101.88
425.178	87.88
425.401	86.88
425.623	84.88
425.846	102.88
426.068	85.88
426.291	86.88
426.513	83.88
426.735	101.88
426.958	94.88
427.18	80.88
427.402	90.88
427.625	102.88
427.847	88.88
428.069	85.88
428.292	90.88
428.514	88.88
428.736	79.88
428.958	80.88
429.181	85.88
429.403	93.88
429.625	82.88
429.847	88.88
430.069	99.88
430.292	95.88
430.514	77.88
430.736	87.88
430.958	77.88
431.18	90.88
431.402	83.88
431.624	94.88
431.846	93.88
432.068	87.88
432.29	90.88
432.512	68.88
432.734	89.88
432.956	89.88
433.178	78.88
433.4	85.88
433.622	85.88
433.844	102.88
434.066	90.88
434.287	81.88
434.509	88.88
434.731	85.88
434.953	75.88
435.175	89.88
435.397	84.88
435.618	88.88
435.84	99.88
436.062	86.88
436.284	86.88
436.505	93.88
436.727	69.88
436.949	90.88
437.17	78.88
437.392	83.88
437.614	87.88
437.835	98.88
438.057	79.88
438.278	83.88
438.5	93.88
438.721	96.88
438.943	95.88
439.165	91.88
439.386	87.88
439.608	88.88
439.829	109.88
440.05	95.88
440.272	90.88
440.493	98.88
440.715	90.88
440.936	94.88
441.158	95.88
441.379	84.88
441.6	94.88
441.822	95.88
442.043	82.88
442.264	105.88
442.486	98.88
442.707	87.88
442.928	90.88
443.149	75.88
443.371	84.88
443.592	77.88
443.813	99.88
444.034	88.88
444.255	87.88
444.476	106.88
444.698	84.88
444.919	96.88
445.14	214.88
445.361	146.88
445.582	97.88
445.803	104.88
446.024	86.88
446.245	90.88
446.466	95.88
446.687	95.88
446.908	90.88
447.129	109.88
447.35	87.88
447.571	90.88
447.792	88.88
448.013	96.88
448.234	100.88
448.455	106.88
448.675	92.88
448.896	75.88
449.117	89.88
449.338	94.88
449.559	98.88
449.779	96.88
450	100.88
450.221	84.88
450.442	97.88
450.662	92.88
450.883	82.88
451.104	99.88
451.324	94.88
451.545	93.88
451.766	84.88
451.986	94.88
452.207	96.88
452.428	106.88
452.648	92.88
452.869	97.88
453.089	94.88
453.31	98.88
453.53	80.88
453.751	79.88
453.971	82.88
454.192	70.88
454.412	85.88
454.633	79.88
454.853	90.88
455.073	90.88
455.294	95.88
455.514	91.88
455.734	87.88
455.955	75.88
456.175	90.88
456.395	85.88
456.616	82.88
456.836	89.88
457.056	80.88
457.276	88.88
457.497	94.88
457.717	82.88
457.937	81.88
458.157	83.88
458.377	97.88
458.598	78.88
458.818	97.88
459.038	86.88
459.258	84.88
459.478	72.88
459.698	74.88
459.918	83.88
460.138	84.88
460.358	91.88
460.578	85.88
460.798	87.88
461.018	84.88
461.238	82.88
461.458	90.88
461.678	91.88
461.898	86.88
462.118	87.88
462.338	86.88
462.558	94.88
462.777	83.88
462.997	78.88
463.217	81.88
463.437	74.88
463.657	75.88
463.876	94.88
464.096	88.88
464.316	61.88
464.536	87.88
464.755	88.88
464.975	94.88
465.195	84.88
465.414	91.88
465.634	76.88
465.854	89.88
466.073	82.88
466.293	92.88
466.512	101.88
466.732	91.88
466.951	96.88
467.171	84.88
467.391	93.88
467.61	101.88
467.829	85.88
468.049	90.88
468.268	87.88
468.488	94.88
468.707	95.88
468.927	87.88
469.146	93.88
469.365	105.88
469.585	97.88
469.804	92.88
470.023	74.88
470.243	91.88
470.462	97.88
470.681	102.88
470.901	97.88
471.12	83.88
471.339	92.88
471.558	93.88
471.777	83.88
471.997	97.88
472.216	82.88
472.435	91.88
472.654	87.88
472.873	81.88
473.092	106.88
473.311	99.88
473.53	95.88
473.749	93.88
473.968	96.88
474.187	89.88
474.406	90.88
474.625	92.88
474.844	96.88
475.063	99.88
475.282	104.88
475.501	92.88
475.72	82.88
475.939	85.88
476.158	86.88
476.377	88.88
476.596	84.88
476.814	79.88
477.033	95.88
477.252	64.88
477.471	89.88
477.69	97.88
477.908	85.88
478.127	90.88
478.346	94.88
478.564	90.88
478.783	90.88
479.002	96.88
479.22	80.88
479.439	85.88
479.658	77.88
479.876	89.88
480.095	99.88
480.313	87.88
480.532	76.88
480.751	83.88
480.969	87.88
481.188	80.88
481.406	88.88
481.624	90.88
481.843	82.88
482.061	78.88
482.28	82.88
482.498	83.88
482.717	88.88
482.935	93.88
483.153	91.88
483.372	90.88
483.59	102.88
483.808	93.88
484.027	85.88
484.245	90.88
484.463	92.88
484.681	89.88
484.9	86.88
485.118	97.88
485.336	99.88
485.554	91.88
485.772	86.88
485.99	82.88
486.209	85.88
486.427	89.88
486.645	93.88
486.863	102.88
487.081	95.88
487.299	95.88
487.517	96.88
487.735	97.88
487.953	100.88
488.171	110.88
488.389	109.88
488.607	102.88
488.825	95.88
489.043	102.88
489.261	85.88
489.479	97.88
489.696	103.88
489.914	95.88
490.132	92.88
490.35	99.88
490.568	104.88
490.786	103.88
491.003	111.88
491.221	99.88
491.439	93.88
491.657	103.88
491.874	117.88
492.092	115.88
492.31	110.88
492.527	109.88
492.745	107.88
492.963	102.88
493.18	94.88
493.398	94.88
493.615	106.88
493.833	91.88
494.05	109.88
494.268	89.88
494.485	114.88
494.703	95.88
494.92	97.88
495.138	102.88
495.355	99.88
495.573	90.88
495.79	94.88
496.008	109.88
496.225	98.88
496.442	99.88
496.66	98.88
496.877	93.88
497.094	103.88
497.312	99.88
497.529	101.88
497.746	101.88
497.963	103.88
498.181	82.88
498.398	91.88
498.615	89.88
498.832	94.88
499.049	87.88
499.267	91.88
499.484	79.88
499.701	96.88
499.918	107.88
500.135	107.88
500.352	96.88
500.569	93.88
500.786	78.88
501.003	83.88
501.22	93.88
501.437	82.88
501.654	89.88
501.871	94.88
502.088	101.88
502.305	103.88
502.522	93.88
502.739	105.88
502.956	103.88
503.172	98.88
503.389	90.88
503.606	85.88
503.823	99.88
504.04	89.88
504.256	97.88
504.473	90.88
504.69	88.88
504.907	83.88
505.123	100.88
505.34	87.88
505.557	83.88
505.773	73.88
505.99	85.88
506.207	83.88
506.423	85.88
506.64	75.88
506.856	83.88
507.073	97.88
507.289	89.88
507.506	87.88
507.722	88.88
507.939	90.88
508.155	89.88
508.372	94.88
508.588	95.88
508.805	81.88
509.021	91.88
509.238	94.88
509.454	99.88
509.67	78.88
509.887	81.88
510.103	88.88
510.319	80.88
510.536	90.88
510.752	83.88
510.968	81.88
511.184	91.88
511.401	83.88
511.617	85.88
511.833	92.88
512.049	95.88
512.265	82.88
512.481	78.88
512.698	79.88
512.914	84.88
513.13	94.88
513.346	89.88
513.562	94.88
513.778	98.88
513.994	87.88
514.21	89.88
514.426	80.88
514.642	96.88
514.858	80.88
515.074	89.88
515.29	89.88
515.506	88.88
515.721	90.88
515.937	60.88
516.153	72.88
516.369	93.88
516.585	93.88
516.801	90.88
517.016	94.88
517.232	93.88
517.448	94.88
517.664	82.88
517.879	98.88
518.095	89.88
518.311	91.88
518.527	71.88
518.742	99.88
518.958	83.88
519.173	77.88
519.389	76.88
519.605	99.88
519.82	93.88
520.036	81.88
520.251	91.88
520.467	99.88
520.682	87.88
520.898	73.88
521.113	82.88
521.329	92.88
521.544	90.88
521.76	83.88
521.975	84.88
522.19	89.88
522.406	89.88
522.621	89.88
522.836	103.88
523.052	97.88
523.267	81.88
523.482	96.88
523.698	93.88
523.913	84.88
524.128	97.88
524.343	88.88
524.559	88.88
524.774	99.88
524.989	91.88
525.204	108.88
525.419	94.88
525.634	86.88
525.849	98.88
526.064	91.88
526.28	101.88
526.495	83.88
526.71	98.88
526.925	85.88
527.14	80.88
527.355	73.88
527.57	85.88
527.785	76.88
527.999	73.88
528.214	88.88
528.429	95.88
528.644	91.88
528.859	84.88
529.074	101.88
529.289	105.88
529.503	105.88
529.718	93.88
529.933	90.88
530.148	88.88
530.363	83.88
530.577	85.88
530.792	92.88
531.007	71.88
531.221	86.88
531.436	78.88
531.651	70.88
531.865	88.88
532.08	83.88
532.295	80.88
532.509	78.88
532.724	86.88
532.938	78.88
533.153	74.88
533.367	98.88
533.582	89.88
533.796	84.88
534.011	89.88
534.225	82.88
534.44	95.88
534.654	83.88
534.868	85.88
535.083	86.88
535.297	89.88
535.511	85.88
535.726	91.88
535.94	76.88
536.154	82.88
536.369	93.88
536.583	77.88
536.797	76.88
537.011	96.88
537.225	89.88
537.44	79.88
537.654	88.88
537.868	87.88
538.082	77.88
538.296	86.88
538.51	83.88
538.724	94.88
538.938	82.88
539.153	94.88
539.367	95.88
539.581	83.88
539.795	92.88
540.009	87.88
540.222	91.88
540.436	93.88
540.65	79.88
540.864	90.88
541.078	103.88
541.292	110.88
541.506	87.88
541.72	100.88
541.934	88.88
542.147	111.88
542.361	110.88
542.575	103.88
542.789	103.88
543.002	88.88
543.216	87.88
543.43	85.88
543.644	98.88
543.857	85.88
544.071	101.88
544.285	94.88
544.498	99.88
544.712	97.88
544.925	103.88
545.139	95.88
545.352	114.88
545.566	94.88
545.779	105.88
545.993	93.88
546.206	99.88
546.42	94.88
546.633	104.88
546.847	93.88
547.06	96.88
547.274	95.88
547.487	89.88
547.7	90.88
547.914	100.88
548.127	97.88
548.34	98.88
548.554	95.88
548.767	101.88
548.98	102.88
549.193	89.88
549.407	100.88
549.62	100.88
549.833	110.88
550.046	105.88
550.259	87.88
550.473	95.88
550.686	96.88
550.899	103.88
551.112	98.88
551.325	93.88
551.538	88.88
551.751	100.88
551.964	91.88
552.177	89.88
552.39	100.88
552.603	103.88
552.816	95.88
553.029	99.88
553.242	109.88
553.455	102.88
553.667	103.88
553.88	94.88
554.093	94.88
554.306	115.88
554.519	101.88
554.732	86.88
554.944	96.88
555.157	95.88
555.37	102.88
555.583	108.88
555.795	106.88
556.008	110.88
556.221	97.88
556.433	97.88
556.646	102.88
556.859	110.88
557.071	89.88
557.284	101.88
557.496	91.88
557.709	103.88
557.921	92.88
558.134	105.88
558.346	76.88
558.559	106.88
558.771	92.88
558.984	104.88
559.196	99.88
559.409	109.88
559.621	94.88
559.833	93.88
560.046	76.88
560.258	85.88
560.47	93.88
560.683	87.88
560.895	87.88
561.107	89.88
561.32	110.88
561.532	85.88
561.744	106.88
561.956	89.88
562.168	100.88
562.381	99.88
562.593	100.88
562.805	99.88
563.017	93.88
563.229	124.88
563.441	89.88
563.653	96.88
563.865	87.88
564.077	87.88
564.289	95.88
564.501	106.88
564.713	96.88
564.925	94.88
565.137	97.88
565.349	89.88
565.561	94.88
565.773	78.88
565.985	94.88
566.197	90.88
566.408	98.88
566.62	91.88
566.832	91.88
567.044	87.88
567.255	89.88
567.467	101.88
567.679	84.88
567.891	84.88
568.102	98.88
568.314	90.88
568.526	93.88
568.737	78.88
568.949	90.88
569.161	86.88
569.372	93.88
569.584	75.88
569.795	81.88
570.007	83.88
570.218	71.88
570.43	82.88
570.641	93.88
570.853	87.88
571.064	83.88
571.276	88.88
571.487	93.88
571.698	96.88
571.91	89.88
572.121	92.88
572.333	86.88
572.544	91.88
572.755	84.88
572.966	79.88
573.178	98.88
573.389	94.88
573.6	100.88
573.811	88.88
574.023	87.88
574.234	81.88
574.445	86.88
574.656	78.88
574.867	85.88
575.078	97.88
575.289	97.88
575.501	85.88
575.712	87.88
575.923	84.88
576.134	86.88
576.345	86.88
576.556	75.88
576.767	76.88
576.978	85.88
577.188	90.88
577.399	89.88
577.61	88.88
577.821	98.88
578.032	77.88
578.243	89.88
578.454	89.88
578.665	79.88
578.875	88.88
579.086	74.88
579.297	84.88
579.508	90.88
579.718	74.88
579.929	84.88
580.14	91.88
580.35	73.88
580.561	76.88
580.772	88.88
580.982	84.88
581.193	90.88
581.403	95.88
581.614	85.88
581.825	86.88
582.035	84.88
582.246	73.88
582.456	100.88
582.667	99.88
582.877	83.88
583.087	77.88
583.298	82.88
583.508	87.88
583.719	80.88
583.929	94.88
584.139	82.88
584.35	73.88
584.56	82.88
584.77	90.88
584.981	88.88
585.191	94.88
585.401	88.88
585.611	79.88
585.821	91.88
586.032	84.88
586.242	83.88
586.452	84.88
586.662	77.88
586.872	82.88
587.082	86.88
587.292	70.88
587.502	97.88
587.713	85.88
587.923	88.88
588.133	86.88
588.343	87.88
588.553	83.88
588.762	88.88
588.972	85.88
589.182	81.88
589.392	73.88
589.602	91.88
589.812	90.88
590.022	85.88
590.232	68.88
590.441	92.88
590.651	87.88
590.861	98.88
591.071	85.88
591.281	88.88
591.49	89.88
591.7	86.88
591.91	82.88
592.119	86.88
592.329	75.88
592.539	87.88
592.748	83.88
592.958	78.88
593.167	94.88
593.377	96.88
593.587	83.88
593.796	93.88
594.006	91.88
594.215	87.88
594.424	75.88
594.634	78.88
594.843	90.88
595.053	84.88
595.262	93.88
595.472	92.88
595.681	70.88
595.89	99.88
596.1	89.88
596.309	83.88
596.518	101.88
596.727	78.88
596.937	75.88
597.146	81.88
597.355	74.88
597.564	85.88
597.774	98.88
597.983	94.88
598.192	81.88
598.401	100.88
598.61	93.88
598.819	83.88
599.028	75.88
599.237	101.88
599.446	87.88
599.655	89.88
599.864	93.88
600.073	79.88
600.282	96.88
600.491	98.88
600.7	107.88
600.909	79.88
601.118	72.88
601.327	88.88
601.536	85.88
601.745	98.88
601.953	85.88
602.162	90.88
602.371	79.88
602.58	91.88
602.789	92.88
602.997	97.88
603.206	86.88
603.415	92.88
603.623	77.88
603.832	91.88
604.041	99.88
604.249	95.88
604.458	93.88
604.666	93.88
604.875	87.88
605.084	77.88
605.292	79.88
605.501	91.88
605.709	97.88
605.918	92.88
606.126	92.88
606.334	87.88
606.543	83.88
606.751	92.88
606.96	98.88
607.168	79.88
607.376	80.88
607.585	87.88
607.793	88.88
608.001	91.88
608.21	89.88
608.418	95.88
608.626	80.88
608.834	94.88
609.043	87.88
609.251	80.88
609.459	73.88
609.667	103.88
609.875	97.88
610.083	91.88
610.291	92.88
610.499	89.88
610.707	92.88
610.916	91.88
611.124	80.88
611.332	92.88
611.54	102.88
611.748	108.88
611.955	86.88
612.163	96.88
612.371	90.88
612.579	94.88
612.787	82.88
612.995	83.88
613.203	97.88
613.411	100.88
613.618	84.88
613.826	101.88
614.034	93.88
614.242	90.88
614.449	87.88
614.657	91.88
614.865	100.88
615.072	75.88
615.28	80.88
615.488	94.88
615.695	85.88
615.903	83.88
616.111	82.88
616.318	91.88
616.526	89.88
616.733	95.88
616.941	101.88
617.148	88.88
617.356	78.88
617.563	104.88
617.771	87.88
617.978	85.88
618.185	87.88
618.393	91.88
618.6	96.88
618.807	99.88
619.015	90.88
619.222	98.88
619.429	107.88
619.637	79.88
619.844	86.88
620.051	85.88
620.258	92.88
620.466	83.88
620.673	86.88
620.88	81.88
621.087	91.88
621.294	77.88
621.501	90.88
621.708	95.88
621.915	96.88
622.122	85.88
622.329	89.88
622.536	93.88
622.743	92.88
622.95	95.88
623.157	81.88
623.364	89.88
623.571	82.88
623.778	94.88
623.985	80.88
624.192	93.88
624.399	84.88
624.606	90.88
624.812	82.88
625.019	94.88
625.226	88.88
625.433	81.88
625.639	93.88
625.846	94.88
626.053	85.88
626.259	89.88
626.466	78.88
626.673	89.88
626.879	110.88
627.086	68.88
627.293	86.88
627.499	93.88
627.706	88.88
627.912	91.88
628.119	87.88
628.325	88.88
628.532	88.88
628.738	78.88
628.945	94.88
629.151	79.88
629.357	94.88
629.564	77.88
629.77	75.88
629.976	93.88
630.183	99.88
630.389	87.88
630.595	88.88
630.802	79.88
631.008	80.88
631.214	92.88
631.42	106.88
631.627	97.88
631.833	87.88
632.039	89.88
632.245	95.88
632.451	93.88
632.657	85.88
632.863	97.88
633.069	102.88
633.275	94.88
633.481	79.88
633.688	81.88
633.893	101.88
634.099	79.88
634.305	79.88
634.511	81.88
634.717	92.88
634.923	93.88
635.129	78.88
635.335	94.88
635.541	99.88
635.747	85.88
635.952	91.88
636.158	85.88
636.364	98.88
636.57	96.88
636.775	94.88
636.981	90.88
637.187	83.88
637.392	96.88
637.598	85.88
637.804	76.88
638.009	77.88
638.215	83.88
638.421	87.88
638.626	94.88
638.832	92.88
639.037	89.88
639.243	78.88
639.448	89.88
639.654	88.88
639.859	84.88
640.065	86.88
640.27	109.88
640.475	97.88
640.681	96.88
640.886	98.88
641.091	86.88
641.297	94.88
641.502	88.88
641.707	87.88
641.913	84.88
642.118	90.88
642.323	82.88
642.528	73.88
642.733	78.88
642.939	86.88
643.144	78.88
643.349	76.88
643.554	82.88
643.759	94.88
643.964	98.88
644.169	86.88
644.374	91.88
644.579	85.88
644.784	90.88
644.989	92.88
645.194	85.88
645.399	88.88
645.604	83.88
645.809	95.88
646.014	90.88
646.219	84.88
646.423	103.88
646.628	98.88
646.833	91.88
647.038	90.88
647.243	95.88
647.447	97.88
647.652	87.88
647.857	90.88
648.062	93.88
648.266	87.88
648.471	86.88
648.676	103.88
648.88	81.88
649.085	83.88
649.289	100.88
649.494	81.88
649.698	102.88
649.903	90.88
650.107	93.88
650.312	100.88
650.516	88.88
650.721	83.88
650.925	80.88
651.13	93.88
651.334	88.88
651.539	89.88
651.743	87.88
651.947	98.88
652.152	93.88
652.356	90.88
652.56	87.88
652.764	101.88
652.969	82.88
653.173	82.88
653.377	89.88
653.581	87.88
653.785	86.88
653.99	86.88
654.194	74.88
654.398	82.88
654.602	83.88
654.806	76.88
655.01	66.88
655.214	92.88
655.418	78.88
655.622	84.88
655.826	77.88
656.03	84.88
656.234	86.88
656.438	79.88
656.642	86.88
656.846	91.88
657.049	89.88
657.253	87.88
657.457	83.88
657.661	76.88
657.865	80.88
658.068	83.88
658.272	85.88
658.476	80.88
658.68	87.88
658.883	91.88
659.087	83.88
659.291	83.88
659.494	87.88
659.698	97.88
659.901	83.88
660.105	90.88
660.309	86.88
660.512	91.88
660.716	88.88
660.919	87.88
661.123	87.88
661.326	93.88
661.53	93.88
661.733	84.88
661.936	78.88
662.14	90.88
662.343	81.88
662.546	79.88
662.75	80.88
662.953	77.88
663.156	89.88
663.36	79.88
663.563	98.88
663.766	83.88
663.969	73.88
664.173	90.88
664.376	72.88
664.579	90.88
664.782	86.88
664.985	74.88
665.188	89.88
665.391	78.88
665.594	86.88
665.797	86.88
666	90.88
666.203	83.88
666.406	85.88
666.609	83.88
666.812	86.88
667.015	85.88
667.218	80.88
667.421	94.88
667.624	83.88
667.827	93.88
668.03	83.88
668.232	83.88
668.435	85.88
668.638	87.88
668.841	74.88
669.043	90.88
669.246	98.88
669.449	76.88
669.651	72.88
669.854	84.88
670.057	91.88
670.259	90.88
670.462	82.88
670.665	76.88
670.867	80.88
671.07	93.88
671.272	67.88
671.475	88.88
671.677	80.88
671.88	75.88
672.082	80.88
672.284	91.88
672.487	93.88
672.689	77.88
672.892	81.88
