Data from Zn(NO3)2Standard.Agarose3%.GreenCap.LampEnergy10E.O_HRD10591_15-07-53-946.txt Node
Date: Mon Jul 22 15:07:53 EDT 2019
User: cochatt
Spectrometer: HR+D1059
Trigger mode: 1
Integration Time (sec): 1.000000E-1
Scans to average: 1
Electric dark correction enabled: true
Nonlinearity correction enabled: false
Boxcar width: 0
XAxis mode: Wavelengths
Number of Pixels in Spectrum: 2048
>>>>>Begin Spectral Data<<<<<
223.165	-15.31
223.4	-15.31
223.635	-15.31
223.869	-22.31
224.104	-15.31
224.338	-27.31
224.573	-15.31
224.808	-19.31
225.042	-11.31
225.277	14.69
225.511	0.69
225.746	-2.31
225.98	7.69
226.215	11.69
226.449	19.69
226.683	22.69
226.918	21.69
227.152	29.69
227.387	39.69
227.621	30.69
227.856	52.69
228.09	43.69
228.324	34.69
228.559	51.69
228.793	50.69
229.027	62.69
229.262	64.69
229.496	69.69
229.73	44.69
229.964	84.69
230.199	61.69
230.433	78.69
230.667	72.69
230.901	83.69
231.136	64.69
231.37	62.69
231.604	82.69
231.838	70.69
232.072	79.69
232.306	68.69
232.541	81.69
232.775	74.69
233.009	81.69
233.243	78.69
233.477	76.69
233.711	94.69
233.945	78.69
234.179	74.69
234.413	81.69
234.647	80.69
234.881	75.69
235.115	72.69
235.349	89.69
235.583	88.69
235.817	84.69
236.051	88.69
236.285	88.69
236.519	99.69
236.753	84.69
236.987	70.69
237.221	84.69
237.455	85.69
237.689	75.69
237.922	67.69
238.156	72.69
238.39	68.69
238.624	77.69
238.858	82.69
239.091	81.69
239.325	70.69
239.559	75.69
239.793	84.69
240.027	84.69
240.26	79.69
240.494	73.69
240.728	80.69
240.961	71.69
241.195	77.69
241.429	71.69
241.662	73.69
241.896	72.69
242.13	85.69
242.363	74.69
242.597	68.69
242.83	72.69
243.064	78.69
243.298	68.69
243.531	76.69
243.765	70.69
243.998	84.69
244.232	85.69
244.465	72.69
244.699	87.69
244.932	77.69
245.166	87.69
245.399	78.69
245.633	64.69
245.866	77.69
246.099	73.69
246.333	76.69
246.566	69.69
246.8	81.69
247.033	78.69
247.266	72.69
247.5	84.69
247.733	80.69
247.966	79.69
248.2	81.69
248.433	76.69
248.666	78.69
248.899	70.69
249.133	86.69
249.366	66.69
249.599	77.69
249.832	70.69
250.066	67.69
250.299	78.69
250.532	76.69
250.765	88.69
250.998	82.69
251.231	93.69
251.465	92.69
251.698	91.69
251.931	63.69
252.164	76.69
252.397	83.69
252.63	60.69
252.863	77.69
253.096	76.69
253.329	84.69
253.562	83.69
253.795	68.69
254.028	79.69
254.261	69.69
254.494	75.69
254.727	75.69
254.96	78.69
255.193	72.69
255.426	73.69
255.659	86.69
255.892	77.69
256.124	78.69
256.357	96.69
256.59	84.69
256.823	84.69
257.056	80.69
257.289	80.69
257.521	83.69
257.754	76.69
257.987	80.69
258.22	70.69
258.452	77.69
258.685	84.69
258.918	79.69
259.151	85.69
259.383	93.69
259.616	70.69
259.849	72.69
260.081	85.69
260.314	83.69
260.547	85.69
260.779	82.69
261.012	84.69
261.244	68.69
261.477	78.69
261.71	79.69
261.942	77.69
262.175	73.69
262.407	74.69
262.64	67.69
262.872	73.69
263.105	80.69
263.337	72.69
263.57	73.69
263.802	82.69
264.035	91.69
264.267	89.69
264.499	79.69
264.732	101.69
264.964	79.69
265.197	86.69
265.429	89.69
265.661	89.69
265.894	78.69
266.126	77.69
266.358	80.69
266.591	76.69
266.823	85.69
267.055	78.69
267.287	100.69
267.52	77.69
267.752	90.69
267.984	96.69
268.216	103.69
268.448	89.69
268.681	77.69
268.913	79.69
269.145	81.69
269.377	76.69
269.609	86.69
269.841	76.69
270.073	83.69
270.306	85.69
270.538	74.69
270.77	88.69
271.002	71.69
271.234	83.69
271.466	79.69
271.698	69.69
271.93	73.69
272.162	70.69
272.394	75.69
272.626	72.69
272.858	86.69
273.09	85.69
273.322	86.69
273.553	91.69
273.785	80.69
274.017	78.69
274.249	76.69
274.481	85.69
274.713	88.69
274.945	99.69
275.176	70.69
275.408	89.69
275.64	96.69
275.872	80.69
276.104	83.69
276.335	78.69
276.567	84.69
276.799	78.69
277.031	92.69
277.262	87.69
277.494	96.69
277.726	101.69
277.957	72.69
278.189	85.69
278.421	93.69
278.652	85.69
278.884	82.69
279.115	76.69
279.347	82.69
279.579	75.69
279.81	90.69
280.042	93.69
280.273	83.69
280.505	88.69
280.736	80.69
280.968	77.69
281.199	79.69
281.431	82.69
281.662	75.69
281.894	92.69
282.125	99.69
282.356	76.69
282.588	93.69
282.819	94.69
283.051	86.69
283.282	75.69
283.513	82.69
283.745	85.69
283.976	77.69
284.207	91.69
284.439	85.69
284.67	84.69
284.901	83.69
285.132	105.69
285.364	86.69
285.595	89.69
285.826	85.69
286.057	99.69
286.288	97.69
286.52	101.69
286.751	86.69
286.982	83.69
287.213	80.69
287.444	70.69
287.675	86.69
287.906	109.69
288.138	92.69
288.369	78.69
288.6	84.69
288.831	76.69
289.062	81.69
289.293	78.69
289.524	74.69
289.755	72.69
289.986	73.69
290.217	76.69
290.448	83.69
290.679	90.69
290.91	98.69
291.141	90.69
291.371	87.69
291.602	91.69
291.833	91.69
292.064	73.69
292.295	77.69
292.526	89.69
292.757	77.69
292.987	86.69
293.218	71.69
293.449	80.69
293.68	73.69
293.91	85.69
294.141	77.69
294.372	62.69
294.603	71.69
294.833	76.69
295.064	86.69
295.295	91.69
295.525	89.69
295.756	95.69
295.987	86.69
296.217	93.69
296.448	78.69
296.679	80.69
296.909	86.69
297.14	81.69
297.37	69.69
297.601	93.69
297.831	89.69
298.062	78.69
298.292	77.69
298.523	84.69
298.753	84.69
298.984	94.69
299.214	76.69
299.445	73.69
299.675	82.69
299.905	86.69
300.136	73.69
300.366	91.69
300.597	88.69
300.827	88.69
301.057	92.69
301.288	67.69
301.518	76.69
301.748	89.69
301.979	90.69
302.209	72.69
302.439	93.69
302.669	89.69
302.9	84.69
303.13	81.69
303.36	91.69
303.59	78.69
303.82	90.69
304.051	69.69
304.281	104.69
304.511	89.69
304.741	80.69
304.971	89.69
305.201	84.69
305.431	87.69
305.661	93.69
305.891	91.69
306.121	77.69
306.352	78.69
306.582	85.69
306.812	83.69
307.042	89.69
307.272	90.69
307.502	81.69
307.731	99.69
307.961	94.69
308.191	93.69
308.421	92.69
308.651	95.69
308.881	96.69
309.111	76.69
309.341	76.69
309.571	102.69
309.8	89.69
310.03	73.69
310.26	94.69
310.49	77.69
310.72	84.69
310.949	86.69
311.179	78.69
311.409	84.69
311.639	77.69
311.868	75.69
312.098	92.69
312.328	69.69
312.557	84.69
312.787	80.69
313.017	79.69
313.246	84.69
313.476	88.69
313.706	78.69
313.935	83.69
314.165	78.69
314.394	78.69
314.624	99.69
314.853	72.69
315.083	74.69
315.312	86.69
315.542	92.69
315.771	92.69
316.001	85.69
316.23	86.69
316.46	88.69
316.689	80.69
316.919	92.69
317.148	82.69
317.377	86.69
317.607	89.69
317.836	86.69
318.065	88.69
318.295	88.69
318.524	72.69
318.753	78.69
318.983	75.69
319.212	82.69
319.441	84.69
319.67	75.69
319.9	83.69
320.129	93.69
320.358	86.69
320.587	97.69
320.816	75.69
321.046	73.69
321.275	90.69
321.504	84.69
321.733	93.69
321.962	83.69
322.191	93.69
322.42	75.69
322.649	74.69
322.878	87.69
323.108	73.69
323.337	98.69
323.566	87.69
323.795	89.69
324.024	92.69
324.253	83.69
324.482	95.69
324.71	82.69
324.939	81.69
325.168	97.69
325.397	79.69
325.626	80.69
325.855	92.69
326.084	88.69
326.313	97.69
326.542	86.69
326.77	97.69
326.999	75.69
327.228	83.69
327.457	78.69
327.686	74.69
327.914	77.69
328.143	86.69
328.372	87.69
328.6	83.69
328.829	82.69
329.058	85.69
329.287	95.69
329.515	105.69
329.744	96.69
329.972	88.69
330.201	87.69
330.43	95.69
330.658	96.69
330.887	91.69
331.115	92.69
331.344	97.69
331.572	85.69
331.801	90.69
332.03	78.69
332.258	80.69
332.486	85.69
332.715	90.69
332.943	84.69
333.172	93.69
333.4	91.69
333.629	101.69
333.857	93.69
334.085	77.69
334.314	86.69
334.542	75.69
334.771	81.69
334.999	98.69
335.227	78.69
335.455	93.69
335.684	75.69
335.912	79.69
336.14	72.69
336.369	79.69
336.597	80.69
336.825	90.69
337.053	84.69
337.281	96.69
337.51	85.69
337.738	77.69
337.966	80.69
338.194	94.69
338.422	76.69
338.65	95.69
338.878	82.69
339.106	90.69
339.334	94.69
339.562	84.69
339.79	76.69
340.018	80.69
340.246	75.69
340.474	68.69
340.702	77.69
340.93	99.69
341.158	97.69
341.386	78.69
341.614	72.69
341.842	83.69
342.07	91.69
342.298	70.69
342.526	86.69
342.754	81.69
342.981	65.69
343.209	86.69
343.437	84.69
343.665	77.69
343.893	85.69
344.12	88.69
344.348	74.69
344.576	77.69
344.804	89.69
345.031	90.69
345.259	87.69
345.487	74.69
345.714	92.69
345.942	91.69
346.17	83.69
346.397	98.69
346.625	84.69
346.853	89.69
347.08	84.69
347.308	86.69
347.535	85.69
347.763	78.69
347.99	88.69
348.218	82.69
348.445	88.69
348.673	82.69
348.9	91.69
349.128	94.69
349.355	104.69
349.583	85.69
349.81	80.69
350.037	89.69
350.265	89.69
350.492	88.69
350.72	93.69
350.947	83.69
351.174	89.69
351.402	93.69
351.629	74.69
351.856	78.69
352.083	87.69
352.311	93.69
352.538	82.69
352.765	79.69
352.992	81.69
353.22	76.69
353.447	92.69
353.674	88.69
353.901	79.69
354.128	86.69
354.355	82.69
354.583	97.69
354.81	87.69
355.037	107.69
355.264	94.69
355.491	98.69
355.718	90.69
355.945	85.69
356.172	75.69
356.399	81.69
356.626	102.69
356.853	74.69
357.08	81.69
357.307	78.69
357.534	80.69
357.761	78.69
357.988	96.69
358.215	92.69
358.441	86.69
358.668	76.69
358.895	95.69
359.122	81.69
359.349	75.69
359.576	92.69
359.802	79.69
360.029	72.69
360.256	93.69
360.483	90.69
360.709	96.69
360.936	91.69
361.163	90.69
361.39	84.69
361.616	79.69
361.843	81.69
362.07	89.69
362.296	88.69
362.523	76.69
362.749	85.69
362.976	96.69
363.203	95.69
363.429	74.69
363.656	83.69
363.882	91.69
364.109	99.69
364.335	99.69
364.562	81.69
364.788	85.69
365.015	76.69
365.241	87.69
365.468	92.69
365.694	85.69
365.92	85.69
366.147	87.69
366.373	81.69
366.599	79.69
366.826	83.69
367.052	98.69
367.278	86.69
367.505	101.69
367.731	91.69
367.957	83.69
368.184	84.69
368.41	87.69
368.636	83.69
368.862	100.69
369.089	79.69
369.315	84.69
369.541	96.69
369.767	93.69
369.993	91.69
370.219	87.69
370.445	83.69
370.672	87.69
370.898	86.69
371.124	78.69
371.35	92.69
371.576	95.69
371.802	100.69
372.028	78.69
372.254	78.69
372.48	73.69
372.706	89.69
372.932	83.69
373.158	91.69
373.384	87.69
373.61	90.69
373.835	86.69
374.061	88.69
374.287	76.69
374.513	82.69
374.739	81.69
374.965	66.69
375.191	80.69
375.416	85.69
375.642	89.69
375.868	77.69
376.094	83.69
376.319	91.69
376.545	95.69
376.771	88.69
376.997	85.69
377.222	77.69
377.448	91.69
377.674	79.69
377.899	93.69
378.125	87.69
378.35	80.69
378.576	86.69
378.802	100.69
379.027	91.69
379.253	100.69
379.478	88.69
379.704	82.69
379.929	90.69
380.155	90.69
380.38	88.69
380.606	93.69
380.831	94.69
381.057	86.69
381.282	95.69
381.507	91.69
381.733	86.69
381.958	86.69
382.184	90.69
382.409	101.69
382.634	85.69
382.86	85.69
383.085	80.69
383.31	84.69
383.535	91.69
383.761	87.69
383.986	86.69
384.211	82.69
384.436	99.69
384.662	90.69
384.887	77.69
385.112	91.69
385.337	88.69
385.562	89.69
385.787	95.69
386.013	103.69
386.238	91.69
386.463	96.69
386.688	106.69
386.913	87.69
387.138	102.69
387.363	97.69
387.588	90.69
387.813	106.69
388.038	84.69
388.263	91.69
388.488	85.69
388.713	89.69
388.938	82.69
389.163	79.69
389.387	88.69
389.612	86.69
389.837	99.69
390.062	87.69
390.287	94.69
390.512	89.69
390.736	83.69
390.961	102.69
391.186	88.69
391.411	87.69
391.636	91.69
391.86	93.69
392.085	92.69
392.31	103.69
392.534	100.69
392.759	96.69
392.984	102.69
393.208	101.69
393.433	77.69
393.658	86.69
393.882	94.69
394.107	105.69
394.331	94.69
394.556	103.69
394.78	102.69
395.005	84.69
395.229	94.69
395.454	73.69
395.678	83.69
395.903	81.69
396.127	97.69
396.352	116.69
396.576	90.69
396.801	97.69
397.025	95.69
397.249	87.69
397.474	88.69
397.698	92.69
397.922	112.69
398.147	93.69
398.371	86.69
398.595	101.69
398.82	93.69
399.044	93.69
399.268	83.69
399.492	90.69
399.717	100.69
399.941	112.69
400.165	82.69
400.389	96.69
400.613	94.69
400.837	80.69
401.062	91.69
401.286	98.69
401.51	97.69
401.734	90.69
401.958	91.69
402.182	89.69
402.406	86.69
402.63	98.69
402.854	89.69
403.078	91.69
403.302	98.69
403.526	107.69
403.75	96.69
403.974	117.69
404.198	93.69
404.422	96.69
404.645	95.69
404.869	87.69
405.093	102.69
405.317	102.69
405.541	103.69
405.765	92.69
405.988	107.69
406.212	101.69
406.436	90.69
406.66	95.69
406.883	80.69
407.107	113.69
407.331	113.69
407.555	106.69
407.778	107.69
408.002	106.69
408.226	105.69
408.449	83.69
408.673	100.69
408.896	107.69
409.12	84.69
409.344	96.69
409.567	101.69
409.791	106.69
410.014	110.69
410.238	88.69
410.461	100.69
410.685	107.69
410.908	106.69
411.132	96.69
411.355	91.69
411.578	100.69
411.802	105.69
412.025	95.69
412.249	93.69
412.472	99.69
412.695	91.69
412.919	104.69
413.142	95.69
413.365	108.69
413.589	102.69
413.812	101.69
414.035	95.69
414.258	96.69
414.482	92.69
414.705	88.69
414.928	100.69
415.151	117.69
415.374	95.69
415.597	87.69
415.821	113.69
416.044	113.69
416.267	105.69
416.49	88.69
416.713	94.69
416.936	109.69
417.159	114.69
417.382	92.69
417.605	96.69
417.828	110.69
418.051	114.69
418.274	103.69
418.497	104.69
418.72	108.69
418.943	103.69
419.166	106.69
419.389	117.69
419.611	108.69
419.834	98.69
420.057	101.69
420.28	104.69
420.503	99.69
420.726	98.69
420.948	95.69
421.171	107.69
421.394	117.69
421.617	110.69
421.839	96.69
422.062	115.69
422.285	105.69
422.507	101.69
422.73	110.69
422.953	100.69
423.175	103.69
423.398	104.69
423.621	109.69
423.843	95.69
424.066	105.69
424.288	103.69
424.511	98.69
424.733	132.69
424.956	103.69
425.178	104.69
425.401	112.69
425.623	96.69
425.846	105.69
426.068	113.69
426.291	107.69
426.513	99.69
426.735	110.69
426.958	108.69
427.18	102.69
427.402	105.69
427.625	108.69
427.847	101.69
428.069	109.69
428.292	106.69
428.514	108.69
428.736	88.69
428.958	103.69
429.181	100.69
429.403	100.69
429.625	108.69
429.847	83.69
430.069	105.69
430.292	99.69
430.514	111.69
430.736	100.69
430.958	103.69
431.18	87.69
431.402	82.69
431.624	97.69
431.846	99.69
432.068	82.69
432.29	98.69
432.512	89.69
432.734	101.69
432.956	122.69
433.178	126.69
433.4	103.69
433.622	108.69
433.844	100.69
434.066	97.69
434.287	98.69
434.509	75.69
434.731	91.69
434.953	84.69
435.175	102.69
435.397	104.69
435.618	117.69
435.84	97.69
436.062	90.69
436.284	112.69
436.505	100.69
436.727	105.69
436.949	91.69
437.17	103.69
437.392	96.69
437.614	89.69
437.835	101.69
438.057	86.69
438.278	96.69
438.5	102.69
438.721	100.69
438.943	103.69
439.165	96.69
439.386	118.69
439.608	97.69
439.829	112.69
440.05	100.69
440.272	123.69
440.493	98.69
440.715	103.69
440.936	117.69
441.158	104.69
441.379	101.69
441.6	99.69
441.822	121.69
442.043	97.69
442.264	113.69
442.486	121.69
442.707	100.69
442.928	101.69
443.149	109.69
443.371	91.69
443.592	109.69
443.813	109.69
444.034	102.69
444.255	99.69
444.476	114.69
444.698	104.69
444.919	109.69
445.14	240.69
445.361	186.69
445.582	129.69
445.803	125.69
446.024	106.69
446.245	119.69
446.466	105.69
446.687	103.69
446.908	117.69
447.129	120.69
447.35	117.69
447.571	120.69
447.792	107.69
448.013	103.69
448.234	103.69
448.455	114.69
448.675	117.69
448.896	116.69
449.117	96.69
449.338	120.69
449.559	104.69
449.779	103.69
450	90.69
450.221	96.69
450.442	118.69
450.662	114.69
450.883	122.69
451.104	101.69
451.324	102.69
451.545	93.69
451.766	104.69
451.986	101.69
452.207	102.69
452.428	112.69
452.648	98.69
452.869	98.69
453.089	113.69
453.31	84.69
453.53	84.69
453.751	84.69
453.971	77.69
454.192	89.69
454.412	95.69
454.633	102.69
454.853	99.69
455.073	83.69
455.294	88.69
455.514	117.69
455.734	97.69
455.955	90.69
456.175	94.69
456.395	102.69
456.616	96.69
456.836	83.69
457.056	108.69
457.276	97.69
457.497	94.69
457.717	103.69
457.937	113.69
458.157	83.69
458.377	115.69
458.598	99.69
458.818	84.69
459.038	89.69
459.258	88.69
459.478	84.69
459.698	86.69
459.918	102.69
460.138	92.69
460.358	87.69
460.578	93.69
460.798	112.69
461.018	93.69
461.238	105.69
461.458	88.69
461.678	86.69
461.898	87.69
462.118	93.69
462.338	99.69
462.558	101.69
462.777	99.69
462.997	98.69
463.217	104.69
463.437	100.69
463.657	95.69
463.876	87.69
464.096	98.69
464.316	96.69
464.536	86.69
464.755	91.69
464.975	91.69
465.195	98.69
465.414	97.69
465.634	96.69
465.854	97.69
466.073	100.69
466.293	109.69
466.512	99.69
466.732	101.69
466.951	113.69
467.171	104.69
467.391	109.69
467.61	115.69
467.829	109.69
468.049	105.69
468.268	110.69
468.488	112.69
468.707	107.69
468.927	118.69
469.146	110.69
469.365	112.69
469.585	106.69
469.804	116.69
470.023	108.69
470.243	117.69
470.462	110.69
470.681	123.69
470.901	99.69
471.12	107.69
471.339	108.69
471.558	108.69
471.777	116.69
471.997	118.69
472.216	105.69
472.435	108.69
472.654	99.69
472.873	100.69
473.092	94.69
473.311	106.69
473.53	108.69
473.749	101.69
473.968	103.69
474.187	100.69
474.406	89.69
474.625	95.69
474.844	100.69
475.063	107.69
475.282	94.69
475.501	105.69
475.72	94.69
475.939	112.69
476.158	107.69
476.377	108.69
476.596	85.69
476.814	105.69
477.033	107.69
477.252	96.69
477.471	101.69
477.69	106.69
477.908	99.69
478.127	117.69
478.346	108.69
478.564	104.69
478.783	106.69
479.002	96.69
479.22	103.69
479.439	106.69
479.658	96.69
479.876	92.69
480.095	109.69
480.313	91.69
480.532	93.69
480.751	88.69
480.969	89.69
481.188	74.69
481.406	94.69
481.624	87.69
481.843	88.69
482.061	91.69
482.28	101.69
482.498	101.69
482.717	85.69
482.935	96.69
483.153	105.69
483.372	124.69
483.59	118.69
483.808	115.69
484.027	112.69
484.245	110.69
484.463	98.69
484.681	119.69
484.9	106.69
485.118	120.69
485.336	111.69
485.554	94.69
485.772	87.69
485.99	91.69
486.209	98.69
486.427	98.69
486.645	107.69
486.863	105.69
487.081	107.69
487.299	111.69
487.517	122.69
487.735	121.69
487.953	141.69
488.171	160.69
488.389	136.69
488.607	130.69
488.825	127.69
489.043	97.69
489.261	128.69
489.479	110.69
489.696	104.69
489.914	115.69
490.132	116.69
490.35	121.69
490.568	113.69
490.786	120.69
491.003	124.69
491.221	135.69
491.439	136.69
491.657	128.69
491.874	152.69
492.092	148.69
492.31	160.69
492.527	148.69
492.745	148.69
492.963	132.69
493.18	138.69
493.398	138.69
493.615	129.69
493.833	131.69
494.05	141.69
494.268	119.69
494.485	137.69
494.703	122.69
494.92	120.69
495.138	119.69
495.355	129.69
495.573	125.69
495.79	142.69
496.008	123.69
496.225	123.69
496.442	107.69
496.66	121.69
496.877	130.69
497.094	127.69
497.312	135.69
497.529	113.69
497.746	108.69
497.963	100.69
498.181	116.69
498.398	113.69
498.615	106.69
498.832	92.69
499.049	99.69
499.267	108.69
499.484	94.69
499.701	104.69
499.918	120.69
500.135	115.69
500.352	99.69
500.569	117.69
500.786	106.69
501.003	124.69
501.22	118.69
501.437	112.69
501.654	102.69
501.871	103.69
502.088	92.69
502.305	103.69
502.522	104.69
502.739	104.69
502.956	110.69
503.172	100.69
503.389	107.69
503.606	84.69
503.823	109.69
504.04	86.69
504.256	101.69
504.473	98.69
504.69	107.69
504.907	109.69
505.123	108.69
505.34	107.69
505.557	114.69
505.773	109.69
505.99	110.69
506.207	101.69
506.423	94.69
506.64	101.69
506.856	107.69
507.073	96.69
507.289	96.69
507.506	101.69
507.722	104.69
507.939	93.69
508.155	101.69
508.372	96.69
508.588	97.69
508.805	87.69
509.021	101.69
509.238	87.69
509.454	90.69
509.67	87.69
509.887	88.69
510.103	86.69
510.319	82.69
510.536	89.69
510.752	76.69
510.968	95.69
511.184	85.69
511.401	88.69
511.617	102.69
511.833	82.69
512.049	72.69
512.265	86.69
512.481	92.69
512.698	99.69
512.914	95.69
513.13	93.69
513.346	99.69
513.562	89.69
513.778	98.69
513.994	89.69
514.21	89.69
514.426	90.69
514.642	87.69
514.858	94.69
515.074	85.69
515.29	94.69
515.506	80.69
515.721	89.69
515.937	93.69
516.153	86.69
516.369	81.69
516.585	100.69
516.801	82.69
517.016	70.69
517.232	95.69
517.448	105.69
517.664	93.69
517.879	78.69
518.095	92.69
518.311	89.69
518.527	92.69
518.742	92.69
518.958	101.69
519.173	90.69
519.389	98.69
519.605	84.69
519.82	95.69
520.036	93.69
520.251	93.69
520.467	98.69
520.682	79.69
520.898	96.69
521.113	76.69
521.329	90.69
521.544	87.69
521.76	87.69
521.975	82.69
522.19	88.69
522.406	92.69
522.621	88.69
522.836	76.69
523.052	85.69
523.267	91.69
523.482	98.69
523.698	101.69
523.913	91.69
524.128	86.69
524.343	88.69
524.559	94.69
524.774	95.69
524.989	107.69
525.204	100.69
525.419	98.69
525.634	89.69
525.849	107.69
526.064	96.69
526.28	100.69
526.495	92.69
526.71	98.69
526.925	86.69
527.14	82.69
527.355	76.69
527.57	77.69
527.785	83.69
527.999	101.69
528.214	91.69
528.429	100.69
528.644	107.69
528.859	98.69
529.074	105.69
529.289	108.69
529.503	139.69
529.718	117.69
529.933	95.69
530.148	87.69
530.363	69.69
530.577	93.69
530.792	94.69
531.007	82.69
531.221	74.69
531.436	75.69
531.651	95.69
531.865	92.69
532.08	91.69
532.295	89.69
532.509	82.69
532.724	83.69
532.938	80.69
533.153	82.69
533.367	102.69
533.582	105.69
533.796	106.69
534.011	108.69
534.225	86.69
534.44	85.69
534.654	89.69
534.868	86.69
535.083	106.69
535.297	81.69
535.511	100.69
535.726	83.69
535.94	93.69
536.154	98.69
536.369	94.69
536.583	85.69
536.797	84.69
537.011	101.69
537.225	88.69
537.44	92.69
537.654	94.69
537.868	90.69
538.082	80.69
538.296	85.69
538.51	103.69
538.724	113.69
538.938	116.69
539.153	105.69
539.367	101.69
539.581	103.69
539.795	92.69
540.009	105.69
540.222	97.69
540.436	108.69
540.65	108.69
540.864	103.69
541.078	97.69
541.292	107.69
541.506	134.69
541.72	126.69
541.934	129.69
542.147	140.69
542.361	143.69
542.575	120.69
542.789	121.69
543.002	101.69
543.216	105.69
543.43	108.69
543.644	103.69
543.857	105.69
544.071	124.69
544.285	123.69
544.498	120.69
544.712	130.69
544.925	123.69
545.139	99.69
545.352	124.69
545.566	114.69
545.779	129.69
545.993	118.69
546.206	133.69
546.42	121.69
546.633	124.69
546.847	125.69
547.06	133.69
547.274	138.69
547.487	109.69
547.7	136.69
547.914	112.69
548.127	126.69
548.34	117.69
548.554	116.69
548.767	123.69
548.98	119.69
549.193	122.69
549.407	124.69
549.62	127.69
549.833	122.69
550.046	115.69
550.259	121.69
550.473	123.69
550.686	125.69
550.899	109.69
551.112	136.69
551.325	118.69
551.538	108.69
551.751	99.69
551.964	121.69
552.177	100.69
552.39	116.69
552.603	112.69
552.816	119.69
553.029	127.69
553.242	112.69
553.455	107.69
553.667	132.69
553.88	109.69
554.093	117.69
554.306	110.69
554.519	104.69
554.732	117.69
554.944	102.69
555.157	130.69
555.37	114.69
555.583	116.69
555.795	102.69
556.008	104.69
556.221	108.69
556.433	109.69
556.646	124.69
556.859	124.69
557.071	113.69
557.284	101.69
557.496	116.69
557.709	123.69
557.921	115.69
558.134	100.69
558.346	103.69
558.559	122.69
558.771	119.69
558.984	100.69
559.196	103.69
559.409	120.69
559.621	108.69
559.833	119.69
560.046	108.69
560.258	97.69
560.47	114.69
560.683	127.69
560.895	94.69
561.107	87.69
561.32	126.69
561.532	112.69
561.744	105.69
561.956	112.69
562.168	110.69
562.381	104.69
562.593	105.69
562.805	103.69
563.017	102.69
563.229	103.69
563.441	103.69
563.653	94.69
563.865	99.69
564.077	100.69
564.289	109.69
564.501	118.69
564.713	111.69
564.925	97.69
565.137	98.69
565.349	97.69
565.561	92.69
565.773	105.69
565.985	101.69
566.197	96.69
566.408	102.69
566.62	107.69
566.832	116.69
567.044	96.69
567.255	105.69
567.467	110.69
567.679	91.69
567.891	108.69
568.102	94.69
568.314	92.69
568.526	99.69
568.737	88.69
568.949	82.69
569.161	89.69
569.372	76.69
569.584	88.69
569.795	91.69
570.007	82.69
570.218	81.69
570.43	77.69
570.641	93.69
570.853	86.69
571.064	89.69
571.276	88.69
571.487	91.69
571.698	97.69
571.91	88.69
572.121	90.69
572.333	93.69
572.544	102.69
572.755	60.69
572.966	94.69
573.178	84.69
573.389	85.69
573.6	89.69
573.811	94.69
574.023	80.69
574.234	92.69
574.445	92.69
574.656	87.69
574.867	80.69
575.078	83.69
575.289	85.69
575.501	87.69
575.712	77.69
575.923	98.69
576.134	101.69
576.345	88.69
576.556	88.69
576.767	92.69
576.978	88.69
577.188	102.69
577.399	82.69
577.61	99.69
577.821	78.69
578.032	96.69
578.243	96.69
578.454	87.69
578.665	84.69
578.875	85.69
579.086	83.69
579.297	97.69
579.508	90.69
579.718	86.69
579.929	88.69
580.14	100.69
580.35	94.69
580.561	74.69
580.772	83.69
580.982	90.69
581.193	107.69
581.403	84.69
581.614	93.69
581.825	89.69
582.035	77.69
582.246	88.69
582.456	89.69
582.667	88.69
582.877	75.69
583.087	84.69
583.298	99.69
583.508	103.69
583.719	101.69
583.929	92.69
584.139	69.69
584.35	75.69
584.56	84.69
584.77	87.69
584.981	88.69
585.191	81.69
585.401	75.69
585.611	101.69
585.821	97.69
586.032	98.69
586.242	88.69
586.452	82.69
586.662	94.69
586.872	100.69
587.082	81.69
587.292	91.69
587.502	79.69
587.713	88.69
587.923	76.69
588.133	80.69
588.343	80.69
588.553	67.69
588.762	90.69
588.972	78.69
589.182	80.69
589.392	87.69
589.602	71.69
589.812	87.69
590.022	78.69
590.232	76.69
590.441	87.69
590.651	97.69
590.861	86.69
591.071	87.69
591.281	74.69
591.49	89.69
591.7	72.69
591.91	97.69
592.119	84.69
592.329	99.69
592.539	86.69
592.748	92.69
592.958	87.69
593.167	67.69
593.377	74.69
593.587	98.69
593.796	88.69
594.006	81.69
594.215	91.69
594.424	90.69
594.634	81.69
594.843	90.69
595.053	84.69
595.262	90.69
595.472	80.69
595.681	82.69
595.89	89.69
596.1	104.69
596.309	91.69
596.518	91.69
596.727	95.69
596.937	76.69
597.146	88.69
597.355	90.69
597.564	105.69
597.774	77.69
597.983	94.69
598.192	70.69
598.401	104.69
598.61	96.69
598.819	84.69
599.028	83.69
599.237	80.69
599.446	86.69
599.655	93.69
599.864	73.69
600.073	86.69
600.282	87.69
600.491	88.69
600.7	84.69
600.909	92.69
601.118	92.69
601.327	97.69
601.536	90.69
601.745	100.69
601.953	93.69
602.162	100.69
602.371	96.69
602.58	101.69
602.789	98.69
602.997	102.69
603.206	103.69
603.415	106.69
603.623	93.69
603.832	84.69
604.041	99.69
604.249	96.69
604.458	89.69
604.666	89.69
604.875	89.69
605.084	95.69
605.292	90.69
605.501	80.69
605.709	94.69
605.918	94.69
606.126	94.69
606.334	96.69
606.543	96.69
606.751	99.69
606.96	99.69
607.168	92.69
607.376	96.69
607.585	100.69
607.793	103.69
608.001	95.69
608.21	97.69
608.418	103.69
608.626	81.69
608.834	94.69
609.043	101.69
609.251	101.69
609.459	78.69
609.667	99.69
609.875	101.69
610.083	101.69
610.291	98.69
610.499	97.69
610.707	88.69
610.916	79.69
611.124	112.69
611.332	100.69
611.54	102.69
611.748	105.69
611.955	81.69
612.163	98.69
612.371	99.69
612.579	100.69
612.787	101.69
612.995	99.69
613.203	109.69
613.411	98.69
613.618	99.69
613.826	100.69
614.034	100.69
614.242	97.69
614.449	92.69
614.657	92.69
614.865	86.69
615.072	91.69
615.28	106.69
615.488	98.69
615.695	88.69
615.903	99.69
616.111	95.69
616.318	101.69
616.526	96.69
616.733	94.69
616.941	94.69
617.148	99.69
617.356	92.69
617.563	102.69
617.771	102.69
617.978	93.69
618.185	85.69
618.393	101.69
618.6	93.69
618.807	101.69
619.015	94.69
619.222	105.69
619.429	96.69
619.637	99.69
619.844	100.69
620.051	97.69
620.258	104.69
620.466	92.69
620.673	102.69
620.88	100.69
621.087	91.69
621.294	98.69
621.501	93.69
621.708	88.69
621.915	96.69
622.122	92.69
622.329	94.69
622.536	103.69
622.743	91.69
622.95	85.69
623.157	83.69
623.364	104.69
623.571	92.69
623.778	105.69
623.985	109.69
624.192	114.69
624.399	94.69
624.606	97.69
624.812	97.69
625.019	98.69
625.226	93.69
625.433	80.69
625.639	82.69
625.846	88.69
626.053	91.69
626.259	86.69
626.466	86.69
626.673	85.69
626.879	84.69
627.086	95.69
627.293	87.69
627.499	92.69
627.706	96.69
627.912	98.69
628.119	95.69
628.325	98.69
628.532	81.69
628.738	95.69
628.945	83.69
629.151	92.69
629.357	103.69
629.564	91.69
629.77	97.69
629.976	96.69
630.183	97.69
630.389	80.69
630.595	90.69
630.802	98.69
631.008	95.69
631.214	86.69
631.42	106.69
631.627	100.69
631.833	101.69
632.039	74.69
632.245	93.69
632.451	98.69
632.657	88.69
632.863	82.69
633.069	89.69
633.275	100.69
633.481	82.69
633.688	89.69
633.893	102.69
634.099	89.69
634.305	102.69
634.511	83.69
634.717	88.69
634.923	94.69
635.129	99.69
635.335	85.69
635.541	105.69
635.747	89.69
635.952	81.69
636.158	88.69
636.364	98.69
636.57	94.69
636.775	103.69
636.981	86.69
637.187	88.69
637.392	97.69
637.598	103.69
637.804	104.69
638.009	96.69
638.215	94.69
638.421	98.69
638.626	91.69
638.832	85.69
639.037	94.69
639.243	73.69
639.448	101.69
639.654	107.69
639.859	87.69
640.065	93.69
640.27	107.69
640.475	93.69
640.681	89.69
640.886	108.69
641.091	102.69
641.297	100.69
641.502	92.69
641.707	90.69
641.913	106.69
642.118	75.69
642.323	99.69
642.528	90.69
642.733	82.69
642.939	89.69
643.144	78.69
643.349	80.69
643.554	93.69
643.759	104.69
643.964	94.69
644.169	100.69
644.374	98.69
644.579	88.69
644.784	91.69
644.989	96.69
645.194	99.69
645.399	102.69
645.604	88.69
645.809	91.69
646.014	84.69
646.219	86.69
646.423	90.69
646.628	84.69
646.833	87.69
647.038	98.69
647.243	85.69
647.447	90.69
647.652	92.69
647.857	90.69
648.062	93.69
648.266	99.69
648.471	90.69
648.676	85.69
648.88	88.69
649.085	78.69
649.289	89.69
649.494	85.69
649.698	84.69
649.903	85.69
650.107	86.69
650.312	106.69
650.516	93.69
650.721	92.69
650.925	93.69
651.13	97.69
651.334	94.69
651.539	96.69
651.743	74.69
651.947	94.69
652.152	86.69
652.356	76.69
652.56	98.69
652.764	82.69
652.969	93.69
653.173	91.69
653.377	78.69
653.581	86.69
653.785	95.69
653.99	93.69
654.194	69.69
654.398	87.69
654.602	91.69
654.806	84.69
655.01	89.69
655.214	77.69
655.418	77.69
655.622	88.69
655.826	89.69
656.03	76.69
656.234	97.69
656.438	82.69
656.642	85.69
656.846	78.69
657.049	95.69
657.253	96.69
657.457	81.69
657.661	88.69
657.865	70.69
658.068	92.69
658.272	82.69
658.476	83.69
658.68	97.69
658.883	86.69
659.087	81.69
659.291	81.69
659.494	92.69
659.698	93.69
659.901	73.69
660.105	88.69
660.309	65.69
660.512	77.69
660.716	89.69
660.919	80.69
661.123	86.69
661.326	81.69
661.53	55.69
661.733	72.69
661.936	83.69
662.14	88.69
662.343	78.69
662.546	90.69
662.75	84.69
662.953	81.69
663.156	78.69
663.36	87.69
663.563	81.69
663.766	97.69
663.969	83.69
664.173	75.69
664.376	72.69
664.579	73.69
664.782	81.69
664.985	86.69
665.188	89.69
665.391	84.69
665.594	82.69
665.797	85.69
666	97.69
666.203	88.69
666.406	62.69
666.609	85.69
666.812	69.69
667.015	70.69
667.218	76.69
667.421	68.69
667.624	80.69
667.827	74.69
668.03	83.69
668.232	82.69
668.435	66.69
668.638	88.69
668.841	86.69
669.043	76.69
669.246	86.69
669.449	99.69
669.651	82.69
669.854	91.69
670.057	81.69
670.259	80.69
670.462	90.69
670.665	91.69
670.867	80.69
671.07	82.69
671.272	91.69
671.475	89.69
671.677	95.69
671.88	81.69
672.082	91.69
672.284	78.69
672.487	80.69
672.689	89.69
672.892	74.69
