Data from Zn(NO3)2Standard.Agarose3%.GreenCap.LampEnergy5.5.E.O_HRD10591_15-03-50-768.txt Node
Date: Mon Jul 22 15:03:50 EDT 2019
User: cochatt
Spectrometer: HR+D1059
Trigger mode: 1
Integration Time (sec): 1.000000E-1
Scans to average: 1
Electric dark correction enabled: true
Nonlinearity correction enabled: false
Boxcar width: 0
XAxis mode: Wavelengths
Number of Pixels in Spectrum: 2048
>>>>>Begin Spectral Data<<<<<
223.165	-13.12
223.4	-13.12
223.635	-13.12
223.869	-11.12
224.104	-17.12
224.338	-12.12
224.573	-18.12
224.808	-17.12
225.042	-15.12
225.277	-3.12
225.511	0.88
225.746	16.88
225.98	-6.12
226.215	7.88
226.449	12.88
226.683	24.88
226.918	32.88
227.152	16.88
227.387	35.88
227.621	41.88
227.856	57.88
228.09	50.88
228.324	45.88
228.559	62.88
228.793	65.88
229.027	60.88
229.262	63.88
229.496	60.88
229.73	78.88
229.964	53.88
230.199	70.88
230.433	82.88
230.667	79.88
230.901	75.88
231.136	70.88
231.37	81.88
231.604	85.88
231.838	80.88
232.072	73.88
232.306	104.88
232.541	101.88
232.775	87.88
233.009	93.88
233.243	100.88
233.477	89.88
233.711	87.88
233.945	79.88
234.179	102.88
234.413	87.88
234.647	87.88
234.881	76.88
235.115	85.88
235.349	91.88
235.583	78.88
235.817	86.88
236.051	69.88
236.285	75.88
236.519	83.88
236.753	72.88
236.987	74.88
237.221	75.88
237.455	75.88
237.689	78.88
237.922	81.88
238.156	55.88
238.39	71.88
238.624	64.88
238.858	85.88
239.091	69.88
239.325	87.88
239.559	71.88
239.793	87.88
240.027	87.88
240.26	68.88
240.494	79.88
240.728	73.88
240.961	73.88
241.195	71.88
241.429	81.88
241.662	72.88
241.896	67.88
242.13	84.88
242.363	79.88
242.597	87.88
242.83	78.88
243.064	90.88
243.298	74.88
243.531	63.88
243.765	78.88
243.998	87.88
244.232	78.88
244.465	81.88
244.699	80.88
244.932	78.88
245.166	77.88
245.399	96.88
245.633	87.88
245.866	80.88
246.099	76.88
246.333	90.88
246.566	73.88
246.8	86.88
247.033	73.88
247.266	85.88
247.5	91.88
247.733	90.88
247.966	88.88
248.2	87.88
248.433	78.88
248.666	84.88
248.899	88.88
249.133	67.88
249.366	73.88
249.599	79.88
249.832	76.88
250.066	98.88
250.299	87.88
250.532	78.88
250.765	80.88
250.998	85.88
251.231	71.88
251.465	73.88
251.698	95.88
251.931	81.88
252.164	67.88
252.397	76.88
252.63	83.88
252.863	66.88
253.096	76.88
253.329	71.88
253.562	77.88
253.795	86.88
254.028	89.88
254.261	75.88
254.494	87.88
254.727	84.88
254.96	83.88
255.193	76.88
255.426	80.88
255.659	83.88
255.892	92.88
256.124	79.88
256.357	78.88
256.59	100.88
256.823	71.88
257.056	73.88
257.289	83.88
257.521	85.88
257.754	76.88
257.987	91.88
258.22	83.88
258.452	82.88
258.685	80.88
258.918	88.88
259.151	78.88
259.383	84.88
259.616	89.88
259.849	82.88
260.081	76.88
260.314	73.88
260.547	93.88
260.779	88.88
261.012	69.88
261.244	86.88
261.477	99.88
261.71	74.88
261.942	74.88
262.175	82.88
262.407	78.88
262.64	78.88
262.872	92.88
263.105	73.88
263.337	64.88
263.57	78.88
263.802	77.88
264.035	83.88
264.267	73.88
264.499	76.88
264.732	86.88
264.964	91.88
265.197	102.88
265.429	78.88
265.661	86.88
265.894	76.88
266.126	96.88
266.358	82.88
266.591	84.88
266.823	84.88
267.055	88.88
267.287	96.88
267.52	79.88
267.752	81.88
267.984	74.88
268.216	88.88
268.448	81.88
268.681	77.88
268.913	78.88
269.145	86.88
269.377	81.88
269.609	88.88
269.841	84.88
270.073	76.88
270.306	89.88
270.538	93.88
270.77	107.88
271.002	88.88
271.234	72.88
271.466	87.88
271.698	85.88
271.93	91.88
272.162	82.88
272.394	70.88
272.626	85.88
272.858	77.88
273.09	80.88
273.322	93.88
273.553	78.88
273.785	88.88
274.017	89.88
274.249	97.88
274.481	84.88
274.713	83.88
274.945	87.88
275.176	85.88
275.408	103.88
275.64	66.88
275.872	63.88
276.104	73.88
276.335	78.88
276.567	81.88
276.799	78.88
277.031	71.88
277.262	89.88
277.494	91.88
277.726	85.88
277.957	80.88
278.189	86.88
278.421	75.88
278.652	82.88
278.884	85.88
279.115	81.88
279.347	88.88
279.579	93.88
279.81	79.88
280.042	81.88
280.273	90.88
280.505	79.88
280.736	94.88
280.968	78.88
281.199	89.88
281.431	76.88
281.662	99.88
281.894	96.88
282.125	80.88
282.356	88.88
282.588	101.88
282.819	92.88
283.051	84.88
283.282	86.88
283.513	75.88
283.745	91.88
283.976	84.88
284.207	67.88
284.439	93.88
284.67	88.88
284.901	88.88
285.132	91.88
285.364	86.88
285.595	105.88
285.826	94.88
286.057	84.88
286.288	91.88
286.52	98.88
286.751	87.88
286.982	75.88
287.213	87.88
287.444	77.88
287.675	87.88
287.906	88.88
288.138	90.88
288.369	79.88
288.6	86.88
288.831	81.88
289.062	87.88
289.293	85.88
289.524	83.88
289.755	92.88
289.986	91.88
290.217	87.88
290.448	89.88
290.679	90.88
290.91	95.88
291.141	92.88
291.371	95.88
291.602	73.88
291.833	89.88
292.064	92.88
292.295	93.88
292.526	78.88
292.757	84.88
292.987	91.88
293.218	104.88
293.449	71.88
293.68	87.88
293.91	95.88
294.141	75.88
294.372	78.88
294.603	85.88
294.833	83.88
295.064	90.88
295.295	87.88
295.525	86.88
295.756	84.88
295.987	77.88
296.217	84.88
296.448	75.88
296.679	86.88
296.909	88.88
297.14	87.88
297.37	97.88
297.601	86.88
297.831	100.88
298.062	84.88
298.292	84.88
298.523	66.88
298.753	81.88
298.984	89.88
299.214	92.88
299.445	97.88
299.675	96.88
299.905	79.88
300.136	84.88
300.366	83.88
300.597	81.88
300.827	81.88
301.057	80.88
301.288	81.88
301.518	74.88
301.748	94.88
301.979	95.88
302.209	92.88
302.439	85.88
302.669	71.88
302.9	89.88
303.13	90.88
303.36	93.88
303.59	94.88
303.82	88.88
304.051	86.88
304.281	95.88
304.511	96.88
304.741	85.88
304.971	83.88
305.201	87.88
305.431	93.88
305.661	83.88
305.891	95.88
306.121	95.88
306.352	93.88
306.582	75.88
306.812	90.88
307.042	83.88
307.272	94.88
307.502	76.88
307.731	85.88
307.961	94.88
308.191	81.88
308.421	89.88
308.651	90.88
308.881	91.88
309.111	99.88
309.341	91.88
309.571	89.88
309.8	95.88
310.03	92.88
310.26	81.88
310.49	81.88
310.72	89.88
310.949	99.88
311.179	80.88
311.409	81.88
311.639	90.88
311.868	99.88
312.098	93.88
312.328	83.88
312.557	100.88
312.787	72.88
313.017	84.88
313.246	98.88
313.476	82.88
313.706	92.88
313.935	87.88
314.165	94.88
314.394	84.88
314.624	79.88
314.853	85.88
315.083	75.88
315.312	71.88
315.542	81.88
315.771	80.88
316.001	82.88
316.23	91.88
316.46	72.88
316.689	83.88
316.919	90.88
317.148	91.88
317.377	89.88
317.607	96.88
317.836	91.88
318.065	91.88
318.295	99.88
318.524	91.88
318.753	100.88
318.983	82.88
319.212	91.88
319.441	76.88
319.67	90.88
319.9	74.88
320.129	93.88
320.358	82.88
320.587	82.88
320.816	69.88
321.046	87.88
321.275	83.88
321.504	82.88
321.733	88.88
321.962	90.88
322.191	81.88
322.42	98.88
322.649	93.88
322.878	88.88
323.108	86.88
323.337	91.88
323.566	91.88
323.795	85.88
324.024	100.88
324.253	84.88
324.482	80.88
324.71	76.88
324.939	88.88
325.168	95.88
325.397	92.88
325.626	91.88
325.855	90.88
326.084	100.88
326.313	102.88
326.542	80.88
326.77	79.88
326.999	87.88
327.228	94.88
327.457	78.88
327.686	75.88
327.914	95.88
328.143	95.88
328.372	85.88
328.6	89.88
328.829	92.88
329.058	92.88
329.287	105.88
329.515	77.88
329.744	90.88
329.972	85.88
330.201	102.88
330.43	83.88
330.658	81.88
330.887	85.88
331.115	85.88
331.344	87.88
331.572	86.88
331.801	83.88
332.03	103.88
332.258	84.88
332.486	93.88
332.715	80.88
332.943	112.88
333.172	93.88
333.4	78.88
333.629	91.88
333.857	81.88
334.085	91.88
334.314	85.88
334.542	84.88
334.771	89.88
334.999	92.88
335.227	85.88
335.455	77.88
335.684	79.88
335.912	96.88
336.14	86.88
336.369	92.88
336.597	89.88
336.825	79.88
337.053	89.88
337.281	99.88
337.51	76.88
337.738	99.88
337.966	92.88
338.194	89.88
338.422	102.88
338.65	87.88
338.878	89.88
339.106	90.88
339.334	96.88
339.562	80.88
339.79	88.88
340.018	81.88
340.246	99.88
340.474	92.88
340.702	92.88
340.93	92.88
341.158	87.88
341.386	88.88
341.614	77.88
341.842	90.88
342.07	102.88
342.298	90.88
342.526	94.88
342.754	80.88
342.981	96.88
343.209	87.88
343.437	77.88
343.665	85.88
343.893	78.88
344.12	105.88
344.348	92.88
344.576	98.88
344.804	84.88
345.031	76.88
345.259	84.88
345.487	72.88
345.714	82.88
345.942	72.88
346.17	93.88
346.397	81.88
346.625	98.88
346.853	92.88
347.08	95.88
347.308	88.88
347.535	79.88
347.763	74.88
347.99	85.88
348.218	87.88
348.445	84.88
348.673	83.88
348.9	95.88
349.128	69.88
349.355	85.88
349.583	83.88
349.81	87.88
350.037	89.88
350.265	94.88
350.492	78.88
350.72	71.88
350.947	91.88
351.174	77.88
351.402	86.88
351.629	67.88
351.856	89.88
352.083	89.88
352.311	82.88
352.538	86.88
352.765	92.88
352.992	97.88
353.22	89.88
353.447	75.88
353.674	85.88
353.901	87.88
354.128	80.88
354.355	99.88
354.583	82.88
354.81	89.88
355.037	87.88
355.264	100.88
355.491	92.88
355.718	89.88
355.945	91.88
356.172	78.88
356.399	98.88
356.626	88.88
356.853	79.88
357.08	80.88
357.307	91.88
357.534	87.88
357.761	89.88
357.988	79.88
358.215	81.88
358.441	90.88
358.668	85.88
358.895	76.88
359.122	96.88
359.349	80.88
359.576	81.88
359.802	86.88
360.029	99.88
360.256	97.88
360.483	76.88
360.709	83.88
360.936	82.88
361.163	91.88
361.39	66.88
361.616	84.88
361.843	81.88
362.07	79.88
362.296	70.88
362.523	75.88
362.749	93.88
362.976	82.88
363.203	88.88
363.429	87.88
363.656	91.88
363.882	95.88
364.109	89.88
364.335	95.88
364.562	86.88
364.788	80.88
365.015	94.88
365.241	91.88
365.468	88.88
365.694	76.88
365.92	86.88
366.147	84.88
366.373	85.88
366.599	91.88
366.826	99.88
367.052	91.88
367.278	95.88
367.505	93.88
367.731	90.88
367.957	81.88
368.184	73.88
368.41	78.88
368.636	86.88
368.862	76.88
369.089	99.88
369.315	84.88
369.541	85.88
369.767	82.88
369.993	87.88
370.219	86.88
370.445	80.88
370.672	89.88
370.898	99.88
371.124	77.88
371.35	84.88
371.576	98.88
371.802	84.88
372.028	87.88
372.254	84.88
372.48	84.88
372.706	76.88
372.932	94.88
373.158	76.88
373.384	78.88
373.61	98.88
373.835	85.88
374.061	85.88
374.287	82.88
374.513	89.88
374.739	91.88
374.965	87.88
375.191	87.88
375.416	72.88
375.642	105.88
375.868	82.88
376.094	83.88
376.319	77.88
376.545	84.88
376.771	82.88
376.997	94.88
377.222	84.88
377.448	81.88
377.674	85.88
377.899	85.88
378.125	85.88
378.35	83.88
378.576	81.88
378.802	53.88
379.027	90.88
379.253	79.88
379.478	85.88
379.704	71.88
379.929	83.88
380.155	86.88
380.38	88.88
380.606	81.88
380.831	87.88
381.057	94.88
381.282	87.88
381.507	102.88
381.733	78.88
381.958	85.88
382.184	94.88
382.409	87.88
382.634	80.88
382.86	86.88
383.085	94.88
383.31	88.88
383.535	62.88
383.761	87.88
383.986	83.88
384.211	76.88
384.436	94.88
384.662	85.88
384.887	75.88
385.112	87.88
385.337	91.88
385.562	93.88
385.787	90.88
386.013	88.88
386.238	76.88
386.463	71.88
386.688	93.88
386.913	96.88
387.138	94.88
387.363	90.88
387.588	78.88
387.813	72.88
388.038	84.88
388.263	81.88
388.488	85.88
388.713	78.88
388.938	85.88
389.163	105.88
389.387	90.88
389.612	72.88
389.837	96.88
390.062	86.88
390.287	91.88
390.512	78.88
390.736	89.88
390.961	77.88
391.186	92.88
391.411	79.88
391.636	82.88
391.86	87.88
392.085	78.88
392.31	88.88
392.534	86.88
392.759	81.88
392.984	94.88
393.208	84.88
393.433	91.88
393.658	79.88
393.882	81.88
394.107	92.88
394.331	85.88
394.556	90.88
394.78	90.88
395.005	86.88
395.229	98.88
395.454	74.88
395.678	87.88
395.903	74.88
396.127	81.88
396.352	81.88
396.576	89.88
396.801	91.88
397.025	81.88
397.249	97.88
397.474	75.88
397.698	70.88
397.922	83.88
398.147	80.88
398.371	82.88
398.595	77.88
398.82	85.88
399.044	81.88
399.268	94.88
399.492	77.88
399.717	72.88
399.941	85.88
400.165	87.88
400.389	94.88
400.613	86.88
400.837	95.88
401.062	78.88
401.286	82.88
401.51	88.88
401.734	93.88
401.958	80.88
402.182	93.88
402.406	82.88
402.63	84.88
402.854	87.88
403.078	84.88
403.302	68.88
403.526	85.88
403.75	79.88
403.974	94.88
404.198	87.88
404.422	93.88
404.645	100.88
404.869	85.88
405.093	91.88
405.317	91.88
405.541	85.88
405.765	84.88
405.988	82.88
406.212	89.88
406.436	99.88
406.66	91.88
406.883	89.88
407.107	92.88
407.331	87.88
407.555	83.88
407.778	96.88
408.002	84.88
408.226	99.88
408.449	86.88
408.673	81.88
408.896	91.88
409.12	85.88
409.344	93.88
409.567	70.88
409.791	85.88
410.014	93.88
410.238	94.88
410.461	80.88
410.685	88.88
410.908	92.88
411.132	105.88
411.355	79.88
411.578	81.88
411.802	84.88
412.025	88.88
412.249	102.88
412.472	88.88
412.695	92.88
412.919	86.88
413.142	77.88
413.365	89.88
413.589	85.88
413.812	86.88
414.035	96.88
414.258	99.88
414.482	99.88
414.705	85.88
414.928	91.88
415.151	94.88
415.374	90.88
415.597	88.88
415.821	91.88
416.044	100.88
416.267	97.88
416.49	96.88
416.713	96.88
416.936	91.88
417.159	96.88
417.382	86.88
417.605	76.88
417.828	82.88
418.051	93.88
418.274	99.88
418.497	92.88
418.72	89.88
418.943	88.88
419.166	84.88
419.389	92.88
419.611	89.88
419.834	78.88
420.057	71.88
420.28	85.88
420.503	91.88
420.726	89.88
420.948	99.88
421.171	99.88
421.394	81.88
421.617	105.88
421.839	98.88
422.062	82.88
422.285	96.88
422.507	86.88
422.73	81.88
422.953	97.88
423.175	90.88
423.398	86.88
423.621	96.88
423.843	98.88
424.066	90.88
424.288	99.88
424.511	104.88
424.733	90.88
424.956	105.88
425.178	85.88
425.401	93.88
425.623	93.88
425.846	89.88
426.068	91.88
426.291	89.88
426.513	99.88
426.735	86.88
426.958	86.88
427.18	85.88
427.402	90.88
427.625	87.88
427.847	77.88
428.069	96.88
428.292	76.88
428.514	80.88
428.736	78.88
428.958	96.88
429.181	95.88
429.403	97.88
429.625	84.88
429.847	85.88
430.069	84.88
430.292	87.88
430.514	101.88
430.736	89.88
430.958	90.88
431.18	87.88
431.402	92.88
431.624	80.88
431.846	75.88
432.068	76.88
432.29	83.88
432.512	94.88
432.734	92.88
432.956	96.88
433.178	87.88
433.4	74.88
433.622	95.88
433.844	80.88
434.066	77.88
434.287	84.88
434.509	86.88
434.731	78.88
434.953	84.88
435.175	86.88
435.397	90.88
435.618	87.88
435.84	86.88
436.062	81.88
436.284	88.88
436.505	100.88
436.727	85.88
436.949	95.88
437.17	92.88
437.392	91.88
437.614	87.88
437.835	80.88
438.057	85.88
438.278	91.88
438.5	91.88
438.721	90.88
438.943	99.88
439.165	91.88
439.386	102.88
439.608	99.88
439.829	100.88
440.05	96.88
440.272	99.88
440.493	102.88
440.715	99.88
440.936	91.88
441.158	92.88
441.379	85.88
441.6	95.88
441.822	91.88
442.043	85.88
442.264	106.88
442.486	92.88
442.707	95.88
442.928	81.88
443.149	94.88
443.371	111.88
443.592	84.88
443.813	91.88
444.034	77.88
444.255	86.88
444.476	100.88
444.698	97.88
444.919	79.88
445.14	232.88
445.361	150.88
445.582	91.88
445.803	77.88
446.024	95.88
446.245	110.88
446.466	99.88
446.687	92.88
446.908	91.88
447.129	88.88
447.35	100.88
447.571	96.88
447.792	96.88
448.013	93.88
448.234	93.88
448.455	87.88
448.675	77.88
448.896	98.88
449.117	82.88
449.338	90.88
449.559	86.88
449.779	88.88
450	94.88
450.221	108.88
450.442	96.88
450.662	78.88
450.883	94.88
451.104	89.88
451.324	85.88
451.545	81.88
451.766	81.88
451.986	92.88
452.207	81.88
452.428	91.88
452.648	96.88
452.869	91.88
453.089	82.88
453.31	84.88
453.53	92.88
453.751	91.88
453.971	92.88
454.192	85.88
454.412	88.88
454.633	77.88
454.853	77.88
455.073	88.88
455.294	115.88
455.514	102.88
455.734	91.88
455.955	84.88
456.175	95.88
456.395	91.88
456.616	92.88
456.836	86.88
457.056	83.88
457.276	90.88
457.497	68.88
457.717	78.88
457.937	70.88
458.157	94.88
458.377	87.88
458.598	93.88
458.818	91.88
459.038	83.88
459.258	78.88
459.478	89.88
459.698	75.88
459.918	79.88
460.138	78.88
460.358	79.88
460.578	83.88
460.798	81.88
461.018	90.88
461.238	78.88
461.458	99.88
461.678	105.88
461.898	90.88
462.118	92.88
462.338	89.88
462.558	70.88
462.777	85.88
462.997	89.88
463.217	76.88
463.437	73.88
463.657	90.88
463.876	90.88
464.096	69.88
464.316	80.88
464.536	99.88
464.755	83.88
464.975	88.88
465.195	81.88
465.414	87.88
465.634	83.88
465.854	84.88
466.073	87.88
466.293	105.88
466.512	75.88
466.732	87.88
466.951	104.88
467.171	100.88
467.391	88.88
467.61	86.88
467.829	93.88
468.049	87.88
468.268	94.88
468.488	87.88
468.707	92.88
468.927	90.88
469.146	100.88
469.365	96.88
469.585	97.88
469.804	100.88
470.023	91.88
470.243	96.88
470.462	89.88
470.681	79.88
470.901	103.88
471.12	103.88
471.339	74.88
471.558	88.88
471.777	95.88
471.997	90.88
472.216	71.88
472.435	81.88
472.654	101.88
472.873	94.88
473.092	84.88
473.311	89.88
473.53	89.88
473.749	101.88
473.968	111.88
474.187	89.88
474.406	90.88
474.625	105.88
474.844	91.88
475.063	87.88
475.282	98.88
475.501	86.88
475.72	92.88
475.939	84.88
476.158	80.88
476.377	88.88
476.596	93.88
476.814	97.88
477.033	114.88
477.252	85.88
477.471	94.88
477.69	90.88
477.908	99.88
478.127	95.88
478.346	93.88
478.564	90.88
478.783	87.88
479.002	103.88
479.22	81.88
479.439	104.88
479.658	89.88
479.876	74.88
480.095	91.88
480.313	95.88
480.532	87.88
480.751	82.88
480.969	82.88
481.188	72.88
481.406	83.88
481.624	107.88
481.843	85.88
482.061	86.88
482.28	108.88
482.498	80.88
482.717	77.88
482.935	94.88
483.153	93.88
483.372	92.88
483.59	83.88
483.808	91.88
484.027	101.88
484.245	92.88
484.463	101.88
484.681	109.88
484.9	100.88
485.118	95.88
485.336	99.88
485.554	87.88
485.772	85.88
485.99	105.88
486.209	100.88
486.427	89.88
486.645	101.88
486.863	91.88
487.081	93.88
487.299	100.88
487.517	103.88
487.735	90.88
487.953	78.88
488.171	107.88
488.389	86.88
488.607	89.88
488.825	92.88
489.043	85.88
489.261	90.88
489.479	101.88
489.696	82.88
489.914	93.88
490.132	95.88
490.35	89.88
490.568	95.88
490.786	103.88
491.003	91.88
491.221	114.88
491.439	107.88
491.657	83.88
491.874	95.88
492.092	106.88
492.31	109.88
492.527	125.88
492.745	115.88
492.963	98.88
493.18	99.88
493.398	92.88
493.615	104.88
493.833	103.88
494.05	106.88
494.268	87.88
494.485	108.88
494.703	111.88
494.92	91.88
495.138	99.88
495.355	119.88
495.573	116.88
495.79	115.88
496.008	83.88
496.225	102.88
496.442	110.88
496.66	97.88
496.877	102.88
497.094	104.88
497.312	99.88
497.529	102.88
497.746	103.88
497.963	96.88
498.181	86.88
498.398	84.88
498.615	89.88
498.832	93.88
499.049	88.88
499.267	78.88
499.484	99.88
499.701	91.88
499.918	81.88
500.135	95.88
500.352	91.88
500.569	87.88
500.786	89.88
501.003	101.88
501.22	89.88
501.437	91.88
501.654	104.88
501.871	104.88
502.088	100.88
502.305	98.88
502.522	80.88
502.739	86.88
502.956	91.88
503.172	85.88
503.389	84.88
503.606	87.88
503.823	95.88
504.04	110.88
504.256	102.88
504.473	97.88
504.69	103.88
504.907	81.88
505.123	102.88
505.34	95.88
505.557	92.88
505.773	85.88
505.99	83.88
506.207	85.88
506.423	101.88
506.64	73.88
506.856	84.88
507.073	91.88
507.289	74.88
507.506	62.88
507.722	67.88
507.939	83.88
508.155	84.88
508.372	86.88
508.588	91.88
508.805	88.88
509.021	89.88
509.238	94.88
509.454	84.88
509.67	93.88
509.887	85.88
510.103	83.88
510.319	85.88
510.536	83.88
510.752	83.88
510.968	86.88
511.184	96.88
511.401	85.88
511.617	97.88
511.833	82.88
512.049	91.88
512.265	87.88
512.481	90.88
512.698	78.88
512.914	91.88
513.13	96.88
513.346	83.88
513.562	80.88
513.778	87.88
513.994	85.88
514.21	75.88
514.426	76.88
514.642	92.88
514.858	85.88
515.074	89.88
515.29	90.88
515.506	93.88
515.721	86.88
515.937	95.88
516.153	80.88
516.369	74.88
516.585	85.88
516.801	79.88
517.016	92.88
517.232	82.88
517.448	84.88
517.664	86.88
517.879	81.88
518.095	87.88
518.311	85.88
518.527	85.88
518.742	94.88
518.958	78.88
519.173	88.88
519.389	88.88
519.605	77.88
519.82	86.88
520.036	78.88
520.251	70.88
520.467	86.88
520.682	84.88
520.898	93.88
521.113	83.88
521.329	78.88
521.544	95.88
521.76	85.88
521.975	84.88
522.19	91.88
522.406	93.88
522.621	96.88
522.836	73.88
523.052	80.88
523.267	91.88
523.482	94.88
523.698	89.88
523.913	97.88
524.128	90.88
524.343	91.88
524.559	103.88
524.774	75.88
524.989	97.88
525.204	102.88
525.419	107.88
525.634	98.88
525.849	86.88
526.064	96.88
526.28	80.88
526.495	80.88
526.71	76.88
526.925	93.88
527.14	80.88
527.355	75.88
527.57	78.88
527.785	89.88
527.999	88.88
528.214	85.88
528.429	74.88
528.644	86.88
528.859	79.88
529.074	94.88
529.289	92.88
529.503	90.88
529.718	81.88
529.933	87.88
530.148	88.88
530.363	91.88
530.577	91.88
530.792	89.88
531.007	79.88
531.221	92.88
531.436	86.88
531.651	85.88
531.865	93.88
532.08	85.88
532.295	87.88
532.509	93.88
532.724	92.88
532.938	84.88
533.153	74.88
533.367	76.88
533.582	95.88
533.796	87.88
534.011	92.88
534.225	85.88
534.44	79.88
534.654	91.88
534.868	84.88
535.083	91.88
535.297	80.88
535.511	84.88
535.726	104.88
535.94	95.88
536.154	84.88
536.369	93.88
536.583	88.88
536.797	83.88
537.011	82.88
537.225	97.88
537.44	86.88
537.654	89.88
537.868	99.88
538.082	81.88
538.296	83.88
538.51	94.88
538.724	87.88
538.938	98.88
539.153	107.88
539.367	101.88
539.581	98.88
539.795	74.88
540.009	92.88
540.222	91.88
540.436	81.88
540.65	95.88
540.864	91.88
541.078	107.88
541.292	108.88
541.506	104.88
541.72	107.88
541.934	104.88
542.147	118.88
542.361	99.88
542.575	95.88
542.789	95.88
543.002	101.88
543.216	101.88
543.43	97.88
543.644	95.88
543.857	77.88
544.071	113.88
544.285	94.88
544.498	93.88
544.712	101.88
544.925	101.88
545.139	101.88
545.352	93.88
545.566	92.88
545.779	96.88
545.993	106.88
546.206	108.88
546.42	95.88
546.633	101.88
546.847	99.88
547.06	92.88
547.274	101.88
547.487	115.88
547.7	88.88
547.914	101.88
548.127	95.88
548.34	99.88
548.554	110.88
548.767	103.88
548.98	105.88
549.193	104.88
549.407	100.88
549.62	100.88
549.833	101.88
550.046	103.88
550.259	111.88
550.473	94.88
550.686	97.88
550.899	101.88
551.112	93.88
551.325	92.88
551.538	94.88
551.751	99.88
551.964	84.88
552.177	100.88
552.39	108.88
552.603	115.88
552.816	104.88
553.029	92.88
553.242	105.88
553.455	93.88
553.667	98.88
553.88	91.88
554.093	93.88
554.306	94.88
554.519	101.88
554.732	106.88
554.944	95.88
555.157	90.88
555.37	98.88
555.583	101.88
555.795	101.88
556.008	87.88
556.221	94.88
556.433	96.88
556.646	88.88
556.859	91.88
557.071	93.88
557.284	84.88
557.496	91.88
557.709	114.88
557.921	97.88
558.134	101.88
558.346	98.88
558.559	81.88
558.771	87.88
558.984	85.88
559.196	100.88
559.409	84.88
559.621	92.88
559.833	96.88
560.046	86.88
560.258	101.88
560.47	84.88
560.683	96.88
560.895	102.88
561.107	98.88
561.32	85.88
561.532	96.88
561.744	94.88
561.956	87.88
562.168	97.88
562.381	103.88
562.593	105.88
562.805	94.88
563.017	95.88
563.229	104.88
563.441	109.88
563.653	112.88
563.865	102.88
564.077	90.88
564.289	91.88
564.501	96.88
564.713	100.88
564.925	92.88
565.137	93.88
565.349	93.88
565.561	100.88
565.773	91.88
565.985	100.88
566.197	96.88
566.408	80.88
566.62	88.88
566.832	98.88
567.044	92.88
567.255	101.88
567.467	100.88
567.679	95.88
567.891	88.88
568.102	90.88
568.314	93.88
568.526	89.88
568.737	83.88
568.949	68.88
569.161	92.88
569.372	87.88
569.584	91.88
569.795	98.88
570.007	82.88
570.218	85.88
570.43	86.88
570.641	73.88
570.853	87.88
571.064	95.88
571.276	101.88
571.487	99.88
571.698	88.88
571.91	101.88
572.121	99.88
572.333	76.88
572.544	78.88
572.755	85.88
572.966	79.88
573.178	100.88
573.389	81.88
573.6	80.88
573.811	79.88
574.023	80.88
574.234	87.88
574.445	88.88
574.656	82.88
574.867	95.88
575.078	105.88
575.289	92.88
575.501	98.88
575.712	92.88
575.923	81.88
576.134	94.88
576.345	95.88
576.556	84.88
576.767	85.88
576.978	95.88
577.188	92.88
577.399	104.88
577.61	86.88
577.821	89.88
578.032	90.88
578.243	99.88
578.454	95.88
578.665	94.88
578.875	78.88
579.086	86.88
579.297	76.88
579.508	86.88
579.718	91.88
579.929	80.88
580.14	93.88
580.35	75.88
580.561	93.88
580.772	92.88
580.982	86.88
581.193	88.88
581.403	81.88
581.614	81.88
581.825	85.88
582.035	93.88
582.246	86.88
582.456	79.88
582.667	109.88
582.877	85.88
583.087	77.88
583.298	97.88
583.508	71.88
583.719	86.88
583.929	87.88
584.139	94.88
584.35	84.88
584.56	103.88
584.77	98.88
584.981	84.88
585.191	88.88
585.401	81.88
585.611	90.88
585.821	90.88
586.032	91.88
586.242	93.88
586.452	96.88
586.662	82.88
586.872	84.88
587.082	91.88
587.292	88.88
587.502	86.88
587.713	81.88
587.923	91.88
588.133	81.88
588.343	90.88
588.553	95.88
588.762	92.88
588.972	93.88
589.182	77.88
589.392	83.88
589.602	88.88
589.812	100.88
590.022	82.88
590.232	81.88
590.441	71.88
590.651	95.88
590.861	83.88
591.071	79.88
591.281	96.88
591.49	100.88
591.7	91.88
591.91	98.88
592.119	84.88
592.329	84.88
592.539	87.88
592.748	88.88
592.958	82.88
593.167	77.88
593.377	89.88
593.587	89.88
593.796	81.88
594.006	95.88
594.215	85.88
594.424	87.88
594.634	89.88
594.843	92.88
595.053	96.88
595.262	93.88
595.472	96.88
595.681	84.88
595.89	76.88
596.1	99.88
596.309	94.88
596.518	81.88
596.727	95.88
596.937	86.88
597.146	85.88
597.355	97.88
597.564	86.88
597.774	86.88
597.983	100.88
598.192	98.88
598.401	75.88
598.61	79.88
598.819	95.88
599.028	90.88
599.237	86.88
599.446	83.88
599.655	79.88
599.864	89.88
600.073	78.88
600.282	97.88
600.491	76.88
600.7	83.88
600.909	82.88
601.118	88.88
601.327	76.88
601.536	99.88
601.745	89.88
601.953	87.88
602.162	97.88
602.371	109.88
602.58	102.88
602.789	93.88
602.997	101.88
603.206	93.88
603.415	91.88
603.623	99.88
603.832	92.88
604.041	102.88
604.249	96.88
604.458	92.88
604.666	79.88
604.875	102.88
605.084	81.88
605.292	111.88
605.501	102.88
605.709	96.88
605.918	96.88
606.126	92.88
606.334	95.88
606.543	89.88
606.751	86.88
606.96	79.88
607.168	98.88
607.376	89.88
607.585	77.88
607.793	99.88
608.001	78.88
608.21	101.88
608.418	87.88
608.626	85.88
608.834	101.88
609.043	90.88
609.251	96.88
609.459	87.88
609.667	99.88
609.875	89.88
610.083	108.88
610.291	110.88
610.499	88.88
610.707	96.88
610.916	112.88
611.124	94.88
611.332	95.88
611.54	100.88
611.748	84.88
611.955	90.88
612.163	88.88
612.371	88.88
612.579	78.88
612.787	88.88
612.995	81.88
613.203	84.88
613.411	95.88
613.618	78.88
613.826	81.88
614.034	89.88
614.242	87.88
614.449	93.88
614.657	84.88
614.865	83.88
615.072	74.88
615.28	96.88
615.488	84.88
615.695	73.88
615.903	96.88
616.111	93.88
616.318	95.88
616.526	96.88
616.733	85.88
616.941	92.88
617.148	103.88
617.356	93.88
617.563	94.88
617.771	100.88
617.978	66.88
618.185	78.88
618.393	85.88
618.6	81.88
618.807	85.88
619.015	95.88
619.222	88.88
619.429	100.88
619.637	92.88
619.844	84.88
620.051	80.88
620.258	101.88
620.466	96.88
620.673	99.88
620.88	91.88
621.087	94.88
621.294	97.88
621.501	105.88
621.708	92.88
621.915	87.88
622.122	91.88
622.329	101.88
622.536	94.88
622.743	99.88
622.95	95.88
623.157	96.88
623.364	104.88
623.571	109.88
623.778	83.88
623.985	86.88
624.192	86.88
624.399	87.88
624.606	86.88
624.812	90.88
625.019	93.88
625.226	95.88
625.433	79.88
625.639	88.88
625.846	84.88
626.053	84.88
626.259	90.88
626.466	85.88
626.673	82.88
626.879	80.88
627.086	84.88
627.293	97.88
627.499	91.88
627.706	87.88
627.912	86.88
628.119	69.88
628.325	94.88
628.532	96.88
628.738	81.88
628.945	89.88
629.151	85.88
629.357	91.88
629.564	93.88
629.77	98.88
629.976	81.88
630.183	90.88
630.389	89.88
630.595	93.88
630.802	84.88
631.008	80.88
631.214	83.88
631.42	78.88
631.627	92.88
631.833	92.88
632.039	96.88
632.245	94.88
632.451	92.88
632.657	85.88
632.863	81.88
633.069	89.88
633.275	102.88
633.481	88.88
633.688	93.88
633.893	85.88
634.099	88.88
634.305	88.88
634.511	81.88
634.717	85.88
634.923	82.88
635.129	90.88
635.335	84.88
635.541	66.88
635.747	87.88
635.952	92.88
636.158	87.88
636.364	86.88
636.57	90.88
636.775	81.88
636.981	77.88
637.187	78.88
637.392	95.88
637.598	94.88
637.804	86.88
638.009	102.88
638.215	83.88
638.421	94.88
638.626	94.88
638.832	80.88
639.037	86.88
639.243	97.88
639.448	99.88
639.654	90.88
639.859	85.88
640.065	90.88
640.27	83.88
640.475	68.88
640.681	82.88
640.886	101.88
641.091	90.88
641.297	96.88
641.502	89.88
641.707	99.88
641.913	95.88
642.118	93.88
642.323	93.88
642.528	72.88
642.733	88.88
642.939	100.88
643.144	85.88
643.349	92.88
643.554	81.88
643.759	78.88
643.964	98.88
644.169	82.88
644.374	92.88
644.579	106.88
644.784	88.88
644.989	96.88
645.194	92.88
645.399	96.88
645.604	80.88
645.809	73.88
646.014	91.88
646.219	87.88
646.423	86.88
646.628	87.88
646.833	93.88
647.038	72.88
647.243	81.88
647.447	81.88
647.652	90.88
647.857	90.88
648.062	101.88
648.266	96.88
648.471	90.88
648.676	100.88
648.88	101.88
649.085	75.88
649.289	90.88
649.494	78.88
649.698	84.88
649.903	67.88
650.107	92.88
650.312	91.88
650.516	85.88
650.721	94.88
650.925	94.88
651.13	92.88
651.334	77.88
651.539	95.88
651.743	75.88
651.947	87.88
652.152	98.88
652.356	90.88
652.56	91.88
652.764	92.88
652.969	93.88
653.173	89.88
653.377	96.88
653.581	78.88
653.785	76.88
653.99	91.88
654.194	96.88
654.398	90.88
654.602	71.88
654.806	75.88
655.01	81.88
655.214	82.88
655.418	88.88
655.622	83.88
655.826	81.88
656.03	88.88
656.234	90.88
656.438	84.88
656.642	92.88
656.846	79.88
657.049	81.88
657.253	87.88
657.457	85.88
657.661	78.88
657.865	71.88
658.068	91.88
658.272	91.88
658.476	80.88
658.68	72.88
658.883	72.88
659.087	85.88
659.291	80.88
659.494	84.88
659.698	93.88
659.901	81.88
660.105	68.88
660.309	85.88
660.512	82.88
660.716	76.88
660.919	81.88
661.123	90.88
661.326	88.88
661.53	86.88
661.733	89.88
661.936	81.88
662.14	87.88
662.343	73.88
662.546	74.88
662.75	77.88
662.953	77.88
663.156	80.88
663.36	76.88
663.563	81.88
663.766	92.88
663.969	88.88
664.173	92.88
664.376	96.88
664.579	91.88
664.782	92.88
664.985	72.88
665.188	83.88
665.391	80.88
665.594	82.88
665.797	90.88
666	76.88
666.203	91.88
666.406	88.88
666.609	76.88
666.812	93.88
667.015	89.88
667.218	83.88
667.421	83.88
667.624	93.88
667.827	92.88
668.03	94.88
668.232	76.88
668.435	80.88
668.638	88.88
668.841	81.88
669.043	79.88
669.246	83.88
669.449	73.88
669.651	83.88
669.854	88.88
670.057	83.88
670.259	80.88
670.462	75.88
670.665	73.88
670.867	88.88
671.07	97.88
671.272	86.88
671.475	86.88
671.677	88.88
671.88	84.88
672.082	80.88
672.284	100.88
672.487	81.88
672.689	80.88
672.892	83.88
