Data from Zn(NO3)2Standard.Agarose3%.GreenCap.LampEnergy10E.O_HRD10591_15-07-46-946.txt Node
Date: Mon Jul 22 15:07:46 EDT 2019
User: cochatt
Spectrometer: HR+D1059
Trigger mode: 1
Integration Time (sec): 1.000000E-1
Scans to average: 1
Electric dark correction enabled: true
Nonlinearity correction enabled: false
Boxcar width: 0
XAxis mode: Wavelengths
Number of Pixels in Spectrum: 2048
>>>>>Begin Spectral Data<<<<<
223.165	-19.62
223.4	-19.62
223.635	-19.62
223.869	-22.62
224.104	-10.62
224.338	-0.62
224.573	-14.62
224.808	-25.62
225.042	1.38
225.277	-8.62
225.511	1.38
225.746	-8.62
225.98	1.38
226.215	10.38
226.449	11.38
226.683	14.38
226.918	27.38
227.152	43.38
227.387	44.38
227.621	34.38
227.856	43.38
228.09	50.38
228.324	56.38
228.559	54.38
228.793	68.38
229.027	61.38
229.262	79.38
229.496	73.38
229.73	84.38
229.964	72.38
230.199	76.38
230.433	63.38
230.667	77.38
230.901	80.38
231.136	73.38
231.37	79.38
231.604	66.38
231.838	92.38
232.072	89.38
232.306	90.38
232.541	84.38
232.775	78.38
233.009	87.38
233.243	87.38
233.477	76.38
233.711	93.38
233.945	91.38
234.179	84.38
234.413	74.38
234.647	97.38
234.881	85.38
235.115	83.38
235.349	87.38
235.583	85.38
235.817	73.38
236.051	81.38
236.285	73.38
236.519	81.38
236.753	83.38
236.987	87.38
237.221	87.38
237.455	77.38
237.689	75.38
237.922	81.38
238.156	81.38
238.39	76.38
238.624	83.38
238.858	78.38
239.091	86.38
239.325	73.38
239.559	85.38
239.793	93.38
240.027	84.38
240.26	74.38
240.494	75.38
240.728	72.38
240.961	79.38
241.195	89.38
241.429	66.38
241.662	75.38
241.896	81.38
242.13	66.38
242.363	81.38
242.597	64.38
242.83	81.38
243.064	82.38
243.298	74.38
243.531	79.38
243.765	83.38
243.998	93.38
244.232	77.38
244.465	77.38
244.699	86.38
244.932	91.38
245.166	71.38
245.399	93.38
245.633	84.38
245.866	89.38
246.099	88.38
246.333	74.38
246.566	85.38
246.8	80.38
247.033	89.38
247.266	90.38
247.5	87.38
247.733	83.38
247.966	82.38
248.2	83.38
248.433	83.38
248.666	91.38
248.899	77.38
249.133	84.38
249.366	76.38
249.599	74.38
249.832	72.38
250.066	94.38
250.299	74.38
250.532	60.38
250.765	91.38
250.998	90.38
251.231	78.38
251.465	77.38
251.698	83.38
251.931	78.38
252.164	76.38
252.397	87.38
252.63	84.38
252.863	80.38
253.096	72.38
253.329	95.38
253.562	101.38
253.795	98.38
254.028	88.38
254.261	89.38
254.494	78.38
254.727	67.38
254.96	69.38
255.193	81.38
255.426	75.38
255.659	76.38
255.892	81.38
256.124	75.38
256.357	89.38
256.59	84.38
256.823	83.38
257.056	82.38
257.289	79.38
257.521	79.38
257.754	86.38
257.987	87.38
258.22	86.38
258.452	84.38
258.685	86.38
258.918	78.38
259.151	87.38
259.383	84.38
259.616	82.38
259.849	74.38
260.081	89.38
260.314	79.38
260.547	84.38
260.779	91.38
261.012	88.38
261.244	85.38
261.477	81.38
261.71	69.38
261.942	91.38
262.175	80.38
262.407	84.38
262.64	87.38
262.872	90.38
263.105	79.38
263.337	94.38
263.57	94.38
263.802	91.38
264.035	84.38
264.267	86.38
264.499	95.38
264.732	78.38
264.964	87.38
265.197	81.38
265.429	84.38
265.661	85.38
265.894	89.38
266.126	90.38
266.358	89.38
266.591	92.38
266.823	99.38
267.055	99.38
267.287	78.38
267.52	66.38
267.752	93.38
267.984	84.38
268.216	79.38
268.448	87.38
268.681	85.38
268.913	90.38
269.145	88.38
269.377	74.38
269.609	94.38
269.841	78.38
270.073	87.38
270.306	85.38
270.538	84.38
270.77	78.38
271.002	91.38
271.234	90.38
271.466	96.38
271.698	85.38
271.93	87.38
272.162	88.38
272.394	82.38
272.626	79.38
272.858	76.38
273.09	91.38
273.322	94.38
273.553	87.38
273.785	77.38
274.017	80.38
274.249	83.38
274.481	84.38
274.713	76.38
274.945	94.38
275.176	79.38
275.408	87.38
275.64	78.38
275.872	74.38
276.104	71.38
276.335	85.38
276.567	86.38
276.799	88.38
277.031	85.38
277.262	78.38
277.494	95.38
277.726	73.38
277.957	89.38
278.189	77.38
278.421	90.38
278.652	77.38
278.884	82.38
279.115	93.38
279.347	86.38
279.579	87.38
279.81	84.38
280.042	98.38
280.273	90.38
280.505	70.38
280.736	82.38
280.968	73.38
281.199	89.38
281.431	78.38
281.662	89.38
281.894	88.38
282.125	92.38
282.356	91.38
282.588	89.38
282.819	77.38
283.051	91.38
283.282	88.38
283.513	82.38
283.745	97.38
283.976	92.38
284.207	77.38
284.439	90.38
284.67	81.38
284.901	87.38
285.132	85.38
285.364	90.38
285.595	78.38
285.826	83.38
286.057	69.38
286.288	85.38
286.52	90.38
286.751	79.38
286.982	91.38
287.213	79.38
287.444	79.38
287.675	84.38
287.906	89.38
288.138	91.38
288.369	82.38
288.6	92.38
288.831	87.38
289.062	74.38
289.293	79.38
289.524	87.38
289.755	85.38
289.986	78.38
290.217	85.38
290.448	86.38
290.679	89.38
290.91	83.38
291.141	71.38
291.371	100.38
291.602	85.38
291.833	90.38
292.064	90.38
292.295	84.38
292.526	91.38
292.757	91.38
292.987	77.38
293.218	94.38
293.449	91.38
293.68	89.38
293.91	76.38
294.141	87.38
294.372	77.38
294.603	82.38
294.833	82.38
295.064	78.38
295.295	81.38
295.525	88.38
295.756	79.38
295.987	81.38
296.217	83.38
296.448	85.38
296.679	90.38
296.909	81.38
297.14	83.38
297.37	80.38
297.601	85.38
297.831	73.38
298.062	85.38
298.292	80.38
298.523	87.38
298.753	82.38
298.984	97.38
299.214	84.38
299.445	90.38
299.675	93.38
299.905	93.38
300.136	79.38
300.366	98.38
300.597	74.38
300.827	81.38
301.057	78.38
301.288	81.38
301.518	91.38
301.748	86.38
301.979	90.38
302.209	86.38
302.439	76.38
302.669	90.38
302.9	70.38
303.13	82.38
303.36	92.38
303.59	81.38
303.82	101.38
304.051	89.38
304.281	75.38
304.511	82.38
304.741	82.38
304.971	83.38
305.201	85.38
305.431	82.38
305.661	85.38
305.891	89.38
306.121	79.38
306.352	93.38
306.582	84.38
306.812	84.38
307.042	95.38
307.272	70.38
307.502	84.38
307.731	89.38
307.961	97.38
308.191	76.38
308.421	77.38
308.651	92.38
308.881	87.38
309.111	77.38
309.341	87.38
309.571	86.38
309.8	75.38
310.03	93.38
310.26	87.38
310.49	96.38
310.72	76.38
310.949	83.38
311.179	90.38
311.409	71.38
311.639	94.38
311.868	80.38
312.098	87.38
312.328	98.38
312.557	93.38
312.787	101.38
313.017	87.38
313.246	82.38
313.476	83.38
313.706	87.38
313.935	107.38
314.165	75.38
314.394	77.38
314.624	87.38
314.853	85.38
315.083	84.38
315.312	79.38
315.542	80.38
315.771	90.38
316.001	90.38
316.23	72.38
316.46	90.38
316.689	83.38
316.919	77.38
317.148	85.38
317.377	94.38
317.607	74.38
317.836	95.38
318.065	76.38
318.295	87.38
318.524	76.38
318.753	98.38
318.983	101.38
319.212	77.38
319.441	96.38
319.67	95.38
319.9	86.38
320.129	84.38
320.358	80.38
320.587	97.38
320.816	78.38
321.046	89.38
321.275	95.38
321.504	86.38
321.733	83.38
321.962	90.38
322.191	93.38
322.42	80.38
322.649	88.38
322.878	84.38
323.108	93.38
323.337	98.38
323.566	79.38
323.795	82.38
324.024	83.38
324.253	73.38
324.482	82.38
324.71	80.38
324.939	100.38
325.168	83.38
325.397	93.38
325.626	83.38
325.855	88.38
326.084	72.38
326.313	96.38
326.542	85.38
326.77	94.38
326.999	92.38
327.228	85.38
327.457	84.38
327.686	78.38
327.914	96.38
328.143	79.38
328.372	86.38
328.6	93.38
328.829	83.38
329.058	76.38
329.287	77.38
329.515	78.38
329.744	85.38
329.972	89.38
330.201	96.38
330.43	101.38
330.658	82.38
330.887	87.38
331.115	89.38
331.344	85.38
331.572	93.38
331.801	91.38
332.03	83.38
332.258	101.38
332.486	90.38
332.715	94.38
332.943	79.38
333.172	85.38
333.4	91.38
333.629	91.38
333.857	94.38
334.085	79.38
334.314	87.38
334.542	78.38
334.771	85.38
334.999	85.38
335.227	77.38
335.455	78.38
335.684	104.38
335.912	93.38
336.14	68.38
336.369	88.38
336.597	92.38
336.825	71.38
337.053	78.38
337.281	81.38
337.51	80.38
337.738	93.38
337.966	77.38
338.194	76.38
338.422	70.38
338.65	96.38
338.878	86.38
339.106	82.38
339.334	79.38
339.562	86.38
339.79	92.38
340.018	85.38
340.246	85.38
340.474	94.38
340.702	100.38
340.93	86.38
341.158	81.38
341.386	87.38
341.614	78.38
341.842	85.38
342.07	89.38
342.298	87.38
342.526	79.38
342.754	86.38
342.981	70.38
343.209	73.38
343.437	83.38
343.665	82.38
343.893	80.38
344.12	91.38
344.348	80.38
344.576	91.38
344.804	98.38
345.031	98.38
345.259	75.38
345.487	85.38
345.714	85.38
345.942	92.38
346.17	85.38
346.397	82.38
346.625	76.38
346.853	70.38
347.08	77.38
347.308	90.38
347.535	89.38
347.763	88.38
347.99	72.38
348.218	100.38
348.445	88.38
348.673	97.38
348.9	83.38
349.128	81.38
349.355	77.38
349.583	84.38
349.81	94.38
350.037	93.38
350.265	99.38
350.492	82.38
350.72	85.38
350.947	73.38
351.174	78.38
351.402	92.38
351.629	81.38
351.856	88.38
352.083	83.38
352.311	71.38
352.538	68.38
352.765	78.38
352.992	91.38
353.22	77.38
353.447	78.38
353.674	96.38
353.901	88.38
354.128	87.38
354.355	83.38
354.583	79.38
354.81	86.38
355.037	77.38
355.264	86.38
355.491	70.38
355.718	87.38
355.945	92.38
356.172	84.38
356.399	86.38
356.626	79.38
356.853	84.38
357.08	89.38
357.307	78.38
357.534	83.38
357.761	91.38
357.988	86.38
358.215	78.38
358.441	73.38
358.668	78.38
358.895	86.38
359.122	96.38
359.349	79.38
359.576	79.38
359.802	70.38
360.029	85.38
360.256	88.38
360.483	73.38
360.709	85.38
360.936	91.38
361.163	85.38
361.39	85.38
361.616	71.38
361.843	77.38
362.07	90.38
362.296	84.38
362.523	84.38
362.749	92.38
362.976	84.38
363.203	85.38
363.429	86.38
363.656	84.38
363.882	82.38
364.109	94.38
364.335	101.38
364.562	86.38
364.788	85.38
365.015	90.38
365.241	93.38
365.468	86.38
365.694	69.38
365.92	90.38
366.147	94.38
366.373	89.38
366.599	80.38
366.826	91.38
367.052	75.38
367.278	85.38
367.505	78.38
367.731	88.38
367.957	94.38
368.184	101.38
368.41	82.38
368.636	86.38
368.862	81.38
369.089	86.38
369.315	98.38
369.541	85.38
369.767	84.38
369.993	92.38
370.219	89.38
370.445	96.38
370.672	86.38
370.898	77.38
371.124	87.38
371.35	82.38
371.576	104.38
371.802	102.38
372.028	77.38
372.254	72.38
372.48	83.38
372.706	84.38
372.932	83.38
373.158	85.38
373.384	67.38
373.61	96.38
373.835	94.38
374.061	102.38
374.287	93.38
374.513	99.38
374.739	89.38
374.965	93.38
375.191	86.38
375.416	87.38
375.642	74.38
375.868	73.38
376.094	90.38
376.319	88.38
376.545	99.38
376.771	68.38
376.997	84.38
377.222	88.38
377.448	76.38
377.674	69.38
377.899	83.38
378.125	99.38
378.35	87.38
378.576	89.38
378.802	89.38
379.027	89.38
379.253	81.38
379.478	92.38
379.704	94.38
379.929	84.38
380.155	80.38
380.38	99.38
380.606	103.38
380.831	90.38
381.057	82.38
381.282	94.38
381.507	103.38
381.733	92.38
381.958	77.38
382.184	89.38
382.409	102.38
382.634	85.38
382.86	91.38
383.085	98.38
383.31	82.38
383.535	78.38
383.761	88.38
383.986	85.38
384.211	91.38
384.436	93.38
384.662	91.38
384.887	89.38
385.112	82.38
385.337	100.38
385.562	107.38
385.787	80.38
386.013	101.38
386.238	88.38
386.463	86.38
386.688	96.38
386.913	87.38
387.138	85.38
387.363	80.38
387.588	106.38
387.813	88.38
388.038	92.38
388.263	81.38
388.488	102.38
388.713	97.38
388.938	100.38
389.163	94.38
389.387	85.38
389.612	84.38
389.837	90.38
390.062	93.38
390.287	89.38
390.512	91.38
390.736	95.38
390.961	84.38
391.186	97.38
391.411	75.38
391.636	100.38
391.86	99.38
392.085	91.38
392.31	82.38
392.534	91.38
392.759	90.38
392.984	95.38
393.208	92.38
393.433	100.38
393.658	88.38
393.882	96.38
394.107	97.38
394.331	109.38
394.556	101.38
394.78	82.38
395.005	78.38
395.229	96.38
395.454	88.38
395.678	100.38
395.903	108.38
396.127	90.38
396.352	95.38
396.576	100.38
396.801	105.38
397.025	107.38
397.249	85.38
397.474	95.38
397.698	93.38
397.922	81.38
398.147	95.38
398.371	89.38
398.595	84.38
398.82	83.38
399.044	98.38
399.268	100.38
399.492	103.38
399.717	105.38
399.941	100.38
400.165	91.38
400.389	79.38
400.613	93.38
400.837	95.38
401.062	77.38
401.286	95.38
401.51	98.38
401.734	87.38
401.958	99.38
402.182	96.38
402.406	88.38
402.63	90.38
402.854	82.38
403.078	90.38
403.302	95.38
403.526	94.38
403.75	108.38
403.974	102.38
404.198	108.38
404.422	106.38
404.645	90.38
404.869	101.38
405.093	89.38
405.317	104.38
405.541	93.38
405.765	96.38
405.988	104.38
406.212	96.38
406.436	92.38
406.66	106.38
406.883	105.38
407.107	94.38
407.331	101.38
407.555	95.38
407.778	94.38
408.002	107.38
408.226	97.38
408.449	107.38
408.673	114.38
408.896	93.38
409.12	100.38
409.344	92.38
409.567	111.38
409.791	96.38
410.014	97.38
410.238	94.38
410.461	98.38
410.685	87.38
410.908	101.38
411.132	88.38
411.355	100.38
411.578	108.38
411.802	93.38
412.025	103.38
412.249	90.38
412.472	110.38
412.695	89.38
412.919	94.38
413.142	93.38
413.365	108.38
413.589	113.38
413.812	119.38
414.035	106.38
414.258	97.38
414.482	101.38
414.705	103.38
414.928	105.38
415.151	90.38
415.374	89.38
415.597	104.38
415.821	100.38
416.044	108.38
416.267	117.38
416.49	100.38
416.713	105.38
416.936	104.38
417.159	102.38
417.382	104.38
417.605	104.38
417.828	104.38
418.051	110.38
418.274	102.38
418.497	109.38
418.72	106.38
418.943	110.38
419.166	107.38
419.389	103.38
419.611	103.38
419.834	111.38
420.057	111.38
420.28	106.38
420.503	114.38
420.726	105.38
420.948	102.38
421.171	106.38
421.394	101.38
421.617	107.38
421.839	108.38
422.062	113.38
422.285	98.38
422.507	94.38
422.73	109.38
422.953	119.38
423.175	113.38
423.398	109.38
423.621	118.38
423.843	105.38
424.066	110.38
424.288	111.38
424.511	123.38
424.733	115.38
424.956	102.38
425.178	108.38
425.401	109.38
425.623	107.38
425.846	99.38
426.068	102.38
426.291	98.38
426.513	110.38
426.735	105.38
426.958	112.38
427.18	100.38
427.402	103.38
427.625	105.38
427.847	99.38
428.069	103.38
428.292	93.38
428.514	93.38
428.736	91.38
428.958	95.38
429.181	108.38
429.403	106.38
429.625	108.38
429.847	113.38
430.069	101.38
430.292	113.38
430.514	106.38
430.736	106.38
430.958	106.38
431.18	93.38
431.402	97.38
431.624	97.38
431.846	89.38
432.068	94.38
432.29	103.38
432.512	91.38
432.734	91.38
432.956	95.38
433.178	118.38
433.4	108.38
433.622	111.38
433.844	116.38
434.066	87.38
434.287	96.38
434.509	73.38
434.731	85.38
434.953	90.38
435.175	104.38
435.397	102.38
435.618	107.38
435.84	100.38
436.062	102.38
436.284	104.38
436.505	100.38
436.727	108.38
436.949	107.38
437.17	117.38
437.392	104.38
437.614	105.38
437.835	97.38
438.057	96.38
438.278	93.38
438.5	79.38
438.721	85.38
438.943	93.38
439.165	95.38
439.386	126.38
439.608	125.38
439.829	115.38
440.05	103.38
440.272	113.38
440.493	104.38
440.715	115.38
440.936	120.38
441.158	116.38
441.379	117.38
441.6	117.38
441.822	104.38
442.043	115.38
442.264	108.38
442.486	105.38
442.707	103.38
442.928	97.38
443.149	101.38
443.371	115.38
443.592	114.38
443.813	107.38
444.034	100.38
444.255	106.38
444.476	106.38
444.698	103.38
444.919	105.38
445.14	247.38
445.361	172.38
445.582	124.38
445.803	126.38
446.024	110.38
446.245	129.38
446.466	113.38
446.687	96.38
446.908	105.38
447.129	109.38
447.35	113.38
447.571	113.38
447.792	130.38
448.013	107.38
448.234	113.38
448.455	113.38
448.675	121.38
448.896	125.38
449.117	121.38
449.338	102.38
449.559	95.38
449.779	105.38
450	109.38
450.221	119.38
450.442	114.38
450.662	100.38
450.883	113.38
451.104	96.38
451.324	109.38
451.545	104.38
451.766	94.38
451.986	97.38
452.207	111.38
452.428	93.38
452.648	100.38
452.869	104.38
453.089	102.38
453.31	105.38
453.53	93.38
453.751	91.38
453.971	93.38
454.192	92.38
454.412	97.38
454.633	98.38
454.853	102.38
455.073	113.38
455.294	105.38
455.514	108.38
455.734	87.38
455.955	117.38
456.175	82.38
456.395	94.38
456.616	94.38
456.836	98.38
457.056	105.38
457.276	101.38
457.497	101.38
457.717	84.38
457.937	94.38
458.157	94.38
458.377	93.38
458.598	102.38
458.818	91.38
459.038	89.38
459.258	88.38
459.478	99.38
459.698	85.38
459.918	87.38
460.138	97.38
460.358	107.38
460.578	97.38
460.798	85.38
461.018	101.38
461.238	103.38
461.458	98.38
461.678	99.38
461.898	101.38
462.118	105.38
462.338	95.38
462.558	95.38
462.777	97.38
462.997	101.38
463.217	103.38
463.437	110.38
463.657	93.38
463.876	94.38
464.096	75.38
464.316	99.38
464.536	99.38
464.755	92.38
464.975	117.38
465.195	96.38
465.414	93.38
465.634	100.38
465.854	113.38
466.073	104.38
466.293	106.38
466.512	111.38
466.732	111.38
466.951	93.38
467.171	103.38
467.391	111.38
467.61	108.38
467.829	106.38
468.049	86.38
468.268	115.38
468.488	113.38
468.707	108.38
468.927	103.38
469.146	113.38
469.365	113.38
469.585	103.38
469.804	111.38
470.023	106.38
470.243	111.38
470.462	118.38
470.681	108.38
470.901	115.38
471.12	109.38
471.339	116.38
471.558	104.38
471.777	113.38
471.997	103.38
472.216	100.38
472.435	102.38
472.654	102.38
472.873	102.38
473.092	97.38
473.311	92.38
473.53	101.38
473.749	99.38
473.968	123.38
474.187	99.38
474.406	109.38
474.625	103.38
474.844	110.38
475.063	119.38
475.282	111.38
475.501	108.38
475.72	105.38
475.939	100.38
476.158	101.38
476.377	99.38
476.596	110.38
476.814	101.38
477.033	102.38
477.252	100.38
477.471	118.38
477.69	117.38
477.908	107.38
478.127	121.38
478.346	100.38
478.564	105.38
478.783	107.38
479.002	105.38
479.22	102.38
479.439	113.38
479.658	97.38
479.876	115.38
480.095	89.38
480.313	95.38
480.532	81.38
480.751	85.38
480.969	90.38
481.188	85.38
481.406	87.38
481.624	90.38
481.843	76.38
482.061	90.38
482.28	114.38
482.498	101.38
482.717	96.38
482.935	101.38
483.153	116.38
483.372	117.38
483.59	122.38
483.808	113.38
484.027	83.38
484.245	106.38
484.463	106.38
484.681	120.38
484.9	128.38
485.118	122.38
485.336	111.38
485.554	100.38
485.772	106.38
485.99	97.38
486.209	110.38
486.427	109.38
486.645	92.38
486.863	121.38
487.081	123.38
487.299	105.38
487.517	117.38
487.735	125.38
487.953	138.38
488.171	125.38
488.389	126.38
488.607	125.38
488.825	123.38
489.043	94.38
489.261	102.38
489.479	122.38
489.696	128.38
489.914	130.38
490.132	115.38
490.35	115.38
490.568	121.38
490.786	115.38
491.003	122.38
491.221	125.38
491.439	125.38
491.657	142.38
491.874	137.38
492.092	142.38
492.31	158.38
492.527	160.38
492.745	139.38
492.963	163.38
493.18	135.38
493.398	143.38
493.615	118.38
493.833	127.38
494.05	121.38
494.268	124.38
494.485	131.38
494.703	121.38
494.92	143.38
495.138	125.38
495.355	128.38
495.573	110.38
495.79	103.38
496.008	122.38
496.225	124.38
496.442	121.38
496.66	137.38
496.877	115.38
497.094	127.38
497.312	129.38
497.529	112.38
497.746	119.38
497.963	110.38
498.181	108.38
498.398	113.38
498.615	113.38
498.832	100.38
499.049	106.38
499.267	97.38
499.484	97.38
499.701	98.38
499.918	119.38
500.135	117.38
500.352	119.38
500.569	125.38
500.786	107.38
501.003	125.38
501.22	109.38
501.437	129.38
501.654	116.38
501.871	103.38
502.088	106.38
502.305	106.38
502.522	108.38
502.739	98.38
502.956	102.38
503.172	98.38
503.389	98.38
503.606	109.38
503.823	106.38
504.04	115.38
504.256	106.38
504.473	101.38
504.69	115.38
504.907	115.38
505.123	125.38
505.34	108.38
505.557	116.38
505.773	98.38
505.99	104.38
506.207	94.38
506.423	107.38
506.64	98.38
506.856	99.38
507.073	100.38
507.289	123.38
507.506	115.38
507.722	103.38
507.939	101.38
508.155	105.38
508.372	93.38
508.588	101.38
508.805	90.38
509.021	90.38
509.238	100.38
509.454	88.38
509.67	87.38
509.887	83.38
510.103	93.38
510.319	84.38
510.536	99.38
510.752	87.38
510.968	89.38
511.184	85.38
511.401	89.38
511.617	87.38
511.833	98.38
512.049	106.38
512.265	84.38
512.481	87.38
512.698	84.38
512.914	108.38
513.13	114.38
513.346	86.38
513.562	95.38
513.778	88.38
513.994	86.38
514.21	100.38
514.426	90.38
514.642	102.38
514.858	85.38
515.074	94.38
515.29	100.38
515.506	98.38
515.721	92.38
515.937	84.38
516.153	76.38
516.369	88.38
516.585	85.38
516.801	83.38
517.016	91.38
517.232	102.38
517.448	87.38
517.664	89.38
517.879	89.38
518.095	92.38
518.311	91.38
518.527	83.38
518.742	86.38
518.958	90.38
519.173	84.38
519.389	95.38
519.605	93.38
519.82	95.38
520.036	94.38
520.251	93.38
520.467	86.38
520.682	91.38
520.898	90.38
521.113	100.38
521.329	94.38
521.544	82.38
521.76	94.38
521.975	93.38
522.19	100.38
522.406	75.38
522.621	92.38
522.836	87.38
523.052	109.38
523.267	108.38
523.482	95.38
523.698	100.38
523.913	107.38
524.128	115.38
524.343	109.38
524.559	106.38
524.774	99.38
524.989	110.38
525.204	98.38
525.419	98.38
525.634	99.38
525.849	96.38
526.064	94.38
526.28	92.38
526.495	88.38
526.71	107.38
526.925	80.38
527.14	82.38
527.355	98.38
527.57	84.38
527.785	85.38
527.999	103.38
528.214	88.38
528.429	100.38
528.644	106.38
528.859	117.38
529.074	117.38
529.289	123.38
529.503	131.38
529.718	115.38
529.933	102.38
530.148	93.38
530.363	103.38
530.577	94.38
530.792	88.38
531.007	85.38
531.221	85.38
531.436	88.38
531.651	87.38
531.865	82.38
532.08	90.38
532.295	90.38
532.509	92.38
532.724	78.38
532.938	82.38
533.153	113.38
533.367	94.38
533.582	111.38
533.796	107.38
534.011	113.38
534.225	95.38
534.44	114.38
534.654	109.38
534.868	86.38
535.083	89.38
535.297	87.38
535.511	99.38
535.726	93.38
535.94	99.38
536.154	84.38
536.369	97.38
536.583	91.38
536.797	98.38
537.011	92.38
537.225	82.38
537.44	105.38
537.654	83.38
537.868	85.38
538.082	73.38
538.296	107.38
538.51	90.38
538.724	93.38
538.938	104.38
539.153	112.38
539.367	109.38
539.581	98.38
539.795	93.38
540.009	91.38
540.222	108.38
540.436	90.38
540.65	102.38
540.864	97.38
541.078	123.38
541.292	119.38
541.506	137.38
541.72	135.38
541.934	126.38
542.147	145.38
542.361	141.38
542.575	116.38
542.789	115.38
543.002	107.38
543.216	92.38
543.43	122.38
543.644	109.38
543.857	118.38
544.071	113.38
544.285	127.38
544.498	115.38
544.712	119.38
544.925	114.38
545.139	113.38
545.352	123.38
545.566	128.38
545.779	117.38
545.993	120.38
546.206	141.38
546.42	141.38
546.633	115.38
546.847	119.38
547.06	126.38
547.274	121.38
547.487	134.38
547.7	121.38
547.914	133.38
548.127	134.38
548.34	140.38
548.554	134.38
548.767	122.38
548.98	122.38
549.193	123.38
549.407	116.38
549.62	125.38
549.833	122.38
550.046	119.38
550.259	116.38
550.473	114.38
550.686	105.38
550.899	119.38
551.112	120.38
551.325	117.38
551.538	105.38
551.751	106.38
551.964	119.38
552.177	111.38
552.39	111.38
552.603	119.38
552.816	121.38
553.029	121.38
553.242	115.38
553.455	103.38
553.667	101.38
553.88	136.38
554.093	134.38
554.306	104.38
554.519	113.38
554.732	130.38
554.944	122.38
555.157	116.38
555.37	123.38
555.583	108.38
555.795	126.38
556.008	107.38
556.221	105.38
556.433	116.38
556.646	105.38
556.859	100.38
557.071	109.38
557.284	122.38
557.496	125.38
557.709	97.38
557.921	118.38
558.134	103.38
558.346	122.38
558.559	116.38
558.771	121.38
558.984	103.38
559.196	119.38
559.409	99.38
559.621	102.38
559.833	108.38
560.046	96.38
560.258	107.38
560.47	110.38
560.683	134.38
560.895	119.38
561.107	113.38
561.32	101.38
561.532	111.38
561.744	100.38
561.956	99.38
562.168	119.38
562.381	100.38
562.593	110.38
562.805	112.38
563.017	119.38
563.229	116.38
563.441	114.38
563.653	108.38
563.865	91.38
564.077	125.38
564.289	105.38
564.501	95.38
564.713	97.38
564.925	102.38
565.137	94.38
565.349	103.38
565.561	111.38
565.773	109.38
565.985	91.38
566.197	93.38
566.408	100.38
566.62	105.38
566.832	92.38
567.044	111.38
567.255	113.38
567.467	97.38
567.679	79.38
567.891	112.38
568.102	93.38
568.314	101.38
568.526	81.38
568.737	86.38
568.949	86.38
569.161	76.38
569.372	93.38
569.584	83.38
569.795	86.38
570.007	88.38
570.218	83.38
570.43	85.38
570.641	92.38
570.853	110.38
571.064	99.38
571.276	92.38
571.487	102.38
571.698	100.38
571.91	91.38
572.121	92.38
572.333	91.38
572.544	101.38
572.755	95.38
572.966	84.38
573.178	91.38
573.389	73.38
573.6	81.38
573.811	77.38
574.023	86.38
574.234	74.38
574.445	101.38
574.656	92.38
574.867	89.38
575.078	106.38
575.289	97.38
575.501	96.38
575.712	85.38
575.923	91.38
576.134	84.38
576.345	89.38
576.556	98.38
576.767	110.38
576.978	90.38
577.188	85.38
577.399	97.38
577.61	87.38
577.821	87.38
578.032	103.38
578.243	88.38
578.454	79.38
578.665	85.38
578.875	89.38
579.086	92.38
579.297	89.38
579.508	84.38
579.718	90.38
579.929	96.38
580.14	79.38
580.35	92.38
580.561	97.38
580.772	84.38
580.982	80.38
581.193	85.38
581.403	86.38
581.614	82.38
581.825	96.38
582.035	88.38
582.246	87.38
582.456	91.38
582.667	94.38
582.877	92.38
583.087	82.38
583.298	100.38
583.508	89.38
583.719	96.38
583.929	99.38
584.139	77.38
584.35	97.38
584.56	95.38
584.77	91.38
584.981	85.38
585.191	82.38
585.401	90.38
585.611	102.38
585.821	106.38
586.032	86.38
586.242	77.38
586.452	91.38
586.662	98.38
586.872	83.38
587.082	84.38
587.292	82.38
587.502	88.38
587.713	85.38
587.923	89.38
588.133	82.38
588.343	95.38
588.553	92.38
588.762	89.38
588.972	90.38
589.182	99.38
589.392	94.38
589.602	92.38
589.812	85.38
590.022	87.38
590.232	78.38
590.441	85.38
590.651	81.38
590.861	90.38
591.071	83.38
591.281	79.38
591.49	91.38
591.7	76.38
591.91	90.38
592.119	98.38
592.329	84.38
592.539	83.38
592.748	98.38
592.958	88.38
593.167	84.38
593.377	85.38
593.587	82.38
593.796	85.38
594.006	97.38
594.215	85.38
594.424	91.38
594.634	90.38
594.843	91.38
595.053	94.38
595.262	89.38
595.472	81.38
595.681	87.38
595.89	85.38
596.1	86.38
596.309	80.38
596.518	86.38
596.727	89.38
596.937	82.38
597.146	97.38
597.355	87.38
597.564	101.38
597.774	100.38
597.983	85.38
598.192	87.38
598.401	99.38
598.61	86.38
598.819	97.38
599.028	94.38
599.237	89.38
599.446	87.38
599.655	99.38
599.864	84.38
600.073	77.38
600.282	102.38
600.491	103.38
600.7	102.38
600.909	102.38
601.118	86.38
601.327	91.38
601.536	105.38
601.745	77.38
601.953	85.38
602.162	92.38
602.371	96.38
602.58	104.38
602.789	111.38
602.997	109.38
603.206	108.38
603.415	94.38
603.623	91.38
603.832	115.38
604.041	99.38
604.249	104.38
604.458	93.38
604.666	86.38
604.875	91.38
605.084	90.38
605.292	92.38
605.501	96.38
605.709	100.38
605.918	92.38
606.126	93.38
606.334	101.38
606.543	99.38
606.751	94.38
606.96	87.38
607.168	110.38
607.376	100.38
607.585	93.38
607.793	116.38
608.001	103.38
608.21	99.38
608.418	111.38
608.626	99.38
608.834	102.38
609.043	92.38
609.251	107.38
609.459	97.38
609.667	117.38
609.875	96.38
610.083	91.38
610.291	110.38
610.499	94.38
610.707	102.38
610.916	108.38
611.124	107.38
611.332	103.38
611.54	102.38
611.748	101.38
611.955	95.38
612.163	116.38
612.371	108.38
612.579	83.38
612.787	93.38
612.995	96.38
613.203	97.38
613.411	114.38
613.618	101.38
613.826	95.38
614.034	100.38
614.242	101.38
614.449	101.38
614.657	93.38
614.865	93.38
615.072	93.38
615.28	92.38
615.488	97.38
615.695	83.38
615.903	100.38
616.111	105.38
616.318	101.38
616.526	94.38
616.733	89.38
616.941	104.38
617.148	109.38
617.356	101.38
617.563	90.38
617.771	102.38
617.978	95.38
618.185	100.38
618.393	102.38
618.6	100.38
618.807	93.38
619.015	92.38
619.222	91.38
619.429	110.38
619.637	105.38
619.844	93.38
620.051	83.38
620.258	102.38
620.466	108.38
620.673	94.38
620.88	96.38
621.087	85.38
621.294	98.38
621.501	97.38
621.708	89.38
621.915	111.38
622.122	105.38
622.329	99.38
622.536	93.38
622.743	97.38
622.95	87.38
623.157	93.38
623.364	96.38
623.571	90.38
623.778	85.38
623.985	94.38
624.192	107.38
624.399	99.38
624.606	94.38
624.812	84.38
625.019	95.38
625.226	108.38
625.433	84.38
625.639	89.38
625.846	100.38
626.053	91.38
626.259	83.38
626.466	91.38
626.673	103.38
626.879	97.38
627.086	84.38
627.293	98.38
627.499	98.38
627.706	87.38
627.912	100.38
628.119	103.38
628.325	102.38
628.532	96.38
628.738	88.38
628.945	83.38
629.151	92.38
629.357	97.38
629.564	103.38
629.77	94.38
629.976	101.38
630.183	87.38
630.389	101.38
630.595	91.38
630.802	84.38
631.008	94.38
631.214	90.38
631.42	89.38
631.627	97.38
631.833	95.38
632.039	97.38
632.245	87.38
632.451	97.38
632.657	106.38
632.863	104.38
633.069	89.38
633.275	92.38
633.481	103.38
633.688	91.38
633.893	99.38
634.099	94.38
634.305	91.38
634.511	102.38
634.717	99.38
634.923	92.38
635.129	75.38
635.335	80.38
635.541	95.38
635.747	99.38
635.952	96.38
636.158	89.38
636.364	107.38
636.57	92.38
636.775	92.38
636.981	97.38
637.187	101.38
637.392	100.38
637.598	96.38
637.804	86.38
638.009	98.38
638.215	90.38
638.421	85.38
638.626	88.38
638.832	82.38
639.037	98.38
639.243	87.38
639.448	99.38
639.654	104.38
639.859	89.38
640.065	89.38
640.27	110.38
640.475	88.38
640.681	75.38
640.886	92.38
641.091	88.38
641.297	94.38
641.502	94.38
641.707	102.38
641.913	93.38
642.118	87.38
642.323	81.38
642.528	97.38
642.733	108.38
642.939	95.38
643.144	97.38
643.349	86.38
643.554	107.38
643.759	106.38
643.964	99.38
644.169	101.38
644.374	99.38
644.579	102.38
644.784	80.38
644.989	95.38
645.194	100.38
645.399	90.38
645.604	93.38
645.809	89.38
646.014	102.38
646.219	92.38
646.423	93.38
646.628	97.38
646.833	88.38
647.038	93.38
647.243	93.38
647.447	90.38
647.652	99.38
647.857	88.38
648.062	100.38
648.266	79.38
648.471	98.38
648.676	100.38
648.88	86.38
649.085	82.38
649.289	93.38
649.494	92.38
649.698	96.38
649.903	100.38
650.107	111.38
650.312	102.38
650.516	97.38
650.721	96.38
650.925	83.38
651.13	72.38
651.334	85.38
651.539	92.38
651.743	102.38
651.947	94.38
652.152	97.38
652.356	90.38
652.56	92.38
652.764	83.38
652.969	84.38
653.173	87.38
653.377	80.38
653.581	81.38
653.785	89.38
653.99	98.38
654.194	100.38
654.398	81.38
654.602	83.38
654.806	86.38
655.01	87.38
655.214	84.38
655.418	90.38
655.622	95.38
655.826	98.38
656.03	85.38
656.234	85.38
656.438	80.38
656.642	78.38
656.846	85.38
657.049	77.38
657.253	85.38
657.457	90.38
657.661	80.38
657.865	84.38
658.068	84.38
658.272	77.38
658.476	91.38
658.68	79.38
658.883	83.38
659.087	74.38
659.291	94.38
659.494	85.38
659.698	76.38
659.901	88.38
660.105	89.38
660.309	88.38
660.512	83.38
660.716	90.38
660.919	82.38
661.123	89.38
661.326	79.38
661.53	88.38
661.733	88.38
661.936	84.38
662.14	88.38
662.343	78.38
662.546	70.38
662.75	73.38
662.953	62.38
663.156	78.38
663.36	71.38
663.563	85.38
663.766	71.38
663.969	83.38
664.173	63.38
664.376	88.38
664.579	88.38
664.782	83.38
664.985	76.38
665.188	73.38
665.391	76.38
665.594	73.38
665.797	85.38
666	80.38
666.203	79.38
666.406	91.38
666.609	98.38
666.812	94.38
667.015	86.38
667.218	93.38
667.421	82.38
667.624	94.38
667.827	84.38
668.03	104.38
668.232	77.38
668.435	94.38
668.638	95.38
668.841	75.38
669.043	79.38
669.246	84.38
669.449	84.38
669.651	77.38
669.854	91.38
670.057	94.38
670.259	76.38
670.462	89.38
670.665	79.38
670.867	78.38
671.07	90.38
671.272	74.38
671.475	85.38
671.677	97.38
671.88	81.38
672.082	69.38
672.284	70.38
672.487	82.38
672.689	92.38
672.892	88.38
