Data from Zn(NO3)2Standard.Agarose3%.GreenCap.LampEnergy5.5.E.O_HRD10591_15-00-55-767.txt Node
Date: Mon Jul 22 15:00:55 EDT 2019
User: cochatt
Spectrometer: HR+D1059
Trigger mode: 1
Integration Time (sec): 1.000000E-1
Scans to average: 1
Electric dark correction enabled: true
Nonlinearity correction enabled: false
Boxcar width: 0
XAxis mode: Wavelengths
Number of Pixels in Spectrum: 2048
>>>>>Begin Spectral Data<<<<<
223.165	-22.25
223.4	-22.25
223.635	-22.25
223.869	-26.25
224.104	-11.25
224.338	-9.25
224.573	-27.25
224.808	-11.25
225.042	-13.25
225.277	5.75
225.511	6.75
225.746	9.75
225.98	3.75
226.215	11.75
226.449	18.75
226.683	20.75
226.918	22.75
227.152	20.75
227.387	32.75
227.621	43.75
227.856	39.75
228.09	24.75
228.324	55.75
228.559	64.75
228.793	62.75
229.027	61.75
229.262	66.75
229.496	49.75
229.73	70.75
229.964	78.75
230.199	74.75
230.433	71.75
230.667	80.75
230.901	82.75
231.136	81.75
231.37	81.75
231.604	85.75
231.838	81.75
232.072	87.75
232.306	72.75
232.541	86.75
232.775	77.75
233.009	91.75
233.243	83.75
233.477	90.75
233.711	73.75
233.945	86.75
234.179	69.75
234.413	68.75
234.647	88.75
234.881	75.75
235.115	94.75
235.349	74.75
235.583	78.75
235.817	64.75
236.051	70.75
236.285	61.75
236.519	47.75
236.753	77.75
236.987	91.75
237.221	84.75
237.455	77.75
237.689	84.75
237.922	54.75
238.156	81.75
238.39	63.75
238.624	80.75
238.858	59.75
239.091	72.75
239.325	62.75
239.559	68.75
239.793	69.75
240.027	80.75
240.26	70.75
240.494	68.75
240.728	58.75
240.961	71.75
241.195	72.75
241.429	81.75
241.662	75.75
241.896	74.75
242.13	82.75
242.363	71.75
242.597	63.75
242.83	65.75
243.064	82.75
243.298	74.75
243.531	71.75
243.765	64.75
243.998	71.75
244.232	66.75
244.465	72.75
244.699	74.75
244.932	80.75
245.166	74.75
245.399	72.75
245.633	73.75
245.866	64.75
246.099	76.75
246.333	85.75
246.566	64.75
246.8	73.75
247.033	70.75
247.266	91.75
247.5	80.75
247.733	83.75
247.966	71.75
248.2	76.75
248.433	69.75
248.666	74.75
248.899	76.75
249.133	81.75
249.366	67.75
249.599	82.75
249.832	78.75
250.066	92.75
250.299	64.75
250.532	86.75
250.765	73.75
250.998	80.75
251.231	70.75
251.465	63.75
251.698	81.75
251.931	84.75
252.164	59.75
252.397	64.75
252.63	84.75
252.863	81.75
253.096	67.75
253.329	67.75
253.562	76.75
253.795	82.75
254.028	76.75
254.261	74.75
254.494	78.75
254.727	67.75
254.96	78.75
255.193	70.75
255.426	77.75
255.659	59.75
255.892	82.75
256.124	81.75
256.357	75.75
256.59	85.75
256.823	84.75
257.056	82.75
257.289	75.75
257.521	83.75
257.754	88.75
257.987	80.75
258.22	85.75
258.452	79.75
258.685	85.75
258.918	70.75
259.151	75.75
259.383	87.75
259.616	83.75
259.849	89.75
260.081	95.75
260.314	88.75
260.547	66.75
260.779	86.75
261.012	83.75
261.244	77.75
261.477	66.75
261.71	86.75
261.942	84.75
262.175	72.75
262.407	87.75
262.64	78.75
262.872	88.75
263.105	87.75
263.337	76.75
263.57	87.75
263.802	75.75
264.035	79.75
264.267	83.75
264.499	75.75
264.732	67.75
264.964	85.75
265.197	71.75
265.429	71.75
265.661	72.75
265.894	75.75
266.126	81.75
266.358	76.75
266.591	85.75
266.823	78.75
267.055	70.75
267.287	75.75
267.52	62.75
267.752	90.75
267.984	73.75
268.216	87.75
268.448	94.75
268.681	73.75
268.913	83.75
269.145	67.75
269.377	73.75
269.609	75.75
269.841	74.75
270.073	70.75
270.306	81.75
270.538	77.75
270.77	90.75
271.002	81.75
271.234	79.75
271.466	99.75
271.698	71.75
271.93	91.75
272.162	82.75
272.394	76.75
272.626	85.75
272.858	86.75
273.09	86.75
273.322	85.75
273.553	79.75
273.785	82.75
274.017	88.75
274.249	92.75
274.481	75.75
274.713	80.75
274.945	87.75
275.176	68.75
275.408	84.75
275.64	93.75
275.872	66.75
276.104	80.75
276.335	70.75
276.567	81.75
276.799	73.75
277.031	83.75
277.262	75.75
277.494	87.75
277.726	85.75
277.957	82.75
278.189	74.75
278.421	84.75
278.652	90.75
278.884	80.75
279.115	79.75
279.347	74.75
279.579	90.75
279.81	88.75
280.042	68.75
280.273	60.75
280.505	75.75
280.736	74.75
280.968	89.75
281.199	81.75
281.431	85.75
281.662	74.75
281.894	86.75
282.125	84.75
282.356	75.75
282.588	81.75
282.819	89.75
283.051	83.75
283.282	80.75
283.513	87.75
283.745	86.75
283.976	81.75
284.207	87.75
284.439	83.75
284.67	67.75
284.901	76.75
285.132	82.75
285.364	81.75
285.595	72.75
285.826	83.75
286.057	87.75
286.288	82.75
286.52	77.75
286.751	68.75
286.982	85.75
287.213	75.75
287.444	75.75
287.675	82.75
287.906	82.75
288.138	91.75
288.369	80.75
288.6	67.75
288.831	82.75
289.062	89.75
289.293	86.75
289.524	76.75
289.755	86.75
289.986	80.75
290.217	71.75
290.448	92.75
290.679	95.75
290.91	76.75
291.141	76.75
291.371	82.75
291.602	74.75
291.833	86.75
292.064	82.75
292.295	81.75
292.526	85.75
292.757	92.75
292.987	91.75
293.218	91.75
293.449	79.75
293.68	86.75
293.91	82.75
294.141	96.75
294.372	74.75
294.603	83.75
294.833	74.75
295.064	86.75
295.295	85.75
295.525	67.75
295.756	71.75
295.987	82.75
296.217	85.75
296.448	104.75
296.679	94.75
296.909	76.75
297.14	86.75
297.37	90.75
297.601	88.75
297.831	81.75
298.062	99.75
298.292	85.75
298.523	80.75
298.753	76.75
298.984	86.75
299.214	82.75
299.445	83.75
299.675	87.75
299.905	86.75
300.136	87.75
300.366	76.75
300.597	77.75
300.827	85.75
301.057	74.75
301.288	88.75
301.518	82.75
301.748	70.75
301.979	88.75
302.209	71.75
302.439	90.75
302.669	94.75
302.9	84.75
303.13	73.75
303.36	82.75
303.59	77.75
303.82	85.75
304.051	77.75
304.281	90.75
304.511	87.75
304.741	73.75
304.971	93.75
305.201	84.75
305.431	74.75
305.661	86.75
305.891	76.75
306.121	85.75
306.352	88.75
306.582	76.75
306.812	84.75
307.042	79.75
307.272	93.75
307.502	80.75
307.731	84.75
307.961	79.75
308.191	87.75
308.421	90.75
308.651	81.75
308.881	87.75
309.111	90.75
309.341	57.75
309.571	81.75
309.8	87.75
310.03	79.75
310.26	82.75
310.49	81.75
310.72	83.75
310.949	95.75
311.179	75.75
311.409	87.75
311.639	80.75
311.868	86.75
312.098	91.75
312.328	85.75
312.557	88.75
312.787	84.75
313.017	80.75
313.246	78.75
313.476	91.75
313.706	82.75
313.935	79.75
314.165	91.75
314.394	74.75
314.624	82.75
314.853	76.75
315.083	90.75
315.312	89.75
315.542	75.75
315.771	82.75
316.001	85.75
316.23	80.75
316.46	76.75
316.689	82.75
316.919	76.75
317.148	77.75
317.377	88.75
317.607	89.75
317.836	85.75
318.065	74.75
318.295	65.75
318.524	83.75
318.753	76.75
318.983	83.75
319.212	84.75
319.441	81.75
319.67	67.75
319.9	92.75
320.129	75.75
320.358	88.75
320.587	75.75
320.816	75.75
321.046	80.75
321.275	83.75
321.504	86.75
321.733	77.75
321.962	80.75
322.191	78.75
322.42	82.75
322.649	91.75
322.878	88.75
323.108	75.75
323.337	87.75
323.566	81.75
323.795	87.75
324.024	79.75
324.253	90.75
324.482	86.75
324.71	69.75
324.939	81.75
325.168	77.75
325.397	81.75
325.626	80.75
325.855	77.75
326.084	70.75
326.313	84.75
326.542	90.75
326.77	100.75
326.999	81.75
327.228	86.75
327.457	87.75
327.686	95.75
327.914	107.75
328.143	70.75
328.372	94.75
328.6	79.75
328.829	89.75
329.058	76.75
329.287	76.75
329.515	91.75
329.744	87.75
329.972	79.75
330.201	70.75
330.43	85.75
330.658	88.75
330.887	84.75
331.115	75.75
331.344	87.75
331.572	97.75
331.801	96.75
332.03	88.75
332.258	88.75
332.486	92.75
332.715	81.75
332.943	81.75
333.172	70.75
333.4	80.75
333.629	75.75
333.857	79.75
334.085	86.75
334.314	81.75
334.542	81.75
334.771	76.75
334.999	89.75
335.227	74.75
335.455	91.75
335.684	75.75
335.912	89.75
336.14	90.75
336.369	89.75
336.597	83.75
336.825	85.75
337.053	79.75
337.281	80.75
337.51	85.75
337.738	77.75
337.966	80.75
338.194	88.75
338.422	69.75
338.65	87.75
338.878	87.75
339.106	89.75
339.334	73.75
339.562	80.75
339.79	76.75
340.018	74.75
340.246	76.75
340.474	93.75
340.702	84.75
340.93	91.75
341.158	76.75
341.386	80.75
341.614	83.75
341.842	65.75
342.07	78.75
342.298	83.75
342.526	83.75
342.754	87.75
342.981	88.75
343.209	78.75
343.437	68.75
343.665	91.75
343.893	79.75
344.12	88.75
344.348	88.75
344.576	82.75
344.804	80.75
345.031	68.75
345.259	76.75
345.487	83.75
345.714	87.75
345.942	83.75
346.17	84.75
346.397	73.75
346.625	73.75
346.853	74.75
347.08	81.75
347.308	76.75
347.535	78.75
347.763	74.75
347.99	69.75
348.218	76.75
348.445	82.75
348.673	74.75
348.9	73.75
349.128	83.75
349.355	66.75
349.583	77.75
349.81	83.75
350.037	80.75
350.265	86.75
350.492	91.75
350.72	69.75
350.947	84.75
351.174	90.75
351.402	70.75
351.629	86.75
351.856	80.75
352.083	73.75
352.311	74.75
352.538	91.75
352.765	93.75
352.992	91.75
353.22	81.75
353.447	84.75
353.674	91.75
353.901	82.75
354.128	89.75
354.355	78.75
354.583	79.75
354.81	82.75
355.037	73.75
355.264	71.75
355.491	83.75
355.718	92.75
355.945	84.75
356.172	71.75
356.399	77.75
356.626	80.75
356.853	67.75
357.08	85.75
357.307	81.75
357.534	83.75
357.761	83.75
357.988	75.75
358.215	67.75
358.441	77.75
358.668	83.75
358.895	72.75
359.122	80.75
359.349	85.75
359.576	75.75
359.802	80.75
360.029	77.75
360.256	77.75
360.483	82.75
360.709	88.75
360.936	81.75
361.163	75.75
361.39	82.75
361.616	85.75
361.843	66.75
362.07	75.75
362.296	84.75
362.523	74.75
362.749	86.75
362.976	75.75
363.203	72.75
363.429	89.75
363.656	83.75
363.882	79.75
364.109	83.75
364.335	81.75
364.562	73.75
364.788	86.75
365.015	72.75
365.241	85.75
365.468	84.75
365.694	77.75
365.92	77.75
366.147	76.75
366.373	81.75
366.599	90.75
366.826	71.75
367.052	70.75
367.278	80.75
367.505	71.75
367.731	83.75
367.957	82.75
368.184	84.75
368.41	77.75
368.636	75.75
368.862	81.75
369.089	82.75
369.315	90.75
369.541	81.75
369.767	92.75
369.993	71.75
370.219	85.75
370.445	69.75
370.672	75.75
370.898	85.75
371.124	80.75
371.35	75.75
371.576	78.75
371.802	66.75
372.028	78.75
372.254	87.75
372.48	79.75
372.706	87.75
372.932	85.75
373.158	78.75
373.384	79.75
373.61	86.75
373.835	87.75
374.061	83.75
374.287	77.75
374.513	91.75
374.739	86.75
374.965	73.75
375.191	85.75
375.416	68.75
375.642	88.75
375.868	79.75
376.094	95.75
376.319	85.75
376.545	70.75
376.771	96.75
376.997	88.75
377.222	62.75
377.448	86.75
377.674	82.75
377.899	88.75
378.125	80.75
378.35	79.75
378.576	91.75
378.802	86.75
379.027	84.75
379.253	84.75
379.478	75.75
379.704	80.75
379.929	79.75
380.155	78.75
380.38	90.75
380.606	89.75
380.831	77.75
381.057	85.75
381.282	78.75
381.507	74.75
381.733	82.75
381.958	76.75
382.184	79.75
382.409	86.75
382.634	92.75
382.86	71.75
383.085	96.75
383.31	99.75
383.535	90.75
383.761	85.75
383.986	89.75
384.211	88.75
384.436	88.75
384.662	88.75
384.887	67.75
385.112	77.75
385.337	84.75
385.562	87.75
385.787	83.75
386.013	107.75
386.238	82.75
386.463	94.75
386.688	74.75
386.913	75.75
387.138	59.75
387.363	70.75
387.588	74.75
387.813	85.75
388.038	97.75
388.263	81.75
388.488	81.75
388.713	83.75
388.938	82.75
389.163	63.75
389.387	78.75
389.612	65.75
389.837	68.75
390.062	77.75
390.287	85.75
390.512	76.75
390.736	88.75
390.961	67.75
391.186	81.75
391.411	91.75
391.636	80.75
391.86	91.75
392.085	86.75
392.31	64.75
392.534	75.75
392.759	76.75
392.984	85.75
393.208	76.75
393.433	69.75
393.658	62.75
393.882	74.75
394.107	73.75
394.331	87.75
394.556	88.75
394.78	77.75
395.005	82.75
395.229	69.75
395.454	73.75
395.678	87.75
395.903	87.75
396.127	83.75
396.352	91.75
396.576	79.75
396.801	80.75
397.025	87.75
397.249	72.75
397.474	69.75
397.698	100.75
397.922	75.75
398.147	100.75
398.371	92.75
398.595	82.75
398.82	87.75
399.044	81.75
399.268	75.75
399.492	87.75
399.717	85.75
399.941	77.75
400.165	94.75
400.389	80.75
400.613	90.75
400.837	70.75
401.062	70.75
401.286	69.75
401.51	80.75
401.734	76.75
401.958	88.75
402.182	88.75
402.406	84.75
402.63	85.75
402.854	78.75
403.078	76.75
403.302	70.75
403.526	82.75
403.75	92.75
403.974	82.75
404.198	78.75
404.422	72.75
404.645	80.75
404.869	88.75
405.093	84.75
405.317	75.75
405.541	88.75
405.765	95.75
405.988	82.75
406.212	90.75
406.436	83.75
406.66	70.75
406.883	87.75
407.107	80.75
407.331	81.75
407.555	90.75
407.778	82.75
408.002	87.75
408.226	89.75
408.449	75.75
408.673	76.75
408.896	87.75
409.12	93.75
409.344	87.75
409.567	84.75
409.791	75.75
410.014	74.75
410.238	77.75
410.461	83.75
410.685	92.75
410.908	71.75
411.132	67.75
411.355	84.75
411.578	68.75
411.802	97.75
412.025	84.75
412.249	79.75
412.472	86.75
412.695	97.75
412.919	89.75
413.142	84.75
413.365	83.75
413.589	84.75
413.812	96.75
414.035	82.75
414.258	92.75
414.482	81.75
414.705	78.75
414.928	82.75
415.151	88.75
415.374	77.75
415.597	91.75
415.821	87.75
416.044	82.75
416.267	79.75
416.49	94.75
416.713	76.75
416.936	86.75
417.159	70.75
417.382	77.75
417.605	68.75
417.828	89.75
418.051	71.75
418.274	81.75
418.497	81.75
418.72	94.75
418.943	86.75
419.166	85.75
419.389	85.75
419.611	88.75
419.834	87.75
420.057	84.75
420.28	96.75
420.503	71.75
420.726	81.75
420.948	70.75
421.171	89.75
421.394	74.75
421.617	80.75
421.839	87.75
422.062	85.75
422.285	91.75
422.507	74.75
422.73	74.75
422.953	81.75
423.175	83.75
423.398	74.75
423.621	78.75
423.843	93.75
424.066	96.75
424.288	80.75
424.511	78.75
424.733	73.75
424.956	99.75
425.178	88.75
425.401	81.75
425.623	85.75
425.846	92.75
426.068	81.75
426.291	82.75
426.513	80.75
426.735	74.75
426.958	82.75
427.18	80.75
427.402	76.75
427.625	73.75
427.847	99.75
428.069	78.75
428.292	90.75
428.514	84.75
428.736	79.75
428.958	88.75
429.181	82.75
429.403	93.75
429.625	81.75
429.847	93.75
430.069	82.75
430.292	95.75
430.514	91.75
430.736	87.75
430.958	87.75
431.18	95.75
431.402	81.75
431.624	80.75
431.846	92.75
432.068	82.75
432.29	79.75
432.512	74.75
432.734	75.75
432.956	96.75
433.178	89.75
433.4	90.75
433.622	76.75
433.844	89.75
434.066	104.75
434.287	90.75
434.509	100.75
434.731	79.75
434.953	80.75
435.175	91.75
435.397	84.75
435.618	74.75
435.84	93.75
436.062	72.75
436.284	82.75
436.505	71.75
436.727	75.75
436.949	76.75
437.17	84.75
437.392	84.75
437.614	77.75
437.835	82.75
438.057	82.75
438.278	91.75
438.5	89.75
438.721	98.75
438.943	75.75
439.165	91.75
439.386	80.75
439.608	86.75
439.829	82.75
440.05	75.75
440.272	92.75
440.493	73.75
440.715	89.75
440.936	71.75
441.158	84.75
441.379	83.75
441.6	72.75
441.822	81.75
442.043	90.75
442.264	88.75
442.486	98.75
442.707	101.75
442.928	100.75
443.149	81.75
443.371	89.75
443.592	91.75
443.813	80.75
444.034	95.75
444.255	88.75
444.476	84.75
444.698	87.75
444.919	69.75
445.14	176.75
445.361	134.75
445.582	81.75
445.803	86.75
446.024	91.75
446.245	80.75
446.466	78.75
446.687	85.75
446.908	82.75
447.129	92.75
447.35	71.75
447.571	98.75
447.792	90.75
448.013	87.75
448.234	72.75
448.455	90.75
448.675	95.75
448.896	85.75
449.117	81.75
449.338	87.75
449.559	85.75
449.779	84.75
450	82.75
450.221	69.75
450.442	74.75
450.662	81.75
450.883	90.75
451.104	89.75
451.324	87.75
451.545	82.75
451.766	90.75
451.986	68.75
452.207	76.75
452.428	83.75
452.648	84.75
452.869	75.75
453.089	92.75
453.31	83.75
453.53	83.75
453.751	82.75
453.971	85.75
454.192	69.75
454.412	95.75
454.633	105.75
454.853	91.75
455.073	78.75
455.294	81.75
455.514	86.75
455.734	75.75
455.955	77.75
456.175	79.75
456.395	80.75
456.616	82.75
456.836	61.75
457.056	80.75
457.276	77.75
457.497	96.75
457.717	68.75
457.937	82.75
458.157	78.75
458.377	82.75
458.598	78.75
458.818	80.75
459.038	71.75
459.258	68.75
459.478	67.75
459.698	85.75
459.918	82.75
460.138	80.75
460.358	85.75
460.578	81.75
460.798	81.75
461.018	89.75
461.238	86.75
461.458	80.75
461.678	81.75
461.898	83.75
462.118	76.75
462.338	86.75
462.558	90.75
462.777	79.75
462.997	72.75
463.217	106.75
463.437	93.75
463.657	85.75
463.876	78.75
464.096	80.75
464.316	64.75
464.536	87.75
464.755	85.75
464.975	78.75
465.195	93.75
465.414	79.75
465.634	102.75
465.854	89.75
466.073	87.75
466.293	73.75
466.512	68.75
466.732	91.75
466.951	97.75
467.171	100.75
467.391	87.75
467.61	88.75
467.829	86.75
468.049	75.75
468.268	72.75
468.488	79.75
468.707	93.75
468.927	96.75
469.146	73.75
469.365	84.75
469.585	73.75
469.804	104.75
470.023	91.75
470.243	84.75
470.462	85.75
470.681	85.75
470.901	94.75
471.12	108.75
471.339	101.75
471.558	82.75
471.777	74.75
471.997	102.75
472.216	63.75
472.435	78.75
472.654	60.75
472.873	91.75
473.092	80.75
473.311	70.75
473.53	92.75
473.749	88.75
473.968	87.75
474.187	74.75
474.406	92.75
474.625	94.75
474.844	91.75
475.063	89.75
475.282	101.75
475.501	79.75
475.72	85.75
475.939	77.75
476.158	74.75
476.377	74.75
476.596	74.75
476.814	79.75
477.033	82.75
477.252	83.75
477.471	90.75
477.69	82.75
477.908	101.75
478.127	91.75
478.346	94.75
478.564	105.75
478.783	91.75
479.002	76.75
479.22	94.75
479.439	85.75
479.658	95.75
479.876	92.75
480.095	86.75
480.313	86.75
480.532	68.75
480.751	95.75
480.969	81.75
481.188	76.75
481.406	81.75
481.624	82.75
481.843	80.75
482.061	74.75
482.28	76.75
482.498	85.75
482.717	71.75
482.935	82.75
483.153	95.75
483.372	102.75
483.59	93.75
483.808	72.75
484.027	97.75
484.245	90.75
484.463	92.75
484.681	89.75
484.9	90.75
485.118	96.75
485.336	77.75
485.554	76.75
485.772	82.75
485.99	86.75
486.209	83.75
486.427	70.75
486.645	71.75
486.863	79.75
487.081	86.75
487.299	90.75
487.517	81.75
487.735	98.75
487.953	98.75
488.171	99.75
488.389	89.75
488.607	96.75
488.825	90.75
489.043	91.75
489.261	87.75
489.479	96.75
489.696	74.75
489.914	95.75
490.132	86.75
490.35	100.75
490.568	96.75
490.786	96.75
491.003	98.75
491.221	99.75
491.439	89.75
491.657	98.75
491.874	91.75
492.092	113.75
492.31	100.75
492.527	94.75
492.745	83.75
492.963	113.75
493.18	97.75
493.398	106.75
493.615	94.75
493.833	93.75
494.05	82.75
494.268	94.75
494.485	76.75
494.703	98.75
494.92	97.75
495.138	104.75
495.355	96.75
495.573	90.75
495.79	81.75
496.008	98.75
496.225	103.75
496.442	102.75
496.66	91.75
496.877	104.75
497.094	85.75
497.312	86.75
497.529	87.75
497.746	77.75
497.963	94.75
498.181	92.75
498.398	76.75
498.615	73.75
498.832	80.75
499.049	87.75
499.267	80.75
499.484	103.75
499.701	89.75
499.918	89.75
500.135	79.75
500.352	86.75
500.569	83.75
500.786	99.75
501.003	79.75
501.22	65.75
501.437	98.75
501.654	84.75
501.871	88.75
502.088	103.75
502.305	90.75
502.522	75.75
502.739	84.75
502.956	95.75
503.172	83.75
503.389	87.75
503.606	91.75
503.823	76.75
504.04	98.75
504.256	84.75
504.473	97.75
504.69	85.75
504.907	84.75
505.123	80.75
505.34	91.75
505.557	89.75
505.773	88.75
505.99	96.75
506.207	75.75
506.423	90.75
506.64	79.75
506.856	76.75
507.073	69.75
507.289	88.75
507.506	89.75
507.722	88.75
507.939	81.75
508.155	84.75
508.372	84.75
508.588	76.75
508.805	87.75
509.021	87.75
509.238	71.75
509.454	70.75
509.67	94.75
509.887	82.75
510.103	92.75
510.319	88.75
510.536	69.75
510.752	85.75
510.968	67.75
511.184	84.75
511.401	95.75
511.617	88.75
511.833	79.75
512.049	82.75
512.265	90.75
512.481	88.75
512.698	81.75
512.914	79.75
513.13	88.75
513.346	82.75
513.562	79.75
513.778	72.75
513.994	86.75
514.21	91.75
514.426	80.75
514.642	87.75
514.858	82.75
515.074	81.75
515.29	81.75
515.506	92.75
515.721	77.75
515.937	91.75
516.153	95.75
516.369	81.75
516.585	92.75
516.801	76.75
517.016	67.75
517.232	69.75
517.448	91.75
517.664	78.75
517.879	69.75
518.095	77.75
518.311	85.75
518.527	87.75
518.742	86.75
518.958	86.75
519.173	93.75
519.389	80.75
519.605	87.75
519.82	95.75
520.036	86.75
520.251	87.75
520.467	83.75
520.682	79.75
520.898	77.75
521.113	76.75
521.329	90.75
521.544	80.75
521.76	84.75
521.975	75.75
522.19	71.75
522.406	85.75
522.621	90.75
522.836	85.75
523.052	83.75
523.267	84.75
523.482	92.75
523.698	91.75
523.913	94.75
524.128	88.75
524.343	94.75
524.559	86.75
524.774	93.75
524.989	94.75
525.204	79.75
525.419	88.75
525.634	84.75
525.849	89.75
526.064	74.75
526.28	81.75
526.495	81.75
526.71	92.75
526.925	81.75
527.14	76.75
527.355	91.75
527.57	82.75
527.785	70.75
527.999	83.75
528.214	75.75
528.429	73.75
528.644	82.75
528.859	85.75
529.074	94.75
529.289	89.75
529.503	84.75
529.718	78.75
529.933	76.75
530.148	77.75
530.363	83.75
530.577	78.75
530.792	71.75
531.007	84.75
531.221	76.75
531.436	72.75
531.651	74.75
531.865	79.75
532.08	84.75
532.295	72.75
532.509	71.75
532.724	81.75
532.938	71.75
533.153	78.75
533.367	104.75
533.582	95.75
533.796	102.75
534.011	78.75
534.225	84.75
534.44	89.75
534.654	85.75
534.868	91.75
535.083	74.75
535.297	80.75
535.511	79.75
535.726	93.75
535.94	86.75
536.154	88.75
536.369	77.75
536.583	76.75
536.797	82.75
537.011	80.75
537.225	82.75
537.44	83.75
537.654	86.75
537.868	70.75
538.082	75.75
538.296	78.75
538.51	75.75
538.724	88.75
538.938	90.75
539.153	91.75
539.367	92.75
539.581	92.75
539.795	82.75
540.009	75.75
540.222	81.75
540.436	82.75
540.65	81.75
540.864	86.75
541.078	85.75
541.292	97.75
541.506	86.75
541.72	93.75
541.934	92.75
542.147	100.75
542.361	102.75
542.575	96.75
542.789	89.75
543.002	84.75
543.216	84.75
543.43	79.75
543.644	83.75
543.857	91.75
544.071	83.75
544.285	89.75
544.498	85.75
544.712	102.75
544.925	102.75
545.139	97.75
545.352	91.75
545.566	77.75
545.779	87.75
545.993	102.75
546.206	107.75
546.42	100.75
546.633	103.75
546.847	103.75
547.06	84.75
547.274	106.75
547.487	94.75
547.7	95.75
547.914	104.75
548.127	103.75
548.34	98.75
548.554	85.75
548.767	102.75
548.98	91.75
549.193	87.75
549.407	102.75
549.62	97.75
549.833	94.75
550.046	107.75
550.259	98.75
550.473	85.75
550.686	99.75
550.899	93.75
551.112	100.75
551.325	94.75
551.538	88.75
551.751	91.75
551.964	83.75
552.177	99.75
552.39	89.75
552.603	98.75
552.816	90.75
553.029	87.75
553.242	100.75
553.455	97.75
553.667	99.75
553.88	106.75
554.093	106.75
554.306	99.75
554.519	100.75
554.732	81.75
554.944	78.75
555.157	87.75
555.37	79.75
555.583	91.75
555.795	96.75
556.008	98.75
556.221	97.75
556.433	82.75
556.646	90.75
556.859	75.75
557.071	102.75
557.284	82.75
557.496	92.75
557.709	82.75
557.921	104.75
558.134	89.75
558.346	99.75
558.559	94.75
558.771	79.75
558.984	95.75
559.196	88.75
559.409	76.75
559.621	82.75
559.833	69.75
560.046	92.75
560.258	80.75
560.47	93.75
560.683	90.75
560.895	85.75
561.107	92.75
561.32	90.75
561.532	84.75
561.744	92.75
561.956	84.75
562.168	101.75
562.381	103.75
562.593	89.75
562.805	87.75
563.017	90.75
563.229	83.75
563.441	92.75
563.653	90.75
563.865	84.75
564.077	92.75
564.289	87.75
564.501	91.75
564.713	87.75
564.925	92.75
565.137	87.75
565.349	86.75
565.561	81.75
565.773	90.75
565.985	81.75
566.197	83.75
566.408	93.75
566.62	74.75
566.832	75.75
567.044	85.75
567.255	83.75
567.467	86.75
567.679	96.75
567.891	101.75
568.102	86.75
568.314	71.75
568.526	75.75
568.737	80.75
568.949	83.75
569.161	76.75
569.372	75.75
569.584	79.75
569.795	82.75
570.007	102.75
570.218	93.75
570.43	86.75
570.641	65.75
570.853	72.75
571.064	77.75
571.276	90.75
571.487	86.75
571.698	97.75
571.91	75.75
572.121	90.75
572.333	88.75
572.544	66.75
572.755	84.75
572.966	88.75
573.178	83.75
573.389	97.75
573.6	78.75
573.811	84.75
574.023	85.75
574.234	82.75
574.445	84.75
574.656	78.75
574.867	87.75
575.078	86.75
575.289	81.75
575.501	94.75
575.712	85.75
575.923	87.75
576.134	66.75
576.345	81.75
576.556	83.75
576.767	86.75
576.978	91.75
577.188	88.75
577.399	81.75
577.61	91.75
577.821	78.75
578.032	83.75
578.243	77.75
578.454	90.75
578.665	88.75
578.875	74.75
579.086	83.75
579.297	74.75
579.508	79.75
579.718	83.75
579.929	96.75
580.14	77.75
580.35	83.75
580.561	72.75
580.772	88.75
580.982	71.75
581.193	82.75
581.403	82.75
581.614	87.75
581.825	96.75
582.035	90.75
582.246	68.75
582.456	85.75
582.667	86.75
582.877	82.75
583.087	95.75
583.298	79.75
583.508	81.75
583.719	73.75
583.929	70.75
584.139	84.75
584.35	89.75
584.56	98.75
584.77	84.75
584.981	78.75
585.191	79.75
585.401	84.75
585.611	73.75
585.821	89.75
586.032	71.75
586.242	81.75
586.452	66.75
586.662	87.75
586.872	75.75
587.082	78.75
587.292	76.75
587.502	78.75
587.713	72.75
587.923	91.75
588.133	88.75
588.343	91.75
588.553	78.75
588.762	90.75
588.972	73.75
589.182	86.75
589.392	78.75
589.602	89.75
589.812	87.75
590.022	92.75
590.232	75.75
590.441	79.75
590.651	89.75
590.861	86.75
591.071	77.75
591.281	77.75
591.49	83.75
591.7	82.75
591.91	71.75
592.119	84.75
592.329	74.75
592.539	96.75
592.748	77.75
592.958	86.75
593.167	78.75
593.377	69.75
593.587	92.75
593.796	83.75
594.006	78.75
594.215	80.75
594.424	82.75
594.634	82.75
594.843	84.75
595.053	91.75
595.262	79.75
595.472	86.75
595.681	84.75
595.89	83.75
596.1	81.75
596.309	73.75
596.518	73.75
596.727	90.75
596.937	88.75
597.146	76.75
597.355	95.75
597.564	100.75
597.774	74.75
597.983	67.75
598.192	83.75
598.401	88.75
598.61	81.75
598.819	87.75
599.028	69.75
599.237	84.75
599.446	96.75
599.655	82.75
599.864	73.75
600.073	89.75
600.282	85.75
600.491	79.75
600.7	87.75
600.909	79.75
601.118	74.75
601.327	84.75
601.536	91.75
601.745	82.75
601.953	95.75
602.162	99.75
602.371	98.75
602.58	87.75
602.789	72.75
602.997	68.75
603.206	81.75
603.415	90.75
603.623	84.75
603.832	88.75
604.041	86.75
604.249	80.75
604.458	90.75
604.666	79.75
604.875	94.75
605.084	69.75
605.292	83.75
605.501	89.75
605.709	84.75
605.918	77.75
606.126	90.75
606.334	98.75
606.543	82.75
606.751	71.75
606.96	81.75
607.168	85.75
607.376	88.75
607.585	85.75
607.793	83.75
608.001	101.75
608.21	83.75
608.418	76.75
608.626	91.75
608.834	91.75
609.043	80.75
609.251	82.75
609.459	83.75
609.667	83.75
609.875	87.75
610.083	80.75
610.291	91.75
610.499	90.75
610.707	83.75
610.916	90.75
611.124	78.75
611.332	76.75
611.54	82.75
611.748	84.75
611.955	83.75
612.163	89.75
612.371	83.75
612.579	98.75
612.787	73.75
612.995	78.75
613.203	98.75
613.411	88.75
613.618	95.75
613.826	87.75
614.034	93.75
614.242	83.75
614.449	84.75
614.657	73.75
614.865	91.75
615.072	84.75
615.28	86.75
615.488	90.75
615.695	86.75
615.903	78.75
616.111	78.75
616.318	95.75
616.526	88.75
616.733	93.75
616.941	85.75
617.148	79.75
617.356	84.75
617.563	85.75
617.771	88.75
617.978	84.75
618.185	87.75
618.393	76.75
618.6	80.75
618.807	84.75
619.015	75.75
619.222	83.75
619.429	82.75
619.637	92.75
619.844	77.75
620.051	86.75
620.258	86.75
620.466	82.75
620.673	90.75
620.88	79.75
621.087	95.75
621.294	76.75
621.501	87.75
621.708	87.75
621.915	85.75
622.122	91.75
622.329	88.75
622.536	94.75
622.743	86.75
622.95	76.75
623.157	74.75
623.364	83.75
623.571	64.75
623.778	89.75
623.985	92.75
624.192	81.75
624.399	78.75
624.606	81.75
624.812	86.75
625.019	96.75
625.226	86.75
625.433	70.75
625.639	74.75
625.846	72.75
626.053	96.75
626.259	90.75
626.466	98.75
626.673	78.75
626.879	82.75
627.086	73.75
627.293	71.75
627.499	86.75
627.706	87.75
627.912	76.75
628.119	82.75
628.325	87.75
628.532	87.75
628.738	73.75
628.945	82.75
629.151	74.75
629.357	81.75
629.564	84.75
629.77	80.75
629.976	83.75
630.183	90.75
630.389	74.75
630.595	86.75
630.802	85.75
631.008	75.75
631.214	86.75
631.42	80.75
631.627	87.75
631.833	77.75
632.039	70.75
632.245	76.75
632.451	76.75
632.657	88.75
632.863	88.75
633.069	83.75
633.275	89.75
633.481	84.75
633.688	86.75
633.893	100.75
634.099	72.75
634.305	71.75
634.511	87.75
634.717	83.75
634.923	80.75
635.129	86.75
635.335	81.75
635.541	74.75
635.747	89.75
635.952	82.75
636.158	101.75
636.364	103.75
636.57	85.75
636.775	94.75
636.981	92.75
637.187	88.75
637.392	89.75
637.598	88.75
637.804	90.75
638.009	82.75
638.215	98.75
638.421	83.75
638.626	75.75
638.832	87.75
639.037	82.75
639.243	76.75
639.448	82.75
639.654	92.75
639.859	81.75
640.065	96.75
640.27	83.75
640.475	95.75
640.681	75.75
640.886	86.75
641.091	76.75
641.297	87.75
641.502	78.75
641.707	78.75
641.913	79.75
642.118	82.75
642.323	87.75
642.528	84.75
642.733	74.75
642.939	86.75
643.144	83.75
643.349	84.75
643.554	87.75
643.759	71.75
643.964	78.75
644.169	78.75
644.374	91.75
644.579	92.75
644.784	91.75
644.989	76.75
645.194	88.75
645.399	91.75
645.604	82.75
645.809	92.75
646.014	60.75
646.219	77.75
646.423	88.75
646.628	91.75
646.833	98.75
647.038	77.75
647.243	89.75
647.447	86.75
647.652	89.75
647.857	91.75
648.062	96.75
648.266	70.75
648.471	89.75
648.676	89.75
648.88	75.75
649.085	71.75
649.289	75.75
649.494	91.75
649.698	79.75
649.903	84.75
650.107	81.75
650.312	96.75
650.516	89.75
650.721	87.75
650.925	88.75
651.13	80.75
651.334	82.75
651.539	85.75
651.743	94.75
651.947	98.75
652.152	88.75
652.356	76.75
652.56	85.75
652.764	83.75
652.969	95.75
653.173	81.75
653.377	83.75
653.581	89.75
653.785	77.75
653.99	83.75
654.194	87.75
654.398	99.75
654.602	73.75
654.806	93.75
655.01	80.75
655.214	83.75
655.418	80.75
655.622	83.75
655.826	87.75
656.03	83.75
656.234	89.75
656.438	80.75
656.642	86.75
656.846	82.75
657.049	68.75
657.253	82.75
657.457	92.75
657.661	89.75
657.865	80.75
658.068	89.75
658.272	76.75
658.476	71.75
658.68	90.75
658.883	80.75
659.087	86.75
659.291	74.75
659.494	82.75
659.698	80.75
659.901	79.75
660.105	84.75
660.309	83.75
660.512	83.75
660.716	84.75
660.919	76.75
661.123	83.75
661.326	73.75
661.53	85.75
661.733	73.75
661.936	80.75
662.14	75.75
662.343	84.75
662.546	80.75
662.75	82.75
662.953	86.75
663.156	71.75
663.36	79.75
663.563	76.75
663.766	70.75
663.969	66.75
664.173	85.75
664.376	79.75
664.579	86.75
664.782	83.75
664.985	82.75
665.188	79.75
665.391	81.75
665.594	79.75
665.797	72.75
666	75.75
666.203	81.75
666.406	83.75
666.609	76.75
666.812	86.75
667.015	83.75
667.218	76.75
667.421	74.75
667.624	72.75
667.827	80.75
668.03	86.75
668.232	76.75
668.435	92.75
668.638	84.75
668.841	77.75
669.043	91.75
669.246	88.75
669.449	85.75
669.651	87.75
669.854	92.75
670.057	74.75
670.259	79.75
670.462	77.75
670.665	81.75
670.867	81.75
671.07	68.75
671.272	78.75
671.475	78.75
671.677	88.75
671.88	80.75
672.082	90.75
672.284	79.75
672.487	67.75
672.689	76.75
672.892	74.75
