Data from Zn(NO3)2Standard.Agarose3%.GreenCap.LampEnergy10E.O_HRD10591_15-06-39-942.txt Node
Date: Mon Jul 22 15:06:39 EDT 2019
User: cochatt
Spectrometer: HR+D1059
Trigger mode: 1
Integration Time (sec): 1.000000E-1
Scans to average: 1
Electric dark correction enabled: true
Nonlinearity correction enabled: false
Boxcar width: 0
XAxis mode: Wavelengths
Number of Pixels in Spectrum: 2048
>>>>>Begin Spectral Data<<<<<
223.165	-16.44
223.4	-16.44
223.635	-16.44
223.869	-11.44
224.104	-27.44
224.338	-18.44
224.573	-13.44
224.808	-6.44
225.042	-7.44
225.277	-6.44
225.511	2.56
225.746	-3.44
225.98	8.56
226.215	12.56
226.449	13.56
226.683	11.56
226.918	31.56
227.152	30.56
227.387	29.56
227.621	41.56
227.856	28.56
228.09	35.56
228.324	55.56
228.559	66.56
228.793	49.56
229.027	56.56
229.262	52.56
229.496	55.56
229.73	71.56
229.964	76.56
230.199	62.56
230.433	64.56
230.667	74.56
230.901	90.56
231.136	82.56
231.37	85.56
231.604	87.56
231.838	92.56
232.072	85.56
232.306	83.56
232.541	83.56
232.775	87.56
233.009	73.56
233.243	88.56
233.477	91.56
233.711	74.56
233.945	81.56
234.179	78.56
234.413	72.56
234.647	69.56
234.881	78.56
235.115	65.56
235.349	71.56
235.583	73.56
235.817	74.56
236.051	87.56
236.285	82.56
236.519	73.56
236.753	76.56
236.987	84.56
237.221	75.56
237.455	72.56
237.689	78.56
237.922	69.56
238.156	84.56
238.39	64.56
238.624	51.56
238.858	89.56
239.091	80.56
239.325	67.56
239.559	92.56
239.793	68.56
240.027	93.56
240.26	84.56
240.494	88.56
240.728	87.56
240.961	82.56
241.195	81.56
241.429	66.56
241.662	77.56
241.896	73.56
242.13	75.56
242.363	76.56
242.597	68.56
242.83	72.56
243.064	73.56
243.298	78.56
243.531	78.56
243.765	85.56
243.998	69.56
244.232	76.56
244.465	74.56
244.699	90.56
244.932	61.56
245.166	85.56
245.399	83.56
245.633	70.56
245.866	72.56
246.099	83.56
246.333	75.56
246.566	82.56
246.8	92.56
247.033	89.56
247.266	83.56
247.5	74.56
247.733	81.56
247.966	69.56
248.2	89.56
248.433	74.56
248.666	88.56
248.899	82.56
249.133	79.56
249.366	74.56
249.599	76.56
249.832	75.56
250.066	77.56
250.299	83.56
250.532	73.56
250.765	77.56
250.998	81.56
251.231	64.56
251.465	70.56
251.698	78.56
251.931	89.56
252.164	90.56
252.397	90.56
252.63	73.56
252.863	81.56
253.096	73.56
253.329	78.56
253.562	70.56
253.795	84.56
254.028	78.56
254.261	76.56
254.494	83.56
254.727	82.56
254.96	91.56
255.193	92.56
255.426	72.56
255.659	68.56
255.892	84.56
256.124	70.56
256.357	76.56
256.59	90.56
256.823	80.56
257.056	80.56
257.289	88.56
257.521	76.56
257.754	75.56
257.987	69.56
258.22	94.56
258.452	79.56
258.685	83.56
258.918	86.56
259.151	87.56
259.383	75.56
259.616	76.56
259.849	90.56
260.081	81.56
260.314	83.56
260.547	83.56
260.779	75.56
261.012	82.56
261.244	82.56
261.477	77.56
261.71	81.56
261.942	81.56
262.175	89.56
262.407	85.56
262.64	67.56
262.872	78.56
263.105	78.56
263.337	78.56
263.57	88.56
263.802	84.56
264.035	68.56
264.267	91.56
264.499	86.56
264.732	86.56
264.964	94.56
265.197	88.56
265.429	87.56
265.661	92.56
265.894	77.56
266.126	86.56
266.358	77.56
266.591	75.56
266.823	74.56
267.055	73.56
267.287	92.56
267.52	86.56
267.752	92.56
267.984	88.56
268.216	72.56
268.448	75.56
268.681	86.56
268.913	97.56
269.145	92.56
269.377	106.56
269.609	88.56
269.841	81.56
270.073	65.56
270.306	70.56
270.538	90.56
270.77	81.56
271.002	75.56
271.234	90.56
271.466	88.56
271.698	82.56
271.93	72.56
272.162	84.56
272.394	81.56
272.626	92.56
272.858	88.56
273.09	103.56
273.322	87.56
273.553	78.56
273.785	78.56
274.017	80.56
274.249	94.56
274.481	88.56
274.713	86.56
274.945	77.56
275.176	77.56
275.408	78.56
275.64	80.56
275.872	89.56
276.104	87.56
276.335	78.56
276.567	77.56
276.799	91.56
277.031	96.56
277.262	82.56
277.494	81.56
277.726	83.56
277.957	88.56
278.189	83.56
278.421	80.56
278.652	82.56
278.884	76.56
279.115	84.56
279.347	90.56
279.579	89.56
279.81	97.56
280.042	75.56
280.273	103.56
280.505	83.56
280.736	78.56
280.968	84.56
281.199	82.56
281.431	73.56
281.662	79.56
281.894	76.56
282.125	85.56
282.356	92.56
282.588	87.56
282.819	76.56
283.051	76.56
283.282	97.56
283.513	77.56
283.745	80.56
283.976	75.56
284.207	83.56
284.439	82.56
284.67	85.56
284.901	73.56
285.132	82.56
285.364	92.56
285.595	84.56
285.826	86.56
286.057	78.56
286.288	80.56
286.52	92.56
286.751	87.56
286.982	99.56
287.213	84.56
287.444	77.56
287.675	93.56
287.906	89.56
288.138	85.56
288.369	80.56
288.6	93.56
288.831	91.56
289.062	76.56
289.293	76.56
289.524	75.56
289.755	91.56
289.986	83.56
290.217	92.56
290.448	67.56
290.679	80.56
290.91	92.56
291.141	101.56
291.371	97.56
291.602	98.56
291.833	75.56
292.064	86.56
292.295	89.56
292.526	84.56
292.757	85.56
292.987	74.56
293.218	85.56
293.449	81.56
293.68	86.56
293.91	79.56
294.141	91.56
294.372	94.56
294.603	80.56
294.833	73.56
295.064	80.56
295.295	100.56
295.525	83.56
295.756	95.56
295.987	87.56
296.217	81.56
296.448	73.56
296.679	75.56
296.909	77.56
297.14	107.56
297.37	83.56
297.601	78.56
297.831	82.56
298.062	91.56
298.292	69.56
298.523	81.56
298.753	85.56
298.984	69.56
299.214	79.56
299.445	91.56
299.675	84.56
299.905	86.56
300.136	85.56
300.366	81.56
300.597	92.56
300.827	84.56
301.057	101.56
301.288	92.56
301.518	76.56
301.748	80.56
301.979	78.56
302.209	77.56
302.439	78.56
302.669	89.56
302.9	92.56
303.13	92.56
303.36	105.56
303.59	94.56
303.82	90.56
304.051	90.56
304.281	86.56
304.511	74.56
304.741	82.56
304.971	77.56
305.201	86.56
305.431	80.56
305.661	75.56
305.891	90.56
306.121	87.56
306.352	89.56
306.582	97.56
306.812	91.56
307.042	87.56
307.272	77.56
307.502	89.56
307.731	72.56
307.961	73.56
308.191	88.56
308.421	85.56
308.651	81.56
308.881	97.56
309.111	77.56
309.341	85.56
309.571	68.56
309.8	81.56
310.03	83.56
310.26	88.56
310.49	86.56
310.72	83.56
310.949	68.56
311.179	91.56
311.409	84.56
311.639	87.56
311.868	89.56
312.098	86.56
312.328	79.56
312.557	83.56
312.787	68.56
313.017	89.56
313.246	99.56
313.476	82.56
313.706	72.56
313.935	75.56
314.165	77.56
314.394	73.56
314.624	98.56
314.853	89.56
315.083	87.56
315.312	96.56
315.542	89.56
315.771	89.56
316.001	76.56
316.23	82.56
316.46	81.56
316.689	84.56
316.919	77.56
317.148	100.56
317.377	83.56
317.607	73.56
317.836	91.56
318.065	79.56
318.295	92.56
318.524	96.56
318.753	97.56
318.983	78.56
319.212	92.56
319.441	82.56
319.67	97.56
319.9	85.56
320.129	82.56
320.358	71.56
320.587	76.56
320.816	90.56
321.046	101.56
321.275	80.56
321.504	94.56
321.733	87.56
321.962	93.56
322.191	93.56
322.42	81.56
322.649	86.56
322.878	87.56
323.108	80.56
323.337	85.56
323.566	89.56
323.795	91.56
324.024	84.56
324.253	82.56
324.482	77.56
324.71	73.56
324.939	87.56
325.168	92.56
325.397	65.56
325.626	83.56
325.855	79.56
326.084	84.56
326.313	91.56
326.542	86.56
326.77	67.56
326.999	81.56
327.228	85.56
327.457	81.56
327.686	92.56
327.914	80.56
328.143	81.56
328.372	89.56
328.6	75.56
328.829	100.56
329.058	86.56
329.287	86.56
329.515	71.56
329.744	84.56
329.972	83.56
330.201	86.56
330.43	90.56
330.658	84.56
330.887	90.56
331.115	70.56
331.344	89.56
331.572	76.56
331.801	90.56
332.03	90.56
332.258	92.56
332.486	98.56
332.715	96.56
332.943	95.56
333.172	93.56
333.4	77.56
333.629	78.56
333.857	69.56
334.085	77.56
334.314	77.56
334.542	88.56
334.771	91.56
334.999	83.56
335.227	83.56
335.455	82.56
335.684	93.56
335.912	80.56
336.14	76.56
336.369	78.56
336.597	93.56
336.825	97.56
337.053	90.56
337.281	85.56
337.51	83.56
337.738	77.56
337.966	84.56
338.194	82.56
338.422	83.56
338.65	92.56
338.878	88.56
339.106	74.56
339.334	92.56
339.562	79.56
339.79	90.56
340.018	90.56
340.246	75.56
340.474	85.56
340.702	84.56
340.93	90.56
341.158	82.56
341.386	82.56
341.614	69.56
341.842	83.56
342.07	106.56
342.298	92.56
342.526	90.56
342.754	81.56
342.981	80.56
343.209	76.56
343.437	92.56
343.665	92.56
343.893	78.56
344.12	86.56
344.348	89.56
344.576	79.56
344.804	83.56
345.031	87.56
345.259	81.56
345.487	88.56
345.714	78.56
345.942	100.56
346.17	92.56
346.397	80.56
346.625	92.56
346.853	85.56
347.08	72.56
347.308	76.56
347.535	73.56
347.763	87.56
347.99	78.56
348.218	98.56
348.445	83.56
348.673	79.56
348.9	98.56
349.128	97.56
349.355	76.56
349.583	84.56
349.81	93.56
350.037	88.56
350.265	96.56
350.492	90.56
350.72	76.56
350.947	72.56
351.174	86.56
351.402	75.56
351.629	98.56
351.856	83.56
352.083	90.56
352.311	74.56
352.538	73.56
352.765	86.56
352.992	90.56
353.22	90.56
353.447	74.56
353.674	92.56
353.901	102.56
354.128	87.56
354.355	83.56
354.583	93.56
354.81	91.56
355.037	79.56
355.264	79.56
355.491	85.56
355.718	76.56
355.945	66.56
356.172	76.56
356.399	80.56
356.626	80.56
356.853	90.56
357.08	83.56
357.307	82.56
357.534	71.56
357.761	82.56
357.988	88.56
358.215	76.56
358.441	90.56
358.668	82.56
358.895	92.56
359.122	85.56
359.349	97.56
359.576	84.56
359.802	74.56
360.029	83.56
360.256	88.56
360.483	87.56
360.709	94.56
360.936	97.56
361.163	82.56
361.39	85.56
361.616	79.56
361.843	78.56
362.07	101.56
362.296	93.56
362.523	71.56
362.749	80.56
362.976	96.56
363.203	97.56
363.429	88.56
363.656	76.56
363.882	69.56
364.109	88.56
364.335	92.56
364.562	73.56
364.788	81.56
365.015	93.56
365.241	92.56
365.468	88.56
365.694	83.56
365.92	91.56
366.147	76.56
366.373	101.56
366.599	90.56
366.826	83.56
367.052	89.56
367.278	82.56
367.505	84.56
367.731	65.56
367.957	68.56
368.184	93.56
368.41	75.56
368.636	83.56
368.862	90.56
369.089	85.56
369.315	77.56
369.541	89.56
369.767	88.56
369.993	88.56
370.219	87.56
370.445	101.56
370.672	95.56
370.898	100.56
371.124	97.56
371.35	68.56
371.576	75.56
371.802	74.56
372.028	94.56
372.254	100.56
372.48	93.56
372.706	88.56
372.932	88.56
373.158	87.56
373.384	111.56
373.61	81.56
373.835	93.56
374.061	82.56
374.287	87.56
374.513	80.56
374.739	80.56
374.965	73.56
375.191	88.56
375.416	82.56
375.642	65.56
375.868	81.56
376.094	97.56
376.319	103.56
376.545	90.56
376.771	99.56
376.997	76.56
377.222	102.56
377.448	61.56
377.674	87.56
377.899	84.56
378.125	89.56
378.35	101.56
378.576	88.56
378.802	81.56
379.027	86.56
379.253	101.56
379.478	86.56
379.704	92.56
379.929	83.56
380.155	87.56
380.38	94.56
380.606	98.56
380.831	82.56
381.057	82.56
381.282	88.56
381.507	87.56
381.733	84.56
381.958	85.56
382.184	87.56
382.409	94.56
382.634	84.56
382.86	89.56
383.085	92.56
383.31	83.56
383.535	88.56
383.761	78.56
383.986	84.56
384.211	97.56
384.436	89.56
384.662	94.56
384.887	92.56
385.112	92.56
385.337	92.56
385.562	89.56
385.787	90.56
386.013	88.56
386.238	88.56
386.463	83.56
386.688	90.56
386.913	93.56
387.138	94.56
387.363	87.56
387.588	90.56
387.813	78.56
388.038	87.56
388.263	88.56
388.488	84.56
388.713	90.56
388.938	90.56
389.163	83.56
389.387	109.56
389.612	91.56
389.837	96.56
390.062	105.56
390.287	92.56
390.512	88.56
390.736	77.56
390.961	79.56
391.186	81.56
391.411	86.56
391.636	100.56
391.86	86.56
392.085	83.56
392.31	91.56
392.534	83.56
392.759	89.56
392.984	109.56
393.208	92.56
393.433	81.56
393.658	88.56
393.882	83.56
394.107	87.56
394.331	99.56
394.556	114.56
394.78	99.56
395.005	86.56
395.229	93.56
395.454	84.56
395.678	90.56
395.903	91.56
396.127	89.56
396.352	94.56
396.576	85.56
396.801	100.56
397.025	97.56
397.249	97.56
397.474	107.56
397.698	102.56
397.922	93.56
398.147	92.56
398.371	97.56
398.595	90.56
398.82	102.56
399.044	96.56
399.268	97.56
399.492	102.56
399.717	96.56
399.941	97.56
400.165	98.56
400.389	82.56
400.613	91.56
400.837	105.56
401.062	100.56
401.286	98.56
401.51	104.56
401.734	92.56
401.958	90.56
402.182	97.56
402.406	101.56
402.63	108.56
402.854	91.56
403.078	97.56
403.302	86.56
403.526	100.56
403.75	90.56
403.974	91.56
404.198	95.56
404.422	103.56
404.645	91.56
404.869	101.56
405.093	104.56
405.317	93.56
405.541	106.56
405.765	103.56
405.988	98.56
406.212	100.56
406.436	109.56
406.66	100.56
406.883	102.56
407.107	108.56
407.331	91.56
407.555	107.56
407.778	92.56
408.002	99.56
408.226	100.56
408.449	93.56
408.673	93.56
408.896	104.56
409.12	105.56
409.344	108.56
409.567	113.56
409.791	120.56
410.014	109.56
410.238	94.56
410.461	102.56
410.685	86.56
410.908	99.56
411.132	107.56
411.355	85.56
411.578	109.56
411.802	97.56
412.025	100.56
412.249	106.56
412.472	99.56
412.695	95.56
412.919	108.56
413.142	109.56
413.365	110.56
413.589	92.56
413.812	95.56
414.035	117.56
414.258	92.56
414.482	114.56
414.705	104.56
414.928	96.56
415.151	86.56
415.374	82.56
415.597	94.56
415.821	104.56
416.044	104.56
416.267	95.56
416.49	97.56
416.713	109.56
416.936	91.56
417.159	105.56
417.382	112.56
417.605	116.56
417.828	112.56
418.051	107.56
418.274	119.56
418.497	114.56
418.72	109.56
418.943	100.56
419.166	113.56
419.389	112.56
419.611	94.56
419.834	108.56
420.057	122.56
420.28	90.56
420.503	106.56
420.726	92.56
420.948	107.56
421.171	105.56
421.394	116.56
421.617	114.56
421.839	104.56
422.062	123.56
422.285	108.56
422.507	116.56
422.73	113.56
422.953	99.56
423.175	112.56
423.398	92.56
423.621	103.56
423.843	117.56
424.066	95.56
424.288	120.56
424.511	100.56
424.733	124.56
424.956	124.56
425.178	118.56
425.401	98.56
425.623	94.56
425.846	101.56
426.068	106.56
426.291	120.56
426.513	97.56
426.735	120.56
426.958	110.56
427.18	105.56
427.402	88.56
427.625	99.56
427.847	110.56
428.069	96.56
428.292	94.56
428.514	122.56
428.736	110.56
428.958	103.56
429.181	103.56
429.403	97.56
429.625	109.56
429.847	109.56
430.069	114.56
430.292	100.56
430.514	105.56
430.736	104.56
430.958	105.56
431.18	97.56
431.402	104.56
431.624	100.56
431.846	80.56
432.068	82.56
432.29	102.56
432.512	93.56
432.734	91.56
432.956	116.56
433.178	116.56
433.4	125.56
433.622	106.56
433.844	101.56
434.066	115.56
434.287	102.56
434.509	84.56
434.731	91.56
434.953	93.56
435.175	96.56
435.397	93.56
435.618	96.56
435.84	76.56
436.062	94.56
436.284	88.56
436.505	110.56
436.727	112.56
436.949	108.56
437.17	117.56
437.392	94.56
437.614	95.56
437.835	100.56
438.057	91.56
438.278	92.56
438.5	102.56
438.721	112.56
438.943	103.56
439.165	110.56
439.386	100.56
439.608	91.56
439.829	112.56
440.05	119.56
440.272	110.56
440.493	126.56
440.715	113.56
440.936	113.56
441.158	115.56
441.379	117.56
441.6	122.56
441.822	114.56
442.043	106.56
442.264	118.56
442.486	105.56
442.707	94.56
442.928	115.56
443.149	100.56
443.371	117.56
443.592	113.56
443.813	119.56
444.034	101.56
444.255	114.56
444.476	123.56
444.698	108.56
444.919	120.56
445.14	236.56
445.361	178.56
445.582	116.56
445.803	112.56
446.024	128.56
446.245	125.56
446.466	108.56
446.687	114.56
446.908	110.56
447.129	117.56
447.35	130.56
447.571	111.56
447.792	126.56
448.013	108.56
448.234	130.56
448.455	123.56
448.675	113.56
448.896	105.56
449.117	114.56
449.338	118.56
449.559	121.56
449.779	118.56
450	104.56
450.221	103.56
450.442	108.56
450.662	105.56
450.883	97.56
451.104	108.56
451.324	95.56
451.545	104.56
451.766	103.56
451.986	113.56
452.207	97.56
452.428	110.56
452.648	89.56
452.869	86.56
453.089	98.56
453.31	104.56
453.53	99.56
453.751	96.56
453.971	89.56
454.192	107.56
454.412	97.56
454.633	117.56
454.853	106.56
455.073	112.56
455.294	106.56
455.514	105.56
455.734	108.56
455.955	102.56
456.175	94.56
456.395	100.56
456.616	79.56
456.836	85.56
457.056	97.56
457.276	105.56
457.497	108.56
457.717	98.56
457.937	92.56
458.157	100.56
458.377	98.56
458.598	84.56
458.818	77.56
459.038	91.56
459.258	87.56
459.478	76.56
459.698	77.56
459.918	98.56
460.138	89.56
460.358	92.56
460.578	96.56
460.798	115.56
461.018	106.56
461.238	86.56
461.458	100.56
461.678	104.56
461.898	96.56
462.118	93.56
462.338	91.56
462.558	93.56
462.777	105.56
462.997	99.56
463.217	98.56
463.437	107.56
463.657	109.56
463.876	106.56
464.096	99.56
464.316	93.56
464.536	92.56
464.755	90.56
464.975	88.56
465.195	106.56
465.414	113.56
465.634	99.56
465.854	105.56
466.073	108.56
466.293	103.56
466.512	106.56
466.732	113.56
466.951	112.56
467.171	93.56
467.391	108.56
467.61	118.56
467.829	96.56
468.049	100.56
468.268	92.56
468.488	97.56
468.707	126.56
468.927	103.56
469.146	88.56
469.365	99.56
469.585	105.56
469.804	107.56
470.023	113.56
470.243	116.56
470.462	123.56
470.681	116.56
470.901	127.56
471.12	109.56
471.339	108.56
471.558	105.56
471.777	85.56
471.997	125.56
472.216	113.56
472.435	101.56
472.654	98.56
472.873	88.56
473.092	110.56
473.311	102.56
473.53	98.56
473.749	116.56
473.968	114.56
474.187	91.56
474.406	102.56
474.625	106.56
474.844	100.56
475.063	104.56
475.282	97.56
475.501	96.56
475.72	114.56
475.939	101.56
476.158	115.56
476.377	103.56
476.596	96.56
476.814	100.56
477.033	115.56
477.252	102.56
477.471	106.56
477.69	105.56
477.908	107.56
478.127	118.56
478.346	98.56
478.564	112.56
478.783	108.56
479.002	106.56
479.22	115.56
479.439	96.56
479.658	106.56
479.876	109.56
480.095	89.56
480.313	108.56
480.532	112.56
480.751	84.56
480.969	96.56
481.188	85.56
481.406	95.56
481.624	87.56
481.843	92.56
482.061	97.56
482.28	107.56
482.498	122.56
482.717	97.56
482.935	112.56
483.153	118.56
483.372	127.56
483.59	114.56
483.808	113.56
484.027	121.56
484.245	101.56
484.463	112.56
484.681	124.56
484.9	134.56
485.118	100.56
485.336	94.56
485.554	109.56
485.772	101.56
485.99	86.56
486.209	96.56
486.427	109.56
486.645	105.56
486.863	116.56
487.081	120.56
487.299	96.56
487.517	107.56
487.735	120.56
487.953	116.56
488.171	122.56
488.389	120.56
488.607	113.56
488.825	115.56
489.043	110.56
489.261	109.56
489.479	100.56
489.696	120.56
489.914	101.56
490.132	114.56
490.35	114.56
490.568	121.56
490.786	123.56
491.003	132.56
491.221	129.56
491.439	127.56
491.657	139.56
491.874	146.56
492.092	152.56
492.31	157.56
492.527	150.56
492.745	138.56
492.963	117.56
493.18	138.56
493.398	118.56
493.615	126.56
493.833	138.56
494.05	138.56
494.268	120.56
494.485	131.56
494.703	135.56
494.92	132.56
495.138	131.56
495.355	133.56
495.573	146.56
495.79	123.56
496.008	138.56
496.225	122.56
496.442	118.56
496.66	123.56
496.877	134.56
497.094	138.56
497.312	118.56
497.529	115.56
497.746	117.56
497.963	120.56
498.181	109.56
498.398	100.56
498.615	113.56
498.832	92.56
499.049	108.56
499.267	96.56
499.484	99.56
499.701	109.56
499.918	109.56
500.135	112.56
500.352	114.56
500.569	101.56
500.786	117.56
501.003	119.56
501.22	132.56
501.437	114.56
501.654	117.56
501.871	112.56
502.088	88.56
502.305	106.56
502.522	126.56
502.739	105.56
502.956	116.56
503.172	112.56
503.389	105.56
503.606	105.56
503.823	113.56
504.04	122.56
504.256	114.56
504.473	105.56
504.69	112.56
504.907	98.56
505.123	96.56
505.34	114.56
505.557	99.56
505.773	96.56
505.99	97.56
506.207	96.56
506.423	106.56
506.64	85.56
506.856	98.56
507.073	90.56
507.289	89.56
507.506	107.56
507.722	98.56
507.939	98.56
508.155	85.56
508.372	105.56
508.588	118.56
508.805	98.56
509.021	92.56
509.238	102.56
509.454	90.56
509.67	80.56
509.887	106.56
510.103	93.56
510.319	96.56
510.536	99.56
510.752	81.56
510.968	84.56
511.184	84.56
511.401	87.56
511.617	84.56
511.833	97.56
512.049	93.56
512.265	75.56
512.481	104.56
512.698	105.56
512.914	93.56
513.13	86.56
513.346	106.56
513.562	94.56
513.778	96.56
513.994	90.56
514.21	89.56
514.426	100.56
514.642	107.56
514.858	75.56
515.074	88.56
515.29	85.56
515.506	86.56
515.721	87.56
515.937	93.56
516.153	73.56
516.369	86.56
516.585	88.56
516.801	69.56
517.016	77.56
517.232	85.56
517.448	85.56
517.664	84.56
517.879	79.56
518.095	101.56
518.311	74.56
518.527	80.56
518.742	67.56
518.958	83.56
519.173	113.56
519.389	104.56
519.605	105.56
519.82	98.56
520.036	84.56
520.251	83.56
520.467	93.56
520.682	93.56
520.898	88.56
521.113	89.56
521.329	66.56
521.544	96.56
521.76	97.56
521.975	105.56
522.19	75.56
522.406	106.56
522.621	86.56
522.836	77.56
523.052	90.56
523.267	101.56
523.482	90.56
523.698	87.56
523.913	102.56
524.128	108.56
524.343	107.56
524.559	116.56
524.774	104.56
524.989	103.56
525.204	101.56
525.419	93.56
525.634	103.56
525.849	91.56
526.064	85.56
526.28	83.56
526.495	90.56
526.71	87.56
526.925	73.56
527.14	86.56
527.355	107.56
527.57	85.56
527.785	77.56
527.999	97.56
528.214	88.56
528.429	92.56
528.644	96.56
528.859	97.56
529.074	117.56
529.289	130.56
529.503	108.56
529.718	107.56
529.933	105.56
530.148	96.56
530.363	104.56
530.577	86.56
530.792	77.56
531.007	82.56
531.221	75.56
531.436	74.56
531.651	90.56
531.865	93.56
532.08	84.56
532.295	85.56
532.509	70.56
532.724	83.56
532.938	83.56
533.153	87.56
533.367	94.56
533.582	112.56
533.796	85.56
534.011	93.56
534.225	76.56
534.44	97.56
534.654	87.56
534.868	95.56
535.083	84.56
535.297	83.56
535.511	91.56
535.726	105.56
535.94	91.56
536.154	91.56
536.369	89.56
536.583	90.56
536.797	94.56
537.011	81.56
537.225	83.56
537.44	69.56
537.654	66.56
537.868	90.56
538.082	84.56
538.296	90.56
538.51	89.56
538.724	89.56
538.938	87.56
539.153	113.56
539.367	101.56
539.581	93.56
539.795	99.56
540.009	76.56
540.222	85.56
540.436	99.56
540.65	109.56
540.864	94.56
541.078	113.56
541.292	103.56
541.506	124.56
541.72	143.56
541.934	138.56
542.147	132.56
542.361	119.56
542.575	118.56
542.789	127.56
543.002	101.56
543.216	119.56
543.43	116.56
543.644	94.56
543.857	100.56
544.071	121.56
544.285	124.56
544.498	128.56
544.712	122.56
544.925	120.56
545.139	123.56
545.352	109.56
545.566	114.56
545.779	129.56
545.993	119.56
546.206	128.56
546.42	121.56
546.633	122.56
546.847	116.56
547.06	138.56
547.274	126.56
547.487	130.56
547.7	116.56
547.914	134.56
548.127	126.56
548.34	117.56
548.554	105.56
548.767	120.56
548.98	119.56
549.193	128.56
549.407	120.56
549.62	113.56
549.833	120.56
550.046	109.56
550.259	116.56
550.473	128.56
550.686	114.56
550.899	117.56
551.112	129.56
551.325	105.56
551.538	102.56
551.751	100.56
551.964	107.56
552.177	104.56
552.39	108.56
552.603	130.56
552.816	114.56
553.029	126.56
553.242	134.56
553.455	128.56
553.667	115.56
553.88	135.56
554.093	121.56
554.306	114.56
554.519	119.56
554.732	116.56
554.944	103.56
555.157	124.56
555.37	109.56
555.583	124.56
555.795	133.56
556.008	106.56
556.221	101.56
556.433	99.56
556.646	98.56
556.859	96.56
557.071	119.56
557.284	116.56
557.496	125.56
557.709	113.56
557.921	112.56
558.134	123.56
558.346	113.56
558.559	123.56
558.771	114.56
558.984	111.56
559.196	115.56
559.409	119.56
559.621	115.56
559.833	112.56
560.046	90.56
560.258	112.56
560.47	102.56
560.683	92.56
560.895	103.56
561.107	102.56
561.32	107.56
561.532	98.56
561.744	116.56
561.956	116.56
562.168	97.56
562.381	102.56
562.593	94.56
562.805	113.56
563.017	100.56
563.229	101.56
563.441	111.56
563.653	110.56
563.865	97.56
564.077	102.56
564.289	104.56
564.501	102.56
564.713	86.56
564.925	112.56
565.137	105.56
565.349	108.56
565.561	113.56
565.773	114.56
565.985	88.56
566.197	91.56
566.408	88.56
566.62	108.56
566.832	90.56
567.044	103.56
567.255	96.56
567.467	122.56
567.679	98.56
567.891	106.56
568.102	94.56
568.314	98.56
568.526	82.56
568.737	90.56
568.949	86.56
569.161	82.56
569.372	90.56
569.584	93.56
569.795	83.56
570.007	82.56
570.218	82.56
570.43	79.56
570.641	90.56
570.853	95.56
571.064	89.56
571.276	84.56
571.487	90.56
571.698	101.56
571.91	96.56
572.121	84.56
572.333	100.56
572.544	104.56
572.755	83.56
572.966	72.56
573.178	68.56
573.389	74.56
573.6	96.56
573.811	82.56
574.023	78.56
574.234	81.56
574.445	79.56
574.656	95.56
574.867	81.56
575.078	84.56
575.289	84.56
575.501	88.56
575.712	78.56
575.923	91.56
576.134	92.56
576.345	92.56
576.556	93.56
576.767	99.56
576.978	101.56
577.188	78.56
577.399	81.56
577.61	70.56
577.821	90.56
578.032	78.56
578.243	81.56
578.454	100.56
578.665	91.56
578.875	86.56
579.086	89.56
579.297	83.56
579.508	87.56
579.718	91.56
579.929	74.56
580.14	81.56
580.35	79.56
580.561	72.56
580.772	88.56
580.982	94.56
581.193	92.56
581.403	90.56
581.614	91.56
581.825	82.56
582.035	85.56
582.246	102.56
582.456	88.56
582.667	82.56
582.877	89.56
583.087	79.56
583.298	93.56
583.508	81.56
583.719	82.56
583.929	86.56
584.139	87.56
584.35	85.56
584.56	93.56
584.77	87.56
584.981	75.56
585.191	86.56
585.401	82.56
585.611	103.56
585.821	90.56
586.032	89.56
586.242	89.56
586.452	99.56
586.662	90.56
586.872	76.56
587.082	88.56
587.292	96.56
587.502	85.56
587.713	86.56
587.923	82.56
588.133	74.56
588.343	91.56
588.553	67.56
588.762	91.56
588.972	83.56
589.182	83.56
589.392	85.56
589.602	91.56
589.812	76.56
590.022	94.56
590.232	87.56
590.441	78.56
590.651	81.56
590.861	94.56
591.071	102.56
591.281	93.56
591.49	93.56
591.7	85.56
591.91	92.56
592.119	66.56
592.329	87.56
592.539	75.56
592.748	85.56
592.958	84.56
593.167	78.56
593.377	88.56
593.587	102.56
593.796	90.56
594.006	88.56
594.215	92.56
594.424	83.56
594.634	88.56
594.843	78.56
595.053	87.56
595.262	90.56
595.472	90.56
595.681	90.56
595.89	77.56
596.1	99.56
596.309	91.56
596.518	100.56
596.727	88.56
596.937	86.56
597.146	75.56
597.355	101.56
597.564	101.56
597.774	82.56
597.983	87.56
598.192	85.56
598.401	75.56
598.61	85.56
598.819	95.56
599.028	85.56
599.237	78.56
599.446	82.56
599.655	68.56
599.864	82.56
600.073	78.56
600.282	96.56
600.491	92.56
600.7	89.56
600.909	87.56
601.118	95.56
601.327	82.56
601.536	78.56
601.745	101.56
601.953	87.56
602.162	83.56
602.371	100.56
602.58	95.56
602.789	90.56
602.997	103.56
603.206	84.56
603.415	97.56
603.623	96.56
603.832	95.56
604.041	90.56
604.249	90.56
604.458	103.56
604.666	89.56
604.875	96.56
605.084	91.56
605.292	92.56
605.501	87.56
605.709	86.56
605.918	87.56
606.126	92.56
606.334	91.56
606.543	85.56
606.751	88.56
606.96	91.56
607.168	89.56
607.376	94.56
607.585	98.56
607.793	96.56
608.001	96.56
608.21	88.56
608.418	93.56
608.626	89.56
608.834	84.56
609.043	76.56
609.251	105.56
609.459	90.56
609.667	99.56
609.875	101.56
610.083	99.56
610.291	103.56
610.499	109.56
610.707	92.56
610.916	93.56
611.124	97.56
611.332	89.56
611.54	97.56
611.748	93.56
611.955	92.56
612.163	102.56
612.371	102.56
612.579	91.56
612.787	89.56
612.995	92.56
613.203	103.56
613.411	96.56
613.618	102.56
613.826	85.56
614.034	101.56
614.242	104.56
614.449	94.56
614.657	96.56
614.865	95.56
615.072	97.56
615.28	100.56
615.488	91.56
615.695	97.56
615.903	95.56
616.111	93.56
616.318	100.56
616.526	102.56
616.733	91.56
616.941	100.56
617.148	94.56
617.356	111.56
617.563	87.56
617.771	92.56
617.978	109.56
618.185	88.56
618.393	105.56
618.6	96.56
618.807	95.56
619.015	89.56
619.222	93.56
619.429	92.56
619.637	96.56
619.844	91.56
620.051	91.56
620.258	73.56
620.466	93.56
620.673	91.56
620.88	95.56
621.087	99.56
621.294	106.56
621.501	101.56
621.708	96.56
621.915	97.56
622.122	91.56
622.329	111.56
622.536	101.56
622.743	104.56
622.95	95.56
623.157	80.56
623.364	83.56
623.571	99.56
623.778	100.56
623.985	96.56
624.192	99.56
624.399	106.56
624.606	100.56
624.812	93.56
625.019	96.56
625.226	86.56
625.433	89.56
625.639	98.56
625.846	76.56
626.053	95.56
626.259	101.56
626.466	98.56
626.673	81.56
626.879	81.56
627.086	90.56
627.293	83.56
627.499	97.56
627.706	90.56
627.912	107.56
628.119	96.56
628.325	96.56
628.532	90.56
628.738	108.56
628.945	96.56
629.151	93.56
629.357	96.56
629.564	75.56
629.77	84.56
629.976	91.56
630.183	89.56
630.389	87.56
630.595	90.56
630.802	101.56
631.008	94.56
631.214	89.56
631.42	90.56
631.627	92.56
631.833	102.56
632.039	94.56
632.245	81.56
632.451	95.56
632.657	91.56
632.863	94.56
633.069	83.56
633.275	100.56
633.481	98.56
633.688	85.56
633.893	92.56
634.099	101.56
634.305	89.56
634.511	85.56
634.717	89.56
634.923	75.56
635.129	77.56
635.335	84.56
635.541	94.56
635.747	94.56
635.952	91.56
636.158	102.56
636.364	77.56
636.57	85.56
636.775	78.56
636.981	110.56
637.187	82.56
637.392	98.56
637.598	96.56
637.804	96.56
638.009	99.56
638.215	99.56
638.421	88.56
638.626	103.56
638.832	77.56
639.037	92.56
639.243	74.56
639.448	87.56
639.654	89.56
639.859	102.56
640.065	89.56
640.27	98.56
640.475	94.56
640.681	91.56
640.886	92.56
641.091	92.56
641.297	84.56
641.502	106.56
641.707	99.56
641.913	101.56
642.118	91.56
642.323	87.56
642.528	89.56
642.733	102.56
642.939	108.56
643.144	97.56
643.349	84.56
643.554	107.56
643.759	102.56
643.964	93.56
644.169	101.56
644.374	93.56
644.579	89.56
644.784	83.56
644.989	91.56
645.194	110.56
645.399	94.56
645.604	84.56
645.809	98.56
646.014	101.56
646.219	90.56
646.423	77.56
646.628	85.56
646.833	97.56
647.038	113.56
647.243	94.56
647.447	90.56
647.652	111.56
647.857	85.56
648.062	86.56
648.266	75.56
648.471	94.56
648.676	94.56
648.88	102.56
649.085	83.56
649.289	96.56
649.494	72.56
649.698	86.56
649.903	91.56
650.107	88.56
650.312	90.56
650.516	79.56
650.721	85.56
650.925	88.56
651.13	81.56
651.334	81.56
651.539	91.56
651.743	94.56
651.947	81.56
652.152	89.56
652.356	90.56
652.56	91.56
652.764	93.56
652.969	80.56
653.173	84.56
653.377	87.56
653.581	97.56
653.785	89.56
653.99	86.56
654.194	87.56
654.398	90.56
654.602	101.56
654.806	98.56
655.01	81.56
655.214	85.56
655.418	78.56
655.622	77.56
655.826	82.56
656.03	87.56
656.234	98.56
656.438	85.56
656.642	83.56
656.846	70.56
657.049	82.56
657.253	97.56
657.457	96.56
657.661	83.56
657.865	85.56
658.068	89.56
658.272	89.56
658.476	95.56
658.68	87.56
658.883	85.56
659.087	88.56
659.291	82.56
659.494	79.56
659.698	83.56
659.901	96.56
660.105	76.56
660.309	75.56
660.512	70.56
660.716	80.56
660.919	83.56
661.123	86.56
661.326	80.56
661.53	78.56
661.733	81.56
661.936	94.56
662.14	71.56
662.343	86.56
662.546	82.56
662.75	85.56
662.953	93.56
663.156	87.56
663.36	91.56
663.563	87.56
663.766	99.56
663.969	96.56
664.173	74.56
664.376	68.56
664.579	78.56
664.782	93.56
664.985	91.56
665.188	84.56
665.391	75.56
665.594	79.56
665.797	84.56
666	82.56
666.203	78.56
666.406	80.56
666.609	70.56
666.812	90.56
667.015	69.56
667.218	89.56
667.421	96.56
667.624	79.56
667.827	91.56
668.03	85.56
668.232	92.56
668.435	83.56
668.638	91.56
668.841	81.56
669.043	79.56
669.246	88.56
669.449	93.56
669.651	89.56
669.854	77.56
670.057	79.56
670.259	82.56
670.462	74.56
670.665	96.56
670.867	87.56
671.07	91.56
671.272	79.56
671.475	80.56
671.677	76.56
671.88	78.56
672.082	86.56
672.284	95.56
672.487	85.56
672.689	90.56
672.892	78.56
