Data from Zn(NO3)2Standard.Agarose3%.GreenCap.LampEnergy5.5.E.O_HRD10591_15-01-34-767.txt Node
Date: Mon Jul 22 15:01:34 EDT 2019
User: cochatt
Spectrometer: HR+D1059
Trigger mode: 1
Integration Time (sec): 1.000000E-1
Scans to average: 1
Electric dark correction enabled: true
Nonlinearity correction enabled: false
Boxcar width: 0
XAxis mode: Wavelengths
Number of Pixels in Spectrum: 2048
>>>>>Begin Spectral Data<<<<<
223.165	-10.12
223.4	-10.12
223.635	-10.12
223.869	-29.12
224.104	-27.12
224.338	-17.12
224.573	0.88
224.808	-12.12
225.042	-6.12
225.277	16.88
225.511	-1.12
225.746	3.88
225.98	-6.12
226.215	-1.12
226.449	6.88
226.683	16.88
226.918	32.88
227.152	31.88
227.387	33.88
227.621	47.88
227.856	41.88
228.09	47.88
228.324	47.88
228.559	46.88
228.793	61.88
229.027	56.88
229.262	52.88
229.496	66.88
229.73	71.88
229.964	81.88
230.199	71.88
230.433	69.88
230.667	68.88
230.901	79.88
231.136	68.88
231.37	68.88
231.604	86.88
231.838	90.88
232.072	88.88
232.306	82.88
232.541	90.88
232.775	78.88
233.009	76.88
233.243	70.88
233.477	89.88
233.711	73.88
233.945	74.88
234.179	87.88
234.413	74.88
234.647	77.88
234.881	71.88
235.115	72.88
235.349	69.88
235.583	75.88
235.817	73.88
236.051	70.88
236.285	76.88
236.519	75.88
236.753	83.88
236.987	78.88
237.221	74.88
237.455	66.88
237.689	80.88
237.922	82.88
238.156	80.88
238.39	69.88
238.624	65.88
238.858	73.88
239.091	71.88
239.325	65.88
239.559	69.88
239.793	72.88
240.027	77.88
240.26	80.88
240.494	77.88
240.728	80.88
240.961	77.88
241.195	64.88
241.429	73.88
241.662	72.88
241.896	92.88
242.13	58.88
242.363	69.88
242.597	77.88
242.83	67.88
243.064	81.88
243.298	88.88
243.531	66.88
243.765	85.88
243.998	65.88
244.232	68.88
244.465	80.88
244.699	64.88
244.932	74.88
245.166	74.88
245.399	86.88
245.633	66.88
245.866	73.88
246.099	82.88
246.333	76.88
246.566	80.88
246.8	80.88
247.033	80.88
247.266	74.88
247.5	68.88
247.733	74.88
247.966	70.88
248.2	96.88
248.433	80.88
248.666	77.88
248.899	70.88
249.133	64.88
249.366	87.88
249.599	70.88
249.832	75.88
250.066	83.88
250.299	72.88
250.532	82.88
250.765	77.88
250.998	83.88
251.231	85.88
251.465	86.88
251.698	74.88
251.931	73.88
252.164	79.88
252.397	82.88
252.63	77.88
252.863	68.88
253.096	69.88
253.329	68.88
253.562	76.88
253.795	72.88
254.028	79.88
254.261	79.88
254.494	72.88
254.727	80.88
254.96	63.88
255.193	82.88
255.426	70.88
255.659	78.88
255.892	64.88
256.124	73.88
256.357	81.88
256.59	79.88
256.823	76.88
257.056	69.88
257.289	77.88
257.521	74.88
257.754	72.88
257.987	80.88
258.22	90.88
258.452	82.88
258.685	88.88
258.918	65.88
259.151	61.88
259.383	72.88
259.616	75.88
259.849	64.88
260.081	69.88
260.314	69.88
260.547	90.88
260.779	73.88
261.012	71.88
261.244	80.88
261.477	75.88
261.71	82.88
261.942	73.88
262.175	90.88
262.407	81.88
262.64	78.88
262.872	72.88
263.105	75.88
263.337	78.88
263.57	83.88
263.802	74.88
264.035	77.88
264.267	79.88
264.499	87.88
264.732	73.88
264.964	82.88
265.197	81.88
265.429	85.88
265.661	65.88
265.894	65.88
266.126	63.88
266.358	92.88
266.591	78.88
266.823	72.88
267.055	73.88
267.287	75.88
267.52	69.88
267.752	83.88
267.984	70.88
268.216	65.88
268.448	78.88
268.681	82.88
268.913	72.88
269.145	72.88
269.377	69.88
269.609	78.88
269.841	73.88
270.073	68.88
270.306	75.88
270.538	77.88
270.77	81.88
271.002	95.88
271.234	77.88
271.466	85.88
271.698	84.88
271.93	77.88
272.162	58.88
272.394	64.88
272.626	78.88
272.858	93.88
273.09	79.88
273.322	88.88
273.553	81.88
273.785	77.88
274.017	86.88
274.249	81.88
274.481	86.88
274.713	96.88
274.945	77.88
275.176	80.88
275.408	67.88
275.64	70.88
275.872	84.88
276.104	81.88
276.335	76.88
276.567	84.88
276.799	72.88
277.031	69.88
277.262	80.88
277.494	90.88
277.726	84.88
277.957	88.88
278.189	92.88
278.421	83.88
278.652	84.88
278.884	78.88
279.115	87.88
279.347	76.88
279.579	70.88
279.81	68.88
280.042	82.88
280.273	82.88
280.505	72.88
280.736	88.88
280.968	67.88
281.199	80.88
281.431	69.88
281.662	84.88
281.894	78.88
282.125	74.88
282.356	74.88
282.588	78.88
282.819	80.88
283.051	82.88
283.282	82.88
283.513	69.88
283.745	97.88
283.976	91.88
284.207	74.88
284.439	84.88
284.67	76.88
284.901	96.88
285.132	80.88
285.364	78.88
285.595	80.88
285.826	69.88
286.057	77.88
286.288	88.88
286.52	93.88
286.751	89.88
286.982	81.88
287.213	83.88
287.444	90.88
287.675	85.88
287.906	84.88
288.138	88.88
288.369	81.88
288.6	94.88
288.831	78.88
289.062	89.88
289.293	66.88
289.524	84.88
289.755	83.88
289.986	80.88
290.217	90.88
290.448	83.88
290.679	83.88
290.91	85.88
291.141	88.88
291.371	73.88
291.602	76.88
291.833	69.88
292.064	92.88
292.295	85.88
292.526	74.88
292.757	76.88
292.987	80.88
293.218	73.88
293.449	93.88
293.68	85.88
293.91	81.88
294.141	80.88
294.372	87.88
294.603	80.88
294.833	73.88
295.064	74.88
295.295	79.88
295.525	80.88
295.756	78.88
295.987	83.88
296.217	87.88
296.448	85.88
296.679	81.88
296.909	84.88
297.14	83.88
297.37	89.88
297.601	83.88
297.831	66.88
298.062	71.88
298.292	85.88
298.523	80.88
298.753	86.88
298.984	84.88
299.214	75.88
299.445	96.88
299.675	85.88
299.905	80.88
300.136	86.88
300.366	82.88
300.597	81.88
300.827	73.88
301.057	75.88
301.288	79.88
301.518	94.88
301.748	71.88
301.979	79.88
302.209	81.88
302.439	78.88
302.669	79.88
302.9	76.88
303.13	95.88
303.36	63.88
303.59	87.88
303.82	72.88
304.051	82.88
304.281	84.88
304.511	84.88
304.741	92.88
304.971	71.88
305.201	87.88
305.431	77.88
305.661	84.88
305.891	79.88
306.121	78.88
306.352	74.88
306.582	60.88
306.812	85.88
307.042	94.88
307.272	78.88
307.502	83.88
307.731	60.88
307.961	80.88
308.191	84.88
308.421	79.88
308.651	81.88
308.881	89.88
309.111	69.88
309.341	80.88
309.571	90.88
309.8	73.88
310.03	77.88
310.26	82.88
310.49	70.88
310.72	71.88
310.949	73.88
311.179	85.88
311.409	73.88
311.639	75.88
311.868	76.88
312.098	74.88
312.328	79.88
312.557	89.88
312.787	77.88
313.017	71.88
313.246	78.88
313.476	74.88
313.706	82.88
313.935	80.88
314.165	94.88
314.394	79.88
314.624	79.88
314.853	79.88
315.083	87.88
315.312	93.88
315.542	74.88
315.771	84.88
316.001	82.88
316.23	82.88
316.46	87.88
316.689	68.88
316.919	80.88
317.148	85.88
317.377	91.88
317.607	76.88
317.836	94.88
318.065	83.88
318.295	78.88
318.524	92.88
318.753	72.88
318.983	67.88
319.212	79.88
319.441	78.88
319.67	67.88
319.9	73.88
320.129	89.88
320.358	83.88
320.587	79.88
320.816	88.88
321.046	69.88
321.275	73.88
321.504	75.88
321.733	73.88
321.962	76.88
322.191	92.88
322.42	93.88
322.649	95.88
322.878	83.88
323.108	84.88
323.337	80.88
323.566	77.88
323.795	76.88
324.024	82.88
324.253	87.88
324.482	71.88
324.71	75.88
324.939	78.88
325.168	80.88
325.397	88.88
325.626	74.88
325.855	76.88
326.084	71.88
326.313	74.88
326.542	62.88
326.77	78.88
326.999	88.88
327.228	88.88
327.457	81.88
327.686	77.88
327.914	77.88
328.143	92.88
328.372	89.88
328.6	93.88
328.829	91.88
329.058	63.88
329.287	89.88
329.515	77.88
329.744	89.88
329.972	84.88
330.201	77.88
330.43	89.88
330.658	76.88
330.887	96.88
331.115	77.88
331.344	73.88
331.572	82.88
331.801	87.88
332.03	76.88
332.258	79.88
332.486	74.88
332.715	78.88
332.943	92.88
333.172	95.88
333.4	75.88
333.629	85.88
333.857	77.88
334.085	83.88
334.314	80.88
334.542	84.88
334.771	79.88
334.999	82.88
335.227	85.88
335.455	65.88
335.684	76.88
335.912	80.88
336.14	78.88
336.369	83.88
336.597	94.88
336.825	80.88
337.053	63.88
337.281	88.88
337.51	93.88
337.738	96.88
337.966	85.88
338.194	68.88
338.422	71.88
338.65	74.88
338.878	95.88
339.106	69.88
339.334	102.88
339.562	82.88
339.79	84.88
340.018	72.88
340.246	87.88
340.474	83.88
340.702	92.88
340.93	81.88
341.158	87.88
341.386	74.88
341.614	83.88
341.842	87.88
342.07	78.88
342.298	82.88
342.526	81.88
342.754	94.88
342.981	100.88
343.209	76.88
343.437	95.88
343.665	89.88
343.893	83.88
344.12	81.88
344.348	85.88
344.576	72.88
344.804	72.88
345.031	79.88
345.259	73.88
345.487	73.88
345.714	74.88
345.942	84.88
346.17	73.88
346.397	75.88
346.625	76.88
346.853	74.88
347.08	79.88
347.308	75.88
347.535	81.88
347.763	76.88
347.99	86.88
348.218	88.88
348.445	92.88
348.673	87.88
348.9	68.88
349.128	80.88
349.355	71.88
349.583	85.88
349.81	79.88
350.037	82.88
350.265	90.88
350.492	77.88
350.72	71.88
350.947	91.88
351.174	95.88
351.402	77.88
351.629	68.88
351.856	73.88
352.083	73.88
352.311	76.88
352.538	86.88
352.765	85.88
352.992	85.88
353.22	88.88
353.447	62.88
353.674	83.88
353.901	83.88
354.128	81.88
354.355	80.88
354.583	86.88
354.81	77.88
355.037	91.88
355.264	75.88
355.491	82.88
355.718	84.88
355.945	96.88
356.172	76.88
356.399	84.88
356.626	78.88
356.853	72.88
357.08	85.88
357.307	92.88
357.534	73.88
357.761	76.88
357.988	86.88
358.215	79.88
358.441	72.88
358.668	84.88
358.895	70.88
359.122	80.88
359.349	81.88
359.576	80.88
359.802	94.88
360.029	85.88
360.256	80.88
360.483	90.88
360.709	77.88
360.936	77.88
361.163	81.88
361.39	86.88
361.616	75.88
361.843	77.88
362.07	80.88
362.296	73.88
362.523	93.88
362.749	85.88
362.976	84.88
363.203	85.88
363.429	82.88
363.656	96.88
363.882	74.88
364.109	79.88
364.335	101.88
364.562	65.88
364.788	72.88
365.015	69.88
365.241	85.88
365.468	84.88
365.694	81.88
365.92	65.88
366.147	78.88
366.373	84.88
366.599	91.88
366.826	77.88
367.052	69.88
367.278	74.88
367.505	77.88
367.731	89.88
367.957	73.88
368.184	89.88
368.41	73.88
368.636	73.88
368.862	77.88
369.089	76.88
369.315	81.88
369.541	79.88
369.767	85.88
369.993	87.88
370.219	89.88
370.445	91.88
370.672	69.88
370.898	82.88
371.124	76.88
371.35	71.88
371.576	74.88
371.802	87.88
372.028	90.88
372.254	86.88
372.48	84.88
372.706	79.88
372.932	85.88
373.158	86.88
373.384	71.88
373.61	81.88
373.835	99.88
374.061	74.88
374.287	84.88
374.513	76.88
374.739	91.88
374.965	82.88
375.191	82.88
375.416	74.88
375.642	74.88
375.868	80.88
376.094	81.88
376.319	75.88
376.545	85.88
376.771	59.88
376.997	88.88
377.222	67.88
377.448	78.88
377.674	91.88
377.899	94.88
378.125	80.88
378.35	73.88
378.576	78.88
378.802	92.88
379.027	78.88
379.253	78.88
379.478	72.88
379.704	92.88
379.929	88.88
380.155	80.88
380.38	71.88
380.606	87.88
380.831	84.88
381.057	94.88
381.282	80.88
381.507	64.88
381.733	83.88
381.958	73.88
382.184	77.88
382.409	76.88
382.634	92.88
382.86	70.88
383.085	87.88
383.31	94.88
383.535	78.88
383.761	91.88
383.986	78.88
384.211	90.88
384.436	68.88
384.662	85.88
384.887	92.88
385.112	75.88
385.337	92.88
385.562	87.88
385.787	72.88
386.013	81.88
386.238	82.88
386.463	89.88
386.688	77.88
386.913	88.88
387.138	84.88
387.363	75.88
387.588	77.88
387.813	87.88
388.038	87.88
388.263	73.88
388.488	72.88
388.713	101.88
388.938	79.88
389.163	83.88
389.387	80.88
389.612	80.88
389.837	78.88
390.062	79.88
390.287	79.88
390.512	80.88
390.736	82.88
390.961	86.88
391.186	78.88
391.411	84.88
391.636	81.88
391.86	70.88
392.085	86.88
392.31	82.88
392.534	89.88
392.759	87.88
392.984	77.88
393.208	87.88
393.433	84.88
393.658	81.88
393.882	81.88
394.107	86.88
394.331	81.88
394.556	85.88
394.78	97.88
395.005	80.88
395.229	87.88
395.454	81.88
395.678	89.88
395.903	70.88
396.127	81.88
396.352	80.88
396.576	89.88
396.801	66.88
397.025	86.88
397.249	82.88
397.474	82.88
397.698	82.88
397.922	85.88
398.147	76.88
398.371	80.88
398.595	77.88
398.82	90.88
399.044	86.88
399.268	88.88
399.492	70.88
399.717	89.88
399.941	79.88
400.165	78.88
400.389	86.88
400.613	95.88
400.837	82.88
401.062	79.88
401.286	87.88
401.51	78.88
401.734	84.88
401.958	74.88
402.182	85.88
402.406	82.88
402.63	89.88
402.854	83.88
403.078	84.88
403.302	68.88
403.526	79.88
403.75	86.88
403.974	95.88
404.198	85.88
404.422	76.88
404.645	64.88
404.869	79.88
405.093	80.88
405.317	81.88
405.541	78.88
405.765	82.88
405.988	71.88
406.212	102.88
406.436	88.88
406.66	94.88
406.883	103.88
407.107	77.88
407.331	69.88
407.555	99.88
407.778	89.88
408.002	90.88
408.226	80.88
408.449	103.88
408.673	74.88
408.896	86.88
409.12	77.88
409.344	80.88
409.567	84.88
409.791	92.88
410.014	71.88
410.238	87.88
410.461	75.88
410.685	87.88
410.908	96.88
411.132	67.88
411.355	72.88
411.578	89.88
411.802	71.88
412.025	82.88
412.249	86.88
412.472	80.88
412.695	80.88
412.919	66.88
413.142	78.88
413.365	73.88
413.589	88.88
413.812	75.88
414.035	79.88
414.258	78.88
414.482	80.88
414.705	81.88
414.928	89.88
415.151	77.88
415.374	75.88
415.597	85.88
415.821	86.88
416.044	79.88
416.267	75.88
416.49	71.88
416.713	78.88
416.936	78.88
417.159	64.88
417.382	82.88
417.605	90.88
417.828	88.88
418.051	108.88
418.274	86.88
418.497	81.88
418.72	83.88
418.943	77.88
419.166	80.88
419.389	94.88
419.611	85.88
419.834	84.88
420.057	64.88
420.28	73.88
420.503	69.88
420.726	88.88
420.948	80.88
421.171	74.88
421.394	84.88
421.617	89.88
421.839	85.88
422.062	89.88
422.285	100.88
422.507	76.88
422.73	90.88
422.953	87.88
423.175	74.88
423.398	95.88
423.621	107.88
423.843	96.88
424.066	80.88
424.288	93.88
424.511	94.88
424.733	99.88
424.956	96.88
425.178	101.88
425.401	95.88
425.623	72.88
425.846	94.88
426.068	97.88
426.291	93.88
426.513	100.88
426.735	78.88
426.958	80.88
427.18	80.88
427.402	84.88
427.625	82.88
427.847	83.88
428.069	79.88
428.292	86.88
428.514	90.88
428.736	87.88
428.958	83.88
429.181	89.88
429.403	89.88
429.625	91.88
429.847	89.88
430.069	83.88
430.292	94.88
430.514	82.88
430.736	62.88
430.958	82.88
431.18	90.88
431.402	87.88
431.624	83.88
431.846	72.88
432.068	76.88
432.29	84.88
432.512	87.88
432.734	85.88
432.956	84.88
433.178	94.88
433.4	81.88
433.622	83.88
433.844	85.88
434.066	79.88
434.287	90.88
434.509	80.88
434.731	79.88
434.953	80.88
435.175	72.88
435.397	84.88
435.618	94.88
435.84	80.88
436.062	65.88
436.284	92.88
436.505	93.88
436.727	80.88
436.949	90.88
437.17	95.88
437.392	88.88
437.614	75.88
437.835	91.88
438.057	82.88
438.278	87.88
438.5	88.88
438.721	88.88
438.943	78.88
439.165	81.88
439.386	94.88
439.608	79.88
439.829	75.88
440.05	102.88
440.272	99.88
440.493	96.88
440.715	95.88
440.936	93.88
441.158	77.88
441.379	88.88
441.6	90.88
441.822	89.88
442.043	92.88
442.264	81.88
442.486	79.88
442.707	96.88
442.928	86.88
443.149	77.88
443.371	82.88
443.592	83.88
443.813	94.88
444.034	80.88
444.255	83.88
444.476	85.88
444.698	87.88
444.919	89.88
445.14	189.88
445.361	136.88
445.582	89.88
445.803	75.88
446.024	88.88
446.245	85.88
446.466	94.88
446.687	82.88
446.908	84.88
447.129	86.88
447.35	83.88
447.571	85.88
447.792	99.88
448.013	98.88
448.234	81.88
448.455	87.88
448.675	81.88
448.896	97.88
449.117	97.88
449.338	86.88
449.559	92.88
449.779	71.88
450	88.88
450.221	83.88
450.442	97.88
450.662	96.88
450.883	86.88
451.104	81.88
451.324	88.88
451.545	94.88
451.766	80.88
451.986	72.88
452.207	88.88
452.428	85.88
452.648	79.88
452.869	90.88
453.089	90.88
453.31	79.88
453.53	76.88
453.751	83.88
453.971	94.88
454.192	82.88
454.412	79.88
454.633	85.88
454.853	67.88
455.073	74.88
455.294	88.88
455.514	96.88
455.734	83.88
455.955	92.88
456.175	84.88
456.395	85.88
456.616	88.88
456.836	76.88
457.056	92.88
457.276	88.88
457.497	83.88
457.717	73.88
457.937	80.88
458.157	82.88
458.377	93.88
458.598	73.88
458.818	69.88
459.038	82.88
459.258	77.88
459.478	80.88
459.698	85.88
459.918	78.88
460.138	92.88
460.358	88.88
460.578	82.88
460.798	88.88
461.018	81.88
461.238	73.88
461.458	82.88
461.678	101.88
461.898	70.88
462.118	93.88
462.338	90.88
462.558	86.88
462.777	83.88
462.997	88.88
463.217	93.88
463.437	90.88
463.657	76.88
463.876	74.88
464.096	90.88
464.316	81.88
464.536	82.88
464.755	94.88
464.975	91.88
465.195	91.88
465.414	81.88
465.634	94.88
465.854	78.88
466.073	85.88
466.293	87.88
466.512	86.88
466.732	84.88
466.951	78.88
467.171	85.88
467.391	89.88
467.61	69.88
467.829	95.88
468.049	91.88
468.268	87.88
468.488	73.88
468.707	69.88
468.927	82.88
469.146	86.88
469.365	94.88
469.585	88.88
469.804	98.88
470.023	94.88
470.243	106.88
470.462	85.88
470.681	80.88
470.901	90.88
471.12	76.88
471.339	89.88
471.558	77.88
471.777	85.88
471.997	93.88
472.216	85.88
472.435	74.88
472.654	80.88
472.873	82.88
473.092	96.88
473.311	89.88
473.53	79.88
473.749	92.88
473.968	93.88
474.187	97.88
474.406	88.88
474.625	77.88
474.844	82.88
475.063	78.88
475.282	83.88
475.501	74.88
475.72	91.88
475.939	97.88
476.158	79.88
476.377	92.88
476.596	78.88
476.814	77.88
477.033	73.88
477.252	86.88
477.471	87.88
477.69	90.88
477.908	83.88
478.127	78.88
478.346	85.88
478.564	80.88
478.783	85.88
479.002	88.88
479.22	86.88
479.439	88.88
479.658	82.88
479.876	84.88
480.095	78.88
480.313	85.88
480.532	92.88
480.751	73.88
480.969	77.88
481.188	73.88
481.406	91.88
481.624	76.88
481.843	81.88
482.061	63.88
482.28	93.88
482.498	92.88
482.717	80.88
482.935	94.88
483.153	80.88
483.372	77.88
483.59	80.88
483.808	96.88
484.027	95.88
484.245	88.88
484.463	86.88
484.681	97.88
484.9	80.88
485.118	90.88
485.336	85.88
485.554	84.88
485.772	91.88
485.99	81.88
486.209	86.88
486.427	80.88
486.645	78.88
486.863	99.88
487.081	84.88
487.299	96.88
487.517	88.88
487.735	100.88
487.953	74.88
488.171	113.88
488.389	98.88
488.607	82.88
488.825	95.88
489.043	75.88
489.261	80.88
489.479	77.88
489.696	85.88
489.914	84.88
490.132	92.88
490.35	84.88
490.568	96.88
490.786	108.88
491.003	102.88
491.221	95.88
491.439	101.88
491.657	94.88
491.874	105.88
492.092	111.88
492.31	124.88
492.527	116.88
492.745	98.88
492.963	110.88
493.18	98.88
493.398	100.88
493.615	111.88
493.833	97.88
494.05	90.88
494.268	101.88
494.485	101.88
494.703	98.88
494.92	102.88
495.138	104.88
495.355	92.88
495.573	95.88
495.79	101.88
496.008	99.88
496.225	93.88
496.442	82.88
496.66	99.88
496.877	90.88
497.094	92.88
497.312	94.88
497.529	91.88
497.746	95.88
497.963	88.88
498.181	96.88
498.398	70.88
498.615	84.88
498.832	79.88
499.049	85.88
499.267	89.88
499.484	86.88
499.701	79.88
499.918	103.88
500.135	97.88
500.352	85.88
500.569	94.88
500.786	90.88
501.003	86.88
501.22	89.88
501.437	87.88
501.654	91.88
501.871	77.88
502.088	78.88
502.305	82.88
502.522	95.88
502.739	72.88
502.956	82.88
503.172	83.88
503.389	71.88
503.606	90.88
503.823	87.88
504.04	89.88
504.256	87.88
504.473	92.88
504.69	104.88
504.907	84.88
505.123	96.88
505.34	81.88
505.557	85.88
505.773	93.88
505.99	94.88
506.207	83.88
506.423	92.88
506.64	98.88
506.856	98.88
507.073	87.88
507.289	95.88
507.506	87.88
507.722	92.88
507.939	87.88
508.155	67.88
508.372	93.88
508.588	82.88
508.805	90.88
509.021	92.88
509.238	78.88
509.454	85.88
509.67	79.88
509.887	85.88
510.103	86.88
510.319	84.88
510.536	80.88
510.752	79.88
510.968	78.88
511.184	78.88
511.401	61.88
511.617	93.88
511.833	80.88
512.049	79.88
512.265	79.88
512.481	86.88
512.698	89.88
512.914	70.88
513.13	74.88
513.346	64.88
513.562	82.88
513.778	75.88
513.994	78.88
514.21	83.88
514.426	79.88
514.642	81.88
514.858	76.88
515.074	81.88
515.29	94.88
515.506	82.88
515.721	85.88
515.937	73.88
516.153	80.88
516.369	75.88
516.585	78.88
516.801	77.88
517.016	75.88
517.232	82.88
517.448	92.88
517.664	89.88
517.879	80.88
518.095	83.88
518.311	81.88
518.527	78.88
518.742	77.88
518.958	90.88
519.173	95.88
519.389	76.88
519.605	88.88
519.82	71.88
520.036	71.88
520.251	79.88
520.467	87.88
520.682	90.88
520.898	77.88
521.113	86.88
521.329	86.88
521.544	95.88
521.76	94.88
521.975	78.88
522.19	94.88
522.406	87.88
522.621	90.88
522.836	90.88
523.052	93.88
523.267	88.88
523.482	94.88
523.698	81.88
523.913	72.88
524.128	93.88
524.343	105.88
524.559	89.88
524.774	92.88
524.989	93.88
525.204	82.88
525.419	96.88
525.634	83.88
525.849	73.88
526.064	91.88
526.28	73.88
526.495	85.88
526.71	90.88
526.925	84.88
527.14	84.88
527.355	91.88
527.57	83.88
527.785	77.88
527.999	82.88
528.214	84.88
528.429	77.88
528.644	81.88
528.859	80.88
529.074	89.88
529.289	99.88
529.503	87.88
529.718	85.88
529.933	81.88
530.148	82.88
530.363	73.88
530.577	78.88
530.792	87.88
531.007	83.88
531.221	82.88
531.436	88.88
531.651	74.88
531.865	87.88
532.08	74.88
532.295	77.88
532.509	72.88
532.724	85.88
532.938	89.88
533.153	73.88
533.367	90.88
533.582	88.88
533.796	74.88
534.011	77.88
534.225	85.88
534.44	70.88
534.654	79.88
534.868	65.88
535.083	78.88
535.297	90.88
535.511	104.88
535.726	83.88
535.94	91.88
536.154	80.88
536.369	75.88
536.583	72.88
536.797	80.88
537.011	81.88
537.225	69.88
537.44	79.88
537.654	74.88
537.868	84.88
538.082	78.88
538.296	78.88
538.51	81.88
538.724	93.88
538.938	88.88
539.153	96.88
539.367	97.88
539.581	89.88
539.795	92.88
540.009	86.88
540.222	73.88
540.436	74.88
540.65	88.88
540.864	86.88
541.078	86.88
541.292	98.88
541.506	93.88
541.72	88.88
541.934	92.88
542.147	92.88
542.361	97.88
542.575	73.88
542.789	82.88
543.002	92.88
543.216	75.88
543.43	84.88
543.644	93.88
543.857	91.88
544.071	83.88
544.285	103.88
544.498	100.88
544.712	94.88
544.925	96.88
545.139	75.88
545.352	97.88
545.566	94.88
545.779	113.88
545.993	102.88
546.206	93.88
546.42	98.88
546.633	94.88
546.847	100.88
547.06	82.88
547.274	97.88
547.487	113.88
547.7	93.88
547.914	101.88
548.127	89.88
548.34	92.88
548.554	103.88
548.767	110.88
548.98	86.88
549.193	93.88
549.407	88.88
549.62	95.88
549.833	110.88
550.046	95.88
550.259	92.88
550.473	95.88
550.686	86.88
550.899	91.88
551.112	94.88
551.325	86.88
551.538	93.88
551.751	96.88
551.964	72.88
552.177	76.88
552.39	90.88
552.603	98.88
552.816	91.88
553.029	90.88
553.242	100.88
553.455	100.88
553.667	93.88
553.88	84.88
554.093	84.88
554.306	84.88
554.519	99.88
554.732	83.88
554.944	102.88
555.157	100.88
555.37	93.88
555.583	98.88
555.795	95.88
556.008	96.88
556.221	83.88
556.433	97.88
556.646	77.88
556.859	80.88
557.071	89.88
557.284	89.88
557.496	99.88
557.709	101.88
557.921	85.88
558.134	95.88
558.346	98.88
558.559	99.88
558.771	74.88
558.984	86.88
559.196	95.88
559.409	86.88
559.621	97.88
559.833	92.88
560.046	95.88
560.258	83.88
560.47	86.88
560.683	85.88
560.895	82.88
561.107	94.88
561.32	103.88
561.532	90.88
561.744	89.88
561.956	94.88
562.168	94.88
562.381	104.88
562.593	93.88
562.805	89.88
563.017	108.88
563.229	86.88
563.441	97.88
563.653	100.88
563.865	96.88
564.077	97.88
564.289	88.88
564.501	81.88
564.713	79.88
564.925	85.88
565.137	84.88
565.349	93.88
565.561	89.88
565.773	81.88
565.985	87.88
566.197	92.88
566.408	85.88
566.62	78.88
566.832	92.88
567.044	84.88
567.255	71.88
567.467	94.88
567.679	94.88
567.891	92.88
568.102	81.88
568.314	94.88
568.526	86.88
568.737	88.88
568.949	83.88
569.161	80.88
569.372	79.88
569.584	62.88
569.795	84.88
570.007	95.88
570.218	76.88
570.43	94.88
570.641	91.88
570.853	83.88
571.064	93.88
571.276	85.88
571.487	96.88
571.698	76.88
571.91	89.88
572.121	84.88
572.333	69.88
572.544	92.88
572.755	95.88
572.966	73.88
573.178	81.88
573.389	63.88
573.6	80.88
573.811	78.88
574.023	76.88
574.234	85.88
574.445	83.88
574.656	90.88
574.867	80.88
575.078	87.88
575.289	79.88
575.501	84.88
575.712	78.88
575.923	74.88
576.134	90.88
576.345	93.88
576.556	85.88
576.767	85.88
576.978	86.88
577.188	85.88
577.399	95.88
577.61	79.88
577.821	75.88
578.032	88.88
578.243	71.88
578.454	74.88
578.665	76.88
578.875	82.88
579.086	75.88
579.297	84.88
579.508	85.88
579.718	84.88
579.929	98.88
580.14	77.88
580.35	77.88
580.561	77.88
580.772	81.88
580.982	85.88
581.193	82.88
581.403	78.88
581.614	80.88
581.825	69.88
582.035	66.88
582.246	76.88
582.456	72.88
582.667	81.88
582.877	86.88
583.087	82.88
583.298	85.88
583.508	65.88
583.719	77.88
583.929	69.88
584.139	80.88
584.35	87.88
584.56	89.88
584.77	74.88
584.981	81.88
585.191	78.88
585.401	81.88
585.611	79.88
585.821	88.88
586.032	71.88
586.242	86.88
586.452	75.88
586.662	92.88
586.872	80.88
587.082	88.88
587.292	92.88
587.502	81.88
587.713	84.88
587.923	88.88
588.133	90.88
588.343	100.88
588.553	86.88
588.762	62.88
588.972	77.88
589.182	80.88
589.392	92.88
589.602	86.88
589.812	76.88
590.022	75.88
590.232	71.88
590.441	74.88
590.651	84.88
590.861	69.88
591.071	85.88
591.281	74.88
591.49	79.88
591.7	100.88
591.91	90.88
592.119	84.88
592.329	83.88
592.539	74.88
592.748	85.88
592.958	80.88
593.167	90.88
593.377	88.88
593.587	82.88
593.796	67.88
594.006	73.88
594.215	76.88
594.424	80.88
594.634	75.88
594.843	74.88
595.053	78.88
595.262	82.88
595.472	94.88
595.681	80.88
595.89	73.88
596.1	92.88
596.309	76.88
596.518	90.88
596.727	88.88
596.937	86.88
597.146	85.88
597.355	88.88
597.564	81.88
597.774	79.88
597.983	81.88
598.192	72.88
598.401	85.88
598.61	87.88
598.819	83.88
599.028	84.88
599.237	84.88
599.446	90.88
599.655	81.88
599.864	82.88
600.073	73.88
600.282	81.88
600.491	78.88
600.7	80.88
600.909	79.88
601.118	89.88
601.327	79.88
601.536	86.88
601.745	85.88
601.953	90.88
602.162	86.88
602.371	89.88
602.58	77.88
602.789	85.88
602.997	80.88
603.206	85.88
603.415	75.88
603.623	83.88
603.832	83.88
604.041	85.88
604.249	83.88
604.458	86.88
604.666	80.88
604.875	84.88
605.084	93.88
605.292	76.88
605.501	74.88
605.709	82.88
605.918	79.88
606.126	79.88
606.334	92.88
606.543	94.88
606.751	92.88
606.96	76.88
607.168	84.88
607.376	86.88
607.585	80.88
607.793	100.88
608.001	94.88
608.21	100.88
608.418	81.88
608.626	94.88
608.834	89.88
609.043	80.88
609.251	81.88
609.459	80.88
609.667	76.88
609.875	81.88
610.083	91.88
610.291	79.88
610.499	86.88
610.707	83.88
610.916	78.88
611.124	83.88
611.332	82.88
611.54	80.88
611.748	96.88
611.955	85.88
612.163	96.88
612.371	89.88
612.579	76.88
612.787	88.88
612.995	83.88
613.203	88.88
613.411	94.88
613.618	101.88
613.826	90.88
614.034	92.88
614.242	97.88
614.449	84.88
614.657	88.88
614.865	89.88
615.072	95.88
615.28	93.88
615.488	95.88
615.695	93.88
615.903	78.88
616.111	94.88
616.318	87.88
616.526	71.88
616.733	84.88
616.941	84.88
617.148	87.88
617.356	77.88
617.563	81.88
617.771	84.88
617.978	71.88
618.185	83.88
618.393	89.88
618.6	89.88
618.807	73.88
619.015	78.88
619.222	72.88
619.429	85.88
619.637	85.88
619.844	78.88
620.051	85.88
620.258	89.88
620.466	94.88
620.673	83.88
620.88	91.88
621.087	85.88
621.294	91.88
621.501	80.88
621.708	83.88
621.915	80.88
622.122	74.88
622.329	82.88
622.536	92.88
622.743	88.88
622.95	89.88
623.157	84.88
623.364	91.88
623.571	88.88
623.778	72.88
623.985	74.88
624.192	85.88
624.399	101.88
624.606	78.88
624.812	88.88
625.019	92.88
625.226	85.88
625.433	87.88
625.639	82.88
625.846	86.88
626.053	88.88
626.259	82.88
626.466	85.88
626.673	92.88
626.879	74.88
627.086	95.88
627.293	83.88
627.499	79.88
627.706	81.88
627.912	81.88
628.119	87.88
628.325	97.88
628.532	91.88
628.738	80.88
628.945	83.88
629.151	77.88
629.357	87.88
629.564	88.88
629.77	94.88
629.976	77.88
630.183	77.88
630.389	81.88
630.595	86.88
630.802	100.88
631.008	91.88
631.214	83.88
631.42	64.88
631.627	77.88
631.833	85.88
632.039	87.88
632.245	85.88
632.451	81.88
632.657	85.88
632.863	84.88
633.069	87.88
633.275	66.88
633.481	88.88
633.688	80.88
633.893	78.88
634.099	77.88
634.305	82.88
634.511	78.88
634.717	89.88
634.923	89.88
635.129	93.88
635.335	92.88
635.541	83.88
635.747	83.88
635.952	80.88
636.158	81.88
636.364	70.88
636.57	90.88
636.775	72.88
636.981	78.88
637.187	75.88
637.392	86.88
637.598	81.88
637.804	103.88
638.009	99.88
638.215	74.88
638.421	71.88
638.626	88.88
638.832	77.88
639.037	87.88
639.243	91.88
639.448	88.88
639.654	110.88
639.859	94.88
640.065	72.88
640.27	72.88
640.475	94.88
640.681	81.88
640.886	74.88
641.091	88.88
641.297	87.88
641.502	80.88
641.707	73.88
641.913	89.88
642.118	76.88
642.323	85.88
642.528	91.88
642.733	85.88
642.939	84.88
643.144	95.88
643.349	81.88
643.554	92.88
643.759	90.88
643.964	81.88
644.169	81.88
644.374	94.88
644.579	97.88
644.784	83.88
644.989	81.88
645.194	85.88
645.399	81.88
645.604	88.88
645.809	84.88
646.014	90.88
646.219	91.88
646.423	74.88
646.628	79.88
646.833	93.88
647.038	75.88
647.243	90.88
647.447	83.88
647.652	81.88
647.857	81.88
648.062	77.88
648.266	89.88
648.471	83.88
648.676	77.88
648.88	68.88
649.085	96.88
649.289	96.88
649.494	85.88
649.698	88.88
649.903	75.88
650.107	94.88
650.312	84.88
650.516	82.88
650.721	93.88
650.925	77.88
651.13	92.88
651.334	83.88
651.539	89.88
651.743	82.88
651.947	83.88
652.152	94.88
652.356	68.88
652.56	96.88
652.764	88.88
652.969	84.88
653.173	85.88
653.377	81.88
653.581	69.88
653.785	96.88
653.99	101.88
654.194	77.88
654.398	85.88
654.602	84.88
654.806	81.88
655.01	78.88
655.214	87.88
655.418	77.88
655.622	87.88
655.826	85.88
656.03	85.88
656.234	81.88
656.438	69.88
656.642	73.88
656.846	80.88
657.049	95.88
657.253	83.88
657.457	92.88
657.661	86.88
657.865	80.88
658.068	76.88
658.272	80.88
658.476	81.88
658.68	89.88
658.883	82.88
659.087	61.88
659.291	78.88
659.494	67.88
659.698	83.88
659.901	78.88
660.105	74.88
660.309	90.88
660.512	89.88
660.716	81.88
660.919	88.88
661.123	89.88
661.326	80.88
661.53	92.88
661.733	77.88
661.936	80.88
662.14	94.88
662.343	71.88
662.546	86.88
662.75	81.88
662.953	75.88
663.156	88.88
663.36	82.88
663.563	97.88
663.766	74.88
663.969	90.88
664.173	75.88
664.376	91.88
664.579	86.88
664.782	79.88
664.985	65.88
665.188	72.88
665.391	87.88
665.594	79.88
665.797	77.88
666	80.88
666.203	83.88
666.406	79.88
666.609	95.88
666.812	91.88
667.015	70.88
667.218	74.88
667.421	73.88
667.624	78.88
667.827	90.88
668.03	89.88
668.232	78.88
668.435	84.88
668.638	74.88
668.841	80.88
669.043	68.88
669.246	82.88
669.449	79.88
669.651	84.88
669.854	81.88
670.057	82.88
670.259	97.88
670.462	77.88
670.665	87.88
670.867	91.88
671.07	76.88
671.272	76.88
671.475	72.88
671.677	82.88
671.88	84.88
672.082	82.88
672.284	77.88
672.487	89.88
672.689	69.88
672.892	75.88
