Data from Zn(NO3)2Standard.Agarose3%.GreenCap.LampEnergy10E.O_HRD10591_15-08-36-950.txt Node
Date: Mon Jul 22 15:08:36 EDT 2019
User: cochatt
Spectrometer: HR+D1059
Trigger mode: 1
Integration Time (sec): 1.000000E-1
Scans to average: 1
Electric dark correction enabled: true
Nonlinearity correction enabled: false
Boxcar width: 0
XAxis mode: Wavelengths
Number of Pixels in Spectrum: 2048
>>>>>Begin Spectral Data<<<<<
223.165	-9.94
223.4	-9.94
223.635	-9.94
223.869	-22.94
224.104	-20.94
224.338	-13.94
224.573	-15.94
224.808	-10.94
225.042	-5.94
225.277	-4.94
225.511	9.06
225.746	15.06
225.98	5.06
226.215	8.06
226.449	18.06
226.683	11.06
226.918	19.06
227.152	20.06
227.387	27.06
227.621	44.06
227.856	42.06
228.09	44.06
228.324	39.06
228.559	58.06
228.793	51.06
229.027	59.06
229.262	73.06
229.496	62.06
229.73	78.06
229.964	69.06
230.199	78.06
230.433	61.06
230.667	74.06
230.901	84.06
231.136	69.06
231.37	83.06
231.604	72.06
231.838	79.06
232.072	84.06
232.306	81.06
232.541	84.06
232.775	78.06
233.009	80.06
233.243	84.06
233.477	90.06
233.711	80.06
233.945	88.06
234.179	95.06
234.413	84.06
234.647	83.06
234.881	83.06
235.115	78.06
235.349	82.06
235.583	69.06
235.817	75.06
236.051	77.06
236.285	81.06
236.519	73.06
236.753	66.06
236.987	82.06
237.221	74.06
237.455	78.06
237.689	76.06
237.922	84.06
238.156	75.06
238.39	81.06
238.624	75.06
238.858	68.06
239.091	72.06
239.325	60.06
239.559	70.06
239.793	74.06
240.027	81.06
240.26	74.06
240.494	82.06
240.728	81.06
240.961	83.06
241.195	72.06
241.429	67.06
241.662	61.06
241.896	69.06
242.13	74.06
242.363	69.06
242.597	87.06
242.83	76.06
243.064	78.06
243.298	76.06
243.531	73.06
243.765	61.06
243.998	88.06
244.232	93.06
244.465	64.06
244.699	71.06
244.932	90.06
245.166	74.06
245.399	62.06
245.633	83.06
245.866	76.06
246.099	73.06
246.333	82.06
246.566	67.06
246.8	71.06
247.033	76.06
247.266	54.06
247.5	80.06
247.733	77.06
247.966	74.06
248.2	70.06
248.433	72.06
248.666	70.06
248.899	80.06
249.133	84.06
249.366	82.06
249.599	67.06
249.832	72.06
250.066	74.06
250.299	73.06
250.532	83.06
250.765	91.06
250.998	65.06
251.231	89.06
251.465	69.06
251.698	83.06
251.931	68.06
252.164	79.06
252.397	91.06
252.63	85.06
252.863	84.06
253.096	85.06
253.329	79.06
253.562	71.06
253.795	79.06
254.028	77.06
254.261	72.06
254.494	84.06
254.727	80.06
254.96	92.06
255.193	80.06
255.426	77.06
255.659	83.06
255.892	88.06
256.124	86.06
256.357	82.06
256.59	75.06
256.823	88.06
257.056	74.06
257.289	73.06
257.521	86.06
257.754	75.06
257.987	72.06
258.22	86.06
258.452	82.06
258.685	77.06
258.918	79.06
259.151	79.06
259.383	84.06
259.616	81.06
259.849	85.06
260.081	73.06
260.314	81.06
260.547	90.06
260.779	84.06
261.012	82.06
261.244	85.06
261.477	75.06
261.71	77.06
261.942	76.06
262.175	81.06
262.407	76.06
262.64	76.06
262.872	70.06
263.105	74.06
263.337	77.06
263.57	80.06
263.802	76.06
264.035	84.06
264.267	76.06
264.499	80.06
264.732	86.06
264.964	73.06
265.197	96.06
265.429	76.06
265.661	88.06
265.894	94.06
266.126	72.06
266.358	74.06
266.591	83.06
266.823	74.06
267.055	87.06
267.287	80.06
267.52	77.06
267.752	81.06
267.984	75.06
268.216	81.06
268.448	77.06
268.681	86.06
268.913	96.06
269.145	83.06
269.377	86.06
269.609	81.06
269.841	87.06
270.073	72.06
270.306	75.06
270.538	74.06
270.77	81.06
271.002	75.06
271.234	84.06
271.466	80.06
271.698	81.06
271.93	86.06
272.162	80.06
272.394	80.06
272.626	99.06
272.858	89.06
273.09	86.06
273.322	91.06
273.553	82.06
273.785	80.06
274.017	73.06
274.249	74.06
274.481	75.06
274.713	75.06
274.945	70.06
275.176	86.06
275.408	89.06
275.64	80.06
275.872	85.06
276.104	83.06
276.335	95.06
276.567	95.06
276.799	83.06
277.031	95.06
277.262	87.06
277.494	79.06
277.726	78.06
277.957	73.06
278.189	85.06
278.421	76.06
278.652	83.06
278.884	79.06
279.115	76.06
279.347	77.06
279.579	82.06
279.81	90.06
280.042	74.06
280.273	75.06
280.505	79.06
280.736	70.06
280.968	68.06
281.199	72.06
281.431	74.06
281.662	75.06
281.894	106.06
282.125	87.06
282.356	77.06
282.588	90.06
282.819	78.06
283.051	79.06
283.282	78.06
283.513	88.06
283.745	76.06
283.976	76.06
284.207	82.06
284.439	99.06
284.67	78.06
284.901	70.06
285.132	83.06
285.364	71.06
285.595	73.06
285.826	88.06
286.057	80.06
286.288	95.06
286.52	98.06
286.751	78.06
286.982	81.06
287.213	62.06
287.444	80.06
287.675	74.06
287.906	94.06
288.138	87.06
288.369	82.06
288.6	94.06
288.831	84.06
289.062	81.06
289.293	83.06
289.524	82.06
289.755	80.06
289.986	101.06
290.217	90.06
290.448	99.06
290.679	86.06
290.91	97.06
291.141	65.06
291.371	96.06
291.602	89.06
291.833	83.06
292.064	85.06
292.295	86.06
292.526	83.06
292.757	79.06
292.987	73.06
293.218	83.06
293.449	83.06
293.68	87.06
293.91	92.06
294.141	75.06
294.372	82.06
294.603	77.06
294.833	74.06
295.064	82.06
295.295	65.06
295.525	91.06
295.756	91.06
295.987	87.06
296.217	68.06
296.448	91.06
296.679	98.06
296.909	91.06
297.14	90.06
297.37	75.06
297.601	89.06
297.831	83.06
298.062	90.06
298.292	79.06
298.523	84.06
298.753	79.06
298.984	85.06
299.214	89.06
299.445	81.06
299.675	80.06
299.905	69.06
300.136	92.06
300.366	79.06
300.597	72.06
300.827	75.06
301.057	92.06
301.288	84.06
301.518	85.06
301.748	87.06
301.979	93.06
302.209	83.06
302.439	93.06
302.669	76.06
302.9	87.06
303.13	80.06
303.36	76.06
303.59	81.06
303.82	91.06
304.051	84.06
304.281	93.06
304.511	94.06
304.741	87.06
304.971	77.06
305.201	89.06
305.431	82.06
305.661	91.06
305.891	89.06
306.121	111.06
306.352	76.06
306.582	80.06
306.812	74.06
307.042	83.06
307.272	84.06
307.502	81.06
307.731	68.06
307.961	82.06
308.191	85.06
308.421	84.06
308.651	70.06
308.881	95.06
309.111	96.06
309.341	85.06
309.571	95.06
309.8	76.06
310.03	74.06
310.26	91.06
310.49	83.06
310.72	111.06
310.949	82.06
311.179	92.06
311.409	96.06
311.639	89.06
311.868	78.06
312.098	70.06
312.328	76.06
312.557	86.06
312.787	83.06
313.017	75.06
313.246	89.06
313.476	77.06
313.706	76.06
313.935	84.06
314.165	97.06
314.394	83.06
314.624	87.06
314.853	79.06
315.083	81.06
315.312	72.06
315.542	77.06
315.771	65.06
316.001	96.06
316.23	79.06
316.46	96.06
316.689	79.06
316.919	77.06
317.148	84.06
317.377	77.06
317.607	98.06
317.836	100.06
318.065	74.06
318.295	73.06
318.524	87.06
318.753	79.06
318.983	86.06
319.212	86.06
319.441	88.06
319.67	95.06
319.9	87.06
320.129	91.06
320.358	76.06
320.587	81.06
320.816	87.06
321.046	87.06
321.275	76.06
321.504	87.06
321.733	80.06
321.962	75.06
322.191	85.06
322.42	76.06
322.649	86.06
322.878	77.06
323.108	88.06
323.337	77.06
323.566	81.06
323.795	87.06
324.024	84.06
324.253	83.06
324.482	79.06
324.71	72.06
324.939	67.06
325.168	95.06
325.397	84.06
325.626	90.06
325.855	88.06
326.084	89.06
326.313	84.06
326.542	91.06
326.77	83.06
326.999	93.06
327.228	79.06
327.457	79.06
327.686	81.06
327.914	84.06
328.143	84.06
328.372	84.06
328.6	79.06
328.829	90.06
329.058	77.06
329.287	86.06
329.515	80.06
329.744	99.06
329.972	80.06
330.201	94.06
330.43	94.06
330.658	87.06
330.887	90.06
331.115	77.06
331.344	83.06
331.572	89.06
331.801	81.06
332.03	63.06
332.258	83.06
332.486	82.06
332.715	82.06
332.943	73.06
333.172	98.06
333.4	73.06
333.629	76.06
333.857	92.06
334.085	93.06
334.314	74.06
334.542	81.06
334.771	94.06
334.999	83.06
335.227	82.06
335.455	93.06
335.684	92.06
335.912	88.06
336.14	84.06
336.369	72.06
336.597	92.06
336.825	103.06
337.053	72.06
337.281	88.06
337.51	81.06
337.738	94.06
337.966	80.06
338.194	91.06
338.422	87.06
338.65	89.06
338.878	92.06
339.106	85.06
339.334	88.06
339.562	73.06
339.79	91.06
340.018	81.06
340.246	81.06
340.474	75.06
340.702	77.06
340.93	85.06
341.158	76.06
341.386	90.06
341.614	75.06
341.842	81.06
342.07	88.06
342.298	82.06
342.526	91.06
342.754	85.06
342.981	83.06
343.209	87.06
343.437	86.06
343.665	84.06
343.893	81.06
344.12	92.06
344.348	75.06
344.576	82.06
344.804	79.06
345.031	96.06
345.259	84.06
345.487	89.06
345.714	80.06
345.942	77.06
346.17	67.06
346.397	83.06
346.625	84.06
346.853	91.06
347.08	92.06
347.308	84.06
347.535	83.06
347.763	84.06
347.99	79.06
348.218	82.06
348.445	95.06
348.673	77.06
348.9	86.06
349.128	93.06
349.355	71.06
349.583	90.06
349.81	87.06
350.037	81.06
350.265	92.06
350.492	83.06
350.72	78.06
350.947	76.06
351.174	84.06
351.402	94.06
351.629	83.06
351.856	99.06
352.083	79.06
352.311	82.06
352.538	89.06
352.765	77.06
352.992	83.06
353.22	65.06
353.447	77.06
353.674	78.06
353.901	87.06
354.128	91.06
354.355	76.06
354.583	86.06
354.81	83.06
355.037	95.06
355.264	82.06
355.491	96.06
355.718	60.06
355.945	92.06
356.172	71.06
356.399	85.06
356.626	68.06
356.853	83.06
357.08	81.06
357.307	91.06
357.534	90.06
357.761	93.06
357.988	98.06
358.215	88.06
358.441	85.06
358.668	81.06
358.895	79.06
359.122	84.06
359.349	85.06
359.576	87.06
359.802	70.06
360.029	88.06
360.256	86.06
360.483	83.06
360.709	90.06
360.936	88.06
361.163	75.06
361.39	83.06
361.616	94.06
361.843	88.06
362.07	77.06
362.296	91.06
362.523	84.06
362.749	96.06
362.976	84.06
363.203	89.06
363.429	66.06
363.656	69.06
363.882	72.06
364.109	95.06
364.335	69.06
364.562	77.06
364.788	75.06
365.015	85.06
365.241	81.06
365.468	86.06
365.694	89.06
365.92	87.06
366.147	87.06
366.373	87.06
366.599	67.06
366.826	85.06
367.052	84.06
367.278	84.06
367.505	77.06
367.731	100.06
367.957	84.06
368.184	101.06
368.41	88.06
368.636	79.06
368.862	89.06
369.089	77.06
369.315	86.06
369.541	83.06
369.767	91.06
369.993	73.06
370.219	93.06
370.445	92.06
370.672	89.06
370.898	89.06
371.124	91.06
371.35	85.06
371.576	99.06
371.802	89.06
372.028	81.06
372.254	81.06
372.48	70.06
372.706	95.06
372.932	73.06
373.158	96.06
373.384	94.06
373.61	84.06
373.835	83.06
374.061	83.06
374.287	85.06
374.513	83.06
374.739	74.06
374.965	76.06
375.191	74.06
375.416	89.06
375.642	98.06
375.868	90.06
376.094	85.06
376.319	85.06
376.545	83.06
376.771	86.06
376.997	95.06
377.222	87.06
377.448	84.06
377.674	76.06
377.899	90.06
378.125	83.06
378.35	93.06
378.576	80.06
378.802	89.06
379.027	89.06
379.253	87.06
379.478	78.06
379.704	96.06
379.929	83.06
380.155	80.06
380.38	89.06
380.606	86.06
380.831	86.06
381.057	99.06
381.282	105.06
381.507	87.06
381.733	88.06
381.958	96.06
382.184	89.06
382.409	81.06
382.634	83.06
382.86	90.06
383.085	83.06
383.31	87.06
383.535	96.06
383.761	93.06
383.986	105.06
384.211	92.06
384.436	83.06
384.662	105.06
384.887	81.06
385.112	81.06
385.337	77.06
385.562	87.06
385.787	89.06
386.013	95.06
386.238	92.06
386.463	93.06
386.688	83.06
386.913	71.06
387.138	86.06
387.363	78.06
387.588	95.06
387.813	84.06
388.038	90.06
388.263	82.06
388.488	73.06
388.713	97.06
388.938	93.06
389.163	86.06
389.387	78.06
389.612	100.06
389.837	77.06
390.062	97.06
390.287	86.06
390.512	92.06
390.736	81.06
390.961	74.06
391.186	85.06
391.411	80.06
391.636	86.06
391.86	88.06
392.085	88.06
392.31	80.06
392.534	99.06
392.759	83.06
392.984	100.06
393.208	104.06
393.433	105.06
393.658	95.06
393.882	103.06
394.107	101.06
394.331	82.06
394.556	98.06
394.78	87.06
395.005	95.06
395.229	96.06
395.454	100.06
395.678	81.06
395.903	89.06
396.127	83.06
396.352	88.06
396.576	71.06
396.801	90.06
397.025	95.06
397.249	98.06
397.474	81.06
397.698	104.06
397.922	75.06
398.147	82.06
398.371	91.06
398.595	98.06
398.82	90.06
399.044	95.06
399.268	100.06
399.492	81.06
399.717	92.06
399.941	101.06
400.165	85.06
400.389	80.06
400.613	92.06
400.837	91.06
401.062	104.06
401.286	83.06
401.51	89.06
401.734	97.06
401.958	86.06
402.182	75.06
402.406	83.06
402.63	91.06
402.854	114.06
403.078	98.06
403.302	84.06
403.526	97.06
403.75	109.06
403.974	86.06
404.198	102.06
404.422	96.06
404.645	99.06
404.869	105.06
405.093	113.06
405.317	97.06
405.541	95.06
405.765	88.06
405.988	99.06
406.212	87.06
406.436	88.06
406.66	102.06
406.883	95.06
407.107	90.06
407.331	107.06
407.555	101.06
407.778	98.06
408.002	97.06
408.226	103.06
408.449	105.06
408.673	98.06
408.896	96.06
409.12	102.06
409.344	92.06
409.567	99.06
409.791	97.06
410.014	96.06
410.238	86.06
410.461	89.06
410.685	99.06
410.908	101.06
411.132	85.06
411.355	85.06
411.578	108.06
411.802	99.06
412.025	97.06
412.249	104.06
412.472	91.06
412.695	97.06
412.919	90.06
413.142	100.06
413.365	105.06
413.589	99.06
413.812	88.06
414.035	98.06
414.258	95.06
414.482	94.06
414.705	106.06
414.928	118.06
415.151	103.06
415.374	101.06
415.597	104.06
415.821	101.06
416.044	84.06
416.267	86.06
416.49	94.06
416.713	97.06
416.936	106.06
417.159	103.06
417.382	96.06
417.605	105.06
417.828	107.06
418.051	94.06
418.274	98.06
418.497	101.06
418.72	107.06
418.943	114.06
419.166	99.06
419.389	103.06
419.611	99.06
419.834	105.06
420.057	111.06
420.28	92.06
420.503	90.06
420.726	107.06
420.948	98.06
421.171	92.06
421.394	97.06
421.617	106.06
421.839	106.06
422.062	92.06
422.285	88.06
422.507	97.06
422.73	77.06
422.953	99.06
423.175	104.06
423.398	102.06
423.621	90.06
423.843	84.06
424.066	102.06
424.288	119.06
424.511	111.06
424.733	122.06
424.956	114.06
425.178	98.06
425.401	100.06
425.623	108.06
425.846	102.06
426.068	108.06
426.291	92.06
426.513	116.06
426.735	98.06
426.958	105.06
427.18	115.06
427.402	106.06
427.625	97.06
427.847	112.06
428.069	105.06
428.292	97.06
428.514	97.06
428.736	91.06
428.958	100.06
429.181	106.06
429.403	100.06
429.625	87.06
429.847	105.06
430.069	105.06
430.292	116.06
430.514	102.06
430.736	108.06
430.958	111.06
431.18	108.06
431.402	123.06
431.624	91.06
431.846	85.06
432.068	88.06
432.29	94.06
432.512	103.06
432.734	92.06
432.956	97.06
433.178	118.06
433.4	105.06
433.622	121.06
433.844	103.06
434.066	97.06
434.287	93.06
434.509	86.06
434.731	104.06
434.953	83.06
435.175	97.06
435.397	94.06
435.618	103.06
435.84	93.06
436.062	109.06
436.284	80.06
436.505	103.06
436.727	111.06
436.949	103.06
437.17	103.06
437.392	125.06
437.614	96.06
437.835	111.06
438.057	103.06
438.278	99.06
438.5	96.06
438.721	114.06
438.943	113.06
439.165	116.06
439.386	111.06
439.608	117.06
439.829	107.06
440.05	103.06
440.272	120.06
440.493	109.06
440.715	94.06
440.936	111.06
441.158	101.06
441.379	118.06
441.6	119.06
441.822	116.06
442.043	112.06
442.264	97.06
442.486	109.06
442.707	112.06
442.928	115.06
443.149	104.06
443.371	110.06
443.592	104.06
443.813	114.06
444.034	113.06
444.255	106.06
444.476	96.06
444.698	117.06
444.919	102.06
445.14	232.06
445.361	167.06
445.582	105.06
445.803	107.06
446.024	108.06
446.245	117.06
446.466	104.06
446.687	121.06
446.908	121.06
447.129	115.06
447.35	121.06
447.571	108.06
447.792	116.06
448.013	111.06
448.234	95.06
448.455	96.06
448.675	98.06
448.896	111.06
449.117	109.06
449.338	111.06
449.559	113.06
449.779	117.06
450	99.06
450.221	107.06
450.442	111.06
450.662	100.06
450.883	105.06
451.104	108.06
451.324	98.06
451.545	109.06
451.766	103.06
451.986	107.06
452.207	97.06
452.428	106.06
452.648	93.06
452.869	92.06
453.089	84.06
453.31	97.06
453.53	101.06
453.751	100.06
453.971	91.06
454.192	95.06
454.412	98.06
454.633	107.06
454.853	95.06
455.073	102.06
455.294	112.06
455.514	105.06
455.734	98.06
455.955	102.06
456.175	99.06
456.395	88.06
456.616	100.06
456.836	113.06
457.056	92.06
457.276	103.06
457.497	102.06
457.717	92.06
457.937	92.06
458.157	99.06
458.377	91.06
458.598	73.06
458.818	76.06
459.038	74.06
459.258	94.06
459.478	100.06
459.698	73.06
459.918	89.06
460.138	96.06
460.358	91.06
460.578	88.06
460.798	95.06
461.018	87.06
461.238	91.06
461.458	102.06
461.678	105.06
461.898	91.06
462.118	106.06
462.338	83.06
462.558	100.06
462.777	99.06
462.997	96.06
463.217	99.06
463.437	98.06
463.657	92.06
463.876	93.06
464.096	87.06
464.316	97.06
464.536	83.06
464.755	81.06
464.975	105.06
465.195	104.06
465.414	96.06
465.634	92.06
465.854	93.06
466.073	100.06
466.293	105.06
466.512	105.06
466.732	98.06
466.951	102.06
467.171	108.06
467.391	104.06
467.61	104.06
467.829	105.06
468.049	100.06
468.268	108.06
468.488	108.06
468.707	117.06
468.927	84.06
469.146	107.06
469.365	106.06
469.585	108.06
469.804	92.06
470.023	112.06
470.243	111.06
470.462	119.06
470.681	116.06
470.901	104.06
471.12	114.06
471.339	104.06
471.558	108.06
471.777	97.06
471.997	100.06
472.216	116.06
472.435	90.06
472.654	73.06
472.873	87.06
473.092	87.06
473.311	98.06
473.53	100.06
473.749	99.06
473.968	113.06
474.187	98.06
474.406	94.06
474.625	112.06
474.844	99.06
475.063	99.06
475.282	100.06
475.501	98.06
475.72	105.06
475.939	107.06
476.158	94.06
476.377	90.06
476.596	101.06
476.814	91.06
477.033	84.06
477.252	90.06
477.471	87.06
477.69	108.06
477.908	109.06
478.127	97.06
478.346	107.06
478.564	103.06
478.783	121.06
479.002	96.06
479.22	99.06
479.439	108.06
479.658	101.06
479.876	91.06
480.095	94.06
480.313	93.06
480.532	105.06
480.751	89.06
480.969	88.06
481.188	87.06
481.406	98.06
481.624	87.06
481.843	90.06
482.061	91.06
482.28	92.06
482.498	89.06
482.717	103.06
482.935	105.06
483.153	117.06
483.372	121.06
483.59	123.06
483.808	108.06
484.027	114.06
484.245	108.06
484.463	106.06
484.681	112.06
484.9	105.06
485.118	113.06
485.336	93.06
485.554	84.06
485.772	87.06
485.99	88.06
486.209	69.06
486.427	104.06
486.645	104.06
486.863	113.06
487.081	121.06
487.299	108.06
487.517	119.06
487.735	116.06
487.953	133.06
488.171	127.06
488.389	109.06
488.607	125.06
488.825	120.06
489.043	108.06
489.261	111.06
489.479	125.06
489.696	112.06
489.914	120.06
490.132	113.06
490.35	121.06
490.568	124.06
490.786	137.06
491.003	125.06
491.221	133.06
491.439	130.06
491.657	131.06
491.874	148.06
492.092	175.06
492.31	148.06
492.527	153.06
492.745	141.06
492.963	140.06
493.18	135.06
493.398	133.06
493.615	130.06
493.833	123.06
494.05	124.06
494.268	118.06
494.485	117.06
494.703	119.06
494.92	127.06
495.138	118.06
495.355	128.06
495.573	122.06
495.79	119.06
496.008	123.06
496.225	127.06
496.442	112.06
496.66	118.06
496.877	124.06
497.094	115.06
497.312	120.06
497.529	115.06
497.746	104.06
497.963	103.06
498.181	100.06
498.398	97.06
498.615	88.06
498.832	104.06
499.049	100.06
499.267	105.06
499.484	104.06
499.701	99.06
499.918	95.06
500.135	111.06
500.352	106.06
500.569	101.06
500.786	118.06
501.003	104.06
501.22	112.06
501.437	111.06
501.654	117.06
501.871	91.06
502.088	99.06
502.305	116.06
502.522	111.06
502.739	101.06
502.956	102.06
503.172	105.06
503.389	96.06
503.606	97.06
503.823	95.06
504.04	123.06
504.256	103.06
504.473	85.06
504.69	91.06
504.907	98.06
505.123	99.06
505.34	105.06
505.557	98.06
505.773	93.06
505.99	95.06
506.207	98.06
506.423	100.06
506.64	115.06
506.856	110.06
507.073	99.06
507.289	108.06
507.506	113.06
507.722	91.06
507.939	86.06
508.155	98.06
508.372	99.06
508.588	100.06
508.805	74.06
509.021	97.06
509.238	86.06
509.454	78.06
509.67	90.06
509.887	91.06
510.103	84.06
510.319	79.06
510.536	96.06
510.752	95.06
510.968	87.06
511.184	82.06
511.401	83.06
511.617	92.06
511.833	91.06
512.049	87.06
512.265	99.06
512.481	75.06
512.698	96.06
512.914	82.06
513.13	88.06
513.346	93.06
513.562	90.06
513.778	91.06
513.994	90.06
514.21	95.06
514.426	88.06
514.642	91.06
514.858	81.06
515.074	88.06
515.29	85.06
515.506	93.06
515.721	83.06
515.937	91.06
516.153	79.06
516.369	64.06
516.585	88.06
516.801	80.06
517.016	92.06
517.232	84.06
517.448	87.06
517.664	88.06
517.879	95.06
518.095	96.06
518.311	83.06
518.527	95.06
518.742	86.06
518.958	80.06
519.173	103.06
519.389	93.06
519.605	85.06
519.82	82.06
520.036	85.06
520.251	77.06
520.467	93.06
520.682	87.06
520.898	94.06
521.113	94.06
521.329	88.06
521.544	90.06
521.76	66.06
521.975	90.06
522.19	96.06
522.406	81.06
522.621	88.06
522.836	100.06
523.052	96.06
523.267	87.06
523.482	114.06
523.698	94.06
523.913	103.06
524.128	89.06
524.343	100.06
524.559	102.06
524.774	95.06
524.989	95.06
525.204	97.06
525.419	94.06
525.634	108.06
525.849	100.06
526.064	84.06
526.28	93.06
526.495	95.06
526.71	71.06
526.925	85.06
527.14	76.06
527.355	82.06
527.57	98.06
527.785	83.06
527.999	82.06
528.214	121.06
528.429	76.06
528.644	105.06
528.859	99.06
529.074	123.06
529.289	114.06
529.503	127.06
529.718	107.06
529.933	106.06
530.148	98.06
530.363	87.06
530.577	85.06
530.792	84.06
531.007	76.06
531.221	72.06
531.436	87.06
531.651	77.06
531.865	79.06
532.08	83.06
532.295	101.06
532.509	77.06
532.724	85.06
532.938	88.06
533.153	69.06
533.367	99.06
533.582	104.06
533.796	110.06
534.011	96.06
534.225	90.06
534.44	69.06
534.654	81.06
534.868	91.06
535.083	100.06
535.297	96.06
535.511	81.06
535.726	95.06
535.94	92.06
536.154	97.06
536.369	89.06
536.583	84.06
536.797	78.06
537.011	81.06
537.225	74.06
537.44	84.06
537.654	99.06
537.868	82.06
538.082	88.06
538.296	99.06
538.51	82.06
538.724	94.06
538.938	116.06
539.153	99.06
539.367	107.06
539.581	98.06
539.795	97.06
540.009	96.06
540.222	95.06
540.436	90.06
540.65	98.06
540.864	106.06
541.078	109.06
541.292	119.06
541.506	121.06
541.72	120.06
541.934	139.06
542.147	132.06
542.361	115.06
542.575	123.06
542.789	117.06
543.002	106.06
543.216	111.06
543.43	84.06
543.644	102.06
543.857	118.06
544.071	121.06
544.285	118.06
544.498	131.06
544.712	117.06
544.925	119.06
545.139	127.06
545.352	121.06
545.566	116.06
545.779	122.06
545.993	109.06
546.206	130.06
546.42	123.06
546.633	132.06
546.847	120.06
547.06	124.06
547.274	115.06
547.487	129.06
547.7	121.06
547.914	127.06
548.127	125.06
548.34	103.06
548.554	127.06
548.767	116.06
548.98	136.06
549.193	121.06
549.407	123.06
549.62	111.06
549.833	113.06
550.046	114.06
550.259	129.06
550.473	113.06
550.686	123.06
550.899	125.06
551.112	101.06
551.325	106.06
551.538	104.06
551.751	115.06
551.964	102.06
552.177	103.06
552.39	112.06
552.603	119.06
552.816	101.06
553.029	106.06
553.242	118.06
553.455	120.06
553.667	111.06
553.88	108.06
554.093	119.06
554.306	129.06
554.519	106.06
554.732	118.06
554.944	111.06
555.157	117.06
555.37	99.06
555.583	98.06
555.795	121.06
556.008	97.06
556.221	107.06
556.433	99.06
556.646	117.06
556.859	108.06
557.071	123.06
557.284	119.06
557.496	116.06
557.709	106.06
557.921	119.06
558.134	122.06
558.346	111.06
558.559	107.06
558.771	115.06
558.984	103.06
559.196	119.06
559.409	110.06
559.621	102.06
559.833	84.06
560.046	101.06
560.258	95.06
560.47	120.06
560.683	104.06
560.895	105.06
561.107	115.06
561.32	100.06
561.532	102.06
561.744	101.06
561.956	100.06
562.168	103.06
562.381	118.06
562.593	102.06
562.805	100.06
563.017	103.06
563.229	107.06
563.441	102.06
563.653	86.06
563.865	93.06
564.077	91.06
564.289	103.06
564.501	108.06
564.713	113.06
564.925	97.06
565.137	92.06
565.349	94.06
565.561	99.06
565.773	114.06
565.985	106.06
566.197	97.06
566.408	101.06
566.62	96.06
566.832	94.06
567.044	97.06
567.255	88.06
567.467	97.06
567.679	93.06
567.891	91.06
568.102	102.06
568.314	77.06
568.526	84.06
568.737	99.06
568.949	91.06
569.161	78.06
569.372	90.06
569.584	91.06
569.795	86.06
570.007	85.06
570.218	89.06
570.43	82.06
570.641	89.06
570.853	82.06
571.064	95.06
571.276	97.06
571.487	87.06
571.698	92.06
571.91	97.06
572.121	107.06
572.333	88.06
572.544	104.06
572.755	90.06
572.966	86.06
573.178	84.06
573.389	92.06
573.6	83.06
573.811	81.06
574.023	89.06
574.234	75.06
574.445	103.06
574.656	82.06
574.867	79.06
575.078	98.06
575.289	93.06
575.501	82.06
575.712	83.06
575.923	79.06
576.134	80.06
576.345	90.06
576.556	94.06
576.767	74.06
576.978	96.06
577.188	83.06
577.399	99.06
577.61	89.06
577.821	91.06
578.032	74.06
578.243	81.06
578.454	94.06
578.665	90.06
578.875	84.06
579.086	80.06
579.297	83.06
579.508	80.06
579.718	83.06
579.929	78.06
580.14	84.06
580.35	81.06
580.561	88.06
580.772	90.06
580.982	99.06
581.193	72.06
581.403	92.06
581.614	83.06
581.825	84.06
582.035	76.06
582.246	77.06
582.456	89.06
582.667	88.06
582.877	84.06
583.087	83.06
583.298	80.06
583.508	90.06
583.719	80.06
583.929	87.06
584.139	72.06
584.35	84.06
584.56	88.06
584.77	72.06
584.981	70.06
585.191	74.06
585.401	76.06
585.611	82.06
585.821	79.06
586.032	97.06
586.242	81.06
586.452	78.06
586.662	91.06
586.872	83.06
587.082	87.06
587.292	91.06
587.502	88.06
587.713	80.06
587.923	76.06
588.133	89.06
588.343	88.06
588.553	82.06
588.762	89.06
588.972	95.06
589.182	82.06
589.392	88.06
589.602	84.06
589.812	77.06
590.022	94.06
590.232	74.06
590.441	74.06
590.651	75.06
590.861	71.06
591.071	81.06
591.281	77.06
591.49	81.06
591.7	75.06
591.91	82.06
592.119	84.06
592.329	84.06
592.539	86.06
592.748	88.06
592.958	94.06
593.167	89.06
593.377	82.06
593.587	92.06
593.796	79.06
594.006	84.06
594.215	92.06
594.424	87.06
594.634	63.06
594.843	69.06
595.053	82.06
595.262	89.06
595.472	87.06
595.681	84.06
595.89	94.06
596.1	85.06
596.309	97.06
596.518	93.06
596.727	103.06
596.937	87.06
597.146	82.06
597.355	98.06
597.564	82.06
597.774	85.06
597.983	87.06
598.192	88.06
598.401	84.06
598.61	77.06
598.819	95.06
599.028	77.06
599.237	86.06
599.446	89.06
599.655	93.06
599.864	89.06
600.073	92.06
600.282	93.06
600.491	75.06
600.7	76.06
600.909	77.06
601.118	98.06
601.327	90.06
601.536	104.06
601.745	102.06
601.953	96.06
602.162	69.06
602.371	74.06
602.58	81.06
602.789	99.06
602.997	92.06
603.206	101.06
603.415	100.06
603.623	97.06
603.832	101.06
604.041	95.06
604.249	97.06
604.458	91.06
604.666	81.06
604.875	93.06
605.084	77.06
605.292	86.06
605.501	87.06
605.709	100.06
605.918	83.06
606.126	98.06
606.334	104.06
606.543	94.06
606.751	98.06
606.96	96.06
607.168	105.06
607.376	89.06
607.585	104.06
607.793	96.06
608.001	97.06
608.21	87.06
608.418	97.06
608.626	82.06
608.834	95.06
609.043	103.06
609.251	100.06
609.459	100.06
609.667	91.06
609.875	101.06
610.083	99.06
610.291	105.06
610.499	86.06
610.707	93.06
610.916	98.06
611.124	93.06
611.332	91.06
611.54	99.06
611.748	95.06
611.955	94.06
612.163	93.06
612.371	92.06
612.579	87.06
612.787	102.06
612.995	95.06
613.203	102.06
613.411	99.06
613.618	98.06
613.826	100.06
614.034	97.06
614.242	93.06
614.449	89.06
614.657	94.06
614.865	96.06
615.072	102.06
615.28	108.06
615.488	113.06
615.695	92.06
615.903	103.06
616.111	107.06
616.318	109.06
616.526	91.06
616.733	91.06
616.941	99.06
617.148	96.06
617.356	96.06
617.563	101.06
617.771	100.06
617.978	92.06
618.185	104.06
618.393	98.06
618.6	86.06
618.807	107.06
619.015	95.06
619.222	90.06
619.429	97.06
619.637	99.06
619.844	107.06
620.051	91.06
620.258	86.06
620.466	93.06
620.673	97.06
620.88	94.06
621.087	100.06
621.294	101.06
621.501	91.06
621.708	94.06
621.915	83.06
622.122	89.06
622.329	114.06
622.536	81.06
622.743	111.06
622.95	91.06
623.157	103.06
623.364	97.06
623.571	107.06
623.778	103.06
623.985	97.06
624.192	95.06
624.399	85.06
624.606	90.06
624.812	86.06
625.019	86.06
625.226	95.06
625.433	97.06
625.639	88.06
625.846	90.06
626.053	96.06
626.259	98.06
626.466	92.06
626.673	75.06
626.879	76.06
627.086	92.06
627.293	73.06
627.499	93.06
627.706	96.06
627.912	89.06
628.119	86.06
628.325	95.06
628.532	101.06
628.738	100.06
628.945	97.06
629.151	89.06
629.357	92.06
629.564	94.06
629.77	92.06
629.976	91.06
630.183	93.06
630.389	81.06
630.595	91.06
630.802	83.06
631.008	93.06
631.214	84.06
631.42	89.06
631.627	73.06
631.833	74.06
632.039	85.06
632.245	91.06
632.451	95.06
632.657	90.06
632.863	97.06
633.069	83.06
633.275	91.06
633.481	80.06
633.688	75.06
633.893	100.06
634.099	98.06
634.305	83.06
634.511	103.06
634.717	100.06
634.923	85.06
635.129	85.06
635.335	92.06
635.541	98.06
635.747	92.06
635.952	74.06
636.158	117.06
636.364	91.06
636.57	92.06
636.775	84.06
636.981	93.06
637.187	94.06
637.392	94.06
637.598	92.06
637.804	91.06
638.009	94.06
638.215	93.06
638.421	94.06
638.626	87.06
638.832	101.06
639.037	89.06
639.243	98.06
639.448	87.06
639.654	106.06
639.859	95.06
640.065	89.06
640.27	81.06
640.475	85.06
640.681	75.06
640.886	83.06
641.091	92.06
641.297	81.06
641.502	88.06
641.707	68.06
641.913	91.06
642.118	95.06
642.323	76.06
642.528	72.06
642.733	87.06
642.939	99.06
643.144	89.06
643.349	87.06
643.554	93.06
643.759	82.06
643.964	83.06
644.169	103.06
644.374	88.06
644.579	78.06
644.784	96.06
644.989	98.06
645.194	83.06
645.399	95.06
645.604	89.06
645.809	101.06
646.014	93.06
646.219	97.06
646.423	84.06
646.628	92.06
646.833	80.06
647.038	96.06
647.243	80.06
647.447	100.06
647.652	101.06
647.857	83.06
648.062	87.06
648.266	83.06
648.471	93.06
648.676	89.06
648.88	82.06
649.085	80.06
649.289	88.06
649.494	74.06
649.698	100.06
649.903	89.06
650.107	91.06
650.312	96.06
650.516	79.06
650.721	87.06
650.925	81.06
651.13	88.06
651.334	95.06
651.539	95.06
651.743	95.06
651.947	101.06
652.152	89.06
652.356	79.06
652.56	93.06
652.764	89.06
652.969	92.06
653.173	97.06
653.377	95.06
653.581	88.06
653.785	85.06
653.99	85.06
654.194	68.06
654.398	78.06
654.602	87.06
654.806	84.06
655.01	85.06
655.214	87.06
655.418	98.06
655.622	92.06
655.826	84.06
656.03	83.06
656.234	84.06
656.438	88.06
656.642	80.06
656.846	72.06
657.049	89.06
657.253	81.06
657.457	84.06
657.661	93.06
657.865	91.06
658.068	76.06
658.272	80.06
658.476	83.06
658.68	78.06
658.883	108.06
659.087	81.06
659.291	85.06
659.494	83.06
659.698	71.06
659.901	85.06
660.105	80.06
660.309	82.06
660.512	87.06
660.716	90.06
660.919	87.06
661.123	92.06
661.326	84.06
661.53	77.06
661.733	82.06
661.936	73.06
662.14	86.06
662.343	85.06
662.546	78.06
662.75	87.06
662.953	89.06
663.156	84.06
663.36	92.06
663.563	92.06
663.766	81.06
663.969	83.06
664.173	86.06
664.376	62.06
664.579	82.06
664.782	80.06
664.985	79.06
665.188	81.06
665.391	82.06
665.594	76.06
665.797	77.06
666	82.06
666.203	66.06
666.406	82.06
666.609	77.06
666.812	78.06
667.015	89.06
667.218	88.06
667.421	85.06
667.624	78.06
667.827	97.06
668.03	74.06
668.232	73.06
668.435	84.06
668.638	80.06
668.841	82.06
669.043	93.06
669.246	75.06
669.449	86.06
669.651	79.06
669.854	86.06
670.057	85.06
670.259	84.06
670.462	77.06
670.665	76.06
670.867	74.06
671.07	73.06
671.272	80.06
671.475	77.06
671.677	89.06
671.88	71.06
672.082	84.06
672.284	70.06
672.487	85.06
672.689	78.06
672.892	87.06
