Data from Zn(NO3)2Standard.Agarose3%.GreenCap.LampEnergy10E.O_HRD10591_15-07-45-945.txt Node
Date: Mon Jul 22 15:07:45 EDT 2019
User: cochatt
Spectrometer: HR+D1059
Trigger mode: 1
Integration Time (sec): 1.000000E-1
Scans to average: 1
Electric dark correction enabled: true
Nonlinearity correction enabled: false
Boxcar width: 0
XAxis mode: Wavelengths
Number of Pixels in Spectrum: 2048
>>>>>Begin Spectral Data<<<<<
223.165	-19.62
223.4	-19.62
223.635	-19.62
223.869	-7.62
224.104	-24.62
224.338	-8.62
224.573	-14.62
224.808	-5.62
225.042	-5.62
225.277	-9.62
225.511	-4.62
225.746	15.38
225.98	8.38
226.215	17.38
226.449	-1.62
226.683	21.38
226.918	9.38
227.152	30.38
227.387	38.38
227.621	39.38
227.856	38.38
228.09	49.38
228.324	55.38
228.559	58.38
228.793	70.38
229.027	63.38
229.262	75.38
229.496	77.38
229.73	68.38
229.964	62.38
230.199	71.38
230.433	65.38
230.667	78.38
230.901	80.38
231.136	70.38
231.37	87.38
231.604	75.38
231.838	84.38
232.072	87.38
232.306	72.38
232.541	85.38
232.775	90.38
233.009	71.38
233.243	86.38
233.477	74.38
233.711	77.38
233.945	72.38
234.179	84.38
234.413	88.38
234.647	88.38
234.881	78.38
235.115	83.38
235.349	84.38
235.583	75.38
235.817	86.38
236.051	81.38
236.285	85.38
236.519	83.38
236.753	69.38
236.987	86.38
237.221	80.38
237.455	75.38
237.689	84.38
237.922	94.38
238.156	55.38
238.39	73.38
238.624	87.38
238.858	77.38
239.091	74.38
239.325	62.38
239.559	87.38
239.793	66.38
240.027	92.38
240.26	82.38
240.494	84.38
240.728	92.38
240.961	84.38
241.195	74.38
241.429	77.38
241.662	70.38
241.896	84.38
242.13	94.38
242.363	91.38
242.597	81.38
242.83	80.38
243.064	80.38
243.298	78.38
243.531	82.38
243.765	78.38
243.998	79.38
244.232	89.38
244.465	79.38
244.699	76.38
244.932	74.38
245.166	79.38
245.399	79.38
245.633	80.38
245.866	78.38
246.099	90.38
246.333	90.38
246.566	88.38
246.8	84.38
247.033	72.38
247.266	80.38
247.5	78.38
247.733	83.38
247.966	84.38
248.2	70.38
248.433	81.38
248.666	82.38
248.899	75.38
249.133	82.38
249.366	87.38
249.599	102.38
249.832	84.38
250.066	79.38
250.299	72.38
250.532	84.38
250.765	75.38
250.998	75.38
251.231	72.38
251.465	84.38
251.698	78.38
251.931	72.38
252.164	73.38
252.397	90.38
252.63	79.38
252.863	99.38
253.096	86.38
253.329	85.38
253.562	73.38
253.795	79.38
254.028	86.38
254.261	79.38
254.494	84.38
254.727	81.38
254.96	60.38
255.193	65.38
255.426	70.38
255.659	84.38
255.892	82.38
256.124	79.38
256.357	83.38
256.59	75.38
256.823	85.38
257.056	78.38
257.289	91.38
257.521	73.38
257.754	71.38
257.987	77.38
258.22	86.38
258.452	78.38
258.685	94.38
258.918	86.38
259.151	87.38
259.383	94.38
259.616	78.38
259.849	88.38
260.081	77.38
260.314	65.38
260.547	77.38
260.779	70.38
261.012	93.38
261.244	72.38
261.477	70.38
261.71	77.38
261.942	71.38
262.175	79.38
262.407	86.38
262.64	79.38
262.872	80.38
263.105	79.38
263.337	89.38
263.57	71.38
263.802	85.38
264.035	82.38
264.267	69.38
264.499	94.38
264.732	80.38
264.964	84.38
265.197	80.38
265.429	80.38
265.661	73.38
265.894	79.38
266.126	81.38
266.358	68.38
266.591	84.38
266.823	99.38
267.055	66.38
267.287	89.38
267.52	98.38
267.752	78.38
267.984	88.38
268.216	82.38
268.448	84.38
268.681	91.38
268.913	84.38
269.145	70.38
269.377	71.38
269.609	79.38
269.841	79.38
270.073	93.38
270.306	86.38
270.538	81.38
270.77	103.38
271.002	75.38
271.234	86.38
271.466	87.38
271.698	92.38
271.93	72.38
272.162	81.38
272.394	85.38
272.626	79.38
272.858	88.38
273.09	90.38
273.322	95.38
273.553	82.38
273.785	80.38
274.017	74.38
274.249	93.38
274.481	78.38
274.713	77.38
274.945	75.38
275.176	91.38
275.408	76.38
275.64	90.38
275.872	97.38
276.104	87.38
276.335	75.38
276.567	94.38
276.799	99.38
277.031	93.38
277.262	81.38
277.494	91.38
277.726	85.38
277.957	94.38
278.189	79.38
278.421	82.38
278.652	81.38
278.884	97.38
279.115	87.38
279.347	81.38
279.579	89.38
279.81	88.38
280.042	86.38
280.273	80.38
280.505	97.38
280.736	85.38
280.968	84.38
281.199	102.38
281.431	85.38
281.662	61.38
281.894	85.38
282.125	93.38
282.356	100.38
282.588	87.38
282.819	80.38
283.051	77.38
283.282	69.38
283.513	102.38
283.745	89.38
283.976	83.38
284.207	82.38
284.439	86.38
284.67	86.38
284.901	81.38
285.132	76.38
285.364	90.38
285.595	91.38
285.826	93.38
286.057	84.38
286.288	88.38
286.52	73.38
286.751	75.38
286.982	84.38
287.213	84.38
287.444	84.38
287.675	77.38
287.906	92.38
288.138	98.38
288.369	85.38
288.6	95.38
288.831	79.38
289.062	85.38
289.293	67.38
289.524	97.38
289.755	98.38
289.986	89.38
290.217	77.38
290.448	83.38
290.679	95.38
290.91	92.38
291.141	66.38
291.371	77.38
291.602	98.38
291.833	89.38
292.064	102.38
292.295	96.38
292.526	78.38
292.757	74.38
292.987	87.38
293.218	70.38
293.449	84.38
293.68	93.38
293.91	87.38
294.141	82.38
294.372	78.38
294.603	89.38
294.833	76.38
295.064	76.38
295.295	89.38
295.525	99.38
295.756	83.38
295.987	84.38
296.217	85.38
296.448	66.38
296.679	76.38
296.909	84.38
297.14	94.38
297.37	78.38
297.601	84.38
297.831	91.38
298.062	79.38
298.292	86.38
298.523	106.38
298.753	79.38
298.984	80.38
299.214	95.38
299.445	85.38
299.675	88.38
299.905	85.38
300.136	98.38
300.366	80.38
300.597	69.38
300.827	77.38
301.057	81.38
301.288	84.38
301.518	100.38
301.748	78.38
301.979	86.38
302.209	92.38
302.439	82.38
302.669	75.38
302.9	85.38
303.13	78.38
303.36	70.38
303.59	101.38
303.82	91.38
304.051	85.38
304.281	105.38
304.511	94.38
304.741	85.38
304.971	89.38
305.201	105.38
305.431	90.38
305.661	89.38
305.891	82.38
306.121	76.38
306.352	89.38
306.582	81.38
306.812	82.38
307.042	84.38
307.272	87.38
307.502	95.38
307.731	107.38
307.961	80.38
308.191	72.38
308.421	74.38
308.651	93.38
308.881	80.38
309.111	87.38
309.341	91.38
309.571	77.38
309.8	67.38
310.03	89.38
310.26	83.38
310.49	94.38
310.72	91.38
310.949	88.38
311.179	82.38
311.409	92.38
311.639	81.38
311.868	94.38
312.098	76.38
312.328	83.38
312.557	89.38
312.787	81.38
313.017	80.38
313.246	79.38
313.476	82.38
313.706	75.38
313.935	91.38
314.165	90.38
314.394	86.38
314.624	76.38
314.853	95.38
315.083	92.38
315.312	97.38
315.542	79.38
315.771	89.38
316.001	84.38
316.23	94.38
316.46	94.38
316.689	95.38
316.919	95.38
317.148	95.38
317.377	88.38
317.607	94.38
317.836	82.38
318.065	94.38
318.295	107.38
318.524	83.38
318.753	93.38
318.983	98.38
319.212	93.38
319.441	73.38
319.67	81.38
319.9	84.38
320.129	91.38
320.358	87.38
320.587	83.38
320.816	94.38
321.046	85.38
321.275	84.38
321.504	79.38
321.733	101.38
321.962	100.38
322.191	88.38
322.42	89.38
322.649	94.38
322.878	90.38
323.108	89.38
323.337	81.38
323.566	91.38
323.795	88.38
324.024	97.38
324.253	93.38
324.482	90.38
324.71	94.38
324.939	78.38
325.168	90.38
325.397	83.38
325.626	81.38
325.855	79.38
326.084	70.38
326.313	78.38
326.542	79.38
326.77	80.38
326.999	69.38
327.228	93.38
327.457	82.38
327.686	84.38
327.914	85.38
328.143	101.38
328.372	87.38
328.6	87.38
328.829	80.38
329.058	89.38
329.287	87.38
329.515	80.38
329.744	89.38
329.972	77.38
330.201	94.38
330.43	52.38
330.658	80.38
330.887	78.38
331.115	86.38
331.344	81.38
331.572	81.38
331.801	78.38
332.03	84.38
332.258	99.38
332.486	98.38
332.715	114.38
332.943	84.38
333.172	82.38
333.4	94.38
333.629	82.38
333.857	86.38
334.085	75.38
334.314	80.38
334.542	86.38
334.771	93.38
334.999	91.38
335.227	90.38
335.455	76.38
335.684	84.38
335.912	96.38
336.14	99.38
336.369	88.38
336.597	92.38
336.825	89.38
337.053	76.38
337.281	73.38
337.51	88.38
337.738	93.38
337.966	76.38
338.194	79.38
338.422	86.38
338.65	72.38
338.878	90.38
339.106	87.38
339.334	87.38
339.562	89.38
339.79	76.38
340.018	75.38
340.246	85.38
340.474	85.38
340.702	92.38
340.93	91.38
341.158	84.38
341.386	86.38
341.614	82.38
341.842	81.38
342.07	99.38
342.298	92.38
342.526	76.38
342.754	92.38
342.981	89.38
343.209	78.38
343.437	87.38
343.665	91.38
343.893	84.38
344.12	77.38
344.348	76.38
344.576	74.38
344.804	89.38
345.031	93.38
345.259	75.38
345.487	85.38
345.714	77.38
345.942	82.38
346.17	92.38
346.397	77.38
346.625	82.38
346.853	90.38
347.08	77.38
347.308	81.38
347.535	90.38
347.763	85.38
347.99	83.38
348.218	80.38
348.445	94.38
348.673	96.38
348.9	67.38
349.128	92.38
349.355	99.38
349.583	79.38
349.81	82.38
350.037	88.38
350.265	93.38
350.492	91.38
350.72	78.38
350.947	95.38
351.174	84.38
351.402	75.38
351.629	81.38
351.856	97.38
352.083	93.38
352.311	88.38
352.538	91.38
352.765	84.38
352.992	86.38
353.22	83.38
353.447	74.38
353.674	81.38
353.901	68.38
354.128	82.38
354.355	79.38
354.583	86.38
354.81	90.38
355.037	88.38
355.264	80.38
355.491	94.38
355.718	79.38
355.945	81.38
356.172	91.38
356.399	79.38
356.626	86.38
356.853	75.38
357.08	80.38
357.307	78.38
357.534	82.38
357.761	82.38
357.988	75.38
358.215	89.38
358.441	73.38
358.668	86.38
358.895	73.38
359.122	79.38
359.349	80.38
359.576	79.38
359.802	70.38
360.029	89.38
360.256	79.38
360.483	83.38
360.709	78.38
360.936	90.38
361.163	91.38
361.39	86.38
361.616	88.38
361.843	92.38
362.07	79.38
362.296	84.38
362.523	86.38
362.749	91.38
362.976	90.38
363.203	93.38
363.429	72.38
363.656	67.38
363.882	78.38
364.109	75.38
364.335	85.38
364.562	79.38
364.788	74.38
365.015	80.38
365.241	83.38
365.468	94.38
365.694	80.38
365.92	86.38
366.147	82.38
366.373	97.38
366.599	92.38
366.826	73.38
367.052	106.38
367.278	65.38
367.505	78.38
367.731	91.38
367.957	94.38
368.184	80.38
368.41	90.38
368.636	86.38
368.862	88.38
369.089	89.38
369.315	99.38
369.541	85.38
369.767	82.38
369.993	83.38
370.219	91.38
370.445	91.38
370.672	91.38
370.898	92.38
371.124	95.38
371.35	93.38
371.576	90.38
371.802	79.38
372.028	85.38
372.254	83.38
372.48	85.38
372.706	84.38
372.932	75.38
373.158	78.38
373.384	100.38
373.61	78.38
373.835	78.38
374.061	86.38
374.287	92.38
374.513	95.38
374.739	96.38
374.965	79.38
375.191	87.38
375.416	89.38
375.642	85.38
375.868	99.38
376.094	76.38
376.319	85.38
376.545	109.38
376.771	98.38
376.997	91.38
377.222	93.38
377.448	91.38
377.674	99.38
377.899	88.38
378.125	94.38
378.35	103.38
378.576	94.38
378.802	77.38
379.027	100.38
379.253	95.38
379.478	94.38
379.704	78.38
379.929	76.38
380.155	93.38
380.38	81.38
380.606	80.38
380.831	86.38
381.057	93.38
381.282	95.38
381.507	87.38
381.733	86.38
381.958	72.38
382.184	79.38
382.409	88.38
382.634	93.38
382.86	95.38
383.085	91.38
383.31	93.38
383.535	85.38
383.761	94.38
383.986	88.38
384.211	88.38
384.436	78.38
384.662	82.38
384.887	90.38
385.112	80.38
385.337	78.38
385.562	77.38
385.787	82.38
386.013	83.38
386.238	92.38
386.463	84.38
386.688	80.38
386.913	82.38
387.138	96.38
387.363	84.38
387.588	94.38
387.813	96.38
388.038	89.38
388.263	78.38
388.488	76.38
388.713	97.38
388.938	97.38
389.163	92.38
389.387	77.38
389.612	86.38
389.837	101.38
390.062	90.38
390.287	95.38
390.512	99.38
390.736	92.38
390.961	95.38
391.186	85.38
391.411	92.38
391.636	106.38
391.86	91.38
392.085	80.38
392.31	94.38
392.534	82.38
392.759	93.38
392.984	91.38
393.208	94.38
393.433	91.38
393.658	78.38
393.882	73.38
394.107	90.38
394.331	89.38
394.556	91.38
394.78	87.38
395.005	81.38
395.229	92.38
395.454	81.38
395.678	108.38
395.903	95.38
396.127	97.38
396.352	103.38
396.576	99.38
396.801	89.38
397.025	77.38
397.249	103.38
397.474	79.38
397.698	97.38
397.922	107.38
398.147	113.38
398.371	87.38
398.595	101.38
398.82	86.38
399.044	89.38
399.268	99.38
399.492	98.38
399.717	95.38
399.941	95.38
400.165	84.38
400.389	96.38
400.613	107.38
400.837	92.38
401.062	90.38
401.286	103.38
401.51	100.38
401.734	98.38
401.958	89.38
402.182	72.38
402.406	81.38
402.63	95.38
402.854	102.38
403.078	107.38
403.302	99.38
403.526	91.38
403.75	99.38
403.974	87.38
404.198	89.38
404.422	97.38
404.645	93.38
404.869	100.38
405.093	91.38
405.317	108.38
405.541	100.38
405.765	101.38
405.988	83.38
406.212	96.38
406.436	102.38
406.66	107.38
406.883	101.38
407.107	103.38
407.331	91.38
407.555	92.38
407.778	106.38
408.002	96.38
408.226	88.38
408.449	101.38
408.673	104.38
408.896	102.38
409.12	94.38
409.344	99.38
409.567	102.38
409.791	100.38
410.014	102.38
410.238	100.38
410.461	91.38
410.685	104.38
410.908	92.38
411.132	91.38
411.355	91.38
411.578	103.38
411.802	94.38
412.025	100.38
412.249	110.38
412.472	98.38
412.695	95.38
412.919	97.38
413.142	96.38
413.365	104.38
413.589	92.38
413.812	110.38
414.035	97.38
414.258	98.38
414.482	102.38
414.705	98.38
414.928	96.38
415.151	111.38
415.374	91.38
415.597	100.38
415.821	99.38
416.044	95.38
416.267	102.38
416.49	108.38
416.713	105.38
416.936	106.38
417.159	102.38
417.382	103.38
417.605	94.38
417.828	107.38
418.051	114.38
418.274	119.38
418.497	118.38
418.72	101.38
418.943	96.38
419.166	103.38
419.389	98.38
419.611	104.38
419.834	106.38
420.057	105.38
420.28	114.38
420.503	113.38
420.726	115.38
420.948	107.38
421.171	114.38
421.394	110.38
421.617	115.38
421.839	117.38
422.062	104.38
422.285	108.38
422.507	102.38
422.73	94.38
422.953	103.38
423.175	110.38
423.398	117.38
423.621	115.38
423.843	105.38
424.066	94.38
424.288	97.38
424.511	108.38
424.733	93.38
424.956	117.38
425.178	107.38
425.401	120.38
425.623	114.38
425.846	101.38
426.068	117.38
426.291	107.38
426.513	106.38
426.735	103.38
426.958	111.38
427.18	105.38
427.402	92.38
427.625	121.38
427.847	98.38
428.069	113.38
428.292	114.38
428.514	114.38
428.736	98.38
428.958	113.38
429.181	104.38
429.403	99.38
429.625	104.38
429.847	105.38
430.069	110.38
430.292	99.38
430.514	102.38
430.736	94.38
430.958	103.38
431.18	123.38
431.402	102.38
431.624	95.38
431.846	97.38
432.068	93.38
432.29	93.38
432.512	84.38
432.734	103.38
432.956	100.38
433.178	106.38
433.4	98.38
433.622	110.38
433.844	107.38
434.066	111.38
434.287	98.38
434.509	83.38
434.731	89.38
434.953	77.38
435.175	102.38
435.397	111.38
435.618	117.38
435.84	103.38
436.062	93.38
436.284	100.38
436.505	97.38
436.727	108.38
436.949	102.38
437.17	104.38
437.392	106.38
437.614	104.38
437.835	106.38
438.057	87.38
438.278	93.38
438.5	107.38
438.721	97.38
438.943	99.38
439.165	99.38
439.386	130.38
439.608	104.38
439.829	111.38
440.05	118.38
440.272	109.38
440.493	101.38
440.715	107.38
440.936	111.38
441.158	116.38
441.379	114.38
441.6	110.38
441.822	101.38
442.043	101.38
442.264	115.38
442.486	112.38
442.707	93.38
442.928	119.38
443.149	97.38
443.371	100.38
443.592	100.38
443.813	121.38
444.034	110.38
444.255	99.38
444.476	100.38
444.698	113.38
444.919	112.38
445.14	251.38
445.361	179.38
445.582	120.38
445.803	115.38
446.024	111.38
446.245	118.38
446.466	122.38
446.687	117.38
446.908	103.38
447.129	121.38
447.35	115.38
447.571	125.38
447.792	114.38
448.013	98.38
448.234	116.38
448.455	115.38
448.675	117.38
448.896	101.38
449.117	101.38
449.338	101.38
449.559	107.38
449.779	104.38
450	99.38
450.221	118.38
450.442	94.38
450.662	110.38
450.883	106.38
451.104	102.38
451.324	99.38
451.545	108.38
451.766	106.38
451.986	95.38
452.207	117.38
452.428	105.38
452.648	103.38
452.869	98.38
453.089	93.38
453.31	96.38
453.53	87.38
453.751	103.38
453.971	105.38
454.192	98.38
454.412	108.38
454.633	101.38
454.853	91.38
455.073	99.38
455.294	108.38
455.514	104.38
455.734	99.38
455.955	102.38
456.175	98.38
456.395	75.38
456.616	98.38
456.836	90.38
457.056	104.38
457.276	94.38
457.497	101.38
457.717	88.38
457.937	92.38
458.157	110.38
458.377	83.38
458.598	86.38
458.818	81.38
459.038	70.38
459.258	96.38
459.478	91.38
459.698	97.38
459.918	94.38
460.138	98.38
460.358	98.38
460.578	102.38
460.798	102.38
461.018	99.38
461.238	94.38
461.458	98.38
461.678	87.38
461.898	104.38
462.118	96.38
462.338	85.38
462.558	92.38
462.777	95.38
462.997	89.38
463.217	102.38
463.437	96.38
463.657	102.38
463.876	84.38
464.096	83.38
464.316	94.38
464.536	101.38
464.755	93.38
464.975	99.38
465.195	100.38
465.414	101.38
465.634	93.38
465.854	103.38
466.073	109.38
466.293	106.38
466.512	96.38
466.732	111.38
466.951	108.38
467.171	123.38
467.391	104.38
467.61	127.38
467.829	112.38
468.049	105.38
468.268	104.38
468.488	94.38
468.707	99.38
468.927	101.38
469.146	109.38
469.365	106.38
469.585	107.38
469.804	125.38
470.023	107.38
470.243	97.38
470.462	115.38
470.681	119.38
470.901	127.38
471.12	117.38
471.339	90.38
471.558	114.38
471.777	122.38
471.997	114.38
472.216	110.38
472.435	98.38
472.654	94.38
472.873	105.38
473.092	95.38
473.311	103.38
473.53	89.38
473.749	115.38
473.968	102.38
474.187	120.38
474.406	91.38
474.625	98.38
474.844	119.38
475.063	94.38
475.282	109.38
475.501	115.38
475.72	106.38
475.939	107.38
476.158	102.38
476.377	95.38
476.596	94.38
476.814	92.38
477.033	76.38
477.252	94.38
477.471	106.38
477.69	103.38
477.908	106.38
478.127	109.38
478.346	99.38
478.564	119.38
478.783	102.38
479.002	106.38
479.22	103.38
479.439	117.38
479.658	95.38
479.876	94.38
480.095	101.38
480.313	96.38
480.532	115.38
480.751	102.38
480.969	96.38
481.188	77.38
481.406	78.38
481.624	84.38
481.843	84.38
482.061	94.38
482.28	109.38
482.498	96.38
482.717	95.38
482.935	89.38
483.153	113.38
483.372	122.38
483.59	125.38
483.808	111.38
484.027	115.38
484.245	115.38
484.463	119.38
484.681	128.38
484.9	114.38
485.118	129.38
485.336	109.38
485.554	102.38
485.772	102.38
485.99	101.38
486.209	99.38
486.427	93.38
486.645	101.38
486.863	117.38
487.081	111.38
487.299	115.38
487.517	126.38
487.735	135.38
487.953	127.38
488.171	129.38
488.389	127.38
488.607	126.38
488.825	127.38
489.043	94.38
489.261	110.38
489.479	118.38
489.696	120.38
489.914	117.38
490.132	116.38
490.35	114.38
490.568	133.38
490.786	123.38
491.003	138.38
491.221	140.38
491.439	137.38
491.657	143.38
491.874	133.38
492.092	148.38
492.31	153.38
492.527	152.38
492.745	131.38
492.963	145.38
493.18	121.38
493.398	149.38
493.615	137.38
493.833	132.38
494.05	127.38
494.268	141.38
494.485	129.38
494.703	129.38
494.92	123.38
495.138	125.38
495.355	123.38
495.573	133.38
495.79	119.38
496.008	121.38
496.225	113.38
496.442	123.38
496.66	119.38
496.877	135.38
497.094	141.38
497.312	120.38
497.529	134.38
497.746	125.38
497.963	110.38
498.181	110.38
498.398	110.38
498.615	103.38
498.832	91.38
499.049	110.38
499.267	95.38
499.484	101.38
499.701	106.38
499.918	115.38
500.135	102.38
500.352	121.38
500.569	102.38
500.786	117.38
501.003	122.38
501.22	107.38
501.437	118.38
501.654	107.38
501.871	119.38
502.088	99.38
502.305	107.38
502.522	100.38
502.739	95.38
502.956	98.38
503.172	117.38
503.389	107.38
503.606	105.38
503.823	113.38
504.04	97.38
504.256	88.38
504.473	107.38
504.69	106.38
504.907	115.38
505.123	103.38
505.34	101.38
505.557	116.38
505.773	91.38
505.99	100.38
506.207	103.38
506.423	89.38
506.64	85.38
506.856	98.38
507.073	93.38
507.289	113.38
507.506	103.38
507.722	110.38
507.939	99.38
508.155	109.38
508.372	98.38
508.588	113.38
508.805	103.38
509.021	99.38
509.238	88.38
509.454	96.38
509.67	97.38
509.887	93.38
510.103	100.38
510.319	92.38
510.536	85.38
510.752	95.38
510.968	91.38
511.184	83.38
511.401	78.38
511.617	67.38
511.833	79.38
512.049	84.38
512.265	91.38
512.481	97.38
512.698	90.38
512.914	88.38
513.13	86.38
513.346	96.38
513.562	96.38
513.778	102.38
513.994	92.38
514.21	75.38
514.426	83.38
514.642	93.38
514.858	89.38
515.074	99.38
515.29	86.38
515.506	93.38
515.721	86.38
515.937	97.38
516.153	88.38
516.369	90.38
516.585	78.38
516.801	82.38
517.016	87.38
517.232	84.38
517.448	97.38
517.664	89.38
517.879	91.38
518.095	87.38
518.311	90.38
518.527	91.38
518.742	105.38
518.958	87.38
519.173	100.38
519.389	97.38
519.605	101.38
519.82	110.38
520.036	88.38
520.251	97.38
520.467	92.38
520.682	101.38
520.898	82.38
521.113	81.38
521.329	67.38
521.544	84.38
521.76	103.38
521.975	95.38
522.19	83.38
522.406	89.38
522.621	83.38
522.836	101.38
523.052	100.38
523.267	106.38
523.482	98.38
523.698	106.38
523.913	107.38
524.128	102.38
524.343	100.38
524.559	101.38
524.774	97.38
524.989	99.38
525.204	109.38
525.419	104.38
525.634	97.38
525.849	106.38
526.064	106.38
526.28	102.38
526.495	84.38
526.71	89.38
526.925	76.38
527.14	83.38
527.355	92.38
527.57	85.38
527.785	92.38
527.999	109.38
528.214	103.38
528.429	99.38
528.644	83.38
528.859	104.38
529.074	110.38
529.289	120.38
529.503	115.38
529.718	108.38
529.933	95.38
530.148	103.38
530.363	88.38
530.577	83.38
530.792	77.38
531.007	96.38
531.221	77.38
531.436	67.38
531.651	83.38
531.865	76.38
532.08	79.38
532.295	95.38
532.509	93.38
532.724	82.38
532.938	99.38
533.153	96.38
533.367	99.38
533.582	104.38
533.796	106.38
534.011	102.38
534.225	103.38
534.44	92.38
534.654	105.38
534.868	89.38
535.083	87.38
535.297	94.38
535.511	95.38
535.726	84.38
535.94	85.38
536.154	94.38
536.369	93.38
536.583	93.38
536.797	89.38
537.011	87.38
537.225	96.38
537.44	97.38
537.654	97.38
537.868	89.38
538.082	81.38
538.296	83.38
538.51	102.38
538.724	99.38
538.938	115.38
539.153	105.38
539.367	108.38
539.581	109.38
539.795	101.38
540.009	109.38
540.222	88.38
540.436	90.38
540.65	94.38
540.864	101.38
541.078	126.38
541.292	111.38
541.506	117.38
541.72	116.38
541.934	144.38
542.147	135.38
542.361	129.38
542.575	124.38
542.789	121.38
543.002	110.38
543.216	108.38
543.43	102.38
543.644	110.38
543.857	116.38
544.071	105.38
544.285	125.38
544.498	117.38
544.712	128.38
544.925	145.38
545.139	131.38
545.352	116.38
545.566	118.38
545.779	126.38
545.993	121.38
546.206	126.38
546.42	115.38
546.633	119.38
546.847	123.38
547.06	119.38
547.274	113.38
547.487	133.38
547.7	121.38
547.914	124.38
548.127	117.38
548.34	123.38
548.554	125.38
548.767	135.38
548.98	120.38
549.193	132.38
549.407	115.38
549.62	127.38
549.833	118.38
550.046	124.38
550.259	121.38
550.473	141.38
550.686	125.38
550.899	129.38
551.112	131.38
551.325	114.38
551.538	122.38
551.751	104.38
551.964	104.38
552.177	104.38
552.39	110.38
552.603	127.38
552.816	121.38
553.029	115.38
553.242	106.38
553.455	110.38
553.667	130.38
553.88	125.38
554.093	126.38
554.306	127.38
554.519	109.38
554.732	124.38
554.944	123.38
555.157	127.38
555.37	107.38
555.583	121.38
555.795	125.38
556.008	116.38
556.221	108.38
556.433	121.38
556.646	120.38
556.859	115.38
557.071	117.38
557.284	120.38
557.496	102.38
557.709	117.38
557.921	116.38
558.134	121.38
558.346	121.38
558.559	118.38
558.771	119.38
558.984	110.38
559.196	99.38
559.409	114.38
559.621	115.38
559.833	109.38
560.046	106.38
560.258	100.38
560.47	105.38
560.683	122.38
560.895	120.38
561.107	116.38
561.32	114.38
561.532	103.38
561.744	95.38
561.956	110.38
562.168	111.38
562.381	110.38
562.593	103.38
562.805	109.38
563.017	107.38
563.229	115.38
563.441	108.38
563.653	103.38
563.865	107.38
564.077	90.38
564.289	118.38
564.501	106.38
564.713	94.38
564.925	103.38
565.137	93.38
565.349	93.38
565.561	114.38
565.773	101.38
565.985	104.38
566.197	110.38
566.408	105.38
566.62	106.38
566.832	106.38
567.044	91.38
567.255	91.38
567.467	93.38
567.679	96.38
567.891	95.38
568.102	97.38
568.314	91.38
568.526	81.38
568.737	99.38
568.949	89.38
569.161	87.38
569.372	88.38
569.584	88.38
569.795	94.38
570.007	91.38
570.218	85.38
570.43	94.38
570.641	90.38
570.853	94.38
571.064	88.38
571.276	97.38
571.487	94.38
571.698	94.38
571.91	103.38
572.121	105.38
572.333	101.38
572.544	94.38
572.755	85.38
572.966	81.38
573.178	84.38
573.389	87.38
573.6	76.38
573.811	83.38
574.023	93.38
574.234	87.38
574.445	83.38
574.656	87.38
574.867	100.38
575.078	95.38
575.289	119.38
575.501	99.38
575.712	96.38
575.923	93.38
576.134	110.38
576.345	90.38
576.556	88.38
576.767	94.38
576.978	102.38
577.188	106.38
577.399	91.38
577.61	94.38
577.821	78.38
578.032	94.38
578.243	80.38
578.454	88.38
578.665	88.38
578.875	83.38
579.086	87.38
579.297	92.38
579.508	86.38
579.718	86.38
579.929	97.38
580.14	94.38
580.35	83.38
580.561	78.38
580.772	99.38
580.982	105.38
581.193	93.38
581.403	93.38
581.614	92.38
581.825	92.38
582.035	93.38
582.246	90.38
582.456	89.38
582.667	87.38
582.877	93.38
583.087	98.38
583.298	89.38
583.508	80.38
583.719	85.38
583.929	93.38
584.139	77.38
584.35	89.38
584.56	86.38
584.77	76.38
584.981	91.38
585.191	74.38
585.401	81.38
585.611	93.38
585.821	91.38
586.032	82.38
586.242	86.38
586.452	86.38
586.662	90.38
586.872	80.38
587.082	83.38
587.292	72.38
587.502	82.38
587.713	85.38
587.923	80.38
588.133	87.38
588.343	85.38
588.553	88.38
588.762	104.38
588.972	78.38
589.182	85.38
589.392	75.38
589.602	85.38
589.812	83.38
590.022	86.38
590.232	86.38
590.441	91.38
590.651	86.38
590.861	79.38
591.071	83.38
591.281	93.38
591.49	77.38
591.7	92.38
591.91	100.38
592.119	78.38
592.329	86.38
592.539	76.38
592.748	83.38
592.958	82.38
593.167	87.38
593.377	96.38
593.587	105.38
593.796	88.38
594.006	83.38
594.215	80.38
594.424	91.38
594.634	85.38
594.843	91.38
595.053	90.38
595.262	88.38
595.472	84.38
595.681	84.38
595.89	91.38
596.1	91.38
596.309	80.38
596.518	84.38
596.727	116.38
596.937	104.38
597.146	99.38
597.355	103.38
597.564	92.38
597.774	83.38
597.983	85.38
598.192	79.38
598.401	80.38
598.61	77.38
598.819	77.38
599.028	79.38
599.237	98.38
599.446	95.38
599.655	93.38
599.864	83.38
600.073	95.38
600.282	96.38
600.491	85.38
600.7	89.38
600.909	76.38
601.118	81.38
601.327	96.38
601.536	100.38
601.745	88.38
601.953	99.38
602.162	90.38
602.371	88.38
602.58	87.38
602.789	110.38
602.997	93.38
603.206	103.38
603.415	100.38
603.623	90.38
603.832	102.38
604.041	109.38
604.249	103.38
604.458	72.38
604.666	82.38
604.875	99.38
605.084	87.38
605.292	101.38
605.501	100.38
605.709	81.38
605.918	98.38
606.126	86.38
606.334	94.38
606.543	96.38
606.751	94.38
606.96	98.38
607.168	99.38
607.376	90.38
607.585	102.38
607.793	90.38
608.001	98.38
608.21	108.38
608.418	89.38
608.626	97.38
608.834	113.38
609.043	87.38
609.251	107.38
609.459	94.38
609.667	97.38
609.875	85.38
610.083	88.38
610.291	108.38
610.499	110.38
610.707	102.38
610.916	92.38
611.124	89.38
611.332	85.38
611.54	94.38
611.748	84.38
611.955	114.38
612.163	85.38
612.371	86.38
612.579	93.38
612.787	99.38
612.995	107.38
613.203	95.38
613.411	97.38
613.618	101.38
613.826	102.38
614.034	91.38
614.242	97.38
614.449	93.38
614.657	100.38
614.865	103.38
615.072	107.38
615.28	104.38
615.488	99.38
615.695	101.38
615.903	98.38
616.111	99.38
616.318	103.38
616.526	92.38
616.733	91.38
616.941	105.38
617.148	90.38
617.356	98.38
617.563	96.38
617.771	83.38
617.978	71.38
618.185	100.38
618.393	110.38
618.6	105.38
618.807	90.38
619.015	92.38
619.222	87.38
619.429	97.38
619.637	97.38
619.844	91.38
620.051	99.38
620.258	106.38
620.466	97.38
620.673	97.38
620.88	99.38
621.087	93.38
621.294	105.38
621.501	88.38
621.708	87.38
621.915	101.38
622.122	93.38
622.329	89.38
622.536	96.38
622.743	86.38
622.95	87.38
623.157	85.38
623.364	92.38
623.571	87.38
623.778	95.38
623.985	95.38
624.192	87.38
624.399	82.38
624.606	109.38
624.812	98.38
625.019	94.38
625.226	99.38
625.433	99.38
625.639	84.38
625.846	96.38
626.053	90.38
626.259	73.38
626.466	82.38
626.673	74.38
626.879	96.38
627.086	99.38
627.293	98.38
627.499	92.38
627.706	107.38
627.912	81.38
628.119	96.38
628.325	99.38
628.532	105.38
628.738	103.38
628.945	93.38
629.151	92.38
629.357	92.38
629.564	91.38
629.77	95.38
629.976	105.38
630.183	94.38
630.389	94.38
630.595	100.38
630.802	101.38
631.008	90.38
631.214	91.38
631.42	97.38
631.627	71.38
631.833	94.38
632.039	86.38
632.245	91.38
632.451	96.38
632.657	104.38
632.863	96.38
633.069	86.38
633.275	95.38
633.481	74.38
633.688	76.38
633.893	91.38
634.099	96.38
634.305	90.38
634.511	98.38
634.717	98.38
634.923	101.38
635.129	93.38
635.335	75.38
635.541	90.38
635.747	92.38
635.952	82.38
636.158	93.38
636.364	110.38
636.57	83.38
636.775	89.38
636.981	88.38
637.187	85.38
637.392	99.38
637.598	88.38
637.804	102.38
638.009	92.38
638.215	97.38
638.421	114.38
638.626	86.38
638.832	87.38
639.037	88.38
639.243	82.38
639.448	85.38
639.654	101.38
639.859	101.38
640.065	90.38
640.27	100.38
640.475	79.38
640.681	98.38
640.886	92.38
641.091	92.38
641.297	92.38
641.502	90.38
641.707	99.38
641.913	96.38
642.118	90.38
642.323	88.38
642.528	85.38
642.733	89.38
642.939	95.38
643.144	85.38
643.349	86.38
643.554	96.38
643.759	93.38
643.964	79.38
644.169	110.38
644.374	100.38
644.579	90.38
644.784	85.38
644.989	98.38
645.194	94.38
645.399	84.38
645.604	88.38
645.809	94.38
646.014	83.38
646.219	92.38
646.423	104.38
646.628	86.38
646.833	89.38
647.038	88.38
647.243	97.38
647.447	100.38
647.652	90.38
647.857	105.38
648.062	94.38
648.266	85.38
648.471	97.38
648.676	92.38
648.88	92.38
649.085	85.38
649.289	79.38
649.494	103.38
649.698	84.38
649.903	106.38
650.107	100.38
650.312	85.38
650.516	87.38
650.721	107.38
650.925	100.38
651.13	88.38
651.334	88.38
651.539	81.38
651.743	93.38
651.947	70.38
652.152	74.38
652.356	74.38
652.56	79.38
652.764	88.38
652.969	82.38
653.173	90.38
653.377	84.38
653.581	89.38
653.785	77.38
653.99	91.38
654.194	81.38
654.398	80.38
654.602	92.38
654.806	84.38
655.01	89.38
655.214	84.38
655.418	88.38
655.622	86.38
655.826	89.38
656.03	97.38
656.234	82.38
656.438	94.38
656.642	94.38
656.846	78.38
657.049	79.38
657.253	80.38
657.457	85.38
657.661	90.38
657.865	87.38
658.068	90.38
658.272	91.38
658.476	91.38
658.68	73.38
658.883	80.38
659.087	81.38
659.291	82.38
659.494	90.38
659.698	89.38
659.901	87.38
660.105	81.38
660.309	92.38
660.512	78.38
660.716	79.38
660.919	87.38
661.123	98.38
661.326	87.38
661.53	83.38
661.733	86.38
661.936	105.38
662.14	86.38
662.343	79.38
662.546	60.38
662.75	82.38
662.953	94.38
663.156	79.38
663.36	87.38
663.563	81.38
663.766	71.38
663.969	85.38
664.173	86.38
664.376	83.38
664.579	87.38
664.782	87.38
664.985	79.38
665.188	85.38
665.391	86.38
665.594	71.38
665.797	74.38
666	81.38
666.203	74.38
666.406	73.38
666.609	76.38
666.812	83.38
667.015	77.38
667.218	82.38
667.421	75.38
667.624	73.38
667.827	84.38
668.03	94.38
668.232	67.38
668.435	82.38
668.638	66.38
668.841	86.38
669.043	90.38
669.246	87.38
669.449	74.38
669.651	81.38
669.854	74.38
670.057	82.38
670.259	79.38
670.462	76.38
670.665	88.38
670.867	86.38
671.07	80.38
671.272	78.38
671.475	89.38
671.677	77.38
671.88	75.38
672.082	85.38
672.284	97.38
672.487	79.38
672.689	93.38
672.892	86.38
