Data from Zn(NO3)2Standard.Agarose3%.GreenCap.LampEnergy10E.O_HRD10591_15-07-24-944.txt Node
Date: Mon Jul 22 15:07:24 EDT 2019
User: cochatt
Spectrometer: HR+D1059
Trigger mode: 1
Integration Time (sec): 1.000000E-1
Scans to average: 1
Electric dark correction enabled: true
Nonlinearity correction enabled: false
Boxcar width: 0
XAxis mode: Wavelengths
Number of Pixels in Spectrum: 2048
>>>>>Begin Spectral Data<<<<<
223.165	-21.62
223.4	-21.62
223.635	-21.62
223.869	-9.62
224.104	-16.62
224.338	-18.62
224.573	-28.62
224.808	-2.62
225.042	-6.62
225.277	0.38
225.511	-10.62
225.746	4.38
225.98	20.38
226.215	9.38
226.449	10.38
226.683	14.38
226.918	27.38
227.152	28.38
227.387	42.38
227.621	31.38
227.856	36.38
228.09	41.38
228.324	48.38
228.559	46.38
228.793	63.38
229.027	47.38
229.262	65.38
229.496	64.38
229.73	76.38
229.964	64.38
230.199	69.38
230.433	96.38
230.667	82.38
230.901	68.38
231.136	82.38
231.37	83.38
231.604	82.38
231.838	87.38
232.072	82.38
232.306	84.38
232.541	86.38
232.775	84.38
233.009	88.38
233.243	82.38
233.477	91.38
233.711	83.38
233.945	81.38
234.179	75.38
234.413	62.38
234.647	94.38
234.881	76.38
235.115	93.38
235.349	85.38
235.583	83.38
235.817	75.38
236.051	69.38
236.285	67.38
236.519	78.38
236.753	81.38
236.987	77.38
237.221	66.38
237.455	85.38
237.689	81.38
237.922	91.38
238.156	79.38
238.39	68.38
238.624	83.38
238.858	89.38
239.091	72.38
239.325	78.38
239.559	71.38
239.793	94.38
240.027	85.38
240.26	69.38
240.494	80.38
240.728	78.38
240.961	60.38
241.195	89.38
241.429	79.38
241.662	75.38
241.896	76.38
242.13	84.38
242.363	85.38
242.597	88.38
242.83	63.38
243.064	71.38
243.298	74.38
243.531	69.38
243.765	88.38
243.998	65.38
244.232	77.38
244.465	77.38
244.699	56.38
244.932	75.38
245.166	89.38
245.399	77.38
245.633	77.38
245.866	92.38
246.099	81.38
246.333	98.38
246.566	78.38
246.8	76.38
247.033	66.38
247.266	85.38
247.5	76.38
247.733	88.38
247.966	80.38
248.2	80.38
248.433	73.38
248.666	92.38
248.899	67.38
249.133	76.38
249.366	81.38
249.599	72.38
249.832	76.38
250.066	83.38
250.299	84.38
250.532	98.38
250.765	88.38
250.998	85.38
251.231	80.38
251.465	82.38
251.698	83.38
251.931	84.38
252.164	82.38
252.397	90.38
252.63	92.38
252.863	83.38
253.096	82.38
253.329	74.38
253.562	87.38
253.795	68.38
254.028	84.38
254.261	84.38
254.494	88.38
254.727	83.38
254.96	84.38
255.193	78.38
255.426	80.38
255.659	72.38
255.892	74.38
256.124	70.38
256.357	73.38
256.59	79.38
256.823	88.38
257.056	86.38
257.289	78.38
257.521	83.38
257.754	84.38
257.987	76.38
258.22	83.38
258.452	89.38
258.685	83.38
258.918	77.38
259.151	78.38
259.383	85.38
259.616	68.38
259.849	79.38
260.081	76.38
260.314	79.38
260.547	71.38
260.779	91.38
261.012	93.38
261.244	88.38
261.477	79.38
261.71	81.38
261.942	78.38
262.175	93.38
262.407	86.38
262.64	97.38
262.872	69.38
263.105	75.38
263.337	75.38
263.57	73.38
263.802	79.38
264.035	68.38
264.267	76.38
264.499	82.38
264.732	100.38
264.964	83.38
265.197	80.38
265.429	66.38
265.661	79.38
265.894	67.38
266.126	98.38
266.358	75.38
266.591	86.38
266.823	96.38
267.055	77.38
267.287	73.38
267.52	76.38
267.752	85.38
267.984	78.38
268.216	97.38
268.448	90.38
268.681	80.38
268.913	85.38
269.145	88.38
269.377	88.38
269.609	84.38
269.841	81.38
270.073	78.38
270.306	75.38
270.538	90.38
270.77	85.38
271.002	70.38
271.234	92.38
271.466	90.38
271.698	91.38
271.93	76.38
272.162	88.38
272.394	86.38
272.626	89.38
272.858	91.38
273.09	81.38
273.322	76.38
273.553	82.38
273.785	82.38
274.017	87.38
274.249	84.38
274.481	91.38
274.713	74.38
274.945	90.38
275.176	84.38
275.408	89.38
275.64	83.38
275.872	74.38
276.104	82.38
276.335	83.38
276.567	85.38
276.799	88.38
277.031	83.38
277.262	72.38
277.494	73.38
277.726	77.38
277.957	93.38
278.189	85.38
278.421	77.38
278.652	76.38
278.884	76.38
279.115	68.38
279.347	88.38
279.579	92.38
279.81	79.38
280.042	85.38
280.273	87.38
280.505	93.38
280.736	86.38
280.968	80.38
281.199	95.38
281.431	91.38
281.662	73.38
281.894	84.38
282.125	67.38
282.356	82.38
282.588	83.38
282.819	82.38
283.051	95.38
283.282	86.38
283.513	75.38
283.745	100.38
283.976	78.38
284.207	85.38
284.439	78.38
284.67	84.38
284.901	85.38
285.132	79.38
285.364	94.38
285.595	110.38
285.826	71.38
286.057	92.38
286.288	77.38
286.52	97.38
286.751	84.38
286.982	93.38
287.213	105.38
287.444	93.38
287.675	93.38
287.906	93.38
288.138	78.38
288.369	84.38
288.6	84.38
288.831	88.38
289.062	82.38
289.293	92.38
289.524	90.38
289.755	91.38
289.986	88.38
290.217	87.38
290.448	91.38
290.679	88.38
290.91	94.38
291.141	92.38
291.371	99.38
291.602	86.38
291.833	79.38
292.064	85.38
292.295	99.38
292.526	86.38
292.757	86.38
292.987	86.38
293.218	73.38
293.449	96.38
293.68	86.38
293.91	99.38
294.141	86.38
294.372	72.38
294.603	84.38
294.833	94.38
295.064	88.38
295.295	87.38
295.525	97.38
295.756	80.38
295.987	83.38
296.217	86.38
296.448	69.38
296.679	85.38
296.909	92.38
297.14	78.38
297.37	76.38
297.601	81.38
297.831	85.38
298.062	87.38
298.292	84.38
298.523	89.38
298.753	77.38
298.984	79.38
299.214	75.38
299.445	85.38
299.675	89.38
299.905	98.38
300.136	83.38
300.366	85.38
300.597	88.38
300.827	84.38
301.057	71.38
301.288	100.38
301.518	84.38
301.748	87.38
301.979	99.38
302.209	82.38
302.439	87.38
302.669	97.38
302.9	73.38
303.13	85.38
303.36	85.38
303.59	87.38
303.82	84.38
304.051	97.38
304.281	85.38
304.511	88.38
304.741	91.38
304.971	77.38
305.201	96.38
305.431	78.38
305.661	81.38
305.891	72.38
306.121	109.38
306.352	112.38
306.582	90.38
306.812	77.38
307.042	76.38
307.272	85.38
307.502	89.38
307.731	77.38
307.961	91.38
308.191	89.38
308.421	77.38
308.651	67.38
308.881	92.38
309.111	94.38
309.341	82.38
309.571	89.38
309.8	78.38
310.03	93.38
310.26	82.38
310.49	86.38
310.72	81.38
310.949	80.38
311.179	93.38
311.409	80.38
311.639	77.38
311.868	92.38
312.098	85.38
312.328	84.38
312.557	92.38
312.787	96.38
313.017	95.38
313.246	94.38
313.476	89.38
313.706	74.38
313.935	79.38
314.165	77.38
314.394	84.38
314.624	82.38
314.853	81.38
315.083	84.38
315.312	87.38
315.542	84.38
315.771	93.38
316.001	71.38
316.23	100.38
316.46	88.38
316.689	79.38
316.919	74.38
317.148	81.38
317.377	72.38
317.607	81.38
317.836	91.38
318.065	88.38
318.295	74.38
318.524	79.38
318.753	91.38
318.983	86.38
319.212	96.38
319.441	92.38
319.67	74.38
319.9	81.38
320.129	88.38
320.358	94.38
320.587	77.38
320.816	91.38
321.046	80.38
321.275	98.38
321.504	89.38
321.733	90.38
321.962	82.38
322.191	92.38
322.42	85.38
322.649	77.38
322.878	69.38
323.108	85.38
323.337	108.38
323.566	98.38
323.795	73.38
324.024	97.38
324.253	74.38
324.482	73.38
324.71	84.38
324.939	87.38
325.168	68.38
325.397	78.38
325.626	85.38
325.855	85.38
326.084	82.38
326.313	88.38
326.542	85.38
326.77	88.38
326.999	80.38
327.228	94.38
327.457	101.38
327.686	86.38
327.914	76.38
328.143	86.38
328.372	85.38
328.6	85.38
328.829	74.38
329.058	90.38
329.287	82.38
329.515	77.38
329.744	90.38
329.972	78.38
330.201	90.38
330.43	89.38
330.658	91.38
330.887	85.38
331.115	86.38
331.344	86.38
331.572	82.38
331.801	82.38
332.03	77.38
332.258	79.38
332.486	70.38
332.715	81.38
332.943	84.38
333.172	84.38
333.4	85.38
333.629	97.38
333.857	82.38
334.085	77.38
334.314	85.38
334.542	82.38
334.771	97.38
334.999	95.38
335.227	89.38
335.455	73.38
335.684	92.38
335.912	85.38
336.14	93.38
336.369	82.38
336.597	90.38
336.825	82.38
337.053	89.38
337.281	83.38
337.51	81.38
337.738	101.38
337.966	83.38
338.194	80.38
338.422	83.38
338.65	82.38
338.878	91.38
339.106	77.38
339.334	71.38
339.562	97.38
339.79	88.38
340.018	86.38
340.246	83.38
340.474	80.38
340.702	100.38
340.93	92.38
341.158	93.38
341.386	83.38
341.614	90.38
341.842	91.38
342.07	78.38
342.298	94.38
342.526	69.38
342.754	84.38
342.981	89.38
343.209	81.38
343.437	89.38
343.665	87.38
343.893	94.38
344.12	80.38
344.348	92.38
344.576	83.38
344.804	75.38
345.031	84.38
345.259	81.38
345.487	96.38
345.714	91.38
345.942	86.38
346.17	83.38
346.397	72.38
346.625	91.38
346.853	89.38
347.08	92.38
347.308	72.38
347.535	70.38
347.763	91.38
347.99	89.38
348.218	80.38
348.445	104.38
348.673	75.38
348.9	84.38
349.128	83.38
349.355	89.38
349.583	88.38
349.81	78.38
350.037	80.38
350.265	82.38
350.492	84.38
350.72	78.38
350.947	82.38
351.174	88.38
351.402	78.38
351.629	85.38
351.856	73.38
352.083	74.38
352.311	88.38
352.538	73.38
352.765	78.38
352.992	98.38
353.22	86.38
353.447	86.38
353.674	101.38
353.901	83.38
354.128	89.38
354.355	76.38
354.583	74.38
354.81	75.38
355.037	84.38
355.264	81.38
355.491	76.38
355.718	88.38
355.945	74.38
356.172	88.38
356.399	76.38
356.626	82.38
356.853	77.38
357.08	82.38
357.307	82.38
357.534	86.38
357.761	92.38
357.988	82.38
358.215	89.38
358.441	84.38
358.668	77.38
358.895	98.38
359.122	78.38
359.349	82.38
359.576	64.38
359.802	70.38
360.029	80.38
360.256	74.38
360.483	84.38
360.709	82.38
360.936	78.38
361.163	81.38
361.39	82.38
361.616	70.38
361.843	91.38
362.07	83.38
362.296	73.38
362.523	85.38
362.749	73.38
362.976	90.38
363.203	92.38
363.429	86.38
363.656	69.38
363.882	94.38
364.109	78.38
364.335	92.38
364.562	74.38
364.788	80.38
365.015	78.38
365.241	75.38
365.468	84.38
365.694	83.38
365.92	81.38
366.147	82.38
366.373	77.38
366.599	80.38
366.826	88.38
367.052	73.38
367.278	84.38
367.505	81.38
367.731	99.38
367.957	84.38
368.184	78.38
368.41	96.38
368.636	82.38
368.862	98.38
369.089	100.38
369.315	84.38
369.541	84.38
369.767	83.38
369.993	83.38
370.219	89.38
370.445	103.38
370.672	86.38
370.898	69.38
371.124	90.38
371.35	83.38
371.576	84.38
371.802	84.38
372.028	88.38
372.254	86.38
372.48	86.38
372.706	81.38
372.932	75.38
373.158	78.38
373.384	89.38
373.61	73.38
373.835	84.38
374.061	92.38
374.287	89.38
374.513	84.38
374.739	85.38
374.965	89.38
375.191	89.38
375.416	104.38
375.642	86.38
375.868	96.38
376.094	95.38
376.319	93.38
376.545	82.38
376.771	89.38
376.997	96.38
377.222	80.38
377.448	85.38
377.674	81.38
377.899	91.38
378.125	91.38
378.35	98.38
378.576	83.38
378.802	91.38
379.027	89.38
379.253	96.38
379.478	85.38
379.704	84.38
379.929	85.38
380.155	84.38
380.38	93.38
380.606	101.38
380.831	101.38
381.057	91.38
381.282	87.38
381.507	74.38
381.733	94.38
381.958	90.38
382.184	86.38
382.409	93.38
382.634	90.38
382.86	74.38
383.085	93.38
383.31	83.38
383.535	101.38
383.761	89.38
383.986	84.38
384.211	71.38
384.436	87.38
384.662	88.38
384.887	83.38
385.112	72.38
385.337	93.38
385.562	88.38
385.787	86.38
386.013	104.38
386.238	82.38
386.463	86.38
386.688	94.38
386.913	84.38
387.138	88.38
387.363	88.38
387.588	99.38
387.813	89.38
388.038	73.38
388.263	90.38
388.488	80.38
388.713	81.38
388.938	94.38
389.163	96.38
389.387	107.38
389.612	84.38
389.837	92.38
390.062	97.38
390.287	101.38
390.512	105.38
390.736	88.38
390.961	91.38
391.186	99.38
391.411	87.38
391.636	84.38
391.86	93.38
392.085	104.38
392.31	101.38
392.534	89.38
392.759	85.38
392.984	90.38
393.208	91.38
393.433	91.38
393.658	104.38
393.882	93.38
394.107	94.38
394.331	81.38
394.556	80.38
394.78	100.38
395.005	102.38
395.229	100.38
395.454	99.38
395.678	85.38
395.903	86.38
396.127	103.38
396.352	91.38
396.576	93.38
396.801	89.38
397.025	95.38
397.249	92.38
397.474	84.38
397.698	77.38
397.922	93.38
398.147	88.38
398.371	93.38
398.595	92.38
398.82	98.38
399.044	97.38
399.268	88.38
399.492	91.38
399.717	92.38
399.941	99.38
400.165	100.38
400.389	84.38
400.613	84.38
400.837	86.38
401.062	90.38
401.286	103.38
401.51	114.38
401.734	96.38
401.958	99.38
402.182	89.38
402.406	112.38
402.63	91.38
402.854	88.38
403.078	96.38
403.302	85.38
403.526	79.38
403.75	96.38
403.974	78.38
404.198	89.38
404.422	99.38
404.645	90.38
404.869	90.38
405.093	89.38
405.317	105.38
405.541	98.38
405.765	100.38
405.988	102.38
406.212	107.38
406.436	110.38
406.66	101.38
406.883	107.38
407.107	87.38
407.331	90.38
407.555	90.38
407.778	102.38
408.002	102.38
408.226	87.38
408.449	88.38
408.673	107.38
408.896	106.38
409.12	93.38
409.344	115.38
409.567	108.38
409.791	96.38
410.014	93.38
410.238	99.38
410.461	91.38
410.685	97.38
410.908	94.38
411.132	111.38
411.355	99.38
411.578	99.38
411.802	103.38
412.025	87.38
412.249	96.38
412.472	84.38
412.695	113.38
412.919	101.38
413.142	93.38
413.365	99.38
413.589	92.38
413.812	112.38
414.035	99.38
414.258	95.38
414.482	93.38
414.705	112.38
414.928	100.38
415.151	97.38
415.374	98.38
415.597	96.38
415.821	104.38
416.044	84.38
416.267	99.38
416.49	95.38
416.713	97.38
416.936	108.38
417.159	93.38
417.382	86.38
417.605	102.38
417.828	112.38
418.051	100.38
418.274	98.38
418.497	101.38
418.72	108.38
418.943	99.38
419.166	121.38
419.389	99.38
419.611	99.38
419.834	101.38
420.057	92.38
420.28	110.38
420.503	109.38
420.726	124.38
420.948	102.38
421.171	106.38
421.394	115.38
421.617	97.38
421.839	112.38
422.062	106.38
422.285	109.38
422.507	98.38
422.73	96.38
422.953	105.38
423.175	108.38
423.398	116.38
423.621	102.38
423.843	107.38
424.066	122.38
424.288	101.38
424.511	114.38
424.733	112.38
424.956	104.38
425.178	114.38
425.401	108.38
425.623	101.38
425.846	102.38
426.068	110.38
426.291	115.38
426.513	107.38
426.735	121.38
426.958	114.38
427.18	109.38
427.402	98.38
427.625	114.38
427.847	100.38
428.069	108.38
428.292	108.38
428.514	122.38
428.736	115.38
428.958	98.38
429.181	98.38
429.403	88.38
429.625	107.38
429.847	88.38
430.069	118.38
430.292	112.38
430.514	113.38
430.736	96.38
430.958	105.38
431.18	109.38
431.402	90.38
431.624	92.38
431.846	92.38
432.068	104.38
432.29	82.38
432.512	93.38
432.734	109.38
432.956	109.38
433.178	105.38
433.4	108.38
433.622	120.38
433.844	112.38
434.066	105.38
434.287	100.38
434.509	92.38
434.731	80.38
434.953	83.38
435.175	98.38
435.397	97.38
435.618	94.38
435.84	121.38
436.062	102.38
436.284	116.38
436.505	107.38
436.727	109.38
436.949	101.38
437.17	99.38
437.392	109.38
437.614	114.38
437.835	107.38
438.057	87.38
438.278	92.38
438.5	96.38
438.721	109.38
438.943	119.38
439.165	106.38
439.386	104.38
439.608	112.38
439.829	114.38
440.05	107.38
440.272	115.38
440.493	114.38
440.715	104.38
440.936	100.38
441.158	116.38
441.379	106.38
441.6	110.38
441.822	106.38
442.043	100.38
442.264	98.38
442.486	112.38
442.707	105.38
442.928	102.38
443.149	101.38
443.371	104.38
443.592	93.38
443.813	103.38
444.034	105.38
444.255	114.38
444.476	108.38
444.698	93.38
444.919	110.38
445.14	235.38
445.361	171.38
445.582	99.38
445.803	110.38
446.024	103.38
446.245	114.38
446.466	120.38
446.687	118.38
446.908	117.38
447.129	118.38
447.35	120.38
447.571	116.38
447.792	109.38
448.013	105.38
448.234	107.38
448.455	105.38
448.675	116.38
448.896	118.38
449.117	120.38
449.338	104.38
449.559	102.38
449.779	107.38
450	120.38
450.221	114.38
450.442	111.38
450.662	101.38
450.883	102.38
451.104	112.38
451.324	100.38
451.545	97.38
451.766	98.38
451.986	105.38
452.207	99.38
452.428	108.38
452.648	91.38
452.869	99.38
453.089	97.38
453.31	101.38
453.53	89.38
453.751	104.38
453.971	103.38
454.192	87.38
454.412	91.38
454.633	112.38
454.853	89.38
455.073	85.38
455.294	77.38
455.514	102.38
455.734	98.38
455.955	106.38
456.175	105.38
456.395	89.38
456.616	90.38
456.836	82.38
457.056	103.38
457.276	88.38
457.497	109.38
457.717	101.38
457.937	96.38
458.157	87.38
458.377	91.38
458.598	94.38
458.818	98.38
459.038	84.38
459.258	83.38
459.478	92.38
459.698	83.38
459.918	90.38
460.138	97.38
460.358	99.38
460.578	95.38
460.798	93.38
461.018	101.38
461.238	90.38
461.458	109.38
461.678	100.38
461.898	85.38
462.118	109.38
462.338	99.38
462.558	104.38
462.777	78.38
462.997	92.38
463.217	103.38
463.437	84.38
463.657	101.38
463.876	113.38
464.096	110.38
464.316	97.38
464.536	94.38
464.755	89.38
464.975	106.38
465.195	86.38
465.414	108.38
465.634	91.38
465.854	107.38
466.073	107.38
466.293	93.38
466.512	101.38
466.732	82.38
466.951	100.38
467.171	98.38
467.391	112.38
467.61	115.38
467.829	105.38
468.049	111.38
468.268	103.38
468.488	101.38
468.707	113.38
468.927	108.38
469.146	121.38
469.365	110.38
469.585	106.38
469.804	108.38
470.023	101.38
470.243	101.38
470.462	121.38
470.681	110.38
470.901	103.38
471.12	114.38
471.339	112.38
471.558	104.38
471.777	107.38
471.997	112.38
472.216	107.38
472.435	109.38
472.654	100.38
472.873	88.38
473.092	88.38
473.311	89.38
473.53	106.38
473.749	98.38
473.968	106.38
474.187	93.38
474.406	96.38
474.625	98.38
474.844	108.38
475.063	99.38
475.282	114.38
475.501	98.38
475.72	109.38
475.939	104.38
476.158	116.38
476.377	110.38
476.596	116.38
476.814	107.38
477.033	102.38
477.252	107.38
477.471	124.38
477.69	126.38
477.908	125.38
478.127	89.38
478.346	117.38
478.564	110.38
478.783	85.38
479.002	99.38
479.22	107.38
479.439	116.38
479.658	95.38
479.876	91.38
480.095	103.38
480.313	116.38
480.532	89.38
480.751	95.38
480.969	92.38
481.188	90.38
481.406	91.38
481.624	96.38
481.843	92.38
482.061	93.38
482.28	92.38
482.498	88.38
482.717	73.38
482.935	84.38
483.153	122.38
483.372	120.38
483.59	119.38
483.808	112.38
484.027	117.38
484.245	113.38
484.463	118.38
484.681	122.38
484.9	122.38
485.118	125.38
485.336	117.38
485.554	91.38
485.772	92.38
485.99	93.38
486.209	102.38
486.427	90.38
486.645	106.38
486.863	101.38
487.081	118.38
487.299	103.38
487.517	108.38
487.735	133.38
487.953	129.38
488.171	143.38
488.389	132.38
488.607	116.38
488.825	124.38
489.043	105.38
489.261	102.38
489.479	110.38
489.696	108.38
489.914	96.38
490.132	122.38
490.35	121.38
490.568	118.38
490.786	129.38
491.003	114.38
491.221	132.38
491.439	127.38
491.657	128.38
491.874	140.38
492.092	158.38
492.31	167.38
492.527	142.38
492.745	142.38
492.963	133.38
493.18	127.38
493.398	116.38
493.615	110.38
493.833	110.38
494.05	118.38
494.268	126.38
494.485	129.38
494.703	124.38
494.92	114.38
495.138	120.38
495.355	124.38
495.573	128.38
495.79	124.38
496.008	126.38
496.225	123.38
496.442	130.38
496.66	125.38
496.877	128.38
497.094	134.38
497.312	125.38
497.529	108.38
497.746	124.38
497.963	106.38
498.181	102.38
498.398	109.38
498.615	117.38
498.832	112.38
499.049	88.38
499.267	116.38
499.484	94.38
499.701	102.38
499.918	109.38
500.135	130.38
500.352	105.38
500.569	101.38
500.786	113.38
501.003	111.38
501.22	112.38
501.437	109.38
501.654	116.38
501.871	109.38
502.088	91.38
502.305	109.38
502.522	109.38
502.739	104.38
502.956	135.38
503.172	106.38
503.389	98.38
503.606	88.38
503.823	92.38
504.04	101.38
504.256	105.38
504.473	95.38
504.69	106.38
504.907	113.38
505.123	104.38
505.34	112.38
505.557	97.38
505.773	111.38
505.99	112.38
506.207	125.38
506.423	101.38
506.64	104.38
506.856	96.38
507.073	100.38
507.289	95.38
507.506	95.38
507.722	106.38
507.939	108.38
508.155	100.38
508.372	99.38
508.588	111.38
508.805	97.38
509.021	83.38
509.238	95.38
509.454	95.38
509.67	93.38
509.887	94.38
510.103	85.38
510.319	81.38
510.536	77.38
510.752	84.38
510.968	86.38
511.184	84.38
511.401	81.38
511.617	99.38
511.833	82.38
512.049	88.38
512.265	91.38
512.481	91.38
512.698	89.38
512.914	97.38
513.13	90.38
513.346	89.38
513.562	75.38
513.778	84.38
513.994	86.38
514.21	78.38
514.426	92.38
514.642	87.38
514.858	99.38
515.074	86.38
515.29	73.38
515.506	96.38
515.721	85.38
515.937	89.38
516.153	91.38
516.369	89.38
516.585	100.38
516.801	84.38
517.016	99.38
517.232	88.38
517.448	94.38
517.664	85.38
517.879	80.38
518.095	84.38
518.311	91.38
518.527	91.38
518.742	91.38
518.958	101.38
519.173	95.38
519.389	92.38
519.605	101.38
519.82	94.38
520.036	112.38
520.251	106.38
520.467	112.38
520.682	100.38
520.898	93.38
521.113	81.38
521.329	86.38
521.544	96.38
521.76	76.38
521.975	102.38
522.19	96.38
522.406	97.38
522.621	84.38
522.836	85.38
523.052	93.38
523.267	105.38
523.482	103.38
523.698	93.38
523.913	87.38
524.128	105.38
524.343	101.38
524.559	111.38
524.774	102.38
524.989	105.38
525.204	100.38
525.419	101.38
525.634	105.38
525.849	96.38
526.064	119.38
526.28	98.38
526.495	105.38
526.71	88.38
526.925	86.38
527.14	81.38
527.355	82.38
527.57	97.38
527.785	82.38
527.999	82.38
528.214	102.38
528.429	102.38
528.644	102.38
528.859	106.38
529.074	110.38
529.289	137.38
529.503	115.38
529.718	106.38
529.933	116.38
530.148	103.38
530.363	86.38
530.577	92.38
530.792	77.38
531.007	80.38
531.221	82.38
531.436	96.38
531.651	73.38
531.865	75.38
532.08	78.38
532.295	86.38
532.509	86.38
532.724	71.38
532.938	88.38
533.153	101.38
533.367	102.38
533.582	105.38
533.796	102.38
534.011	97.38
534.225	74.38
534.44	73.38
534.654	93.38
534.868	98.38
535.083	94.38
535.297	97.38
535.511	103.38
535.726	87.38
535.94	92.38
536.154	101.38
536.369	81.38
536.583	79.38
536.797	88.38
537.011	70.38
537.225	87.38
537.44	97.38
537.654	83.38
537.868	88.38
538.082	88.38
538.296	89.38
538.51	93.38
538.724	90.38
538.938	100.38
539.153	106.38
539.367	112.38
539.581	94.38
539.795	90.38
540.009	86.38
540.222	85.38
540.436	100.38
540.65	101.38
540.864	95.38
541.078	104.38
541.292	102.38
541.506	106.38
541.72	129.38
541.934	130.38
542.147	139.38
542.361	136.38
542.575	124.38
542.789	134.38
543.002	128.38
543.216	100.38
543.43	114.38
543.644	120.38
543.857	119.38
544.071	120.38
544.285	142.38
544.498	112.38
544.712	130.38
544.925	121.38
545.139	119.38
545.352	104.38
545.566	124.38
545.779	128.38
545.993	131.38
546.206	117.38
546.42	120.38
546.633	109.38
546.847	118.38
547.06	117.38
547.274	129.38
547.487	132.38
547.7	119.38
547.914	118.38
548.127	132.38
548.34	115.38
548.554	129.38
548.767	119.38
548.98	125.38
549.193	124.38
549.407	122.38
549.62	132.38
549.833	117.38
550.046	125.38
550.259	125.38
550.473	127.38
550.686	124.38
550.899	119.38
551.112	106.38
551.325	112.38
551.538	102.38
551.751	115.38
551.964	106.38
552.177	109.38
552.39	103.38
552.603	124.38
552.816	134.38
553.029	115.38
553.242	122.38
553.455	124.38
553.667	126.38
553.88	121.38
554.093	133.38
554.306	121.38
554.519	123.38
554.732	126.38
554.944	131.38
555.157	104.38
555.37	120.38
555.583	113.38
555.795	113.38
556.008	112.38
556.221	101.38
556.433	103.38
556.646	103.38
556.859	107.38
557.071	122.38
557.284	116.38
557.496	110.38
557.709	119.38
557.921	115.38
558.134	120.38
558.346	113.38
558.559	108.38
558.771	116.38
558.984	108.38
559.196	102.38
559.409	104.38
559.621	93.38
559.833	119.38
560.046	110.38
560.258	111.38
560.47	120.38
560.683	112.38
560.895	120.38
561.107	101.38
561.32	114.38
561.532	105.38
561.744	115.38
561.956	113.38
562.168	104.38
562.381	108.38
562.593	98.38
562.805	98.38
563.017	87.38
563.229	83.38
563.441	106.38
563.653	101.38
563.865	91.38
564.077	107.38
564.289	89.38
564.501	109.38
564.713	106.38
564.925	100.38
565.137	112.38
565.349	106.38
565.561	100.38
565.773	100.38
565.985	118.38
566.197	101.38
566.408	96.38
566.62	109.38
566.832	98.38
567.044	106.38
567.255	94.38
567.467	119.38
567.679	100.38
567.891	95.38
568.102	97.38
568.314	90.38
568.526	88.38
568.737	92.38
568.949	94.38
569.161	92.38
569.372	102.38
569.584	83.38
569.795	97.38
570.007	92.38
570.218	82.38
570.43	78.38
570.641	102.38
570.853	92.38
571.064	94.38
571.276	86.38
571.487	102.38
571.698	89.38
571.91	94.38
572.121	85.38
572.333	81.38
572.544	95.38
572.755	89.38
572.966	91.38
573.178	78.38
573.389	82.38
573.6	90.38
573.811	108.38
574.023	100.38
574.234	78.38
574.445	81.38
574.656	103.38
574.867	89.38
575.078	92.38
575.289	89.38
575.501	106.38
575.712	87.38
575.923	76.38
576.134	103.38
576.345	91.38
576.556	90.38
576.767	88.38
576.978	80.38
577.188	102.38
577.399	82.38
577.61	88.38
577.821	83.38
578.032	93.38
578.243	81.38
578.454	84.38
578.665	85.38
578.875	75.38
579.086	84.38
579.297	88.38
579.508	92.38
579.718	84.38
579.929	90.38
580.14	79.38
580.35	99.38
580.561	84.38
580.772	86.38
580.982	78.38
581.193	88.38
581.403	94.38
581.614	88.38
581.825	97.38
582.035	104.38
582.246	78.38
582.456	98.38
582.667	96.38
582.877	107.38
583.087	82.38
583.298	87.38
583.508	77.38
583.719	89.38
583.929	88.38
584.139	93.38
584.35	87.38
584.56	93.38
584.77	80.38
584.981	77.38
585.191	90.38
585.401	76.38
585.611	83.38
585.821	103.38
586.032	92.38
586.242	92.38
586.452	91.38
586.662	91.38
586.872	88.38
587.082	93.38
587.292	94.38
587.502	88.38
587.713	94.38
587.923	83.38
588.133	84.38
588.343	85.38
588.553	77.38
588.762	97.38
588.972	90.38
589.182	82.38
589.392	79.38
589.602	91.38
589.812	84.38
590.022	70.38
590.232	84.38
590.441	91.38
590.651	102.38
590.861	72.38
591.071	81.38
591.281	88.38
591.49	88.38
591.7	99.38
591.91	90.38
592.119	81.38
592.329	99.38
592.539	85.38
592.748	84.38
592.958	87.38
593.167	83.38
593.377	77.38
593.587	82.38
593.796	84.38
594.006	93.38
594.215	95.38
594.424	77.38
594.634	85.38
594.843	84.38
595.053	88.38
595.262	106.38
595.472	89.38
595.681	89.38
595.89	85.38
596.1	79.38
596.309	86.38
596.518	99.38
596.727	89.38
596.937	90.38
597.146	88.38
597.355	85.38
597.564	77.38
597.774	92.38
597.983	98.38
598.192	84.38
598.401	96.38
598.61	77.38
598.819	77.38
599.028	76.38
599.237	99.38
599.446	91.38
599.655	85.38
599.864	82.38
600.073	86.38
600.282	85.38
600.491	103.38
600.7	81.38
600.909	93.38
601.118	100.38
601.327	98.38
601.536	102.38
601.745	83.38
601.953	79.38
602.162	96.38
602.371	93.38
602.58	92.38
602.789	102.38
602.997	96.38
603.206	106.38
603.415	97.38
603.623	93.38
603.832	93.38
604.041	94.38
604.249	95.38
604.458	99.38
604.666	91.38
604.875	86.38
605.084	113.38
605.292	88.38
605.501	88.38
605.709	89.38
605.918	89.38
606.126	106.38
606.334	98.38
606.543	101.38
606.751	100.38
606.96	98.38
607.168	86.38
607.376	105.38
607.585	96.38
607.793	106.38
608.001	101.38
608.21	94.38
608.418	93.38
608.626	106.38
608.834	99.38
609.043	94.38
609.251	96.38
609.459	103.38
609.667	103.38
609.875	105.38
610.083	90.38
610.291	99.38
610.499	115.38
610.707	95.38
610.916	112.38
611.124	106.38
611.332	96.38
611.54	100.38
611.748	103.38
611.955	83.38
612.163	113.38
612.371	120.38
612.579	99.38
612.787	88.38
612.995	98.38
613.203	103.38
613.411	101.38
613.618	97.38
613.826	92.38
614.034	101.38
614.242	101.38
614.449	89.38
614.657	89.38
614.865	100.38
615.072	102.38
615.28	94.38
615.488	85.38
615.695	89.38
615.903	95.38
616.111	104.38
616.318	98.38
616.526	99.38
616.733	97.38
616.941	83.38
617.148	101.38
617.356	87.38
617.563	98.38
617.771	105.38
617.978	96.38
618.185	86.38
618.393	90.38
618.6	87.38
618.807	98.38
619.015	93.38
619.222	102.38
619.429	108.38
619.637	90.38
619.844	94.38
620.051	96.38
620.258	91.38
620.466	96.38
620.673	93.38
620.88	93.38
621.087	86.38
621.294	98.38
621.501	103.38
621.708	78.38
621.915	91.38
622.122	78.38
622.329	100.38
622.536	85.38
622.743	92.38
622.95	101.38
623.157	102.38
623.364	91.38
623.571	92.38
623.778	98.38
623.985	83.38
624.192	93.38
624.399	84.38
624.606	82.38
624.812	96.38
625.019	94.38
625.226	103.38
625.433	95.38
625.639	88.38
625.846	85.38
626.053	89.38
626.259	79.38
626.466	82.38
626.673	99.38
626.879	100.38
627.086	90.38
627.293	91.38
627.499	105.38
627.706	99.38
627.912	101.38
628.119	88.38
628.325	94.38
628.532	102.38
628.738	90.38
628.945	90.38
629.151	84.38
629.357	93.38
629.564	68.38
629.77	86.38
629.976	92.38
630.183	97.38
630.389	80.38
630.595	107.38
630.802	96.38
631.008	84.38
631.214	93.38
631.42	84.38
631.627	83.38
631.833	98.38
632.039	101.38
632.245	78.38
632.451	87.38
632.657	83.38
632.863	71.38
633.069	102.38
633.275	91.38
633.481	91.38
633.688	96.38
633.893	91.38
634.099	93.38
634.305	90.38
634.511	97.38
634.717	93.38
634.923	104.38
635.129	91.38
635.335	87.38
635.541	89.38
635.747	89.38
635.952	86.38
636.158	90.38
636.364	96.38
636.57	96.38
636.775	92.38
636.981	101.38
637.187	99.38
637.392	91.38
637.598	88.38
637.804	89.38
638.009	104.38
638.215	93.38
638.421	87.38
638.626	102.38
638.832	91.38
639.037	99.38
639.243	90.38
639.448	90.38
639.654	101.38
639.859	103.38
640.065	106.38
640.27	100.38
640.475	96.38
640.681	99.38
640.886	96.38
641.091	85.38
641.297	87.38
641.502	86.38
641.707	99.38
641.913	100.38
642.118	84.38
642.323	89.38
642.528	87.38
642.733	105.38
642.939	90.38
643.144	86.38
643.349	89.38
643.554	89.38
643.759	90.38
643.964	101.38
644.169	98.38
644.374	85.38
644.579	84.38
644.784	95.38
644.989	96.38
645.194	85.38
645.399	85.38
645.604	89.38
645.809	96.38
646.014	79.38
646.219	95.38
646.423	88.38
646.628	92.38
646.833	94.38
647.038	79.38
647.243	87.38
647.447	78.38
647.652	99.38
647.857	78.38
648.062	95.38
648.266	86.38
648.471	96.38
648.676	96.38
648.88	96.38
649.085	93.38
649.289	99.38
649.494	71.38
649.698	88.38
649.903	83.38
650.107	77.38
650.312	83.38
650.516	85.38
650.721	73.38
650.925	84.38
651.13	68.38
651.334	84.38
651.539	92.38
651.743	98.38
651.947	89.38
652.152	88.38
652.356	86.38
652.56	87.38
652.764	81.38
652.969	74.38
653.173	80.38
653.377	69.38
653.581	78.38
653.785	75.38
653.99	101.38
654.194	83.38
654.398	77.38
654.602	81.38
654.806	84.38
655.01	90.38
655.214	86.38
655.418	87.38
655.622	89.38
655.826	86.38
656.03	100.38
656.234	81.38
656.438	84.38
656.642	94.38
656.846	88.38
657.049	101.38
657.253	99.38
657.457	77.38
657.661	91.38
657.865	106.38
658.068	89.38
658.272	77.38
658.476	85.38
658.68	85.38
658.883	81.38
659.087	81.38
659.291	79.38
659.494	93.38
659.698	86.38
659.901	75.38
660.105	85.38
660.309	83.38
660.512	97.38
660.716	85.38
660.919	70.38
661.123	81.38
661.326	90.38
661.53	84.38
661.733	81.38
661.936	77.38
662.14	86.38
662.343	79.38
662.546	83.38
662.75	80.38
662.953	95.38
663.156	85.38
663.36	87.38
663.563	90.38
663.766	93.38
663.969	77.38
664.173	73.38
664.376	75.38
664.579	65.38
664.782	87.38
664.985	91.38
665.188	82.38
665.391	80.38
665.594	86.38
665.797	84.38
666	76.38
666.203	98.38
666.406	95.38
666.609	95.38
666.812	87.38
667.015	84.38
667.218	97.38
667.421	88.38
667.624	88.38
667.827	75.38
668.03	80.38
668.232	79.38
668.435	76.38
668.638	76.38
668.841	83.38
669.043	78.38
669.246	88.38
669.449	81.38
669.651	90.38
669.854	86.38
670.057	87.38
670.259	83.38
670.462	78.38
670.665	84.38
670.867	77.38
671.07	79.38
671.272	87.38
671.475	86.38
671.677	67.38
671.88	75.38
672.082	81.38
672.284	78.38
672.487	96.38
672.689	75.38
672.892	80.38
