Data from Zn(NO3)2Standard.Agarose3%.GreenCap.LampEnergy5.5.E.O_HRD10591_15-02-57-768.txt Node
Date: Mon Jul 22 15:02:57 EDT 2019
User: cochatt
Spectrometer: HR+D1059
Trigger mode: 1
Integration Time (sec): 1.000000E-1
Scans to average: 1
Electric dark correction enabled: true
Nonlinearity correction enabled: false
Boxcar width: 0
XAxis mode: Wavelengths
Number of Pixels in Spectrum: 2048
>>>>>Begin Spectral Data<<<<<
223.165	-5.75
223.4	-5.75
223.635	-5.75
223.869	-11.75
224.104	-20.75
224.338	-17.75
224.573	-18.75
224.808	-17.75
225.042	-13.75
225.277	-0.75
225.511	4.25
225.746	2.25
225.98	-4.75
226.215	18.25
226.449	17.25
226.683	25.25
226.918	22.25
227.152	22.25
227.387	29.25
227.621	34.25
227.856	40.25
228.09	51.25
228.324	50.25
228.559	55.25
228.793	50.25
229.027	53.25
229.262	71.25
229.496	62.25
229.73	68.25
229.964	84.25
230.199	64.25
230.433	67.25
230.667	83.25
230.901	89.25
231.136	84.25
231.37	85.25
231.604	79.25
231.838	75.25
232.072	85.25
232.306	80.25
232.541	84.25
232.775	83.25
233.009	88.25
233.243	75.25
233.477	87.25
233.711	77.25
233.945	72.25
234.179	93.25
234.413	84.25
234.647	86.25
234.881	73.25
235.115	89.25
235.349	72.25
235.583	74.25
235.817	84.25
236.051	68.25
236.285	79.25
236.519	91.25
236.753	79.25
236.987	81.25
237.221	82.25
237.455	72.25
237.689	70.25
237.922	86.25
238.156	85.25
238.39	80.25
238.624	67.25
238.858	70.25
239.091	83.25
239.325	63.25
239.559	74.25
239.793	84.25
240.027	88.25
240.26	73.25
240.494	90.25
240.728	83.25
240.961	76.25
241.195	89.25
241.429	94.25
241.662	75.25
241.896	76.25
242.13	90.25
242.363	87.25
242.597	90.25
242.83	67.25
243.064	70.25
243.298	71.25
243.531	71.25
243.765	80.25
243.998	67.25
244.232	74.25
244.465	79.25
244.699	88.25
244.932	78.25
245.166	77.25
245.399	101.25
245.633	78.25
245.866	73.25
246.099	74.25
246.333	83.25
246.566	91.25
246.8	79.25
247.033	85.25
247.266	70.25
247.5	95.25
247.733	74.25
247.966	65.25
248.2	83.25
248.433	82.25
248.666	84.25
248.899	76.25
249.133	76.25
249.366	90.25
249.599	71.25
249.832	67.25
250.066	88.25
250.299	86.25
250.532	86.25
250.765	82.25
250.998	74.25
251.231	69.25
251.465	77.25
251.698	74.25
251.931	79.25
252.164	83.25
252.397	79.25
252.63	79.25
252.863	88.25
253.096	76.25
253.329	82.25
253.562	82.25
253.795	85.25
254.028	85.25
254.261	80.25
254.494	86.25
254.727	88.25
254.96	74.25
255.193	71.25
255.426	83.25
255.659	63.25
255.892	79.25
256.124	87.25
256.357	89.25
256.59	80.25
256.823	77.25
257.056	82.25
257.289	69.25
257.521	93.25
257.754	68.25
257.987	86.25
258.22	76.25
258.452	91.25
258.685	83.25
258.918	88.25
259.151	86.25
259.383	95.25
259.616	77.25
259.849	76.25
260.081	80.25
260.314	86.25
260.547	80.25
260.779	74.25
261.012	83.25
261.244	72.25
261.477	83.25
261.71	84.25
261.942	99.25
262.175	80.25
262.407	84.25
262.64	80.25
262.872	73.25
263.105	83.25
263.337	93.25
263.57	100.25
263.802	86.25
264.035	78.25
264.267	71.25
264.499	68.25
264.732	83.25
264.964	85.25
265.197	99.25
265.429	90.25
265.661	79.25
265.894	75.25
266.126	93.25
266.358	81.25
266.591	76.25
266.823	79.25
267.055	71.25
267.287	80.25
267.52	101.25
267.752	82.25
267.984	67.25
268.216	74.25
268.448	77.25
268.681	90.25
268.913	89.25
269.145	86.25
269.377	73.25
269.609	89.25
269.841	88.25
270.073	79.25
270.306	78.25
270.538	79.25
270.77	71.25
271.002	89.25
271.234	92.25
271.466	84.25
271.698	83.25
271.93	77.25
272.162	78.25
272.394	88.25
272.626	84.25
272.858	93.25
273.09	95.25
273.322	99.25
273.553	93.25
273.785	71.25
274.017	94.25
274.249	84.25
274.481	93.25
274.713	94.25
274.945	106.25
275.176	85.25
275.408	71.25
275.64	76.25
275.872	94.25
276.104	83.25
276.335	95.25
276.567	76.25
276.799	86.25
277.031	87.25
277.262	81.25
277.494	98.25
277.726	83.25
277.957	93.25
278.189	87.25
278.421	87.25
278.652	74.25
278.884	88.25
279.115	87.25
279.347	94.25
279.579	90.25
279.81	76.25
280.042	73.25
280.273	76.25
280.505	91.25
280.736	92.25
280.968	94.25
281.199	103.25
281.431	86.25
281.662	87.25
281.894	86.25
282.125	87.25
282.356	91.25
282.588	80.25
282.819	84.25
283.051	104.25
283.282	80.25
283.513	92.25
283.745	79.25
283.976	101.25
284.207	84.25
284.439	92.25
284.67	90.25
284.901	83.25
285.132	96.25
285.364	91.25
285.595	77.25
285.826	79.25
286.057	77.25
286.288	72.25
286.52	74.25
286.751	79.25
286.982	79.25
287.213	82.25
287.444	81.25
287.675	88.25
287.906	98.25
288.138	72.25
288.369	88.25
288.6	81.25
288.831	82.25
289.062	86.25
289.293	77.25
289.524	86.25
289.755	90.25
289.986	95.25
290.217	77.25
290.448	75.25
290.679	79.25
290.91	98.25
291.141	60.25
291.371	86.25
291.602	80.25
291.833	87.25
292.064	72.25
292.295	64.25
292.526	75.25
292.757	82.25
292.987	85.25
293.218	99.25
293.449	83.25
293.68	84.25
293.91	87.25
294.141	80.25
294.372	90.25
294.603	80.25
294.833	75.25
295.064	95.25
295.295	77.25
295.525	89.25
295.756	88.25
295.987	90.25
296.217	92.25
296.448	110.25
296.679	93.25
296.909	76.25
297.14	93.25
297.37	103.25
297.601	83.25
297.831	88.25
298.062	80.25
298.292	91.25
298.523	107.25
298.753	89.25
298.984	73.25
299.214	78.25
299.445	94.25
299.675	87.25
299.905	84.25
300.136	100.25
300.366	79.25
300.597	85.25
300.827	91.25
301.057	67.25
301.288	80.25
301.518	98.25
301.748	89.25
301.979	74.25
302.209	91.25
302.439	79.25
302.669	98.25
302.9	90.25
303.13	85.25
303.36	75.25
303.59	76.25
303.82	89.25
304.051	84.25
304.281	93.25
304.511	78.25
304.741	79.25
304.971	87.25
305.201	80.25
305.431	88.25
305.661	83.25
305.891	84.25
306.121	97.25
306.352	81.25
306.582	89.25
306.812	77.25
307.042	95.25
307.272	76.25
307.502	93.25
307.731	81.25
307.961	77.25
308.191	91.25
308.421	76.25
308.651	97.25
308.881	86.25
309.111	91.25
309.341	81.25
309.571	74.25
309.8	89.25
310.03	81.25
310.26	102.25
310.49	80.25
310.72	73.25
310.949	74.25
311.179	91.25
311.409	88.25
311.639	94.25
311.868	87.25
312.098	79.25
312.328	90.25
312.557	82.25
312.787	76.25
313.017	70.25
313.246	76.25
313.476	96.25
313.706	96.25
313.935	88.25
314.165	83.25
314.394	98.25
314.624	84.25
314.853	81.25
315.083	99.25
315.312	74.25
315.542	86.25
315.771	79.25
316.001	88.25
316.23	82.25
316.46	94.25
316.689	100.25
316.919	90.25
317.148	87.25
317.377	87.25
317.607	87.25
317.836	97.25
318.065	99.25
318.295	96.25
318.524	88.25
318.753	78.25
318.983	82.25
319.212	83.25
319.441	89.25
319.67	84.25
319.9	91.25
320.129	78.25
320.358	77.25
320.587	87.25
320.816	93.25
321.046	86.25
321.275	70.25
321.504	75.25
321.733	90.25
321.962	89.25
322.191	88.25
322.42	108.25
322.649	78.25
322.878	75.25
323.108	78.25
323.337	88.25
323.566	75.25
323.795	86.25
324.024	78.25
324.253	76.25
324.482	85.25
324.71	85.25
324.939	93.25
325.168	88.25
325.397	91.25
325.626	96.25
325.855	87.25
326.084	84.25
326.313	84.25
326.542	90.25
326.77	89.25
326.999	80.25
327.228	87.25
327.457	79.25
327.686	85.25
327.914	74.25
328.143	102.25
328.372	83.25
328.6	91.25
328.829	70.25
329.058	82.25
329.287	82.25
329.515	58.25
329.744	89.25
329.972	88.25
330.201	68.25
330.43	87.25
330.658	77.25
330.887	86.25
331.115	93.25
331.344	99.25
331.572	88.25
331.801	91.25
332.03	99.25
332.258	86.25
332.486	87.25
332.715	84.25
332.943	86.25
333.172	76.25
333.4	78.25
333.629	96.25
333.857	72.25
334.085	72.25
334.314	92.25
334.542	76.25
334.771	84.25
334.999	88.25
335.227	89.25
335.455	98.25
335.684	86.25
335.912	74.25
336.14	88.25
336.369	76.25
336.597	88.25
336.825	87.25
337.053	83.25
337.281	87.25
337.51	89.25
337.738	86.25
337.966	86.25
338.194	85.25
338.422	87.25
338.65	72.25
338.878	97.25
339.106	95.25
339.334	86.25
339.562	79.25
339.79	86.25
340.018	75.25
340.246	90.25
340.474	84.25
340.702	83.25
340.93	77.25
341.158	80.25
341.386	81.25
341.614	87.25
341.842	100.25
342.07	83.25
342.298	83.25
342.526	85.25
342.754	99.25
342.981	81.25
343.209	84.25
343.437	73.25
343.665	90.25
343.893	80.25
344.12	79.25
344.348	78.25
344.576	80.25
344.804	93.25
345.031	75.25
345.259	84.25
345.487	79.25
345.714	80.25
345.942	70.25
346.17	95.25
346.397	94.25
346.625	80.25
346.853	92.25
347.08	75.25
347.308	72.25
347.535	84.25
347.763	85.25
347.99	90.25
348.218	80.25
348.445	70.25
348.673	78.25
348.9	85.25
349.128	86.25
349.355	78.25
349.583	91.25
349.81	84.25
350.037	80.25
350.265	80.25
350.492	94.25
350.72	94.25
350.947	93.25
351.174	94.25
351.402	90.25
351.629	82.25
351.856	72.25
352.083	85.25
352.311	98.25
352.538	85.25
352.765	85.25
352.992	84.25
353.22	93.25
353.447	83.25
353.674	81.25
353.901	83.25
354.128	89.25
354.355	92.25
354.583	81.25
354.81	84.25
355.037	94.25
355.264	108.25
355.491	94.25
355.718	78.25
355.945	81.25
356.172	93.25
356.399	80.25
356.626	70.25
356.853	75.25
357.08	84.25
357.307	70.25
357.534	79.25
357.761	91.25
357.988	90.25
358.215	91.25
358.441	77.25
358.668	83.25
358.895	93.25
359.122	91.25
359.349	82.25
359.576	90.25
359.802	81.25
360.029	83.25
360.256	92.25
360.483	77.25
360.709	80.25
360.936	88.25
361.163	79.25
361.39	82.25
361.616	85.25
361.843	77.25
362.07	71.25
362.296	86.25
362.523	86.25
362.749	82.25
362.976	75.25
363.203	81.25
363.429	82.25
363.656	90.25
363.882	79.25
364.109	76.25
364.335	87.25
364.562	85.25
364.788	95.25
365.015	93.25
365.241	89.25
365.468	99.25
365.694	83.25
365.92	87.25
366.147	99.25
366.373	94.25
366.599	78.25
366.826	88.25
367.052	76.25
367.278	85.25
367.505	93.25
367.731	90.25
367.957	77.25
368.184	88.25
368.41	94.25
368.636	85.25
368.862	85.25
369.089	89.25
369.315	89.25
369.541	73.25
369.767	88.25
369.993	93.25
370.219	83.25
370.445	94.25
370.672	71.25
370.898	84.25
371.124	75.25
371.35	77.25
371.576	83.25
371.802	80.25
372.028	79.25
372.254	93.25
372.48	89.25
372.706	83.25
372.932	76.25
373.158	82.25
373.384	72.25
373.61	75.25
373.835	87.25
374.061	78.25
374.287	85.25
374.513	95.25
374.739	78.25
374.965	84.25
375.191	78.25
375.416	85.25
375.642	79.25
375.868	78.25
376.094	75.25
376.319	76.25
376.545	92.25
376.771	83.25
376.997	92.25
377.222	86.25
377.448	84.25
377.674	87.25
377.899	94.25
378.125	71.25
378.35	98.25
378.576	78.25
378.802	82.25
379.027	82.25
379.253	92.25
379.478	89.25
379.704	86.25
379.929	99.25
380.155	71.25
380.38	78.25
380.606	87.25
380.831	96.25
381.057	93.25
381.282	87.25
381.507	85.25
381.733	73.25
381.958	106.25
382.184	80.25
382.409	82.25
382.634	88.25
382.86	97.25
383.085	83.25
383.31	72.25
383.535	80.25
383.761	84.25
383.986	84.25
384.211	86.25
384.436	93.25
384.662	84.25
384.887	97.25
385.112	87.25
385.337	80.25
385.562	86.25
385.787	69.25
386.013	79.25
386.238	97.25
386.463	94.25
386.688	88.25
386.913	89.25
387.138	78.25
387.363	85.25
387.588	86.25
387.813	92.25
388.038	89.25
388.263	85.25
388.488	82.25
388.713	78.25
388.938	86.25
389.163	82.25
389.387	87.25
389.612	88.25
389.837	88.25
390.062	88.25
390.287	95.25
390.512	80.25
390.736	86.25
390.961	101.25
391.186	86.25
391.411	91.25
391.636	68.25
391.86	78.25
392.085	86.25
392.31	93.25
392.534	79.25
392.759	88.25
392.984	96.25
393.208	88.25
393.433	89.25
393.658	79.25
393.882	96.25
394.107	72.25
394.331	83.25
394.556	73.25
394.78	87.25
395.005	81.25
395.229	87.25
395.454	87.25
395.678	78.25
395.903	86.25
396.127	82.25
396.352	76.25
396.576	80.25
396.801	86.25
397.025	86.25
397.249	92.25
397.474	82.25
397.698	75.25
397.922	89.25
398.147	81.25
398.371	83.25
398.595	91.25
398.82	78.25
399.044	81.25
399.268	73.25
399.492	73.25
399.717	91.25
399.941	71.25
400.165	97.25
400.389	95.25
400.613	74.25
400.837	100.25
401.062	93.25
401.286	74.25
401.51	79.25
401.734	70.25
401.958	76.25
402.182	80.25
402.406	78.25
402.63	81.25
402.854	83.25
403.078	96.25
403.302	94.25
403.526	92.25
403.75	87.25
403.974	86.25
404.198	81.25
404.422	75.25
404.645	82.25
404.869	80.25
405.093	92.25
405.317	76.25
405.541	102.25
405.765	86.25
405.988	94.25
406.212	84.25
406.436	91.25
406.66	98.25
406.883	89.25
407.107	93.25
407.331	80.25
407.555	85.25
407.778	73.25
408.002	86.25
408.226	86.25
408.449	96.25
408.673	87.25
408.896	91.25
409.12	90.25
409.344	95.25
409.567	78.25
409.791	84.25
410.014	85.25
410.238	82.25
410.461	106.25
410.685	96.25
410.908	93.25
411.132	86.25
411.355	84.25
411.578	70.25
411.802	80.25
412.025	86.25
412.249	93.25
412.472	81.25
412.695	86.25
412.919	92.25
413.142	90.25
413.365	87.25
413.589	81.25
413.812	79.25
414.035	84.25
414.258	70.25
414.482	94.25
414.705	92.25
414.928	90.25
415.151	89.25
415.374	81.25
415.597	86.25
415.821	76.25
416.044	83.25
416.267	100.25
416.49	91.25
416.713	103.25
416.936	78.25
417.159	75.25
417.382	99.25
417.605	92.25
417.828	85.25
418.051	98.25
418.274	80.25
418.497	93.25
418.72	88.25
418.943	79.25
419.166	82.25
419.389	99.25
419.611	86.25
419.834	76.25
420.057	96.25
420.28	100.25
420.503	84.25
420.726	78.25
420.948	97.25
421.171	84.25
421.394	83.25
421.617	85.25
421.839	91.25
422.062	86.25
422.285	91.25
422.507	73.25
422.73	79.25
422.953	91.25
423.175	95.25
423.398	85.25
423.621	102.25
423.843	91.25
424.066	91.25
424.288	94.25
424.511	100.25
424.733	90.25
424.956	93.25
425.178	86.25
425.401	104.25
425.623	83.25
425.846	110.25
426.068	88.25
426.291	95.25
426.513	79.25
426.735	81.25
426.958	91.25
427.18	84.25
427.402	98.25
427.625	72.25
427.847	85.25
428.069	95.25
428.292	83.25
428.514	98.25
428.736	100.25
428.958	94.25
429.181	105.25
429.403	84.25
429.625	90.25
429.847	90.25
430.069	81.25
430.292	108.25
430.514	103.25
430.736	81.25
430.958	91.25
431.18	101.25
431.402	91.25
431.624	87.25
431.846	78.25
432.068	84.25
432.29	94.25
432.512	92.25
432.734	99.25
432.956	92.25
433.178	71.25
433.4	107.25
433.622	86.25
433.844	89.25
434.066	92.25
434.287	74.25
434.509	75.25
434.731	86.25
434.953	79.25
435.175	79.25
435.397	102.25
435.618	73.25
435.84	76.25
436.062	103.25
436.284	81.25
436.505	105.25
436.727	99.25
436.949	79.25
437.17	81.25
437.392	94.25
437.614	93.25
437.835	88.25
438.057	77.25
438.278	101.25
438.5	87.25
438.721	82.25
438.943	80.25
439.165	88.25
439.386	93.25
439.608	89.25
439.829	91.25
440.05	105.25
440.272	108.25
440.493	103.25
440.715	91.25
440.936	95.25
441.158	79.25
441.379	89.25
441.6	78.25
441.822	86.25
442.043	92.25
442.264	93.25
442.486	98.25
442.707	81.25
442.928	88.25
443.149	85.25
443.371	83.25
443.592	77.25
443.813	90.25
444.034	84.25
444.255	94.25
444.476	98.25
444.698	102.25
444.919	89.25
445.14	194.25
445.361	148.25
445.582	101.25
445.803	87.25
446.024	89.25
446.245	91.25
446.466	93.25
446.687	89.25
446.908	109.25
447.129	80.25
447.35	84.25
447.571	87.25
447.792	92.25
448.013	79.25
448.234	88.25
448.455	99.25
448.675	102.25
448.896	91.25
449.117	78.25
449.338	95.25
449.559	92.25
449.779	104.25
450	97.25
450.221	108.25
450.442	90.25
450.662	98.25
450.883	88.25
451.104	91.25
451.324	80.25
451.545	80.25
451.766	98.25
451.986	83.25
452.207	95.25
452.428	78.25
452.648	90.25
452.869	93.25
453.089	91.25
453.31	92.25
453.53	84.25
453.751	79.25
453.971	87.25
454.192	81.25
454.412	98.25
454.633	83.25
454.853	88.25
455.073	102.25
455.294	94.25
455.514	77.25
455.734	85.25
455.955	98.25
456.175	86.25
456.395	88.25
456.616	97.25
456.836	79.25
457.056	84.25
457.276	93.25
457.497	72.25
457.717	88.25
457.937	94.25
458.157	82.25
458.377	79.25
458.598	88.25
458.818	82.25
459.038	88.25
459.258	84.25
459.478	84.25
459.698	76.25
459.918	76.25
460.138	89.25
460.358	76.25
460.578	87.25
460.798	78.25
461.018	87.25
461.238	77.25
461.458	85.25
461.678	90.25
461.898	94.25
462.118	76.25
462.338	92.25
462.558	87.25
462.777	91.25
462.997	84.25
463.217	91.25
463.437	83.25
463.657	81.25
463.876	86.25
464.096	89.25
464.316	90.25
464.536	87.25
464.755	95.25
464.975	96.25
465.195	97.25
465.414	99.25
465.634	80.25
465.854	94.25
466.073	109.25
466.293	89.25
466.512	93.25
466.732	90.25
466.951	88.25
467.171	80.25
467.391	92.25
467.61	95.25
467.829	88.25
468.049	80.25
468.268	102.25
468.488	91.25
468.707	90.25
468.927	87.25
469.146	90.25
469.365	90.25
469.585	88.25
469.804	115.25
470.023	110.25
470.243	101.25
470.462	103.25
470.681	88.25
470.901	94.25
471.12	97.25
471.339	101.25
471.558	87.25
471.777	90.25
471.997	101.25
472.216	74.25
472.435	78.25
472.654	93.25
472.873	90.25
473.092	92.25
473.311	100.25
473.53	93.25
473.749	82.25
473.968	88.25
474.187	92.25
474.406	90.25
474.625	85.25
474.844	86.25
475.063	89.25
475.282	86.25
475.501	98.25
475.72	89.25
475.939	75.25
476.158	89.25
476.377	88.25
476.596	101.25
476.814	90.25
477.033	87.25
477.252	95.25
477.471	88.25
477.69	87.25
477.908	98.25
478.127	92.25
478.346	84.25
478.564	92.25
478.783	94.25
479.002	95.25
479.22	87.25
479.439	80.25
479.658	85.25
479.876	89.25
480.095	84.25
480.313	94.25
480.532	111.25
480.751	86.25
480.969	92.25
481.188	85.25
481.406	87.25
481.624	96.25
481.843	63.25
482.061	94.25
482.28	77.25
482.498	89.25
482.717	85.25
482.935	98.25
483.153	103.25
483.372	96.25
483.59	98.25
483.808	94.25
484.027	87.25
484.245	92.25
484.463	87.25
484.681	101.25
484.9	91.25
485.118	97.25
485.336	101.25
485.554	76.25
485.772	84.25
485.99	100.25
486.209	95.25
486.427	91.25
486.645	75.25
486.863	94.25
487.081	100.25
487.299	89.25
487.517	104.25
487.735	100.25
487.953	94.25
488.171	98.25
488.389	102.25
488.607	91.25
488.825	102.25
489.043	97.25
489.261	86.25
489.479	92.25
489.696	94.25
489.914	116.25
490.132	97.25
490.35	92.25
490.568	93.25
490.786	115.25
491.003	106.25
491.221	106.25
491.439	98.25
491.657	93.25
491.874	106.25
492.092	101.25
492.31	111.25
492.527	102.25
492.745	101.25
492.963	98.25
493.18	123.25
493.398	106.25
493.615	110.25
493.833	93.25
494.05	100.25
494.268	114.25
494.485	93.25
494.703	111.25
494.92	95.25
495.138	95.25
495.355	92.25
495.573	100.25
495.79	83.25
496.008	115.25
496.225	102.25
496.442	97.25
496.66	104.25
496.877	112.25
497.094	110.25
497.312	92.25
497.529	101.25
497.746	98.25
497.963	94.25
498.181	99.25
498.398	90.25
498.615	85.25
498.832	86.25
499.049	83.25
499.267	90.25
499.484	96.25
499.701	93.25
499.918	92.25
500.135	96.25
500.352	95.25
500.569	83.25
500.786	85.25
501.003	88.25
501.22	80.25
501.437	82.25
501.654	90.25
501.871	88.25
502.088	85.25
502.305	98.25
502.522	80.25
502.739	95.25
502.956	98.25
503.172	88.25
503.389	82.25
503.606	78.25
503.823	83.25
504.04	99.25
504.256	87.25
504.473	84.25
504.69	85.25
504.907	92.25
505.123	82.25
505.34	92.25
505.557	102.25
505.773	91.25
505.99	97.25
506.207	99.25
506.423	86.25
506.64	84.25
506.856	95.25
507.073	86.25
507.289	78.25
507.506	87.25
507.722	90.25
507.939	85.25
508.155	93.25
508.372	90.25
508.588	87.25
508.805	86.25
509.021	71.25
509.238	87.25
509.454	83.25
509.67	74.25
509.887	93.25
510.103	95.25
510.319	75.25
510.536	89.25
510.752	85.25
510.968	72.25
511.184	74.25
511.401	72.25
511.617	83.25
511.833	81.25
512.049	82.25
512.265	80.25
512.481	90.25
512.698	80.25
512.914	82.25
513.13	92.25
513.346	80.25
513.562	81.25
513.778	92.25
513.994	94.25
514.21	87.25
514.426	88.25
514.642	87.25
514.858	86.25
515.074	89.25
515.29	92.25
515.506	90.25
515.721	80.25
515.937	83.25
516.153	104.25
516.369	82.25
516.585	91.25
516.801	73.25
517.016	89.25
517.232	101.25
517.448	90.25
517.664	82.25
517.879	74.25
518.095	80.25
518.311	85.25
518.527	77.25
518.742	94.25
518.958	82.25
519.173	80.25
519.389	93.25
519.605	85.25
519.82	91.25
520.036	100.25
520.251	94.25
520.467	73.25
520.682	77.25
520.898	87.25
521.113	87.25
521.329	82.25
521.544	87.25
521.76	89.25
521.975	88.25
522.19	95.25
522.406	83.25
522.621	95.25
522.836	96.25
523.052	85.25
523.267	105.25
523.482	92.25
523.698	84.25
523.913	99.25
524.128	93.25
524.343	93.25
524.559	101.25
524.774	84.25
524.989	94.25
525.204	83.25
525.419	74.25
525.634	84.25
525.849	111.25
526.064	75.25
526.28	99.25
526.495	75.25
526.71	84.25
526.925	77.25
527.14	78.25
527.355	83.25
527.57	96.25
527.785	97.25
527.999	82.25
528.214	89.25
528.429	80.25
528.644	93.25
528.859	92.25
529.074	97.25
529.289	84.25
529.503	98.25
529.718	99.25
529.933	93.25
530.148	89.25
530.363	81.25
530.577	87.25
530.792	76.25
531.007	88.25
531.221	84.25
531.436	75.25
531.651	98.25
531.865	81.25
532.08	70.25
532.295	74.25
532.509	78.25
532.724	88.25
532.938	88.25
533.153	79.25
533.367	93.25
533.582	92.25
533.796	77.25
534.011	90.25
534.225	90.25
534.44	95.25
534.654	82.25
534.868	80.25
535.083	91.25
535.297	97.25
535.511	84.25
535.726	97.25
535.94	75.25
536.154	79.25
536.369	79.25
536.583	99.25
536.797	75.25
537.011	78.25
537.225	78.25
537.44	87.25
537.654	92.25
537.868	90.25
538.082	83.25
538.296	87.25
538.51	99.25
538.724	86.25
538.938	92.25
539.153	91.25
539.367	86.25
539.581	96.25
539.795	99.25
540.009	84.25
540.222	80.25
540.436	84.25
540.65	95.25
540.864	95.25
541.078	85.25
541.292	115.25
541.506	102.25
541.72	112.25
541.934	114.25
542.147	116.25
542.361	109.25
542.575	86.25
542.789	103.25
543.002	98.25
543.216	97.25
543.43	89.25
543.644	81.25
543.857	96.25
544.071	88.25
544.285	107.25
544.498	91.25
544.712	95.25
544.925	101.25
545.139	86.25
545.352	96.25
545.566	104.25
545.779	99.25
545.993	109.25
546.206	97.25
546.42	93.25
546.633	94.25
546.847	98.25
547.06	93.25
547.274	104.25
547.487	115.25
547.7	95.25
547.914	100.25
548.127	101.25
548.34	94.25
548.554	111.25
548.767	106.25
548.98	107.25
549.193	93.25
549.407	99.25
549.62	85.25
549.833	110.25
550.046	95.25
550.259	100.25
550.473	116.25
550.686	98.25
550.899	91.25
551.112	92.25
551.325	100.25
551.538	97.25
551.751	81.25
551.964	96.25
552.177	99.25
552.39	104.25
552.603	96.25
552.816	114.25
553.029	100.25
553.242	96.25
553.455	98.25
553.667	114.25
553.88	106.25
554.093	99.25
554.306	98.25
554.519	92.25
554.732	93.25
554.944	96.25
555.157	102.25
555.37	93.25
555.583	110.25
555.795	93.25
556.008	114.25
556.221	104.25
556.433	92.25
556.646	83.25
556.859	104.25
557.071	105.25
557.284	89.25
557.496	95.25
557.709	79.25
557.921	115.25
558.134	83.25
558.346	96.25
558.559	101.25
558.771	90.25
558.984	92.25
559.196	93.25
559.409	94.25
559.621	81.25
559.833	96.25
560.046	97.25
560.258	98.25
560.47	84.25
560.683	91.25
560.895	82.25
561.107	94.25
561.32	102.25
561.532	86.25
561.744	83.25
561.956	92.25
562.168	79.25
562.381	67.25
562.593	85.25
562.805	90.25
563.017	88.25
563.229	97.25
563.441	110.25
563.653	93.25
563.865	88.25
564.077	89.25
564.289	82.25
564.501	83.25
564.713	92.25
564.925	98.25
565.137	105.25
565.349	94.25
565.561	101.25
565.773	101.25
565.985	84.25
566.197	91.25
566.408	87.25
566.62	94.25
566.832	93.25
567.044	90.25
567.255	94.25
567.467	102.25
567.679	90.25
567.891	89.25
568.102	83.25
568.314	96.25
568.526	78.25
568.737	87.25
568.949	90.25
569.161	101.25
569.372	83.25
569.584	81.25
569.795	85.25
570.007	96.25
570.218	78.25
570.43	89.25
570.641	82.25
570.853	84.25
571.064	87.25
571.276	92.25
571.487	71.25
571.698	89.25
571.91	81.25
572.121	85.25
572.333	94.25
572.544	101.25
572.755	87.25
572.966	98.25
573.178	97.25
573.389	93.25
573.6	84.25
573.811	73.25
574.023	84.25
574.234	90.25
574.445	90.25
574.656	84.25
574.867	98.25
575.078	91.25
575.289	76.25
575.501	96.25
575.712	87.25
575.923	89.25
576.134	95.25
576.345	86.25
576.556	86.25
576.767	95.25
576.978	90.25
577.188	82.25
577.399	92.25
577.61	69.25
577.821	98.25
578.032	91.25
578.243	89.25
578.454	75.25
578.665	84.25
578.875	86.25
579.086	92.25
579.297	77.25
579.508	91.25
579.718	86.25
579.929	73.25
580.14	82.25
580.35	78.25
580.561	85.25
580.772	103.25
580.982	88.25
581.193	98.25
581.403	85.25
581.614	91.25
581.825	77.25
582.035	79.25
582.246	85.25
582.456	84.25
582.667	85.25
582.877	79.25
583.087	103.25
583.298	87.25
583.508	78.25
583.719	90.25
583.929	90.25
584.139	76.25
584.35	83.25
584.56	72.25
584.77	87.25
584.981	90.25
585.191	82.25
585.401	74.25
585.611	76.25
585.821	94.25
586.032	88.25
586.242	89.25
586.452	98.25
586.662	77.25
586.872	96.25
587.082	76.25
587.292	77.25
587.502	87.25
587.713	91.25
587.923	110.25
588.133	87.25
588.343	83.25
588.553	88.25
588.762	88.25
588.972	73.25
589.182	94.25
589.392	95.25
589.602	88.25
589.812	76.25
590.022	88.25
590.232	94.25
590.441	98.25
590.651	79.25
590.861	78.25
591.071	86.25
591.281	90.25
591.49	100.25
591.7	98.25
591.91	89.25
592.119	92.25
592.329	52.25
592.539	72.25
592.748	80.25
592.958	98.25
593.167	72.25
593.377	80.25
593.587	92.25
593.796	96.25
594.006	79.25
594.215	84.25
594.424	87.25
594.634	86.25
594.843	79.25
595.053	88.25
595.262	85.25
595.472	95.25
595.681	86.25
595.89	88.25
596.1	104.25
596.309	90.25
596.518	76.25
596.727	85.25
596.937	68.25
597.146	80.25
597.355	102.25
597.564	86.25
597.774	82.25
597.983	85.25
598.192	89.25
598.401	78.25
598.61	102.25
598.819	101.25
599.028	84.25
599.237	84.25
599.446	85.25
599.655	98.25
599.864	82.25
600.073	87.25
600.282	98.25
600.491	82.25
600.7	90.25
600.909	83.25
601.118	88.25
601.327	88.25
601.536	98.25
601.745	95.25
601.953	84.25
602.162	96.25
602.371	87.25
602.58	87.25
602.789	99.25
602.997	97.25
603.206	86.25
603.415	87.25
603.623	93.25
603.832	86.25
604.041	80.25
604.249	90.25
604.458	90.25
604.666	97.25
604.875	94.25
605.084	88.25
605.292	86.25
605.501	95.25
605.709	109.25
605.918	95.25
606.126	80.25
606.334	79.25
606.543	81.25
606.751	90.25
606.96	88.25
607.168	89.25
607.376	93.25
607.585	94.25
607.793	105.25
608.001	91.25
608.21	84.25
608.418	91.25
608.626	91.25
608.834	80.25
609.043	92.25
609.251	91.25
609.459	83.25
609.667	100.25
609.875	101.25
610.083	93.25
610.291	88.25
610.499	97.25
610.707	90.25
610.916	91.25
611.124	87.25
611.332	99.25
611.54	90.25
611.748	99.25
611.955	88.25
612.163	90.25
612.371	98.25
612.579	92.25
612.787	86.25
612.995	85.25
613.203	99.25
613.411	88.25
613.618	72.25
613.826	75.25
614.034	89.25
614.242	81.25
614.449	91.25
614.657	89.25
614.865	87.25
615.072	88.25
615.28	102.25
615.488	92.25
615.695	106.25
615.903	103.25
616.111	89.25
616.318	88.25
616.526	105.25
616.733	88.25
616.941	104.25
617.148	91.25
617.356	88.25
617.563	82.25
617.771	93.25
617.978	99.25
618.185	78.25
618.393	80.25
618.6	85.25
618.807	87.25
619.015	97.25
619.222	88.25
619.429	86.25
619.637	107.25
619.844	94.25
620.051	85.25
620.258	85.25
620.466	92.25
620.673	80.25
620.88	89.25
621.087	79.25
621.294	87.25
621.501	83.25
621.708	101.25
621.915	93.25
622.122	87.25
622.329	102.25
622.536	99.25
622.743	95.25
622.95	87.25
623.157	96.25
623.364	100.25
623.571	92.25
623.778	86.25
623.985	89.25
624.192	80.25
624.399	75.25
624.606	104.25
624.812	88.25
625.019	76.25
625.226	81.25
625.433	89.25
625.639	83.25
625.846	71.25
626.053	81.25
626.259	97.25
626.466	89.25
626.673	74.25
626.879	92.25
627.086	88.25
627.293	86.25
627.499	69.25
627.706	82.25
627.912	87.25
628.119	88.25
628.325	84.25
628.532	92.25
628.738	85.25
628.945	90.25
629.151	98.25
629.357	93.25
629.564	81.25
629.77	86.25
629.976	76.25
630.183	88.25
630.389	82.25
630.595	83.25
630.802	90.25
631.008	89.25
631.214	83.25
631.42	84.25
631.627	98.25
631.833	109.25
632.039	88.25
632.245	89.25
632.451	88.25
632.657	95.25
632.863	78.25
633.069	92.25
633.275	83.25
633.481	80.25
633.688	98.25
633.893	92.25
634.099	88.25
634.305	98.25
634.511	99.25
634.717	111.25
634.923	91.25
635.129	86.25
635.335	75.25
635.541	86.25
635.747	76.25
635.952	91.25
636.158	90.25
636.364	87.25
636.57	89.25
636.775	93.25
636.981	86.25
637.187	81.25
637.392	91.25
637.598	87.25
637.804	95.25
638.009	85.25
638.215	88.25
638.421	96.25
638.626	87.25
638.832	84.25
639.037	98.25
639.243	82.25
639.448	94.25
639.654	89.25
639.859	85.25
640.065	78.25
640.27	96.25
640.475	89.25
640.681	82.25
640.886	84.25
641.091	83.25
641.297	96.25
641.502	88.25
641.707	89.25
641.913	85.25
642.118	92.25
642.323	90.25
642.528	92.25
642.733	88.25
642.939	102.25
643.144	84.25
643.349	83.25
643.554	87.25
643.759	70.25
643.964	92.25
644.169	69.25
644.374	93.25
644.579	90.25
644.784	89.25
644.989	79.25
645.194	104.25
645.399	95.25
645.604	86.25
645.809	87.25
646.014	89.25
646.219	84.25
646.423	85.25
646.628	79.25
646.833	81.25
647.038	76.25
647.243	84.25
647.447	86.25
647.652	74.25
647.857	89.25
648.062	88.25
648.266	95.25
648.471	96.25
648.676	83.25
648.88	86.25
649.085	91.25
649.289	85.25
649.494	93.25
649.698	95.25
649.903	93.25
650.107	96.25
650.312	81.25
650.516	69.25
650.721	105.25
650.925	96.25
651.13	88.25
651.334	79.25
651.539	84.25
651.743	84.25
651.947	89.25
652.152	91.25
652.356	79.25
652.56	91.25
652.764	86.25
652.969	74.25
653.173	88.25
653.377	93.25
653.581	75.25
653.785	94.25
653.99	76.25
654.194	90.25
654.398	89.25
654.602	86.25
654.806	86.25
655.01	89.25
655.214	82.25
655.418	91.25
655.622	84.25
655.826	79.25
656.03	86.25
656.234	86.25
656.438	91.25
656.642	88.25
656.846	86.25
657.049	76.25
657.253	83.25
657.457	82.25
657.661	93.25
657.865	87.25
658.068	93.25
658.272	94.25
658.476	77.25
658.68	80.25
658.883	85.25
659.087	92.25
659.291	101.25
659.494	83.25
659.698	90.25
659.901	80.25
660.105	85.25
660.309	90.25
660.512	89.25
660.716	93.25
660.919	87.25
661.123	87.25
661.326	98.25
661.53	87.25
661.733	89.25
661.936	89.25
662.14	75.25
662.343	91.25
662.546	82.25
662.75	79.25
662.953	82.25
663.156	74.25
663.36	80.25
663.563	88.25
663.766	81.25
663.969	80.25
664.173	67.25
664.376	87.25
664.579	90.25
664.782	86.25
664.985	81.25
665.188	101.25
665.391	83.25
665.594	83.25
665.797	97.25
666	91.25
666.203	95.25
666.406	85.25
666.609	96.25
666.812	93.25
667.015	82.25
667.218	80.25
667.421	84.25
667.624	93.25
667.827	77.25
668.03	80.25
668.232	82.25
668.435	75.25
668.638	74.25
668.841	80.25
669.043	74.25
669.246	75.25
669.449	87.25
669.651	78.25
669.854	96.25
670.057	100.25
670.259	87.25
670.462	99.25
670.665	91.25
670.867	86.25
671.07	88.25
671.272	82.25
671.475	83.25
671.677	78.25
671.88	99.25
672.082	74.25
672.284	80.25
672.487	80.25
672.689	93.25
672.892	89.25
