Data from Zn(NO3)2Standard.Agarose3%.GreenCap.LampEnergy10E.O_HRD10591_15-09-08-952.txt Node
Date: Mon Jul 22 15:09:08 EDT 2019
User: cochatt
Spectrometer: HR+D1059
Trigger mode: 1
Integration Time (sec): 1.000000E-1
Scans to average: 1
Electric dark correction enabled: true
Nonlinearity correction enabled: false
Boxcar width: 0
XAxis mode: Wavelengths
Number of Pixels in Spectrum: 2048
>>>>>Begin Spectral Data<<<<<
223.165	-11.94
223.4	-11.94
223.635	-11.94
223.869	-21.94
224.104	-12.94
224.338	-22.94
224.573	-15.94
224.808	-9.94
225.042	-0.94
225.277	-4.94
225.511	-10.94
225.746	0.06
225.98	6.06
226.215	3.06
226.449	20.06
226.683	19.06
226.918	19.06
227.152	45.06
227.387	24.06
227.621	41.06
227.856	37.06
228.09	46.06
228.324	43.06
228.559	47.06
228.793	69.06
229.027	63.06
229.262	62.06
229.496	62.06
229.73	76.06
229.964	73.06
230.199	66.06
230.433	86.06
230.667	66.06
230.901	78.06
231.136	85.06
231.37	74.06
231.604	75.06
231.838	82.06
232.072	67.06
232.306	70.06
232.541	80.06
232.775	89.06
233.009	76.06
233.243	78.06
233.477	93.06
233.711	83.06
233.945	70.06
234.179	88.06
234.413	90.06
234.647	81.06
234.881	87.06
235.115	74.06
235.349	87.06
235.583	75.06
235.817	85.06
236.051	93.06
236.285	66.06
236.519	74.06
236.753	70.06
236.987	83.06
237.221	98.06
237.455	85.06
237.689	82.06
237.922	80.06
238.156	86.06
238.39	74.06
238.624	72.06
238.858	85.06
239.091	86.06
239.325	78.06
239.559	85.06
239.793	95.06
240.027	66.06
240.26	81.06
240.494	77.06
240.728	78.06
240.961	59.06
241.195	79.06
241.429	72.06
241.662	86.06
241.896	81.06
242.13	79.06
242.363	64.06
242.597	68.06
242.83	84.06
243.064	85.06
243.298	83.06
243.531	82.06
243.765	74.06
243.998	75.06
244.232	88.06
244.465	84.06
244.699	92.06
244.932	74.06
245.166	73.06
245.399	78.06
245.633	80.06
245.866	72.06
246.099	82.06
246.333	80.06
246.566	86.06
246.8	81.06
247.033	84.06
247.266	91.06
247.5	75.06
247.733	81.06
247.966	91.06
248.2	64.06
248.433	75.06
248.666	89.06
248.899	95.06
249.133	78.06
249.366	97.06
249.599	84.06
249.832	84.06
250.066	82.06
250.299	76.06
250.532	91.06
250.765	94.06
250.998	75.06
251.231	81.06
251.465	90.06
251.698	92.06
251.931	84.06
252.164	83.06
252.397	65.06
252.63	79.06
252.863	97.06
253.096	80.06
253.329	71.06
253.562	94.06
253.795	88.06
254.028	88.06
254.261	89.06
254.494	103.06
254.727	74.06
254.96	79.06
255.193	81.06
255.426	89.06
255.659	71.06
255.892	80.06
256.124	69.06
256.357	71.06
256.59	78.06
256.823	79.06
257.056	89.06
257.289	74.06
257.521	81.06
257.754	84.06
257.987	89.06
258.22	84.06
258.452	78.06
258.685	71.06
258.918	70.06
259.151	88.06
259.383	82.06
259.616	94.06
259.849	91.06
260.081	93.06
260.314	89.06
260.547	74.06
260.779	75.06
261.012	86.06
261.244	78.06
261.477	89.06
261.71	92.06
261.942	74.06
262.175	92.06
262.407	69.06
262.64	74.06
262.872	79.06
263.105	75.06
263.337	82.06
263.57	74.06
263.802	87.06
264.035	90.06
264.267	101.06
264.499	80.06
264.732	82.06
264.964	102.06
265.197	86.06
265.429	73.06
265.661	92.06
265.894	99.06
266.126	87.06
266.358	77.06
266.591	97.06
266.823	87.06
267.055	77.06
267.287	76.06
267.52	75.06
267.752	93.06
267.984	82.06
268.216	86.06
268.448	89.06
268.681	80.06
268.913	84.06
269.145	76.06
269.377	82.06
269.609	81.06
269.841	93.06
270.073	78.06
270.306	81.06
270.538	89.06
270.77	83.06
271.002	76.06
271.234	88.06
271.466	85.06
271.698	89.06
271.93	89.06
272.162	77.06
272.394	75.06
272.626	94.06
272.858	88.06
273.09	89.06
273.322	86.06
273.553	74.06
273.785	67.06
274.017	69.06
274.249	83.06
274.481	88.06
274.713	85.06
274.945	89.06
275.176	76.06
275.408	83.06
275.64	78.06
275.872	78.06
276.104	87.06
276.335	77.06
276.567	82.06
276.799	88.06
277.031	84.06
277.262	72.06
277.494	89.06
277.726	90.06
277.957	77.06
278.189	85.06
278.421	73.06
278.652	90.06
278.884	81.06
279.115	67.06
279.347	77.06
279.579	85.06
279.81	81.06
280.042	78.06
280.273	65.06
280.505	85.06
280.736	77.06
280.968	78.06
281.199	82.06
281.431	80.06
281.662	83.06
281.894	91.06
282.125	85.06
282.356	83.06
282.588	83.06
282.819	76.06
283.051	93.06
283.282	79.06
283.513	77.06
283.745	77.06
283.976	86.06
284.207	95.06
284.439	82.06
284.67	81.06
284.901	90.06
285.132	88.06
285.364	83.06
285.595	100.06
285.826	93.06
286.057	97.06
286.288	81.06
286.52	76.06
286.751	90.06
286.982	74.06
287.213	70.06
287.444	85.06
287.675	97.06
287.906	85.06
288.138	102.06
288.369	85.06
288.6	90.06
288.831	78.06
289.062	100.06
289.293	83.06
289.524	75.06
289.755	76.06
289.986	83.06
290.217	76.06
290.448	84.06
290.679	64.06
290.91	84.06
291.141	90.06
291.371	80.06
291.602	77.06
291.833	85.06
292.064	92.06
292.295	84.06
292.526	86.06
292.757	86.06
292.987	72.06
293.218	77.06
293.449	86.06
293.68	80.06
293.91	91.06
294.141	90.06
294.372	86.06
294.603	91.06
294.833	91.06
295.064	85.06
295.295	92.06
295.525	86.06
295.756	82.06
295.987	84.06
296.217	78.06
296.448	78.06
296.679	90.06
296.909	96.06
297.14	97.06
297.37	89.06
297.601	88.06
297.831	83.06
298.062	77.06
298.292	85.06
298.523	85.06
298.753	81.06
298.984	88.06
299.214	92.06
299.445	79.06
299.675	74.06
299.905	81.06
300.136	86.06
300.366	92.06
300.597	91.06
300.827	80.06
301.057	81.06
301.288	89.06
301.518	100.06
301.748	96.06
301.979	70.06
302.209	88.06
302.439	88.06
302.669	94.06
302.9	85.06
303.13	98.06
303.36	78.06
303.59	93.06
303.82	86.06
304.051	94.06
304.281	82.06
304.511	98.06
304.741	85.06
304.971	93.06
305.201	74.06
305.431	81.06
305.661	80.06
305.891	84.06
306.121	83.06
306.352	98.06
306.582	88.06
306.812	92.06
307.042	89.06
307.272	79.06
307.502	97.06
307.731	86.06
307.961	90.06
308.191	90.06
308.421	93.06
308.651	89.06
308.881	94.06
309.111	90.06
309.341	77.06
309.571	85.06
309.8	89.06
310.03	87.06
310.26	86.06
310.49	93.06
310.72	85.06
310.949	84.06
311.179	74.06
311.409	86.06
311.639	95.06
311.868	75.06
312.098	80.06
312.328	69.06
312.557	81.06
312.787	83.06
313.017	84.06
313.246	85.06
313.476	79.06
313.706	99.06
313.935	93.06
314.165	87.06
314.394	94.06
314.624	95.06
314.853	95.06
315.083	79.06
315.312	94.06
315.542	101.06
315.771	86.06
316.001	78.06
316.23	76.06
316.46	85.06
316.689	90.06
316.919	75.06
317.148	82.06
317.377	88.06
317.607	91.06
317.836	83.06
318.065	87.06
318.295	78.06
318.524	101.06
318.753	84.06
318.983	87.06
319.212	82.06
319.441	80.06
319.67	86.06
319.9	101.06
320.129	91.06
320.358	90.06
320.587	90.06
320.816	90.06
321.046	75.06
321.275	75.06
321.504	82.06
321.733	93.06
321.962	79.06
322.191	89.06
322.42	93.06
322.649	85.06
322.878	90.06
323.108	90.06
323.337	98.06
323.566	89.06
323.795	85.06
324.024	88.06
324.253	87.06
324.482	85.06
324.71	91.06
324.939	94.06
325.168	76.06
325.397	82.06
325.626	93.06
325.855	100.06
326.084	82.06
326.313	93.06
326.542	71.06
326.77	91.06
326.999	81.06
327.228	80.06
327.457	94.06
327.686	83.06
327.914	91.06
328.143	86.06
328.372	79.06
328.6	84.06
328.829	84.06
329.058	89.06
329.287	82.06
329.515	81.06
329.744	89.06
329.972	87.06
330.201	79.06
330.43	87.06
330.658	84.06
330.887	97.06
331.115	100.06
331.344	91.06
331.572	97.06
331.801	79.06
332.03	93.06
332.258	82.06
332.486	85.06
332.715	82.06
332.943	70.06
333.172	82.06
333.4	78.06
333.629	89.06
333.857	101.06
334.085	89.06
334.314	70.06
334.542	83.06
334.771	97.06
334.999	92.06
335.227	81.06
335.455	95.06
335.684	77.06
335.912	82.06
336.14	86.06
336.369	97.06
336.597	83.06
336.825	72.06
337.053	73.06
337.281	87.06
337.51	79.06
337.738	87.06
337.966	86.06
338.194	76.06
338.422	89.06
338.65	87.06
338.878	80.06
339.106	91.06
339.334	88.06
339.562	87.06
339.79	76.06
340.018	81.06
340.246	85.06
340.474	82.06
340.702	77.06
340.93	86.06
341.158	75.06
341.386	90.06
341.614	82.06
341.842	86.06
342.07	99.06
342.298	86.06
342.526	94.06
342.754	88.06
342.981	68.06
343.209	102.06
343.437	93.06
343.665	91.06
343.893	86.06
344.12	86.06
344.348	88.06
344.576	82.06
344.804	84.06
345.031	83.06
345.259	83.06
345.487	84.06
345.714	76.06
345.942	86.06
346.17	100.06
346.397	91.06
346.625	97.06
346.853	88.06
347.08	79.06
347.308	97.06
347.535	61.06
347.763	90.06
347.99	79.06
348.218	85.06
348.445	85.06
348.673	74.06
348.9	86.06
349.128	94.06
349.355	90.06
349.583	87.06
349.81	77.06
350.037	81.06
350.265	94.06
350.492	83.06
350.72	81.06
350.947	86.06
351.174	77.06
351.402	92.06
351.629	82.06
351.856	77.06
352.083	75.06
352.311	101.06
352.538	88.06
352.765	83.06
352.992	83.06
353.22	89.06
353.447	94.06
353.674	102.06
353.901	102.06
354.128	84.06
354.355	98.06
354.583	86.06
354.81	82.06
355.037	83.06
355.264	73.06
355.491	89.06
355.718	78.06
355.945	84.06
356.172	76.06
356.399	77.06
356.626	91.06
356.853	88.06
357.08	81.06
357.307	85.06
357.534	85.06
357.761	93.06
357.988	78.06
358.215	93.06
358.441	81.06
358.668	77.06
358.895	65.06
359.122	92.06
359.349	89.06
359.576	88.06
359.802	87.06
360.029	85.06
360.256	80.06
360.483	100.06
360.709	83.06
360.936	89.06
361.163	89.06
361.39	85.06
361.616	91.06
361.843	94.06
362.07	79.06
362.296	97.06
362.523	87.06
362.749	101.06
362.976	76.06
363.203	66.06
363.429	79.06
363.656	87.06
363.882	84.06
364.109	79.06
364.335	79.06
364.562	76.06
364.788	77.06
365.015	92.06
365.241	85.06
365.468	79.06
365.694	69.06
365.92	84.06
366.147	91.06
366.373	79.06
366.599	79.06
366.826	84.06
367.052	72.06
367.278	98.06
367.505	74.06
367.731	92.06
367.957	89.06
368.184	89.06
368.41	81.06
368.636	97.06
368.862	90.06
369.089	85.06
369.315	88.06
369.541	81.06
369.767	86.06
369.993	92.06
370.219	97.06
370.445	85.06
370.672	96.06
370.898	91.06
371.124	93.06
371.35	71.06
371.576	76.06
371.802	100.06
372.028	86.06
372.254	101.06
372.48	86.06
372.706	75.06
372.932	85.06
373.158	89.06
373.384	88.06
373.61	89.06
373.835	96.06
374.061	88.06
374.287	78.06
374.513	78.06
374.739	75.06
374.965	90.06
375.191	89.06
375.416	88.06
375.642	89.06
375.868	98.06
376.094	84.06
376.319	96.06
376.545	93.06
376.771	86.06
376.997	96.06
377.222	103.06
377.448	79.06
377.674	81.06
377.899	91.06
378.125	89.06
378.35	90.06
378.576	82.06
378.802	87.06
379.027	95.06
379.253	78.06
379.478	102.06
379.704	98.06
379.929	86.06
380.155	79.06
380.38	89.06
380.606	100.06
380.831	95.06
381.057	110.06
381.282	90.06
381.507	84.06
381.733	91.06
381.958	82.06
382.184	87.06
382.409	90.06
382.634	101.06
382.86	96.06
383.085	84.06
383.31	91.06
383.535	94.06
383.761	83.06
383.986	89.06
384.211	97.06
384.436	105.06
384.662	95.06
384.887	81.06
385.112	89.06
385.337	93.06
385.562	89.06
385.787	86.06
386.013	91.06
386.238	108.06
386.463	93.06
386.688	97.06
386.913	91.06
387.138	93.06
387.363	89.06
387.588	104.06
387.813	77.06
388.038	89.06
388.263	94.06
388.488	91.06
388.713	79.06
388.938	84.06
389.163	91.06
389.387	87.06
389.612	99.06
389.837	86.06
390.062	93.06
390.287	79.06
390.512	88.06
390.736	94.06
390.961	86.06
391.186	101.06
391.411	107.06
391.636	103.06
391.86	91.06
392.085	90.06
392.31	116.06
392.534	93.06
392.759	98.06
392.984	93.06
393.208	100.06
393.433	96.06
393.658	99.06
393.882	97.06
394.107	91.06
394.331	102.06
394.556	90.06
394.78	106.06
395.005	109.06
395.229	85.06
395.454	90.06
395.678	91.06
395.903	96.06
396.127	108.06
396.352	90.06
396.576	102.06
396.801	89.06
397.025	85.06
397.249	101.06
397.474	93.06
397.698	94.06
397.922	94.06
398.147	96.06
398.371	87.06
398.595	116.06
398.82	94.06
399.044	105.06
399.268	98.06
399.492	101.06
399.717	99.06
399.941	103.06
400.165	106.06
400.389	95.06
400.613	93.06
400.837	87.06
401.062	97.06
401.286	89.06
401.51	98.06
401.734	93.06
401.958	97.06
402.182	107.06
402.406	89.06
402.63	101.06
402.854	101.06
403.078	100.06
403.302	89.06
403.526	96.06
403.75	100.06
403.974	113.06
404.198	104.06
404.422	100.06
404.645	104.06
404.869	109.06
405.093	79.06
405.317	95.06
405.541	108.06
405.765	93.06
405.988	111.06
406.212	99.06
406.436	91.06
406.66	93.06
406.883	102.06
407.107	86.06
407.331	101.06
407.555	103.06
407.778	105.06
408.002	95.06
408.226	102.06
408.449	108.06
408.673	98.06
408.896	98.06
409.12	93.06
409.344	105.06
409.567	101.06
409.791	107.06
410.014	117.06
410.238	118.06
410.461	94.06
410.685	102.06
410.908	99.06
411.132	106.06
411.355	108.06
411.578	107.06
411.802	117.06
412.025	102.06
412.249	109.06
412.472	97.06
412.695	96.06
412.919	114.06
413.142	95.06
413.365	111.06
413.589	90.06
413.812	105.06
414.035	111.06
414.258	114.06
414.482	115.06
414.705	101.06
414.928	102.06
415.151	110.06
415.374	103.06
415.597	122.06
415.821	95.06
416.044	78.06
416.267	106.06
416.49	94.06
416.713	108.06
416.936	91.06
417.159	109.06
417.382	93.06
417.605	98.06
417.828	101.06
418.051	98.06
418.274	110.06
418.497	108.06
418.72	97.06
418.943	103.06
419.166	112.06
419.389	101.06
419.611	100.06
419.834	94.06
420.057	106.06
420.28	106.06
420.503	113.06
420.726	96.06
420.948	115.06
421.171	96.06
421.394	102.06
421.617	124.06
421.839	104.06
422.062	109.06
422.285	113.06
422.507	112.06
422.73	95.06
422.953	108.06
423.175	97.06
423.398	98.06
423.621	121.06
423.843	104.06
424.066	109.06
424.288	111.06
424.511	101.06
424.733	122.06
424.956	110.06
425.178	108.06
425.401	113.06
425.623	115.06
425.846	109.06
426.068	109.06
426.291	111.06
426.513	111.06
426.735	115.06
426.958	111.06
427.18	95.06
427.402	117.06
427.625	107.06
427.847	101.06
428.069	110.06
428.292	120.06
428.514	98.06
428.736	109.06
428.958	106.06
429.181	108.06
429.403	102.06
429.625	107.06
429.847	111.06
430.069	107.06
430.292	97.06
430.514	87.06
430.736	90.06
430.958	115.06
431.18	114.06
431.402	89.06
431.624	103.06
431.846	95.06
432.068	104.06
432.29	94.06
432.512	101.06
432.734	102.06
432.956	109.06
433.178	113.06
433.4	104.06
433.622	116.06
433.844	113.06
434.066	101.06
434.287	105.06
434.509	87.06
434.731	80.06
434.953	90.06
435.175	102.06
435.397	107.06
435.618	104.06
435.84	88.06
436.062	99.06
436.284	116.06
436.505	104.06
436.727	109.06
436.949	102.06
437.17	117.06
437.392	91.06
437.614	109.06
437.835	88.06
438.057	88.06
438.278	94.06
438.5	98.06
438.721	87.06
438.943	109.06
439.165	105.06
439.386	111.06
439.608	107.06
439.829	110.06
440.05	123.06
440.272	125.06
440.493	107.06
440.715	117.06
440.936	104.06
441.158	116.06
441.379	123.06
441.6	116.06
441.822	118.06
442.043	111.06
442.264	107.06
442.486	101.06
442.707	102.06
442.928	105.06
443.149	115.06
443.371	119.06
443.592	122.06
443.813	129.06
444.034	113.06
444.255	115.06
444.476	114.06
444.698	103.06
444.919	100.06
445.14	230.06
445.361	180.06
445.582	114.06
445.803	113.06
446.024	125.06
446.245	121.06
446.466	123.06
446.687	111.06
446.908	121.06
447.129	116.06
447.35	107.06
447.571	113.06
447.792	123.06
448.013	125.06
448.234	115.06
448.455	122.06
448.675	111.06
448.896	107.06
449.117	104.06
449.338	108.06
449.559	110.06
449.779	124.06
450	114.06
450.221	120.06
450.442	101.06
450.662	101.06
450.883	109.06
451.104	108.06
451.324	116.06
451.545	91.06
451.766	113.06
451.986	109.06
452.207	113.06
452.428	117.06
452.648	96.06
452.869	91.06
453.089	114.06
453.31	111.06
453.53	101.06
453.751	102.06
453.971	92.06
454.192	105.06
454.412	109.06
454.633	93.06
454.853	108.06
455.073	107.06
455.294	116.06
455.514	99.06
455.734	108.06
455.955	110.06
456.175	99.06
456.395	104.06
456.616	96.06
456.836	101.06
457.056	90.06
457.276	97.06
457.497	95.06
457.717	113.06
457.937	105.06
458.157	91.06
458.377	99.06
458.598	91.06
458.818	89.06
459.038	99.06
459.258	97.06
459.478	101.06
459.698	83.06
459.918	89.06
460.138	87.06
460.358	109.06
460.578	107.06
460.798	97.06
461.018	93.06
461.238	107.06
461.458	116.06
461.678	94.06
461.898	94.06
462.118	98.06
462.338	91.06
462.558	101.06
462.777	105.06
462.997	103.06
463.217	103.06
463.437	99.06
463.657	118.06
463.876	90.06
464.096	101.06
464.316	88.06
464.536	97.06
464.755	94.06
464.975	114.06
465.195	108.06
465.414	99.06
465.634	89.06
465.854	101.06
466.073	108.06
466.293	101.06
466.512	110.06
466.732	110.06
466.951	120.06
467.171	104.06
467.391	90.06
467.61	108.06
467.829	106.06
468.049	110.06
468.268	105.06
468.488	113.06
468.707	117.06
468.927	121.06
469.146	117.06
469.365	106.06
469.585	110.06
469.804	114.06
470.023	109.06
470.243	121.06
470.462	115.06
470.681	116.06
470.901	103.06
471.12	123.06
471.339	120.06
471.558	121.06
471.777	100.06
471.997	95.06
472.216	113.06
472.435	96.06
472.654	90.06
472.873	105.06
473.092	115.06
473.311	96.06
473.53	99.06
473.749	107.06
473.968	108.06
474.187	106.06
474.406	109.06
474.625	101.06
474.844	113.06
475.063	106.06
475.282	103.06
475.501	100.06
475.72	115.06
475.939	101.06
476.158	119.06
476.377	113.06
476.596	111.06
476.814	102.06
477.033	98.06
477.252	114.06
477.471	100.06
477.69	97.06
477.908	118.06
478.127	107.06
478.346	110.06
478.564	111.06
478.783	101.06
479.002	122.06
479.22	108.06
479.439	111.06
479.658	101.06
479.876	104.06
480.095	107.06
480.313	102.06
480.532	101.06
480.751	113.06
480.969	92.06
481.188	79.06
481.406	94.06
481.624	89.06
481.843	87.06
482.061	86.06
482.28	100.06
482.498	100.06
482.717	112.06
482.935	119.06
483.153	106.06
483.372	115.06
483.59	125.06
483.808	111.06
484.027	103.06
484.245	97.06
484.463	108.06
484.681	119.06
484.9	111.06
485.118	101.06
485.336	101.06
485.554	88.06
485.772	105.06
485.99	99.06
486.209	94.06
486.427	106.06
486.645	103.06
486.863	108.06
487.081	123.06
487.299	106.06
487.517	106.06
487.735	121.06
487.953	126.06
488.171	143.06
488.389	131.06
488.607	128.06
488.825	115.06
489.043	110.06
489.261	125.06
489.479	107.06
489.696	108.06
489.914	116.06
490.132	127.06
490.35	120.06
490.568	122.06
490.786	135.06
491.003	124.06
491.221	127.06
491.439	132.06
491.657	142.06
491.874	153.06
492.092	149.06
492.31	165.06
492.527	149.06
492.745	136.06
492.963	148.06
493.18	134.06
493.398	135.06
493.615	137.06
493.833	121.06
494.05	119.06
494.268	134.06
494.485	115.06
494.703	137.06
494.92	124.06
495.138	113.06
495.355	131.06
495.573	135.06
495.79	111.06
496.008	124.06
496.225	118.06
496.442	115.06
496.66	134.06
496.877	125.06
497.094	111.06
497.312	108.06
497.529	116.06
497.746	106.06
497.963	106.06
498.181	109.06
498.398	113.06
498.615	116.06
498.832	106.06
499.049	99.06
499.267	87.06
499.484	105.06
499.701	98.06
499.918	110.06
500.135	122.06
500.352	122.06
500.569	106.06
500.786	120.06
501.003	104.06
501.22	106.06
501.437	110.06
501.654	114.06
501.871	113.06
502.088	119.06
502.305	95.06
502.522	99.06
502.739	95.06
502.956	107.06
503.172	99.06
503.389	117.06
503.606	115.06
503.823	120.06
504.04	94.06
504.256	102.06
504.473	82.06
504.69	87.06
504.907	79.06
505.123	107.06
505.34	101.06
505.557	105.06
505.773	107.06
505.99	108.06
506.207	94.06
506.423	95.06
506.64	99.06
506.856	104.06
507.073	108.06
507.289	91.06
507.506	108.06
507.722	99.06
507.939	102.06
508.155	88.06
508.372	96.06
508.588	103.06
508.805	105.06
509.021	93.06
509.238	110.06
509.454	98.06
509.67	90.06
509.887	122.06
510.103	77.06
510.319	87.06
510.536	76.06
510.752	82.06
510.968	86.06
511.184	75.06
511.401	81.06
511.617	93.06
511.833	90.06
512.049	93.06
512.265	98.06
512.481	86.06
512.698	85.06
512.914	92.06
513.13	85.06
513.346	99.06
513.562	91.06
513.778	82.06
513.994	84.06
514.21	86.06
514.426	106.06
514.642	82.06
514.858	85.06
515.074	85.06
515.29	89.06
515.506	81.06
515.721	92.06
515.937	78.06
516.153	88.06
516.369	84.06
516.585	81.06
516.801	83.06
517.016	94.06
517.232	91.06
517.448	99.06
517.664	79.06
517.879	99.06
518.095	93.06
518.311	92.06
518.527	81.06
518.742	88.06
518.958	105.06
519.173	104.06
519.389	110.06
519.605	99.06
519.82	82.06
520.036	80.06
520.251	88.06
520.467	88.06
520.682	89.06
520.898	97.06
521.113	82.06
521.329	94.06
521.544	91.06
521.76	90.06
521.975	87.06
522.19	92.06
522.406	95.06
522.621	97.06
522.836	86.06
523.052	92.06
523.267	87.06
523.482	102.06
523.698	94.06
523.913	92.06
524.128	99.06
524.343	85.06
524.559	107.06
524.774	116.06
524.989	112.06
525.204	113.06
525.419	92.06
525.634	107.06
525.849	102.06
526.064	95.06
526.28	98.06
526.495	97.06
526.71	89.06
526.925	82.06
527.14	83.06
527.355	86.06
527.57	100.06
527.785	85.06
527.999	84.06
528.214	91.06
528.429	95.06
528.644	98.06
528.859	108.06
529.074	111.06
529.289	143.06
529.503	122.06
529.718	122.06
529.933	90.06
530.148	100.06
530.363	95.06
530.577	95.06
530.792	80.06
531.007	73.06
531.221	78.06
531.436	81.06
531.651	86.06
531.865	79.06
532.08	77.06
532.295	89.06
532.509	85.06
532.724	94.06
532.938	101.06
533.153	102.06
533.367	99.06
533.582	105.06
533.796	100.06
534.011	102.06
534.225	93.06
534.44	97.06
534.654	83.06
534.868	83.06
535.083	94.06
535.297	99.06
535.511	94.06
535.726	96.06
535.94	102.06
536.154	98.06
536.369	89.06
536.583	96.06
536.797	97.06
537.011	108.06
537.225	83.06
537.44	84.06
537.654	100.06
537.868	96.06
538.082	99.06
538.296	85.06
538.51	114.06
538.724	85.06
538.938	102.06
539.153	102.06
539.367	100.06
539.581	100.06
539.795	102.06
540.009	90.06
540.222	93.06
540.436	91.06
540.65	98.06
540.864	106.06
541.078	113.06
541.292	97.06
541.506	114.06
541.72	129.06
541.934	140.06
542.147	138.06
542.361	140.06
542.575	107.06
542.789	123.06
543.002	110.06
543.216	102.06
543.43	102.06
543.644	113.06
543.857	124.06
544.071	110.06
544.285	117.06
544.498	127.06
544.712	122.06
544.925	131.06
545.139	109.06
545.352	120.06
545.566	124.06
545.779	130.06
545.993	121.06
546.206	133.06
546.42	126.06
546.633	126.06
546.847	130.06
547.06	117.06
547.274	130.06
547.487	127.06
547.7	118.06
547.914	131.06
548.127	135.06
548.34	120.06
548.554	113.06
548.767	131.06
548.98	132.06
549.193	134.06
549.407	138.06
549.62	109.06
549.833	122.06
550.046	131.06
550.259	136.06
550.473	111.06
550.686	127.06
550.899	123.06
551.112	109.06
551.325	105.06
551.538	117.06
551.751	106.06
551.964	110.06
552.177	116.06
552.39	98.06
552.603	107.06
552.816	125.06
553.029	117.06
553.242	129.06
553.455	119.06
553.667	127.06
553.88	125.06
554.093	126.06
554.306	115.06
554.519	121.06
554.732	113.06
554.944	115.06
555.157	123.06
555.37	110.06
555.583	105.06
555.795	121.06
556.008	111.06
556.221	113.06
556.433	107.06
556.646	100.06
556.859	126.06
557.071	105.06
557.284	110.06
557.496	105.06
557.709	122.06
557.921	125.06
558.134	118.06
558.346	110.06
558.559	93.06
558.771	115.06
558.984	119.06
559.196	126.06
559.409	118.06
559.621	101.06
559.833	117.06
560.046	100.06
560.258	99.06
560.47	108.06
560.683	108.06
560.895	101.06
561.107	115.06
561.32	109.06
561.532	102.06
561.744	111.06
561.956	115.06
562.168	111.06
562.381	113.06
562.593	96.06
562.805	106.06
563.017	106.06
563.229	100.06
563.441	109.06
563.653	89.06
563.865	102.06
564.077	117.06
564.289	109.06
564.501	106.06
564.713	103.06
564.925	97.06
565.137	99.06
565.349	106.06
565.561	117.06
565.773	92.06
565.985	92.06
566.197	88.06
566.408	104.06
566.62	116.06
566.832	120.06
567.044	101.06
567.255	92.06
567.467	107.06
567.679	92.06
567.891	106.06
568.102	101.06
568.314	93.06
568.526	103.06
568.737	105.06
568.949	79.06
569.161	98.06
569.372	74.06
569.584	82.06
569.795	84.06
570.007	95.06
570.218	93.06
570.43	87.06
570.641	100.06
570.853	79.06
571.064	89.06
571.276	91.06
571.487	107.06
571.698	100.06
571.91	98.06
572.121	104.06
572.333	100.06
572.544	101.06
572.755	91.06
572.966	85.06
573.178	95.06
573.389	77.06
573.6	92.06
573.811	76.06
574.023	82.06
574.234	86.06
574.445	80.06
574.656	79.06
574.867	84.06
575.078	100.06
575.289	90.06
575.501	93.06
575.712	97.06
575.923	100.06
576.134	102.06
576.345	90.06
576.556	103.06
576.767	95.06
576.978	93.06
577.188	85.06
577.399	101.06
577.61	83.06
577.821	83.06
578.032	99.06
578.243	95.06
578.454	81.06
578.665	81.06
578.875	89.06
579.086	75.06
579.297	75.06
579.508	93.06
579.718	89.06
579.929	88.06
580.14	79.06
580.35	82.06
580.561	89.06
580.772	98.06
580.982	81.06
581.193	102.06
581.403	96.06
581.614	85.06
581.825	96.06
582.035	84.06
582.246	97.06
582.456	85.06
582.667	88.06
582.877	87.06
583.087	85.06
583.298	87.06
583.508	85.06
583.719	75.06
583.929	99.06
584.139	96.06
584.35	78.06
584.56	106.06
584.77	96.06
584.981	77.06
585.191	80.06
585.401	83.06
585.611	92.06
585.821	95.06
586.032	85.06
586.242	61.06
586.452	87.06
586.662	85.06
586.872	83.06
587.082	107.06
587.292	90.06
587.502	70.06
587.713	62.06
587.923	84.06
588.133	87.06
588.343	95.06
588.553	98.06
588.762	94.06
588.972	91.06
589.182	92.06
589.392	82.06
589.602	94.06
589.812	86.06
590.022	80.06
590.232	96.06
590.441	90.06
590.651	79.06
590.861	94.06
591.071	78.06
591.281	88.06
591.49	93.06
591.7	91.06
591.91	90.06
592.119	87.06
592.329	86.06
592.539	87.06
592.748	82.06
592.958	88.06
593.167	92.06
593.377	93.06
593.587	93.06
593.796	70.06
594.006	98.06
594.215	95.06
594.424	78.06
594.634	91.06
594.843	85.06
595.053	85.06
595.262	81.06
595.472	100.06
595.681	106.06
595.89	93.06
596.1	83.06
596.309	79.06
596.518	87.06
596.727	91.06
596.937	98.06
597.146	83.06
597.355	104.06
597.564	85.06
597.774	85.06
597.983	83.06
598.192	85.06
598.401	85.06
598.61	84.06
598.819	106.06
599.028	93.06
599.237	81.06
599.446	87.06
599.655	92.06
599.864	82.06
600.073	86.06
600.282	91.06
600.491	83.06
600.7	83.06
600.909	88.06
601.118	88.06
601.327	98.06
601.536	99.06
601.745	86.06
601.953	101.06
602.162	94.06
602.371	91.06
602.58	93.06
602.789	94.06
602.997	92.06
603.206	91.06
603.415	98.06
603.623	89.06
603.832	95.06
604.041	99.06
604.249	106.06
604.458	90.06
604.666	82.06
604.875	88.06
605.084	76.06
605.292	100.06
605.501	91.06
605.709	103.06
605.918	105.06
606.126	95.06
606.334	75.06
606.543	105.06
606.751	82.06
606.96	85.06
607.168	93.06
607.376	99.06
607.585	107.06
607.793	119.06
608.001	91.06
608.21	107.06
608.418	93.06
608.626	104.06
608.834	89.06
609.043	102.06
609.251	105.06
609.459	96.06
609.667	117.06
609.875	97.06
610.083	106.06
610.291	106.06
610.499	109.06
610.707	101.06
610.916	105.06
611.124	115.06
611.332	108.06
611.54	99.06
611.748	90.06
611.955	109.06
612.163	96.06
612.371	111.06
612.579	87.06
612.787	91.06
612.995	104.06
613.203	99.06
613.411	102.06
613.618	99.06
613.826	85.06
614.034	94.06
614.242	94.06
614.449	98.06
614.657	90.06
614.865	108.06
615.072	95.06
615.28	113.06
615.488	100.06
615.695	99.06
615.903	94.06
616.111	89.06
616.318	98.06
616.526	100.06
616.733	104.06
616.941	99.06
617.148	98.06
617.356	118.06
617.563	95.06
617.771	92.06
617.978	89.06
618.185	86.06
618.393	100.06
618.6	114.06
618.807	107.06
619.015	97.06
619.222	93.06
619.429	95.06
619.637	95.06
619.844	107.06
620.051	99.06
620.258	93.06
620.466	101.06
620.673	97.06
620.88	93.06
621.087	85.06
621.294	93.06
621.501	90.06
621.708	89.06
621.915	96.06
622.122	99.06
622.329	98.06
622.536	91.06
622.743	98.06
622.95	114.06
623.157	99.06
623.364	98.06
623.571	106.06
623.778	83.06
623.985	100.06
624.192	98.06
624.399	102.06
624.606	102.06
624.812	103.06
625.019	94.06
625.226	94.06
625.433	91.06
625.639	87.06
625.846	87.06
626.053	101.06
626.259	94.06
626.466	97.06
626.673	94.06
626.879	94.06
627.086	106.06
627.293	96.06
627.499	101.06
627.706	111.06
627.912	88.06
628.119	92.06
628.325	94.06
628.532	94.06
628.738	91.06
628.945	94.06
629.151	89.06
629.357	99.06
629.564	101.06
629.77	95.06
629.976	93.06
630.183	94.06
630.389	98.06
630.595	77.06
630.802	88.06
631.008	105.06
631.214	84.06
631.42	85.06
631.627	89.06
631.833	87.06
632.039	80.06
632.245	78.06
632.451	92.06
632.657	89.06
632.863	98.06
633.069	84.06
633.275	86.06
633.481	89.06
633.688	107.06
633.893	105.06
634.099	102.06
634.305	95.06
634.511	89.06
634.717	97.06
634.923	91.06
635.129	80.06
635.335	93.06
635.541	99.06
635.747	98.06
635.952	113.06
636.158	87.06
636.364	83.06
636.57	83.06
636.775	89.06
636.981	104.06
637.187	101.06
637.392	91.06
637.598	102.06
637.804	99.06
638.009	94.06
638.215	88.06
638.421	90.06
638.626	86.06
638.832	84.06
639.037	107.06
639.243	96.06
639.448	79.06
639.654	90.06
639.859	93.06
640.065	89.06
640.27	99.06
640.475	90.06
640.681	95.06
640.886	86.06
641.091	90.06
641.297	101.06
641.502	86.06
641.707	87.06
641.913	105.06
642.118	100.06
642.323	87.06
642.528	105.06
642.733	95.06
642.939	89.06
643.144	90.06
643.349	89.06
643.554	82.06
643.759	69.06
643.964	87.06
644.169	94.06
644.374	87.06
644.579	102.06
644.784	92.06
644.989	86.06
645.194	90.06
645.399	99.06
645.604	105.06
645.809	87.06
646.014	85.06
646.219	90.06
646.423	86.06
646.628	93.06
646.833	90.06
647.038	102.06
647.243	94.06
647.447	76.06
647.652	98.06
647.857	78.06
648.062	94.06
648.266	98.06
648.471	88.06
648.676	87.06
648.88	98.06
649.085	99.06
649.289	91.06
649.494	100.06
649.698	89.06
649.903	90.06
650.107	92.06
650.312	98.06
650.516	76.06
650.721	102.06
650.925	102.06
651.13	84.06
651.334	77.06
651.539	90.06
651.743	99.06
651.947	91.06
652.152	102.06
652.356	78.06
652.56	91.06
652.764	87.06
652.969	89.06
653.173	88.06
653.377	90.06
653.581	86.06
653.785	94.06
653.99	97.06
654.194	97.06
654.398	100.06
654.602	82.06
654.806	85.06
655.01	89.06
655.214	104.06
655.418	78.06
655.622	96.06
655.826	87.06
656.03	89.06
656.234	71.06
656.438	96.06
656.642	84.06
656.846	98.06
657.049	86.06
657.253	80.06
657.457	100.06
657.661	98.06
657.865	95.06
658.068	82.06
658.272	89.06
658.476	84.06
658.68	69.06
658.883	81.06
659.087	85.06
659.291	89.06
659.494	94.06
659.698	76.06
659.901	87.06
660.105	89.06
660.309	81.06
660.512	93.06
660.716	82.06
660.919	82.06
661.123	83.06
661.326	94.06
661.53	90.06
661.733	82.06
661.936	87.06
662.14	79.06
662.343	90.06
662.546	81.06
662.75	95.06
662.953	95.06
663.156	78.06
663.36	98.06
663.563	85.06
663.766	73.06
663.969	88.06
664.173	82.06
664.376	94.06
664.579	86.06
664.782	78.06
664.985	89.06
665.188	73.06
665.391	73.06
665.594	89.06
665.797	93.06
666	75.06
666.203	91.06
666.406	84.06
666.609	83.06
666.812	96.06
667.015	69.06
667.218	86.06
667.421	83.06
667.624	79.06
667.827	76.06
668.03	94.06
668.232	81.06
668.435	88.06
668.638	89.06
668.841	90.06
669.043	89.06
669.246	92.06
669.449	83.06
669.651	95.06
669.854	87.06
670.057	89.06
670.259	80.06
670.462	88.06
670.665	93.06
670.867	87.06
671.07	75.06
671.272	75.06
671.475	76.06
671.677	87.06
671.88	84.06
672.082	90.06
672.284	92.06
672.487	99.06
672.689	82.06
672.892	70.06
