Data from Zn(NO3)2Standard.Agarose3%.GreenCap.LampEnergy5.5.E.O_HRD10591_15-03-52-768.txt Node
Date: Mon Jul 22 15:03:52 EDT 2019
User: cochatt
Spectrometer: HR+D1059
Trigger mode: 1
Integration Time (sec): 1.000000E-1
Scans to average: 1
Electric dark correction enabled: true
Nonlinearity correction enabled: false
Boxcar width: 0
XAxis mode: Wavelengths
Number of Pixels in Spectrum: 2048
>>>>>Begin Spectral Data<<<<<
223.165	-23.19
223.4	-23.19
223.635	-23.19
223.869	-16.19
224.104	-13.19
224.338	-19.19
224.573	-27.19
224.808	-19.19
225.042	-12.19
225.277	-6.19
225.511	16.81
225.746	12.81
225.98	4.81
226.215	17.81
226.449	9.81
226.683	20.81
226.918	22.81
227.152	30.81
227.387	28.81
227.621	37.81
227.856	39.81
228.09	50.81
228.324	51.81
228.559	59.81
228.793	37.81
229.027	57.81
229.262	60.81
229.496	63.81
229.73	66.81
229.964	76.81
230.199	75.81
230.433	79.81
230.667	85.81
230.901	70.81
231.136	75.81
231.37	67.81
231.604	64.81
231.838	69.81
232.072	85.81
232.306	84.81
232.541	77.81
232.775	76.81
233.009	78.81
233.243	83.81
233.477	73.81
233.711	84.81
233.945	62.81
234.179	64.81
234.413	72.81
234.647	80.81
234.881	78.81
235.115	75.81
235.349	59.81
235.583	68.81
235.817	80.81
236.051	80.81
236.285	74.81
236.519	77.81
236.753	74.81
236.987	76.81
237.221	57.81
237.455	68.81
237.689	81.81
237.922	64.81
238.156	84.81
238.39	66.81
238.624	66.81
238.858	70.81
239.091	80.81
239.325	67.81
239.559	64.81
239.793	70.81
240.027	69.81
240.26	81.81
240.494	72.81
240.728	73.81
240.961	70.81
241.195	78.81
241.429	68.81
241.662	73.81
241.896	75.81
242.13	74.81
242.363	74.81
242.597	83.81
242.83	66.81
243.064	86.81
243.298	68.81
243.531	75.81
243.765	71.81
243.998	78.81
244.232	73.81
244.465	73.81
244.699	80.81
244.932	73.81
245.166	57.81
245.399	75.81
245.633	74.81
245.866	69.81
246.099	68.81
246.333	69.81
246.566	75.81
246.8	66.81
247.033	72.81
247.266	72.81
247.5	70.81
247.733	69.81
247.966	84.81
248.2	75.81
248.433	68.81
248.666	77.81
248.899	74.81
249.133	78.81
249.366	80.81
249.599	62.81
249.832	66.81
250.066	79.81
250.299	87.81
250.532	73.81
250.765	79.81
250.998	71.81
251.231	66.81
251.465	64.81
251.698	73.81
251.931	72.81
252.164	72.81
252.397	80.81
252.63	95.81
252.863	65.81
253.096	79.81
253.329	89.81
253.562	69.81
253.795	78.81
254.028	86.81
254.261	64.81
254.494	87.81
254.727	82.81
254.96	79.81
255.193	84.81
255.426	69.81
255.659	64.81
255.892	74.81
256.124	80.81
256.357	67.81
256.59	82.81
256.823	84.81
257.056	72.81
257.289	59.81
257.521	62.81
257.754	77.81
257.987	76.81
258.22	77.81
258.452	80.81
258.685	70.81
258.918	73.81
259.151	81.81
259.383	64.81
259.616	74.81
259.849	62.81
260.081	62.81
260.314	63.81
260.547	87.81
260.779	80.81
261.012	84.81
261.244	72.81
261.477	74.81
261.71	72.81
261.942	84.81
262.175	73.81
262.407	77.81
262.64	78.81
262.872	81.81
263.105	64.81
263.337	76.81
263.57	82.81
263.802	74.81
264.035	81.81
264.267	73.81
264.499	72.81
264.732	85.81
264.964	97.81
265.197	74.81
265.429	72.81
265.661	67.81
265.894	73.81
266.126	74.81
266.358	80.81
266.591	76.81
266.823	78.81
267.055	69.81
267.287	82.81
267.52	70.81
267.752	82.81
267.984	83.81
268.216	71.81
268.448	66.81
268.681	69.81
268.913	68.81
269.145	75.81
269.377	78.81
269.609	77.81
269.841	62.81
270.073	80.81
270.306	76.81
270.538	75.81
270.77	63.81
271.002	69.81
271.234	85.81
271.466	81.81
271.698	75.81
271.93	94.81
272.162	87.81
272.394	80.81
272.626	74.81
272.858	77.81
273.09	72.81
273.322	78.81
273.553	86.81
273.785	69.81
274.017	78.81
274.249	87.81
274.481	76.81
274.713	76.81
274.945	71.81
275.176	80.81
275.408	78.81
275.64	88.81
275.872	68.81
276.104	80.81
276.335	78.81
276.567	64.81
276.799	80.81
277.031	88.81
277.262	79.81
277.494	94.81
277.726	95.81
277.957	77.81
278.189	70.81
278.421	74.81
278.652	87.81
278.884	80.81
279.115	83.81
279.347	91.81
279.579	77.81
279.81	83.81
280.042	81.81
280.273	79.81
280.505	79.81
280.736	85.81
280.968	80.81
281.199	82.81
281.431	79.81
281.662	80.81
281.894	95.81
282.125	77.81
282.356	82.81
282.588	65.81
282.819	79.81
283.051	73.81
283.282	76.81
283.513	76.81
283.745	71.81
283.976	74.81
284.207	79.81
284.439	77.81
284.67	74.81
284.901	86.81
285.132	70.81
285.364	95.81
285.595	85.81
285.826	81.81
286.057	80.81
286.288	89.81
286.52	83.81
286.751	65.81
286.982	77.81
287.213	88.81
287.444	84.81
287.675	85.81
287.906	69.81
288.138	87.81
288.369	71.81
288.6	94.81
288.831	76.81
289.062	84.81
289.293	77.81
289.524	87.81
289.755	80.81
289.986	83.81
290.217	73.81
290.448	86.81
290.679	66.81
290.91	85.81
291.141	74.81
291.371	71.81
291.602	80.81
291.833	81.81
292.064	80.81
292.295	71.81
292.526	76.81
292.757	77.81
292.987	76.81
293.218	80.81
293.449	71.81
293.68	89.81
293.91	89.81
294.141	90.81
294.372	71.81
294.603	86.81
294.833	54.81
295.064	53.81
295.295	73.81
295.525	83.81
295.756	78.81
295.987	80.81
296.217	72.81
296.448	77.81
296.679	75.81
296.909	81.81
297.14	78.81
297.37	80.81
297.601	74.81
297.831	75.81
298.062	78.81
298.292	87.81
298.523	73.81
298.753	84.81
298.984	83.81
299.214	83.81
299.445	92.81
299.675	89.81
299.905	70.81
300.136	84.81
300.366	73.81
300.597	86.81
300.827	80.81
301.057	86.81
301.288	86.81
301.518	89.81
301.748	77.81
301.979	68.81
302.209	73.81
302.439	80.81
302.669	93.81
302.9	79.81
303.13	72.81
303.36	80.81
303.59	83.81
303.82	70.81
304.051	72.81
304.281	86.81
304.511	77.81
304.741	89.81
304.971	97.81
305.201	82.81
305.431	83.81
305.661	76.81
305.891	78.81
306.121	72.81
306.352	75.81
306.582	79.81
306.812	75.81
307.042	80.81
307.272	87.81
307.502	80.81
307.731	81.81
307.961	76.81
308.191	80.81
308.421	85.81
308.651	85.81
308.881	81.81
309.111	77.81
309.341	83.81
309.571	92.81
309.8	85.81
310.03	82.81
310.26	73.81
310.49	85.81
310.72	80.81
310.949	78.81
311.179	84.81
311.409	74.81
311.639	79.81
311.868	82.81
312.098	83.81
312.328	88.81
312.557	89.81
312.787	72.81
313.017	65.81
313.246	72.81
313.476	84.81
313.706	90.81
313.935	89.81
314.165	73.81
314.394	80.81
314.624	88.81
314.853	87.81
315.083	81.81
315.312	77.81
315.542	77.81
315.771	75.81
316.001	71.81
316.23	68.81
316.46	77.81
316.689	79.81
316.919	77.81
317.148	87.81
317.377	83.81
317.607	92.81
317.836	74.81
318.065	85.81
318.295	86.81
318.524	66.81
318.753	81.81
318.983	77.81
319.212	83.81
319.441	91.81
319.67	86.81
319.9	75.81
320.129	72.81
320.358	88.81
320.587	80.81
320.816	79.81
321.046	92.81
321.275	83.81
321.504	81.81
321.733	87.81
321.962	93.81
322.191	84.81
322.42	77.81
322.649	77.81
322.878	74.81
323.108	81.81
323.337	80.81
323.566	82.81
323.795	84.81
324.024	75.81
324.253	72.81
324.482	77.81
324.71	68.81
324.939	89.81
325.168	78.81
325.397	48.81
325.626	79.81
325.855	81.81
326.084	76.81
326.313	84.81
326.542	72.81
326.77	69.81
326.999	77.81
327.228	81.81
327.457	84.81
327.686	88.81
327.914	81.81
328.143	75.81
328.372	80.81
328.6	83.81
328.829	86.81
329.058	72.81
329.287	98.81
329.515	73.81
329.744	76.81
329.972	62.81
330.201	93.81
330.43	83.81
330.658	77.81
330.887	74.81
331.115	96.81
331.344	80.81
331.572	59.81
331.801	74.81
332.03	76.81
332.258	97.81
332.486	80.81
332.715	66.81
332.943	79.81
333.172	93.81
333.4	73.81
333.629	67.81
333.857	73.81
334.085	93.81
334.314	82.81
334.542	77.81
334.771	80.81
334.999	78.81
335.227	80.81
335.455	69.81
335.684	78.81
335.912	74.81
336.14	74.81
336.369	79.81
336.597	91.81
336.825	84.81
337.053	79.81
337.281	84.81
337.51	64.81
337.738	80.81
337.966	82.81
338.194	78.81
338.422	73.81
338.65	100.81
338.878	78.81
339.106	77.81
339.334	84.81
339.562	74.81
339.79	75.81
340.018	85.81
340.246	72.81
340.474	78.81
340.702	72.81
340.93	82.81
341.158	87.81
341.386	79.81
341.614	66.81
341.842	80.81
342.07	83.81
342.298	81.81
342.526	79.81
342.754	80.81
342.981	91.81
343.209	80.81
343.437	94.81
343.665	78.81
343.893	80.81
344.12	80.81
344.348	86.81
344.576	78.81
344.804	87.81
345.031	92.81
345.259	88.81
345.487	93.81
345.714	80.81
345.942	68.81
346.17	85.81
346.397	77.81
346.625	82.81
346.853	70.81
347.08	80.81
347.308	64.81
347.535	75.81
347.763	72.81
347.99	73.81
348.218	79.81
348.445	78.81
348.673	72.81
348.9	82.81
349.128	87.81
349.355	81.81
349.583	68.81
349.81	82.81
350.037	72.81
350.265	81.81
350.492	86.81
350.72	90.81
350.947	88.81
351.174	83.81
351.402	77.81
351.629	79.81
351.856	83.81
352.083	78.81
352.311	89.81
352.538	83.81
352.765	91.81
352.992	61.81
353.22	81.81
353.447	84.81
353.674	94.81
353.901	90.81
354.128	51.81
354.355	81.81
354.583	87.81
354.81	81.81
355.037	96.81
355.264	82.81
355.491	90.81
355.718	76.81
355.945	85.81
356.172	81.81
356.399	73.81
356.626	82.81
356.853	76.81
357.08	74.81
357.307	81.81
357.534	70.81
357.761	73.81
357.988	87.81
358.215	83.81
358.441	67.81
358.668	86.81
358.895	75.81
359.122	82.81
359.349	78.81
359.576	79.81
359.802	81.81
360.029	77.81
360.256	79.81
360.483	77.81
360.709	74.81
360.936	95.81
361.163	89.81
361.39	84.81
361.616	66.81
361.843	69.81
362.07	67.81
362.296	85.81
362.523	79.81
362.749	86.81
362.976	68.81
363.203	79.81
363.429	84.81
363.656	80.81
363.882	81.81
364.109	86.81
364.335	70.81
364.562	84.81
364.788	85.81
365.015	75.81
365.241	87.81
365.468	89.81
365.694	81.81
365.92	73.81
366.147	69.81
366.373	84.81
366.599	76.81
366.826	92.81
367.052	85.81
367.278	79.81
367.505	77.81
367.731	78.81
367.957	69.81
368.184	82.81
368.41	84.81
368.636	89.81
368.862	98.81
369.089	74.81
369.315	76.81
369.541	79.81
369.767	72.81
369.993	73.81
370.219	72.81
370.445	82.81
370.672	71.81
370.898	88.81
371.124	81.81
371.35	73.81
371.576	86.81
371.802	73.81
372.028	72.81
372.254	73.81
372.48	76.81
372.706	87.81
372.932	78.81
373.158	72.81
373.384	86.81
373.61	81.81
373.835	80.81
374.061	91.81
374.287	93.81
374.513	82.81
374.739	83.81
374.965	90.81
375.191	80.81
375.416	73.81
375.642	71.81
375.868	84.81
376.094	80.81
376.319	66.81
376.545	76.81
376.771	81.81
376.997	88.81
377.222	82.81
377.448	73.81
377.674	83.81
377.899	76.81
378.125	74.81
378.35	95.81
378.576	81.81
378.802	83.81
379.027	77.81
379.253	86.81
379.478	80.81
379.704	76.81
379.929	74.81
380.155	68.81
380.38	71.81
380.606	73.81
380.831	82.81
381.057	88.81
381.282	73.81
381.507	88.81
381.733	77.81
381.958	71.81
382.184	74.81
382.409	89.81
382.634	88.81
382.86	70.81
383.085	77.81
383.31	91.81
383.535	88.81
383.761	89.81
383.986	81.81
384.211	94.81
384.436	85.81
384.662	72.81
384.887	81.81
385.112	84.81
385.337	72.81
385.562	79.81
385.787	86.81
386.013	77.81
386.238	81.81
386.463	73.81
386.688	82.81
386.913	80.81
387.138	73.81
387.363	83.81
387.588	74.81
387.813	73.81
388.038	78.81
388.263	74.81
388.488	75.81
388.713	92.81
388.938	75.81
389.163	83.81
389.387	84.81
389.612	74.81
389.837	95.81
390.062	84.81
390.287	82.81
390.512	94.81
390.736	84.81
390.961	68.81
391.186	89.81
391.411	84.81
391.636	80.81
391.86	81.81
392.085	75.81
392.31	72.81
392.534	86.81
392.759	81.81
392.984	71.81
393.208	85.81
393.433	85.81
393.658	91.81
393.882	71.81
394.107	76.81
394.331	76.81
394.556	86.81
394.78	82.81
395.005	92.81
395.229	72.81
395.454	73.81
395.678	81.81
395.903	74.81
396.127	77.81
396.352	84.81
396.576	80.81
396.801	89.81
397.025	73.81
397.249	83.81
397.474	78.81
397.698	72.81
397.922	78.81
398.147	81.81
398.371	70.81
398.595	71.81
398.82	74.81
399.044	79.81
399.268	74.81
399.492	84.81
399.717	92.81
399.941	70.81
400.165	84.81
400.389	79.81
400.613	64.81
400.837	81.81
401.062	78.81
401.286	74.81
401.51	78.81
401.734	84.81
401.958	68.81
402.182	79.81
402.406	81.81
402.63	86.81
402.854	82.81
403.078	79.81
403.302	74.81
403.526	89.81
403.75	78.81
403.974	80.81
404.198	70.81
404.422	71.81
404.645	89.81
404.869	84.81
405.093	86.81
405.317	81.81
405.541	77.81
405.765	84.81
405.988	81.81
406.212	78.81
406.436	76.81
406.66	88.81
406.883	97.81
407.107	92.81
407.331	85.81
407.555	89.81
407.778	103.81
408.002	88.81
408.226	89.81
408.449	89.81
408.673	72.81
408.896	90.81
409.12	83.81
409.344	87.81
409.567	88.81
409.791	85.81
410.014	74.81
410.238	87.81
410.461	76.81
410.685	78.81
410.908	88.81
411.132	77.81
411.355	82.81
411.578	87.81
411.802	76.81
412.025	87.81
412.249	84.81
412.472	83.81
412.695	79.81
412.919	71.81
413.142	82.81
413.365	85.81
413.589	88.81
413.812	71.81
414.035	78.81
414.258	84.81
414.482	85.81
414.705	75.81
414.928	90.81
415.151	95.81
415.374	83.81
415.597	72.81
415.821	90.81
416.044	84.81
416.267	83.81
416.49	68.81
416.713	86.81
416.936	85.81
417.159	83.81
417.382	87.81
417.605	83.81
417.828	84.81
418.051	92.81
418.274	71.81
418.497	74.81
418.72	90.81
418.943	94.81
419.166	100.81
419.389	83.81
419.611	78.81
419.834	78.81
420.057	84.81
420.28	90.81
420.503	88.81
420.726	73.81
420.948	70.81
421.171	92.81
421.394	90.81
421.617	91.81
421.839	68.81
422.062	114.81
422.285	68.81
422.507	80.81
422.73	65.81
422.953	82.81
423.175	78.81
423.398	95.81
423.621	85.81
423.843	90.81
424.066	82.81
424.288	79.81
424.511	84.81
424.733	104.81
424.956	87.81
425.178	84.81
425.401	81.81
425.623	68.81
425.846	86.81
426.068	82.81
426.291	93.81
426.513	79.81
426.735	86.81
426.958	89.81
427.18	84.81
427.402	85.81
427.625	77.81
427.847	85.81
428.069	68.81
428.292	83.81
428.514	83.81
428.736	71.81
428.958	91.81
429.181	96.81
429.403	77.81
429.625	83.81
429.847	76.81
430.069	67.81
430.292	82.81
430.514	84.81
430.736	73.81
430.958	88.81
431.18	89.81
431.402	84.81
431.624	90.81
431.846	84.81
432.068	82.81
432.29	74.81
432.512	80.81
432.734	76.81
432.956	80.81
433.178	85.81
433.4	89.81
433.622	83.81
433.844	85.81
434.066	82.81
434.287	85.81
434.509	72.81
434.731	69.81
434.953	76.81
435.175	72.81
435.397	82.81
435.618	69.81
435.84	87.81
436.062	85.81
436.284	85.81
436.505	92.81
436.727	76.81
436.949	73.81
437.17	78.81
437.392	90.81
437.614	74.81
437.835	75.81
438.057	82.81
438.278	77.81
438.5	84.81
438.721	88.81
438.943	93.81
439.165	81.81
439.386	83.81
439.608	94.81
439.829	85.81
440.05	96.81
440.272	83.81
440.493	81.81
440.715	86.81
440.936	71.81
441.158	89.81
441.379	92.81
441.6	85.81
441.822	89.81
442.043	90.81
442.264	72.81
442.486	91.81
442.707	81.81
442.928	87.81
443.149	82.81
443.371	89.81
443.592	71.81
443.813	86.81
444.034	85.81
444.255	85.81
444.476	87.81
444.698	88.81
444.919	97.81
445.14	227.81
445.361	144.81
445.582	88.81
445.803	91.81
446.024	81.81
446.245	73.81
446.466	88.81
446.687	82.81
446.908	87.81
447.129	85.81
447.35	81.81
447.571	87.81
447.792	92.81
448.013	93.81
448.234	77.81
448.455	87.81
448.675	81.81
448.896	75.81
449.117	89.81
449.338	85.81
449.559	95.81
449.779	87.81
450	85.81
450.221	94.81
450.442	82.81
450.662	93.81
450.883	94.81
451.104	82.81
451.324	73.81
451.545	89.81
451.766	80.81
451.986	85.81
452.207	84.81
452.428	93.81
452.648	84.81
452.869	83.81
453.089	82.81
453.31	78.81
453.53	89.81
453.751	87.81
453.971	90.81
454.192	84.81
454.412	95.81
454.633	86.81
454.853	80.81
455.073	73.81
455.294	87.81
455.514	78.81
455.734	85.81
455.955	73.81
456.175	84.81
456.395	95.81
456.616	74.81
456.836	72.81
457.056	76.81
457.276	72.81
457.497	78.81
457.717	72.81
457.937	78.81
458.157	80.81
458.377	89.81
458.598	74.81
458.818	80.81
459.038	86.81
459.258	100.81
459.478	68.81
459.698	69.81
459.918	74.81
460.138	87.81
460.358	87.81
460.578	97.81
460.798	86.81
461.018	93.81
461.238	91.81
461.458	88.81
461.678	65.81
461.898	74.81
462.118	90.81
462.338	74.81
462.558	82.81
462.777	81.81
462.997	89.81
463.217	81.81
463.437	79.81
463.657	77.81
463.876	84.81
464.096	87.81
464.316	74.81
464.536	87.81
464.755	81.81
464.975	82.81
465.195	81.81
465.414	84.81
465.634	85.81
465.854	81.81
466.073	80.81
466.293	74.81
466.512	82.81
466.732	77.81
466.951	92.81
467.171	80.81
467.391	78.81
467.61	86.81
467.829	83.81
468.049	84.81
468.268	98.81
468.488	92.81
468.707	86.81
468.927	66.81
469.146	91.81
469.365	94.81
469.585	87.81
469.804	86.81
470.023	88.81
470.243	90.81
470.462	87.81
470.681	74.81
470.901	84.81
471.12	77.81
471.339	86.81
471.558	77.81
471.777	87.81
471.997	79.81
472.216	79.81
472.435	88.81
472.654	85.81
472.873	77.81
473.092	94.81
473.311	76.81
473.53	80.81
473.749	88.81
473.968	90.81
474.187	73.81
474.406	96.81
474.625	100.81
474.844	82.81
475.063	81.81
475.282	85.81
475.501	86.81
475.72	76.81
475.939	88.81
476.158	97.81
476.377	84.81
476.596	95.81
476.814	62.81
477.033	87.81
477.252	74.81
477.471	94.81
477.69	86.81
477.908	81.81
478.127	85.81
478.346	81.81
478.564	88.81
478.783	89.81
479.002	88.81
479.22	82.81
479.439	84.81
479.658	71.81
479.876	72.81
480.095	84.81
480.313	79.81
480.532	82.81
480.751	93.81
480.969	95.81
481.188	92.81
481.406	85.81
481.624	70.81
481.843	87.81
482.061	88.81
482.28	86.81
482.498	88.81
482.717	86.81
482.935	97.81
483.153	92.81
483.372	90.81
483.59	97.81
483.808	92.81
484.027	85.81
484.245	85.81
484.463	91.81
484.681	80.81
484.9	97.81
485.118	88.81
485.336	72.81
485.554	90.81
485.772	85.81
485.99	73.81
486.209	85.81
486.427	74.81
486.645	69.81
486.863	77.81
487.081	95.81
487.299	91.81
487.517	79.81
487.735	100.81
487.953	89.81
488.171	99.81
488.389	89.81
488.607	80.81
488.825	86.81
489.043	94.81
489.261	80.81
489.479	101.81
489.696	105.81
489.914	96.81
490.132	89.81
490.35	90.81
490.568	94.81
490.786	82.81
491.003	85.81
491.221	94.81
491.439	98.81
491.657	111.81
491.874	94.81
492.092	97.81
492.31	110.81
492.527	114.81
492.745	99.81
492.963	90.81
493.18	93.81
493.398	96.81
493.615	101.81
493.833	101.81
494.05	82.81
494.268	94.81
494.485	96.81
494.703	95.81
494.92	105.81
495.138	90.81
495.355	89.81
495.573	81.81
495.79	104.81
496.008	91.81
496.225	90.81
496.442	81.81
496.66	96.81
496.877	102.81
497.094	94.81
497.312	90.81
497.529	74.81
497.746	103.81
497.963	93.81
498.181	74.81
498.398	84.81
498.615	83.81
498.832	72.81
499.049	89.81
499.267	76.81
499.484	74.81
499.701	80.81
499.918	87.81
500.135	94.81
500.352	83.81
500.569	93.81
500.786	88.81
501.003	100.81
501.22	83.81
501.437	85.81
501.654	80.81
501.871	72.81
502.088	72.81
502.305	88.81
502.522	97.81
502.739	89.81
502.956	84.81
503.172	89.81
503.389	90.81
503.606	72.81
503.823	78.81
504.04	80.81
504.256	91.81
504.473	84.81
504.69	83.81
504.907	90.81
505.123	103.81
505.34	81.81
505.557	89.81
505.773	83.81
505.99	90.81
506.207	89.81
506.423	73.81
506.64	77.81
506.856	86.81
507.073	88.81
507.289	75.81
507.506	87.81
507.722	80.81
507.939	71.81
508.155	95.81
508.372	85.81
508.588	74.81
508.805	94.81
509.021	78.81
509.238	82.81
509.454	97.81
509.67	88.81
509.887	70.81
510.103	72.81
510.319	73.81
510.536	70.81
510.752	76.81
510.968	77.81
511.184	75.81
511.401	75.81
511.617	93.81
511.833	92.81
512.049	82.81
512.265	87.81
512.481	76.81
512.698	78.81
512.914	70.81
513.13	72.81
513.346	82.81
513.562	80.81
513.778	83.81
513.994	82.81
514.21	80.81
514.426	87.81
514.642	94.81
514.858	93.81
515.074	67.81
515.29	84.81
515.506	83.81
515.721	78.81
515.937	77.81
516.153	78.81
516.369	80.81
516.585	72.81
516.801	83.81
517.016	87.81
517.232	72.81
517.448	82.81
517.664	95.81
517.879	84.81
518.095	76.81
518.311	89.81
518.527	79.81
518.742	73.81
518.958	74.81
519.173	80.81
519.389	82.81
519.605	102.81
519.82	96.81
520.036	86.81
520.251	85.81
520.467	93.81
520.682	81.81
520.898	80.81
521.113	92.81
521.329	64.81
521.544	76.81
521.76	83.81
521.975	79.81
522.19	78.81
522.406	86.81
522.621	76.81
522.836	89.81
523.052	78.81
523.267	85.81
523.482	85.81
523.698	101.81
523.913	87.81
524.128	79.81
524.343	82.81
524.559	82.81
524.774	80.81
524.989	93.81
525.204	70.81
525.419	84.81
525.634	75.81
525.849	77.81
526.064	92.81
526.28	87.81
526.495	81.81
526.71	87.81
526.925	85.81
527.14	87.81
527.355	77.81
527.57	78.81
527.785	93.81
527.999	66.81
528.214	80.81
528.429	78.81
528.644	84.81
528.859	79.81
529.074	96.81
529.289	76.81
529.503	98.81
529.718	107.81
529.933	86.81
530.148	77.81
530.363	94.81
530.577	74.81
530.792	77.81
531.007	94.81
531.221	81.81
531.436	86.81
531.651	74.81
531.865	75.81
532.08	81.81
532.295	87.81
532.509	76.81
532.724	67.81
532.938	81.81
533.153	77.81
533.367	83.81
533.582	82.81
533.796	84.81
534.011	86.81
534.225	74.81
534.44	81.81
534.654	94.81
534.868	87.81
535.083	83.81
535.297	77.81
535.511	85.81
535.726	82.81
535.94	85.81
536.154	96.81
536.369	86.81
536.583	81.81
536.797	67.81
537.011	69.81
537.225	87.81
537.44	80.81
537.654	88.81
537.868	74.81
538.082	79.81
538.296	78.81
538.51	76.81
538.724	74.81
538.938	85.81
539.153	90.81
539.367	82.81
539.581	87.81
539.795	93.81
540.009	83.81
540.222	79.81
540.436	74.81
540.65	86.81
540.864	73.81
541.078	66.81
541.292	88.81
541.506	91.81
541.72	103.81
541.934	99.81
542.147	96.81
542.361	94.81
542.575	101.81
542.789	95.81
543.002	109.81
543.216	84.81
543.43	100.81
543.644	85.81
543.857	104.81
544.071	86.81
544.285	90.81
544.498	99.81
544.712	96.81
544.925	94.81
545.139	101.81
545.352	108.81
545.566	92.81
545.779	72.81
545.993	100.81
546.206	104.81
546.42	98.81
546.633	88.81
546.847	90.81
547.06	88.81
547.274	95.81
547.487	92.81
547.7	86.81
547.914	92.81
548.127	97.81
548.34	92.81
548.554	101.81
548.767	95.81
548.98	88.81
549.193	75.81
549.407	84.81
549.62	87.81
549.833	102.81
550.046	110.81
550.259	92.81
550.473	102.81
550.686	93.81
550.899	84.81
551.112	91.81
551.325	97.81
551.538	79.81
551.751	77.81
551.964	82.81
552.177	99.81
552.39	80.81
552.603	88.81
552.816	95.81
553.029	93.81
553.242	89.81
553.455	92.81
553.667	97.81
553.88	92.81
554.093	102.81
554.306	91.81
554.519	82.81
554.732	95.81
554.944	80.81
555.157	91.81
555.37	96.81
555.583	83.81
555.795	85.81
556.008	91.81
556.221	78.81
556.433	80.81
556.646	82.81
556.859	86.81
557.071	95.81
557.284	96.81
557.496	92.81
557.709	89.81
557.921	83.81
558.134	99.81
558.346	82.81
558.559	91.81
558.771	105.81
558.984	89.81
559.196	85.81
559.409	73.81
559.621	87.81
559.833	82.81
560.046	84.81
560.258	82.81
560.47	106.81
560.683	84.81
560.895	92.81
561.107	75.81
561.32	86.81
561.532	82.81
561.744	99.81
561.956	93.81
562.168	88.81
562.381	88.81
562.593	100.81
562.805	86.81
563.017	85.81
563.229	77.81
563.441	89.81
563.653	92.81
563.865	71.81
564.077	96.81
564.289	89.81
564.501	94.81
564.713	78.81
564.925	93.81
565.137	86.81
565.349	88.81
565.561	100.81
565.773	75.81
565.985	86.81
566.197	74.81
566.408	87.81
566.62	80.81
566.832	91.81
567.044	94.81
567.255	89.81
567.467	89.81
567.679	85.81
567.891	77.81
568.102	69.81
568.314	89.81
568.526	81.81
568.737	82.81
568.949	87.81
569.161	71.81
569.372	87.81
569.584	77.81
569.795	91.81
570.007	81.81
570.218	87.81
570.43	89.81
570.641	87.81
570.853	71.81
571.064	101.81
571.276	88.81
571.487	86.81
571.698	74.81
571.91	85.81
572.121	86.81
572.333	74.81
572.544	69.81
572.755	84.81
572.966	78.81
573.178	74.81
573.389	78.81
573.6	90.81
573.811	79.81
574.023	81.81
574.234	75.81
574.445	74.81
574.656	88.81
574.867	75.81
575.078	73.81
575.289	68.81
575.501	83.81
575.712	86.81
575.923	69.81
576.134	74.81
576.345	83.81
576.556	82.81
576.767	86.81
576.978	93.81
577.188	96.81
577.399	74.81
577.61	93.81
577.821	91.81
578.032	86.81
578.243	87.81
578.454	78.81
578.665	96.81
578.875	85.81
579.086	76.81
579.297	83.81
579.508	67.81
579.718	85.81
579.929	64.81
580.14	80.81
580.35	81.81
580.561	78.81
580.772	80.81
580.982	82.81
581.193	76.81
581.403	68.81
581.614	87.81
581.825	73.81
582.035	85.81
582.246	95.81
582.456	90.81
582.667	97.81
582.877	96.81
583.087	72.81
583.298	80.81
583.508	94.81
583.719	90.81
583.929	77.81
584.139	77.81
584.35	100.81
584.56	92.81
584.77	84.81
584.981	81.81
585.191	78.81
585.401	83.81
585.611	78.81
585.821	84.81
586.032	76.81
586.242	87.81
586.452	81.81
586.662	93.81
586.872	73.81
587.082	71.81
587.292	76.81
587.502	82.81
587.713	77.81
587.923	86.81
588.133	72.81
588.343	68.81
588.553	91.81
588.762	89.81
588.972	82.81
589.182	82.81
589.392	81.81
589.602	83.81
589.812	68.81
590.022	94.81
590.232	74.81
590.441	70.81
590.651	71.81
590.861	86.81
591.071	70.81
591.281	71.81
591.49	80.81
591.7	67.81
591.91	76.81
592.119	89.81
592.329	78.81
592.539	65.81
592.748	87.81
592.958	93.81
593.167	70.81
593.377	82.81
593.587	101.81
593.796	73.81
594.006	80.81
594.215	93.81
594.424	85.81
594.634	84.81
594.843	76.81
595.053	78.81
595.262	81.81
595.472	80.81
595.681	76.81
595.89	89.81
596.1	90.81
596.309	93.81
596.518	79.81
596.727	79.81
596.937	84.81
597.146	81.81
597.355	79.81
597.564	77.81
597.774	86.81
597.983	65.81
598.192	78.81
598.401	87.81
598.61	85.81
598.819	66.81
599.028	73.81
599.237	86.81
599.446	83.81
599.655	92.81
599.864	85.81
600.073	74.81
600.282	85.81
600.491	80.81
600.7	97.81
600.909	87.81
601.118	80.81
601.327	89.81
601.536	83.81
601.745	78.81
601.953	81.81
602.162	72.81
602.371	77.81
602.58	94.81
602.789	85.81
602.997	91.81
603.206	97.81
603.415	91.81
603.623	77.81
603.832	80.81
604.041	82.81
604.249	93.81
604.458	76.81
604.666	80.81
604.875	81.81
605.084	89.81
605.292	75.81
605.501	86.81
605.709	86.81
605.918	85.81
606.126	86.81
606.334	77.81
606.543	80.81
606.751	87.81
606.96	82.81
607.168	88.81
607.376	96.81
607.585	86.81
607.793	78.81
608.001	76.81
608.21	87.81
608.418	72.81
608.626	81.81
608.834	77.81
609.043	78.81
609.251	88.81
609.459	94.81
609.667	86.81
609.875	89.81
610.083	80.81
610.291	80.81
610.499	90.81
610.707	87.81
610.916	95.81
611.124	76.81
611.332	95.81
611.54	81.81
611.748	83.81
611.955	87.81
612.163	93.81
612.371	93.81
612.579	95.81
612.787	77.81
612.995	95.81
613.203	81.81
613.411	73.81
613.618	88.81
613.826	87.81
614.034	79.81
614.242	92.81
614.449	95.81
614.657	70.81
614.865	91.81
615.072	82.81
615.28	104.81
615.488	77.81
615.695	76.81
615.903	84.81
616.111	84.81
616.318	96.81
616.526	93.81
616.733	89.81
616.941	110.81
617.148	80.81
617.356	92.81
617.563	82.81
617.771	77.81
617.978	82.81
618.185	73.81
618.393	73.81
618.6	74.81
618.807	92.81
619.015	94.81
619.222	104.81
619.429	86.81
619.637	88.81
619.844	98.81
620.051	99.81
620.258	83.81
620.466	80.81
620.673	86.81
620.88	74.81
621.087	67.81
621.294	68.81
621.501	80.81
621.708	81.81
621.915	88.81
622.122	76.81
622.329	80.81
622.536	79.81
622.743	83.81
622.95	86.81
623.157	84.81
623.364	73.81
623.571	81.81
623.778	89.81
623.985	81.81
624.192	98.81
624.399	75.81
624.606	92.81
624.812	84.81
625.019	89.81
625.226	71.81
625.433	94.81
625.639	87.81
625.846	79.81
626.053	78.81
626.259	84.81
626.466	76.81
626.673	101.81
626.879	70.81
627.086	73.81
627.293	81.81
627.499	82.81
627.706	82.81
627.912	74.81
628.119	98.81
628.325	82.81
628.532	74.81
628.738	80.81
628.945	90.81
629.151	82.81
629.357	70.81
629.564	92.81
629.77	68.81
629.976	82.81
630.183	84.81
630.389	90.81
630.595	95.81
630.802	78.81
631.008	84.81
631.214	75.81
631.42	83.81
631.627	79.81
631.833	84.81
632.039	76.81
632.245	80.81
632.451	77.81
632.657	77.81
632.863	74.81
633.069	76.81
633.275	82.81
633.481	70.81
633.688	84.81
633.893	77.81
634.099	69.81
634.305	90.81
634.511	93.81
634.717	91.81
634.923	76.81
635.129	84.81
635.335	72.81
635.541	82.81
635.747	85.81
635.952	76.81
636.158	78.81
636.364	81.81
636.57	73.81
636.775	72.81
636.981	80.81
637.187	81.81
637.392	85.81
637.598	86.81
637.804	80.81
638.009	91.81
638.215	91.81
638.421	78.81
638.626	81.81
638.832	80.81
639.037	91.81
639.243	83.81
639.448	87.81
639.654	87.81
639.859	75.81
640.065	70.81
640.27	84.81
640.475	77.81
640.681	73.81
640.886	83.81
641.091	80.81
641.297	87.81
641.502	85.81
641.707	74.81
641.913	92.81
642.118	86.81
642.323	85.81
642.528	77.81
642.733	80.81
642.939	81.81
643.144	90.81
643.349	83.81
643.554	80.81
643.759	90.81
643.964	85.81
644.169	76.81
644.374	82.81
644.579	84.81
644.784	74.81
644.989	70.81
645.194	79.81
645.399	82.81
645.604	73.81
645.809	85.81
646.014	81.81
646.219	82.81
646.423	80.81
646.628	74.81
646.833	85.81
647.038	83.81
647.243	82.81
647.447	90.81
647.652	74.81
647.857	63.81
648.062	94.81
648.266	74.81
648.471	82.81
648.676	83.81
648.88	84.81
649.085	84.81
649.289	81.81
649.494	84.81
649.698	70.81
649.903	78.81
650.107	94.81
650.312	95.81
650.516	92.81
650.721	88.81
650.925	85.81
651.13	73.81
651.334	83.81
651.539	78.81
651.743	79.81
651.947	86.81
652.152	74.81
652.356	82.81
652.56	89.81
652.764	90.81
652.969	85.81
653.173	86.81
653.377	69.81
653.581	82.81
653.785	83.81
653.99	79.81
654.194	73.81
654.398	73.81
654.602	80.81
654.806	81.81
655.01	84.81
655.214	74.81
655.418	85.81
655.622	78.81
655.826	80.81
656.03	92.81
656.234	77.81
656.438	82.81
656.642	87.81
656.846	86.81
657.049	79.81
657.253	88.81
657.457	87.81
657.661	85.81
657.865	80.81
658.068	80.81
658.272	65.81
658.476	75.81
658.68	80.81
658.883	67.81
659.087	72.81
659.291	70.81
659.494	79.81
659.698	93.81
659.901	80.81
660.105	82.81
660.309	71.81
660.512	75.81
660.716	66.81
660.919	70.81
661.123	78.81
661.326	85.81
661.53	68.81
661.733	78.81
661.936	85.81
662.14	77.81
662.343	69.81
662.546	71.81
662.75	82.81
662.953	79.81
663.156	86.81
663.36	83.81
663.563	73.81
663.766	76.81
663.969	70.81
664.173	88.81
664.376	79.81
664.579	74.81
664.782	72.81
664.985	83.81
665.188	84.81
665.391	74.81
665.594	78.81
665.797	82.81
666	85.81
666.203	67.81
666.406	70.81
666.609	70.81
666.812	67.81
667.015	66.81
667.218	71.81
667.421	80.81
667.624	77.81
667.827	89.81
668.03	70.81
668.232	66.81
668.435	75.81
668.638	82.81
668.841	76.81
669.043	91.81
669.246	75.81
669.449	71.81
669.651	75.81
669.854	73.81
670.057	62.81
670.259	78.81
670.462	72.81
670.665	66.81
670.867	93.81
671.07	73.81
671.272	72.81
671.475	70.81
671.677	81.81
671.88	78.81
672.082	71.81
672.284	81.81
672.487	78.81
672.689	84.81
672.892	67.81
