Data from Zn(NO3)2Standard.Agarose3%.GreenCap.LampEnergy5.5.E.O_HRD10591_15-02-37-768.txt Node
Date: Mon Jul 22 15:02:37 EDT 2019
User: cochatt
Spectrometer: HR+D1059
Trigger mode: 1
Integration Time (sec): 1.000000E-1
Scans to average: 1
Electric dark correction enabled: true
Nonlinearity correction enabled: false
Boxcar width: 0
XAxis mode: Wavelengths
Number of Pixels in Spectrum: 2048
>>>>>Begin Spectral Data<<<<<
223.165	-17.12
223.4	-17.12
223.635	-17.12
223.869	-8.12
224.104	-31.12
224.338	-17.12
224.573	-23.12
224.808	-3.12
225.042	-6.12
225.277	2.88
225.511	-7.12
225.746	15.88
225.98	-0.12
226.215	10.88
226.449	13.88
226.683	10.88
226.918	31.88
227.152	26.88
227.387	35.88
227.621	37.88
227.856	39.88
228.09	39.88
228.324	57.88
228.559	54.88
228.793	44.88
229.027	54.88
229.262	47.88
229.496	56.88
229.73	60.88
229.964	68.88
230.199	73.88
230.433	79.88
230.667	80.88
230.901	61.88
231.136	58.88
231.37	74.88
231.604	86.88
231.838	79.88
232.072	66.88
232.306	72.88
232.541	71.88
232.775	90.88
233.009	74.88
233.243	79.88
233.477	80.88
233.711	82.88
233.945	86.88
234.179	86.88
234.413	80.88
234.647	83.88
234.881	81.88
235.115	81.88
235.349	73.88
235.583	72.88
235.817	97.88
236.051	86.88
236.285	85.88
236.519	81.88
236.753	82.88
236.987	66.88
237.221	74.88
237.455	81.88
237.689	73.88
237.922	73.88
238.156	78.88
238.39	73.88
238.624	72.88
238.858	72.88
239.091	67.88
239.325	76.88
239.559	78.88
239.793	75.88
240.027	70.88
240.26	74.88
240.494	69.88
240.728	83.88
240.961	68.88
241.195	73.88
241.429	79.88
241.662	74.88
241.896	64.88
242.13	76.88
242.363	70.88
242.597	80.88
242.83	81.88
243.064	74.88
243.298	50.88
243.531	68.88
243.765	72.88
243.998	85.88
244.232	68.88
244.465	71.88
244.699	74.88
244.932	76.88
245.166	77.88
245.399	82.88
245.633	81.88
245.866	73.88
246.099	70.88
246.333	70.88
246.566	78.88
246.8	70.88
247.033	83.88
247.266	89.88
247.5	67.88
247.733	74.88
247.966	82.88
248.2	77.88
248.433	71.88
248.666	83.88
248.899	74.88
249.133	91.88
249.366	79.88
249.599	75.88
249.832	66.88
250.066	82.88
250.299	83.88
250.532	81.88
250.765	70.88
250.998	79.88
251.231	80.88
251.465	99.88
251.698	80.88
251.931	75.88
252.164	69.88
252.397	70.88
252.63	67.88
252.863	88.88
253.096	85.88
253.329	74.88
253.562	84.88
253.795	78.88
254.028	84.88
254.261	91.88
254.494	80.88
254.727	86.88
254.96	73.88
255.193	82.88
255.426	80.88
255.659	82.88
255.892	70.88
256.124	77.88
256.357	70.88
256.59	76.88
256.823	74.88
257.056	67.88
257.289	74.88
257.521	70.88
257.754	79.88
257.987	68.88
258.22	80.88
258.452	78.88
258.685	87.88
258.918	77.88
259.151	81.88
259.383	73.88
259.616	76.88
259.849	80.88
260.081	85.88
260.314	73.88
260.547	76.88
260.779	98.88
261.012	92.88
261.244	71.88
261.477	95.88
261.71	84.88
261.942	72.88
262.175	91.88
262.407	84.88
262.64	86.88
262.872	83.88
263.105	83.88
263.337	84.88
263.57	79.88
263.802	85.88
264.035	81.88
264.267	69.88
264.499	73.88
264.732	75.88
264.964	79.88
265.197	83.88
265.429	70.88
265.661	76.88
265.894	89.88
266.126	78.88
266.358	70.88
266.591	88.88
266.823	84.88
267.055	80.88
267.287	75.88
267.52	84.88
267.752	82.88
267.984	76.88
268.216	71.88
268.448	85.88
268.681	76.88
268.913	83.88
269.145	84.88
269.377	79.88
269.609	74.88
269.841	82.88
270.073	75.88
270.306	78.88
270.538	79.88
270.77	81.88
271.002	80.88
271.234	96.88
271.466	81.88
271.698	79.88
271.93	80.88
272.162	81.88
272.394	77.88
272.626	82.88
272.858	86.88
273.09	89.88
273.322	75.88
273.553	91.88
273.785	75.88
274.017	78.88
274.249	84.88
274.481	86.88
274.713	73.88
274.945	81.88
275.176	84.88
275.408	88.88
275.64	91.88
275.872	82.88
276.104	84.88
276.335	69.88
276.567	84.88
276.799	82.88
277.031	85.88
277.262	80.88
277.494	78.88
277.726	81.88
277.957	80.88
278.189	83.88
278.421	75.88
278.652	91.88
278.884	74.88
279.115	83.88
279.347	78.88
279.579	69.88
279.81	80.88
280.042	75.88
280.273	83.88
280.505	73.88
280.736	77.88
280.968	92.88
281.199	83.88
281.431	87.88
281.662	90.88
281.894	82.88
282.125	77.88
282.356	70.88
282.588	97.88
282.819	77.88
283.051	79.88
283.282	85.88
283.513	80.88
283.745	84.88
283.976	84.88
284.207	69.88
284.439	76.88
284.67	74.88
284.901	70.88
285.132	79.88
285.364	80.88
285.595	84.88
285.826	80.88
286.057	86.88
286.288	77.88
286.52	70.88
286.751	74.88
286.982	85.88
287.213	76.88
287.444	72.88
287.675	82.88
287.906	80.88
288.138	76.88
288.369	84.88
288.6	93.88
288.831	79.88
289.062	77.88
289.293	93.88
289.524	84.88
289.755	84.88
289.986	88.88
290.217	91.88
290.448	59.88
290.679	80.88
290.91	85.88
291.141	87.88
291.371	71.88
291.602	84.88
291.833	85.88
292.064	92.88
292.295	74.88
292.526	72.88
292.757	86.88
292.987	77.88
293.218	96.88
293.449	85.88
293.68	77.88
293.91	74.88
294.141	80.88
294.372	91.88
294.603	89.88
294.833	87.88
295.064	83.88
295.295	81.88
295.525	82.88
295.756	84.88
295.987	76.88
296.217	88.88
296.448	84.88
296.679	77.88
296.909	88.88
297.14	91.88
297.37	85.88
297.601	78.88
297.831	86.88
298.062	85.88
298.292	80.88
298.523	83.88
298.753	86.88
298.984	73.88
299.214	71.88
299.445	71.88
299.675	82.88
299.905	80.88
300.136	73.88
300.366	88.88
300.597	84.88
300.827	88.88
301.057	89.88
301.288	83.88
301.518	67.88
301.748	92.88
301.979	74.88
302.209	77.88
302.439	87.88
302.669	85.88
302.9	74.88
303.13	91.88
303.36	80.88
303.59	91.88
303.82	81.88
304.051	78.88
304.281	82.88
304.511	84.88
304.741	87.88
304.971	69.88
305.201	85.88
305.431	73.88
305.661	79.88
305.891	83.88
306.121	87.88
306.352	85.88
306.582	87.88
306.812	87.88
307.042	71.88
307.272	78.88
307.502	67.88
307.731	81.88
307.961	96.88
308.191	96.88
308.421	90.88
308.651	88.88
308.881	86.88
309.111	77.88
309.341	81.88
309.571	73.88
309.8	84.88
310.03	89.88
310.26	93.88
310.49	73.88
310.72	75.88
310.949	78.88
311.179	74.88
311.409	96.88
311.639	90.88
311.868	87.88
312.098	84.88
312.328	89.88
312.557	99.88
312.787	98.88
313.017	88.88
313.246	75.88
313.476	80.88
313.706	87.88
313.935	81.88
314.165	77.88
314.394	87.88
314.624	79.88
314.853	79.88
315.083	72.88
315.312	87.88
315.542	75.88
315.771	85.88
316.001	76.88
316.23	84.88
316.46	76.88
316.689	99.88
316.919	90.88
317.148	85.88
317.377	82.88
317.607	79.88
317.836	86.88
318.065	76.88
318.295	87.88
318.524	70.88
318.753	84.88
318.983	83.88
319.212	80.88
319.441	82.88
319.67	74.88
319.9	89.88
320.129	62.88
320.358	83.88
320.587	84.88
320.816	91.88
321.046	66.88
321.275	84.88
321.504	80.88
321.733	100.88
321.962	85.88
322.191	94.88
322.42	85.88
322.649	86.88
322.878	88.88
323.108	73.88
323.337	67.88
323.566	82.88
323.795	80.88
324.024	82.88
324.253	86.88
324.482	69.88
324.71	86.88
324.939	85.88
325.168	82.88
325.397	70.88
325.626	83.88
325.855	95.88
326.084	89.88
326.313	88.88
326.542	73.88
326.77	94.88
326.999	82.88
327.228	87.88
327.457	82.88
327.686	83.88
327.914	76.88
328.143	83.88
328.372	92.88
328.6	83.88
328.829	84.88
329.058	87.88
329.287	78.88
329.515	77.88
329.744	95.88
329.972	91.88
330.201	85.88
330.43	86.88
330.658	65.88
330.887	86.88
331.115	80.88
331.344	92.88
331.572	87.88
331.801	73.88
332.03	83.88
332.258	94.88
332.486	81.88
332.715	71.88
332.943	84.88
333.172	87.88
333.4	84.88
333.629	80.88
333.857	79.88
334.085	80.88
334.314	90.88
334.542	84.88
334.771	96.88
334.999	94.88
335.227	74.88
335.455	77.88
335.684	85.88
335.912	83.88
336.14	84.88
336.369	80.88
336.597	84.88
336.825	88.88
337.053	74.88
337.281	84.88
337.51	81.88
337.738	81.88
337.966	78.88
338.194	74.88
338.422	82.88
338.65	90.88
338.878	82.88
339.106	73.88
339.334	88.88
339.562	85.88
339.79	86.88
340.018	75.88
340.246	74.88
340.474	90.88
340.702	84.88
340.93	88.88
341.158	83.88
341.386	79.88
341.614	79.88
341.842	73.88
342.07	75.88
342.298	76.88
342.526	90.88
342.754	84.88
342.981	74.88
343.209	66.88
343.437	75.88
343.665	89.88
343.893	85.88
344.12	84.88
344.348	89.88
344.576	67.88
344.804	87.88
345.031	75.88
345.259	78.88
345.487	97.88
345.714	74.88
345.942	72.88
346.17	80.88
346.397	77.88
346.625	95.88
346.853	80.88
347.08	74.88
347.308	79.88
347.535	90.88
347.763	89.88
347.99	70.88
348.218	76.88
348.445	87.88
348.673	74.88
348.9	78.88
349.128	87.88
349.355	73.88
349.583	75.88
349.81	79.88
350.037	84.88
350.265	82.88
350.492	91.88
350.72	76.88
350.947	82.88
351.174	80.88
351.402	74.88
351.629	84.88
351.856	75.88
352.083	82.88
352.311	99.88
352.538	82.88
352.765	95.88
352.992	83.88
353.22	84.88
353.447	81.88
353.674	81.88
353.901	91.88
354.128	73.88
354.355	94.88
354.583	91.88
354.81	80.88
355.037	76.88
355.264	86.88
355.491	73.88
355.718	89.88
355.945	86.88
356.172	86.88
356.399	95.88
356.626	80.88
356.853	81.88
357.08	91.88
357.307	86.88
357.534	80.88
357.761	76.88
357.988	79.88
358.215	86.88
358.441	93.88
358.668	82.88
358.895	82.88
359.122	80.88
359.349	87.88
359.576	89.88
359.802	78.88
360.029	80.88
360.256	82.88
360.483	98.88
360.709	83.88
360.936	96.88
361.163	83.88
361.39	86.88
361.616	74.88
361.843	90.88
362.07	72.88
362.296	91.88
362.523	86.88
362.749	72.88
362.976	64.88
363.203	96.88
363.429	89.88
363.656	92.88
363.882	74.88
364.109	86.88
364.335	88.88
364.562	83.88
364.788	78.88
365.015	91.88
365.241	73.88
365.468	83.88
365.694	70.88
365.92	85.88
366.147	80.88
366.373	84.88
366.599	92.88
366.826	79.88
367.052	88.88
367.278	90.88
367.505	84.88
367.731	72.88
367.957	83.88
368.184	90.88
368.41	84.88
368.636	82.88
368.862	85.88
369.089	91.88
369.315	78.88
369.541	82.88
369.767	79.88
369.993	76.88
370.219	78.88
370.445	87.88
370.672	90.88
370.898	68.88
371.124	69.88
371.35	68.88
371.576	78.88
371.802	70.88
372.028	63.88
372.254	83.88
372.48	74.88
372.706	67.88
372.932	92.88
373.158	75.88
373.384	78.88
373.61	91.88
373.835	66.88
374.061	68.88
374.287	65.88
374.513	84.88
374.739	78.88
374.965	84.88
375.191	77.88
375.416	85.88
375.642	76.88
375.868	83.88
376.094	76.88
376.319	79.88
376.545	68.88
376.771	63.88
376.997	79.88
377.222	86.88
377.448	94.88
377.674	71.88
377.899	71.88
378.125	79.88
378.35	78.88
378.576	78.88
378.802	61.88
379.027	92.88
379.253	77.88
379.478	76.88
379.704	82.88
379.929	83.88
380.155	82.88
380.38	76.88
380.606	75.88
380.831	89.88
381.057	82.88
381.282	97.88
381.507	86.88
381.733	79.88
381.958	89.88
382.184	73.88
382.409	82.88
382.634	82.88
382.86	85.88
383.085	84.88
383.31	75.88
383.535	74.88
383.761	94.88
383.986	81.88
384.211	73.88
384.436	74.88
384.662	84.88
384.887	96.88
385.112	83.88
385.337	81.88
385.562	90.88
385.787	81.88
386.013	99.88
386.238	68.88
386.463	80.88
386.688	73.88
386.913	76.88
387.138	64.88
387.363	85.88
387.588	71.88
387.813	83.88
388.038	79.88
388.263	85.88
388.488	81.88
388.713	83.88
388.938	76.88
389.163	79.88
389.387	95.88
389.612	71.88
389.837	78.88
390.062	89.88
390.287	76.88
390.512	81.88
390.736	76.88
390.961	101.88
391.186	86.88
391.411	92.88
391.636	81.88
391.86	98.88
392.085	91.88
392.31	99.88
392.534	90.88
392.759	82.88
392.984	79.88
393.208	77.88
393.433	75.88
393.658	76.88
393.882	78.88
394.107	84.88
394.331	87.88
394.556	91.88
394.78	68.88
395.005	87.88
395.229	91.88
395.454	105.88
395.678	89.88
395.903	78.88
396.127	79.88
396.352	81.88
396.576	83.88
396.801	91.88
397.025	87.88
397.249	85.88
397.474	80.88
397.698	78.88
397.922	80.88
398.147	85.88
398.371	76.88
398.595	86.88
398.82	79.88
399.044	76.88
399.268	77.88
399.492	85.88
399.717	86.88
399.941	75.88
400.165	81.88
400.389	74.88
400.613	82.88
400.837	83.88
401.062	91.88
401.286	73.88
401.51	67.88
401.734	66.88
401.958	95.88
402.182	79.88
402.406	76.88
402.63	81.88
402.854	84.88
403.078	83.88
403.302	83.88
403.526	90.88
403.75	94.88
403.974	94.88
404.198	91.88
404.422	84.88
404.645	76.88
404.869	81.88
405.093	78.88
405.317	90.88
405.541	83.88
405.765	88.88
405.988	75.88
406.212	65.88
406.436	64.88
406.66	97.88
406.883	84.88
407.107	88.88
407.331	77.88
407.555	90.88
407.778	90.88
408.002	96.88
408.226	93.88
408.449	88.88
408.673	84.88
408.896	78.88
409.12	87.88
409.344	87.88
409.567	71.88
409.791	89.88
410.014	85.88
410.238	81.88
410.461	95.88
410.685	80.88
410.908	80.88
411.132	75.88
411.355	80.88
411.578	90.88
411.802	75.88
412.025	81.88
412.249	74.88
412.472	77.88
412.695	83.88
412.919	92.88
413.142	81.88
413.365	89.88
413.589	80.88
413.812	81.88
414.035	87.88
414.258	85.88
414.482	84.88
414.705	82.88
414.928	85.88
415.151	79.88
415.374	80.88
415.597	86.88
415.821	72.88
416.044	80.88
416.267	82.88
416.49	86.88
416.713	94.88
416.936	87.88
417.159	89.88
417.382	85.88
417.605	99.88
417.828	97.88
418.051	75.88
418.274	85.88
418.497	79.88
418.72	87.88
418.943	73.88
419.166	87.88
419.389	90.88
419.611	85.88
419.834	90.88
420.057	93.88
420.28	91.88
420.503	86.88
420.726	99.88
420.948	86.88
421.171	87.88
421.394	78.88
421.617	90.88
421.839	79.88
422.062	82.88
422.285	94.88
422.507	85.88
422.73	88.88
422.953	88.88
423.175	83.88
423.398	89.88
423.621	85.88
423.843	84.88
424.066	89.88
424.288	91.88
424.511	87.88
424.733	76.88
424.956	89.88
425.178	102.88
425.401	88.88
425.623	85.88
425.846	79.88
426.068	85.88
426.291	86.88
426.513	75.88
426.735	84.88
426.958	88.88
427.18	76.88
427.402	70.88
427.625	87.88
427.847	98.88
428.069	94.88
428.292	89.88
428.514	90.88
428.736	96.88
428.958	64.88
429.181	84.88
429.403	89.88
429.625	77.88
429.847	72.88
430.069	66.88
430.292	90.88
430.514	76.88
430.736	87.88
430.958	82.88
431.18	90.88
431.402	89.88
431.624	87.88
431.846	85.88
432.068	74.88
432.29	74.88
432.512	81.88
432.734	90.88
432.956	85.88
433.178	98.88
433.4	84.88
433.622	94.88
433.844	71.88
434.066	86.88
434.287	73.88
434.509	76.88
434.731	79.88
434.953	78.88
435.175	81.88
435.397	74.88
435.618	76.88
435.84	88.88
436.062	89.88
436.284	80.88
436.505	91.88
436.727	87.88
436.949	81.88
437.17	95.88
437.392	95.88
437.614	84.88
437.835	78.88
438.057	89.88
438.278	90.88
438.5	90.88
438.721	97.88
438.943	80.88
439.165	73.88
439.386	78.88
439.608	104.88
439.829	88.88
440.05	106.88
440.272	72.88
440.493	85.88
440.715	89.88
440.936	75.88
441.158	86.88
441.379	76.88
441.6	102.88
441.822	82.88
442.043	98.88
442.264	91.88
442.486	96.88
442.707	74.88
442.928	86.88
443.149	85.88
443.371	87.88
443.592	101.88
443.813	80.88
444.034	69.88
444.255	97.88
444.476	82.88
444.698	85.88
444.919	95.88
445.14	220.88
445.361	148.88
445.582	98.88
445.803	91.88
446.024	91.88
446.245	95.88
446.466	94.88
446.687	76.88
446.908	102.88
447.129	94.88
447.35	97.88
447.571	87.88
447.792	76.88
448.013	79.88
448.234	82.88
448.455	90.88
448.675	90.88
448.896	86.88
449.117	82.88
449.338	94.88
449.559	98.88
449.779	88.88
450	73.88
450.221	89.88
450.442	94.88
450.662	83.88
450.883	90.88
451.104	91.88
451.324	82.88
451.545	100.88
451.766	94.88
451.986	86.88
452.207	85.88
452.428	74.88
452.648	83.88
452.869	95.88
453.089	90.88
453.31	74.88
453.53	85.88
453.751	86.88
453.971	80.88
454.192	87.88
454.412	78.88
454.633	79.88
454.853	80.88
455.073	104.88
455.294	77.88
455.514	95.88
455.734	89.88
455.955	90.88
456.175	73.88
456.395	81.88
456.616	86.88
456.836	95.88
457.056	70.88
457.276	83.88
457.497	69.88
457.717	74.88
457.937	89.88
458.157	88.88
458.377	81.88
458.598	75.88
458.818	86.88
459.038	70.88
459.258	76.88
459.478	84.88
459.698	78.88
459.918	71.88
460.138	78.88
460.358	74.88
460.578	94.88
460.798	85.88
461.018	72.88
461.238	75.88
461.458	72.88
461.678	91.88
461.898	77.88
462.118	91.88
462.338	83.88
462.558	82.88
462.777	92.88
462.997	94.88
463.217	78.88
463.437	79.88
463.657	93.88
463.876	96.88
464.096	74.88
464.316	88.88
464.536	72.88
464.755	88.88
464.975	87.88
465.195	99.88
465.414	85.88
465.634	87.88
465.854	82.88
466.073	85.88
466.293	81.88
466.512	86.88
466.732	77.88
466.951	75.88
467.171	76.88
467.391	86.88
467.61	81.88
467.829	83.88
468.049	95.88
468.268	82.88
468.488	99.88
468.707	81.88
468.927	86.88
469.146	79.88
469.365	90.88
469.585	82.88
469.804	83.88
470.023	91.88
470.243	100.88
470.462	101.88
470.681	88.88
470.901	102.88
471.12	96.88
471.339	100.88
471.558	86.88
471.777	79.88
471.997	78.88
472.216	97.88
472.435	79.88
472.654	74.88
472.873	94.88
473.092	77.88
473.311	75.88
473.53	84.88
473.749	95.88
473.968	82.88
474.187	95.88
474.406	75.88
474.625	83.88
474.844	84.88
475.063	85.88
475.282	90.88
475.501	79.88
475.72	86.88
475.939	94.88
476.158	75.88
476.377	76.88
476.596	90.88
476.814	73.88
477.033	89.88
477.252	85.88
477.471	72.88
477.69	91.88
477.908	80.88
478.127	77.88
478.346	77.88
478.564	79.88
478.783	78.88
479.002	90.88
479.22	83.88
479.439	83.88
479.658	75.88
479.876	85.88
480.095	86.88
480.313	79.88
480.532	87.88
480.751	88.88
480.969	94.88
481.188	90.88
481.406	73.88
481.624	66.88
481.843	88.88
482.061	93.88
482.28	104.88
482.498	100.88
482.717	94.88
482.935	88.88
483.153	95.88
483.372	84.88
483.59	94.88
483.808	80.88
484.027	87.88
484.245	96.88
484.463	90.88
484.681	87.88
484.9	99.88
485.118	91.88
485.336	84.88
485.554	81.88
485.772	72.88
485.99	95.88
486.209	89.88
486.427	74.88
486.645	82.88
486.863	80.88
487.081	102.88
487.299	79.88
487.517	91.88
487.735	88.88
487.953	95.88
488.171	98.88
488.389	111.88
488.607	92.88
488.825	71.88
489.043	91.88
489.261	84.88
489.479	96.88
489.696	85.88
489.914	90.88
490.132	87.88
490.35	101.88
490.568	101.88
490.786	83.88
491.003	91.88
491.221	93.88
491.439	95.88
491.657	102.88
491.874	94.88
492.092	113.88
492.31	110.88
492.527	122.88
492.745	113.88
492.963	89.88
493.18	105.88
493.398	96.88
493.615	101.88
493.833	98.88
494.05	100.88
494.268	104.88
494.485	110.88
494.703	107.88
494.92	92.88
495.138	89.88
495.355	96.88
495.573	95.88
495.79	92.88
496.008	95.88
496.225	75.88
496.442	105.88
496.66	94.88
496.877	102.88
497.094	84.88
497.312	83.88
497.529	101.88
497.746	98.88
497.963	91.88
498.181	89.88
498.398	82.88
498.615	94.88
498.832	78.88
499.049	90.88
499.267	83.88
499.484	77.88
499.701	97.88
499.918	99.88
500.135	102.88
500.352	91.88
500.569	99.88
500.786	97.88
501.003	89.88
501.22	83.88
501.437	89.88
501.654	91.88
501.871	78.88
502.088	80.88
502.305	85.88
502.522	86.88
502.739	80.88
502.956	96.88
503.172	90.88
503.389	87.88
503.606	72.88
503.823	94.88
504.04	91.88
504.256	100.88
504.473	80.88
504.69	88.88
504.907	81.88
505.123	97.88
505.34	86.88
505.557	81.88
505.773	97.88
505.99	107.88
506.207	93.88
506.423	94.88
506.64	85.88
506.856	84.88
507.073	86.88
507.289	76.88
507.506	89.88
507.722	82.88
507.939	76.88
508.155	84.88
508.372	75.88
508.588	80.88
508.805	82.88
509.021	68.88
509.238	73.88
509.454	83.88
509.67	80.88
509.887	83.88
510.103	72.88
510.319	74.88
510.536	86.88
510.752	84.88
510.968	81.88
511.184	78.88
511.401	81.88
511.617	83.88
511.833	88.88
512.049	94.88
512.265	90.88
512.481	81.88
512.698	85.88
512.914	81.88
513.13	88.88
513.346	84.88
513.562	87.88
513.778	93.88
513.994	92.88
514.21	79.88
514.426	84.88
514.642	68.88
514.858	66.88
515.074	65.88
515.29	83.88
515.506	95.88
515.721	85.88
515.937	86.88
516.153	92.88
516.369	87.88
516.585	86.88
516.801	63.88
517.016	80.88
517.232	81.88
517.448	96.88
517.664	83.88
517.879	71.88
518.095	82.88
518.311	80.88
518.527	80.88
518.742	77.88
518.958	67.88
519.173	74.88
519.389	85.88
519.605	72.88
519.82	90.88
520.036	85.88
520.251	76.88
520.467	84.88
520.682	67.88
520.898	95.88
521.113	80.88
521.329	81.88
521.544	82.88
521.76	80.88
521.975	81.88
522.19	76.88
522.406	91.88
522.621	83.88
522.836	86.88
523.052	85.88
523.267	81.88
523.482	82.88
523.698	94.88
523.913	95.88
524.128	90.88
524.343	82.88
524.559	78.88
524.774	80.88
524.989	87.88
525.204	94.88
525.419	91.88
525.634	94.88
525.849	97.88
526.064	90.88
526.28	80.88
526.495	77.88
526.71	82.88
526.925	87.88
527.14	91.88
527.355	80.88
527.57	82.88
527.785	86.88
527.999	99.88
528.214	82.88
528.429	81.88
528.644	100.88
528.859	74.88
529.074	95.88
529.289	89.88
529.503	113.88
529.718	85.88
529.933	96.88
530.148	86.88
530.363	75.88
530.577	84.88
530.792	92.88
531.007	86.88
531.221	82.88
531.436	98.88
531.651	92.88
531.865	94.88
532.08	92.88
532.295	77.88
532.509	63.88
532.724	90.88
532.938	87.88
533.153	88.88
533.367	86.88
533.582	75.88
533.796	93.88
534.011	90.88
534.225	86.88
534.44	76.88
534.654	90.88
534.868	109.88
535.083	85.88
535.297	92.88
535.511	89.88
535.726	98.88
535.94	91.88
536.154	89.88
536.369	86.88
536.583	90.88
536.797	75.88
537.011	80.88
537.225	72.88
537.44	82.88
537.654	76.88
537.868	78.88
538.082	75.88
538.296	96.88
538.51	89.88
538.724	85.88
538.938	88.88
539.153	98.88
539.367	91.88
539.581	97.88
539.795	97.88
540.009	87.88
540.222	75.88
540.436	102.88
540.65	103.88
540.864	84.88
541.078	93.88
541.292	80.88
541.506	108.88
541.72	103.88
541.934	101.88
542.147	96.88
542.361	99.88
542.575	76.88
542.789	95.88
543.002	100.88
543.216	76.88
543.43	91.88
543.644	83.88
543.857	95.88
544.071	89.88
544.285	107.88
544.498	99.88
544.712	94.88
544.925	102.88
545.139	96.88
545.352	90.88
545.566	104.88
545.779	97.88
545.993	96.88
546.206	103.88
546.42	97.88
546.633	91.88
546.847	87.88
547.06	95.88
547.274	102.88
547.487	91.88
547.7	104.88
547.914	90.88
548.127	88.88
548.34	102.88
548.554	91.88
548.767	98.88
548.98	111.88
549.193	87.88
549.407	92.88
549.62	100.88
549.833	107.88
550.046	96.88
550.259	86.88
550.473	104.88
550.686	86.88
550.899	95.88
551.112	99.88
551.325	101.88
551.538	91.88
551.751	93.88
551.964	92.88
552.177	101.88
552.39	104.88
552.603	102.88
552.816	102.88
553.029	105.88
553.242	94.88
553.455	114.88
553.667	92.88
553.88	106.88
554.093	94.88
554.306	99.88
554.519	87.88
554.732	81.88
554.944	107.88
555.157	92.88
555.37	84.88
555.583	100.88
555.795	85.88
556.008	90.88
556.221	95.88
556.433	99.88
556.646	112.88
556.859	80.88
557.071	102.88
557.284	89.88
557.496	99.88
557.709	103.88
557.921	99.88
558.134	85.88
558.346	80.88
558.559	98.88
558.771	100.88
558.984	90.88
559.196	105.88
559.409	98.88
559.621	90.88
559.833	91.88
560.046	89.88
560.258	95.88
560.47	92.88
560.683	91.88
560.895	94.88
561.107	87.88
561.32	93.88
561.532	102.88
561.744	117.88
561.956	100.88
562.168	99.88
562.381	80.88
562.593	84.88
562.805	97.88
563.017	72.88
563.229	104.88
563.441	92.88
563.653	98.88
563.865	93.88
564.077	103.88
564.289	99.88
564.501	85.88
564.713	86.88
564.925	90.88
565.137	76.88
565.349	89.88
565.561	100.88
565.773	100.88
565.985	97.88
566.197	78.88
566.408	91.88
566.62	89.88
566.832	89.88
567.044	77.88
567.255	86.88
567.467	86.88
567.679	84.88
567.891	86.88
568.102	87.88
568.314	76.88
568.526	80.88
568.737	96.88
568.949	74.88
569.161	84.88
569.372	97.88
569.584	76.88
569.795	70.88
570.007	83.88
570.218	84.88
570.43	78.88
570.641	89.88
570.853	84.88
571.064	82.88
571.276	76.88
571.487	88.88
571.698	96.88
571.91	75.88
572.121	65.88
572.333	86.88
572.544	84.88
572.755	89.88
572.966	80.88
573.178	89.88
573.389	78.88
573.6	95.88
573.811	78.88
574.023	85.88
574.234	87.88
574.445	82.88
574.656	75.88
574.867	75.88
575.078	84.88
575.289	73.88
575.501	74.88
575.712	72.88
575.923	94.88
576.134	73.88
576.345	84.88
576.556	81.88
576.767	85.88
576.978	95.88
577.188	79.88
577.399	79.88
577.61	75.88
577.821	82.88
578.032	83.88
578.243	99.88
578.454	87.88
578.665	79.88
578.875	91.88
579.086	82.88
579.297	72.88
579.508	82.88
579.718	96.88
579.929	83.88
580.14	77.88
580.35	102.88
580.561	83.88
580.772	76.88
580.982	88.88
581.193	93.88
581.403	88.88
581.614	75.88
581.825	86.88
582.035	81.88
582.246	82.88
582.456	90.88
582.667	75.88
582.877	97.88
583.087	89.88
583.298	81.88
583.508	84.88
583.719	72.88
583.929	84.88
584.139	83.88
584.35	80.88
584.56	81.88
584.77	80.88
584.981	80.88
585.191	88.88
585.401	81.88
585.611	86.88
585.821	76.88
586.032	88.88
586.242	82.88
586.452	84.88
586.662	83.88
586.872	87.88
587.082	88.88
587.292	81.88
587.502	86.88
587.713	83.88
587.923	82.88
588.133	92.88
588.343	83.88
588.553	73.88
588.762	84.88
588.972	85.88
589.182	83.88
589.392	83.88
589.602	76.88
589.812	81.88
590.022	74.88
590.232	82.88
590.441	86.88
590.651	84.88
590.861	82.88
591.071	92.88
591.281	78.88
591.49	79.88
591.7	88.88
591.91	83.88
592.119	70.88
592.329	75.88
592.539	83.88
592.748	80.88
592.958	90.88
593.167	82.88
593.377	92.88
593.587	97.88
593.796	82.88
594.006	81.88
594.215	96.88
594.424	86.88
594.634	74.88
594.843	85.88
595.053	88.88
595.262	76.88
595.472	88.88
595.681	100.88
595.89	95.88
596.1	85.88
596.309	79.88
596.518	76.88
596.727	88.88
596.937	84.88
597.146	83.88
597.355	91.88
597.564	74.88
597.774	91.88
597.983	80.88
598.192	67.88
598.401	91.88
598.61	85.88
598.819	76.88
599.028	93.88
599.237	86.88
599.446	91.88
599.655	76.88
599.864	81.88
600.073	78.88
600.282	89.88
600.491	77.88
600.7	82.88
600.909	87.88
601.118	87.88
601.327	84.88
601.536	85.88
601.745	96.88
601.953	90.88
602.162	91.88
602.371	73.88
602.58	81.88
602.789	86.88
602.997	96.88
603.206	99.88
603.415	91.88
603.623	94.88
603.832	92.88
604.041	87.88
604.249	76.88
604.458	73.88
604.666	85.88
604.875	83.88
605.084	97.88
605.292	83.88
605.501	76.88
605.709	82.88
605.918	89.88
606.126	89.88
606.334	84.88
606.543	95.88
606.751	81.88
606.96	90.88
607.168	94.88
607.376	91.88
607.585	85.88
607.793	83.88
608.001	92.88
608.21	83.88
608.418	93.88
608.626	84.88
608.834	84.88
609.043	72.88
609.251	90.88
609.459	81.88
609.667	93.88
609.875	86.88
610.083	87.88
610.291	95.88
610.499	88.88
610.707	80.88
610.916	87.88
611.124	85.88
611.332	86.88
611.54	76.88
611.748	80.88
611.955	90.88
612.163	95.88
612.371	87.88
612.579	90.88
612.787	79.88
612.995	93.88
613.203	101.88
613.411	95.88
613.618	91.88
613.826	95.88
614.034	77.88
614.242	93.88
614.449	102.88
614.657	82.88
614.865	90.88
615.072	89.88
615.28	82.88
615.488	93.88
615.695	81.88
615.903	97.88
616.111	91.88
616.318	98.88
616.526	96.88
616.733	80.88
616.941	82.88
617.148	88.88
617.356	107.88
617.563	76.88
617.771	84.88
617.978	76.88
618.185	93.88
618.393	83.88
618.6	84.88
618.807	91.88
619.015	87.88
619.222	81.88
619.429	92.88
619.637	84.88
619.844	81.88
620.051	82.88
620.258	86.88
620.466	103.88
620.673	76.88
620.88	71.88
621.087	83.88
621.294	80.88
621.501	90.88
621.708	82.88
621.915	83.88
622.122	100.88
622.329	91.88
622.536	83.88
622.743	96.88
622.95	76.88
623.157	85.88
623.364	97.88
623.571	83.88
623.778	91.88
623.985	87.88
624.192	79.88
624.399	77.88
624.606	84.88
624.812	80.88
625.019	96.88
625.226	80.88
625.433	90.88
625.639	86.88
625.846	83.88
626.053	78.88
626.259	83.88
626.466	87.88
626.673	83.88
626.879	108.88
627.086	85.88
627.293	82.88
627.499	74.88
627.706	79.88
627.912	84.88
628.119	98.88
628.325	99.88
628.532	92.88
628.738	70.88
628.945	98.88
629.151	92.88
629.357	90.88
629.564	83.88
629.77	84.88
629.976	76.88
630.183	87.88
630.389	73.88
630.595	88.88
630.802	67.88
631.008	86.88
631.214	80.88
631.42	99.88
631.627	78.88
631.833	94.88
632.039	77.88
632.245	78.88
632.451	86.88
632.657	77.88
632.863	71.88
633.069	90.88
633.275	77.88
633.481	90.88
633.688	89.88
633.893	87.88
634.099	94.88
634.305	78.88
634.511	83.88
634.717	79.88
634.923	83.88
635.129	84.88
635.335	80.88
635.541	92.88
635.747	82.88
635.952	89.88
636.158	86.88
636.364	88.88
636.57	92.88
636.775	89.88
636.981	77.88
637.187	83.88
637.392	81.88
637.598	70.88
637.804	87.88
638.009	88.88
638.215	73.88
638.421	78.88
638.626	91.88
638.832	89.88
639.037	61.88
639.243	81.88
639.448	84.88
639.654	90.88
639.859	88.88
640.065	87.88
640.27	88.88
640.475	67.88
640.681	88.88
640.886	91.88
641.091	81.88
641.297	78.88
641.502	79.88
641.707	95.88
641.913	85.88
642.118	86.88
642.323	88.88
642.528	82.88
642.733	99.88
642.939	77.88
643.144	101.88
643.349	94.88
643.554	72.88
643.759	89.88
643.964	96.88
644.169	91.88
644.374	82.88
644.579	75.88
644.784	82.88
644.989	79.88
645.194	83.88
645.399	84.88
645.604	89.88
645.809	71.88
646.014	77.88
646.219	94.88
646.423	87.88
646.628	85.88
646.833	97.88
647.038	83.88
647.243	93.88
647.447	104.88
647.652	79.88
647.857	100.88
648.062	92.88
648.266	81.88
648.471	84.88
648.676	85.88
648.88	82.88
649.085	86.88
649.289	76.88
649.494	93.88
649.698	77.88
649.903	83.88
650.107	85.88
650.312	75.88
650.516	100.88
650.721	85.88
650.925	76.88
651.13	87.88
651.334	74.88
651.539	86.88
651.743	79.88
651.947	85.88
652.152	88.88
652.356	75.88
652.56	81.88
652.764	72.88
652.969	80.88
653.173	80.88
653.377	86.88
653.581	80.88
653.785	91.88
653.99	89.88
654.194	78.88
654.398	83.88
654.602	83.88
654.806	76.88
655.01	80.88
655.214	83.88
655.418	91.88
655.622	67.88
655.826	78.88
656.03	87.88
656.234	82.88
656.438	78.88
656.642	83.88
656.846	85.88
657.049	76.88
657.253	94.88
657.457	67.88
657.661	74.88
657.865	84.88
658.068	72.88
658.272	80.88
658.476	78.88
658.68	70.88
658.883	86.88
659.087	87.88
659.291	71.88
659.494	74.88
659.698	77.88
659.901	73.88
660.105	79.88
660.309	82.88
660.512	75.88
660.716	92.88
660.919	87.88
661.123	94.88
661.326	84.88
661.53	94.88
661.733	91.88
661.936	91.88
662.14	71.88
662.343	91.88
662.546	69.88
662.75	98.88
662.953	87.88
663.156	89.88
663.36	91.88
663.563	83.88
663.766	72.88
663.969	74.88
664.173	72.88
664.376	79.88
664.579	83.88
664.782	79.88
664.985	76.88
665.188	98.88
665.391	84.88
665.594	66.88
665.797	80.88
666	82.88
666.203	79.88
666.406	73.88
666.609	91.88
666.812	89.88
667.015	81.88
667.218	90.88
667.421	78.88
667.624	88.88
667.827	83.88
668.03	75.88
668.232	80.88
668.435	91.88
668.638	72.88
668.841	67.88
669.043	86.88
669.246	67.88
669.449	82.88
669.651	88.88
669.854	69.88
670.057	77.88
670.259	68.88
670.462	81.88
670.665	72.88
670.867	91.88
671.07	84.88
671.272	79.88
671.475	83.88
671.677	90.88
671.88	92.88
672.082	87.88
672.284	89.88
672.487	85.88
672.689	80.88
672.892	67.88
