Data from Zn(NO3)2Standard.Agarose3%.GreenCap.LampEnergy10E.O_HRD10591_15-06-06-942.txt Node
Date: Mon Jul 22 15:06:06 EDT 2019
User: cochatt
Spectrometer: HR+D1059
Trigger mode: 1
Integration Time (sec): 1.000000E-1
Scans to average: 1
Electric dark correction enabled: true
Nonlinearity correction enabled: false
Boxcar width: 0
XAxis mode: Wavelengths
Number of Pixels in Spectrum: 2048
>>>>>Begin Spectral Data<<<<<
223.165	-24.12
223.4	-24.12
223.635	-24.12
223.869	-22.12
224.104	-8.12
224.338	-16.12
224.573	-3.12
224.808	-2.12
225.042	-18.12
225.277	2.88
225.511	-9.12
225.746	-8.12
225.98	-3.12
226.215	14.88
226.449	11.88
226.683	27.88
226.918	22.88
227.152	33.88
227.387	37.88
227.621	34.88
227.856	48.88
228.09	60.88
228.324	51.88
228.559	55.88
228.793	66.88
229.027	55.88
229.262	64.88
229.496	76.88
229.73	61.88
229.964	69.88
230.199	69.88
230.433	68.88
230.667	76.88
230.901	84.88
231.136	80.88
231.37	77.88
231.604	72.88
231.838	74.88
232.072	86.88
232.306	77.88
232.541	87.88
232.775	87.88
233.009	85.88
233.243	78.88
233.477	85.88
233.711	89.88
233.945	64.88
234.179	86.88
234.413	97.88
234.647	81.88
234.881	66.88
235.115	80.88
235.349	85.88
235.583	85.88
235.817	79.88
236.051	75.88
236.285	83.88
236.519	76.88
236.753	60.88
236.987	75.88
237.221	80.88
237.455	81.88
237.689	81.88
237.922	76.88
238.156	83.88
238.39	68.88
238.624	68.88
238.858	66.88
239.091	72.88
239.325	73.88
239.559	89.88
239.793	74.88
240.027	87.88
240.26	76.88
240.494	73.88
240.728	87.88
240.961	72.88
241.195	69.88
241.429	68.88
241.662	71.88
241.896	71.88
242.13	86.88
242.363	86.88
242.597	76.88
242.83	71.88
243.064	61.88
243.298	69.88
243.531	95.88
243.765	71.88
243.998	83.88
244.232	86.88
244.465	85.88
244.699	83.88
244.932	82.88
245.166	78.88
245.399	86.88
245.633	82.88
245.866	71.88
246.099	89.88
246.333	83.88
246.566	80.88
246.8	77.88
247.033	77.88
247.266	87.88
247.5	83.88
247.733	81.88
247.966	74.88
248.2	79.88
248.433	75.88
248.666	75.88
248.899	76.88
249.133	77.88
249.366	86.88
249.599	86.88
249.832	71.88
250.066	81.88
250.299	81.88
250.532	85.88
250.765	89.88
250.998	93.88
251.231	78.88
251.465	69.88
251.698	88.88
251.931	79.88
252.164	83.88
252.397	85.88
252.63	86.88
252.863	74.88
253.096	84.88
253.329	86.88
253.562	82.88
253.795	85.88
254.028	80.88
254.261	85.88
254.494	77.88
254.727	89.88
254.96	78.88
255.193	75.88
255.426	68.88
255.659	67.88
255.892	87.88
256.124	73.88
256.357	85.88
256.59	72.88
256.823	78.88
257.056	88.88
257.289	85.88
257.521	80.88
257.754	81.88
257.987	78.88
258.22	87.88
258.452	85.88
258.685	78.88
258.918	89.88
259.151	90.88
259.383	76.88
259.616	79.88
259.849	83.88
260.081	91.88
260.314	82.88
260.547	82.88
260.779	70.88
261.012	78.88
261.244	93.88
261.477	84.88
261.71	88.88
261.942	87.88
262.175	79.88
262.407	77.88
262.64	90.88
262.872	80.88
263.105	91.88
263.337	92.88
263.57	77.88
263.802	83.88
264.035	89.88
264.267	93.88
264.499	73.88
264.732	76.88
264.964	78.88
265.197	77.88
265.429	87.88
265.661	72.88
265.894	78.88
266.126	99.88
266.358	71.88
266.591	84.88
266.823	68.88
267.055	71.88
267.287	86.88
267.52	84.88
267.752	80.88
267.984	82.88
268.216	89.88
268.448	97.88
268.681	87.88
268.913	93.88
269.145	79.88
269.377	71.88
269.609	74.88
269.841	89.88
270.073	85.88
270.306	85.88
270.538	91.88
270.77	88.88
271.002	82.88
271.234	83.88
271.466	76.88
271.698	79.88
271.93	74.88
272.162	70.88
272.394	73.88
272.626	84.88
272.858	97.88
273.09	85.88
273.322	72.88
273.553	83.88
273.785	81.88
274.017	69.88
274.249	67.88
274.481	76.88
274.713	95.88
274.945	76.88
275.176	85.88
275.408	90.88
275.64	76.88
275.872	90.88
276.104	68.88
276.335	81.88
276.567	65.88
276.799	87.88
277.031	82.88
277.262	86.88
277.494	73.88
277.726	84.88
277.957	77.88
278.189	84.88
278.421	99.88
278.652	82.88
278.884	84.88
279.115	77.88
279.347	83.88
279.579	84.88
279.81	90.88
280.042	85.88
280.273	85.88
280.505	98.88
280.736	92.88
280.968	80.88
281.199	93.88
281.431	106.88
281.662	80.88
281.894	83.88
282.125	85.88
282.356	67.88
282.588	79.88
282.819	92.88
283.051	98.88
283.282	76.88
283.513	81.88
283.745	90.88
283.976	72.88
284.207	92.88
284.439	79.88
284.67	82.88
284.901	98.88
285.132	92.88
285.364	93.88
285.595	89.88
285.826	78.88
286.057	73.88
286.288	85.88
286.52	85.88
286.751	79.88
286.982	97.88
287.213	73.88
287.444	82.88
287.675	82.88
287.906	83.88
288.138	77.88
288.369	97.88
288.6	91.88
288.831	84.88
289.062	81.88
289.293	91.88
289.524	89.88
289.755	80.88
289.986	93.88
290.217	86.88
290.448	70.88
290.679	74.88
290.91	87.88
291.141	92.88
291.371	76.88
291.602	78.88
291.833	85.88
292.064	84.88
292.295	86.88
292.526	78.88
292.757	94.88
292.987	105.88
293.218	85.88
293.449	90.88
293.68	80.88
293.91	77.88
294.141	86.88
294.372	91.88
294.603	86.88
294.833	83.88
295.064	93.88
295.295	89.88
295.525	90.88
295.756	82.88
295.987	95.88
296.217	91.88
296.448	83.88
296.679	89.88
296.909	92.88
297.14	72.88
297.37	93.88
297.601	84.88
297.831	87.88
298.062	96.88
298.292	90.88
298.523	86.88
298.753	97.88
298.984	99.88
299.214	85.88
299.445	89.88
299.675	89.88
299.905	90.88
300.136	79.88
300.366	77.88
300.597	76.88
300.827	100.88
301.057	73.88
301.288	77.88
301.518	82.88
301.748	77.88
301.979	89.88
302.209	77.88
302.439	88.88
302.669	86.88
302.9	91.88
303.13	78.88
303.36	85.88
303.59	70.88
303.82	72.88
304.051	93.88
304.281	92.88
304.511	102.88
304.741	84.88
304.971	81.88
305.201	91.88
305.431	87.88
305.661	100.88
305.891	91.88
306.121	93.88
306.352	90.88
306.582	79.88
306.812	94.88
307.042	76.88
307.272	83.88
307.502	90.88
307.731	85.88
307.961	74.88
308.191	72.88
308.421	73.88
308.651	85.88
308.881	78.88
309.111	96.88
309.341	82.88
309.571	87.88
309.8	92.88
310.03	83.88
310.26	92.88
310.49	88.88
310.72	87.88
310.949	78.88
311.179	83.88
311.409	74.88
311.639	84.88
311.868	87.88
312.098	86.88
312.328	82.88
312.557	76.88
312.787	89.88
313.017	91.88
313.246	87.88
313.476	89.88
313.706	86.88
313.935	75.88
314.165	81.88
314.394	85.88
314.624	88.88
314.853	87.88
315.083	83.88
315.312	68.88
315.542	73.88
315.771	88.88
316.001	82.88
316.23	81.88
316.46	90.88
316.689	92.88
316.919	95.88
317.148	92.88
317.377	83.88
317.607	85.88
317.836	99.88
318.065	79.88
318.295	92.88
318.524	75.88
318.753	78.88
318.983	69.88
319.212	75.88
319.441	100.88
319.67	87.88
319.9	90.88
320.129	84.88
320.358	84.88
320.587	86.88
320.816	89.88
321.046	93.88
321.275	89.88
321.504	78.88
321.733	83.88
321.962	95.88
322.191	96.88
322.42	88.88
322.649	83.88
322.878	93.88
323.108	86.88
323.337	84.88
323.566	87.88
323.795	87.88
324.024	90.88
324.253	92.88
324.482	81.88
324.71	86.88
324.939	85.88
325.168	81.88
325.397	85.88
325.626	79.88
325.855	91.88
326.084	81.88
326.313	79.88
326.542	86.88
326.77	95.88
326.999	98.88
327.228	77.88
327.457	90.88
327.686	99.88
327.914	85.88
328.143	89.88
328.372	82.88
328.6	78.88
328.829	85.88
329.058	82.88
329.287	94.88
329.515	85.88
329.744	84.88
329.972	79.88
330.201	81.88
330.43	87.88
330.658	78.88
330.887	83.88
331.115	91.88
331.344	99.88
331.572	78.88
331.801	71.88
332.03	81.88
332.258	88.88
332.486	89.88
332.715	88.88
332.943	78.88
333.172	89.88
333.4	85.88
333.629	73.88
333.857	91.88
334.085	94.88
334.314	85.88
334.542	77.88
334.771	92.88
334.999	83.88
335.227	91.88
335.455	82.88
335.684	79.88
335.912	85.88
336.14	86.88
336.369	91.88
336.597	91.88
336.825	78.88
337.053	83.88
337.281	79.88
337.51	75.88
337.738	66.88
337.966	93.88
338.194	76.88
338.422	92.88
338.65	86.88
338.878	77.88
339.106	85.88
339.334	92.88
339.562	93.88
339.79	88.88
340.018	76.88
340.246	81.88
340.474	98.88
340.702	87.88
340.93	95.88
341.158	91.88
341.386	80.88
341.614	73.88
341.842	86.88
342.07	84.88
342.298	81.88
342.526	70.88
342.754	86.88
342.981	94.88
343.209	82.88
343.437	82.88
343.665	77.88
343.893	74.88
344.12	83.88
344.348	98.88
344.576	82.88
344.804	77.88
345.031	86.88
345.259	93.88
345.487	84.88
345.714	82.88
345.942	94.88
346.17	81.88
346.397	97.88
346.625	93.88
346.853	91.88
347.08	100.88
347.308	92.88
347.535	94.88
347.763	78.88
347.99	80.88
348.218	79.88
348.445	90.88
348.673	86.88
348.9	86.88
349.128	84.88
349.355	85.88
349.583	91.88
349.81	84.88
350.037	81.88
350.265	83.88
350.492	85.88
350.72	93.88
350.947	87.88
351.174	74.88
351.402	88.88
351.629	79.88
351.856	87.88
352.083	79.88
352.311	70.88
352.538	80.88
352.765	82.88
352.992	81.88
353.22	92.88
353.447	90.88
353.674	73.88
353.901	99.88
354.128	80.88
354.355	81.88
354.583	79.88
354.81	83.88
355.037	78.88
355.264	97.88
355.491	78.88
355.718	87.88
355.945	91.88
356.172	80.88
356.399	82.88
356.626	74.88
356.853	91.88
357.08	88.88
357.307	79.88
357.534	78.88
357.761	75.88
357.988	87.88
358.215	79.88
358.441	79.88
358.668	86.88
358.895	78.88
359.122	75.88
359.349	81.88
359.576	66.88
359.802	90.88
360.029	70.88
360.256	99.88
360.483	79.88
360.709	84.88
360.936	73.88
361.163	79.88
361.39	82.88
361.616	85.88
361.843	86.88
362.07	77.88
362.296	88.88
362.523	83.88
362.749	86.88
362.976	65.88
363.203	90.88
363.429	97.88
363.656	92.88
363.882	74.88
364.109	87.88
364.335	83.88
364.562	95.88
364.788	86.88
365.015	92.88
365.241	98.88
365.468	84.88
365.694	72.88
365.92	82.88
366.147	90.88
366.373	92.88
366.599	85.88
366.826	78.88
367.052	82.88
367.278	75.88
367.505	85.88
367.731	78.88
367.957	84.88
368.184	71.88
368.41	92.88
368.636	82.88
368.862	101.88
369.089	107.88
369.315	95.88
369.541	85.88
369.767	100.88
369.993	81.88
370.219	90.88
370.445	82.88
370.672	75.88
370.898	93.88
371.124	80.88
371.35	74.88
371.576	82.88
371.802	83.88
372.028	80.88
372.254	92.88
372.48	94.88
372.706	81.88
372.932	84.88
373.158	71.88
373.384	74.88
373.61	100.88
373.835	92.88
374.061	89.88
374.287	82.88
374.513	97.88
374.739	91.88
374.965	86.88
375.191	91.88
375.416	87.88
375.642	78.88
375.868	86.88
376.094	74.88
376.319	90.88
376.545	91.88
376.771	97.88
376.997	78.88
377.222	91.88
377.448	97.88
377.674	79.88
377.899	85.88
378.125	90.88
378.35	86.88
378.576	97.88
378.802	69.88
379.027	86.88
379.253	103.88
379.478	89.88
379.704	90.88
379.929	74.88
380.155	89.88
380.38	81.88
380.606	92.88
380.831	102.88
381.057	86.88
381.282	86.88
381.507	93.88
381.733	93.88
381.958	85.88
382.184	78.88
382.409	73.88
382.634	98.88
382.86	102.88
383.085	89.88
383.31	91.88
383.535	84.88
383.761	85.88
383.986	98.88
384.211	95.88
384.436	92.88
384.662	80.88
384.887	90.88
385.112	80.88
385.337	85.88
385.562	93.88
385.787	92.88
386.013	90.88
386.238	85.88
386.463	105.88
386.688	100.88
386.913	101.88
387.138	80.88
387.363	99.88
387.588	97.88
387.813	89.88
388.038	94.88
388.263	86.88
388.488	95.88
388.713	82.88
388.938	87.88
389.163	90.88
389.387	91.88
389.612	103.88
389.837	87.88
390.062	82.88
390.287	86.88
390.512	97.88
390.736	91.88
390.961	91.88
391.186	102.88
391.411	95.88
391.636	95.88
391.86	88.88
392.085	92.88
392.31	104.88
392.534	107.88
392.759	93.88
392.984	92.88
393.208	91.88
393.433	93.88
393.658	108.88
393.882	91.88
394.107	93.88
394.331	84.88
394.556	94.88
394.78	93.88
395.005	98.88
395.229	82.88
395.454	89.88
395.678	92.88
395.903	89.88
396.127	98.88
396.352	85.88
396.576	97.88
396.801	86.88
397.025	89.88
397.249	86.88
397.474	99.88
397.698	88.88
397.922	79.88
398.147	115.88
398.371	108.88
398.595	108.88
398.82	89.88
399.044	91.88
399.268	98.88
399.492	86.88
399.717	99.88
399.941	92.88
400.165	91.88
400.389	98.88
400.613	100.88
400.837	92.88
401.062	103.88
401.286	93.88
401.51	108.88
401.734	82.88
401.958	91.88
402.182	99.88
402.406	101.88
402.63	93.88
402.854	96.88
403.078	83.88
403.302	88.88
403.526	94.88
403.75	106.88
403.974	83.88
404.198	86.88
404.422	106.88
404.645	104.88
404.869	99.88
405.093	94.88
405.317	94.88
405.541	97.88
405.765	92.88
405.988	97.88
406.212	99.88
406.436	104.88
406.66	98.88
406.883	86.88
407.107	103.88
407.331	101.88
407.555	112.88
407.778	93.88
408.002	90.88
408.226	101.88
408.449	107.88
408.673	107.88
408.896	104.88
409.12	98.88
409.344	99.88
409.567	109.88
409.791	109.88
410.014	98.88
410.238	102.88
410.461	106.88
410.685	90.88
410.908	109.88
411.132	107.88
411.355	97.88
411.578	106.88
411.802	92.88
412.025	96.88
412.249	99.88
412.472	117.88
412.695	105.88
412.919	109.88
413.142	90.88
413.365	108.88
413.589	100.88
413.812	102.88
414.035	97.88
414.258	88.88
414.482	97.88
414.705	101.88
414.928	118.88
415.151	107.88
415.374	100.88
415.597	102.88
415.821	113.88
416.044	92.88
416.267	111.88
416.49	111.88
416.713	97.88
416.936	96.88
417.159	83.88
417.382	108.88
417.605	103.88
417.828	106.88
418.051	98.88
418.274	124.88
418.497	101.88
418.72	105.88
418.943	97.88
419.166	93.88
419.389	104.88
419.611	97.88
419.834	84.88
420.057	109.88
420.28	99.88
420.503	94.88
420.726	110.88
420.948	95.88
421.171	92.88
421.394	105.88
421.617	95.88
421.839	101.88
422.062	99.88
422.285	100.88
422.507	94.88
422.73	103.88
422.953	110.88
423.175	105.88
423.398	95.88
423.621	102.88
423.843	98.88
424.066	108.88
424.288	119.88
424.511	115.88
424.733	110.88
424.956	107.88
425.178	105.88
425.401	110.88
425.623	100.88
425.846	101.88
426.068	95.88
426.291	107.88
426.513	106.88
426.735	100.88
426.958	93.88
427.18	113.88
427.402	112.88
427.625	94.88
427.847	95.88
428.069	99.88
428.292	100.88
428.514	107.88
428.736	100.88
428.958	100.88
429.181	107.88
429.403	100.88
429.625	85.88
429.847	111.88
430.069	111.88
430.292	114.88
430.514	110.88
430.736	103.88
430.958	105.88
431.18	110.88
431.402	121.88
431.624	102.88
431.846	103.88
432.068	99.88
432.29	92.88
432.512	106.88
432.734	103.88
432.956	106.88
433.178	108.88
433.4	103.88
433.622	101.88
433.844	98.88
434.066	100.88
434.287	103.88
434.509	101.88
434.731	90.88
434.953	86.88
435.175	101.88
435.397	94.88
435.618	100.88
435.84	89.88
436.062	94.88
436.284	99.88
436.505	94.88
436.727	106.88
436.949	104.88
437.17	103.88
437.392	103.88
437.614	100.88
437.835	92.88
438.057	85.88
438.278	106.88
438.5	98.88
438.721	114.88
438.943	123.88
439.165	109.88
439.386	113.88
439.608	115.88
439.829	102.88
440.05	115.88
440.272	110.88
440.493	109.88
440.715	105.88
440.936	106.88
441.158	117.88
441.379	113.88
441.6	98.88
441.822	102.88
442.043	121.88
442.264	108.88
442.486	119.88
442.707	103.88
442.928	112.88
443.149	117.88
443.371	125.88
443.592	99.88
443.813	113.88
444.034	121.88
444.255	98.88
444.476	117.88
444.698	122.88
444.919	90.88
445.14	236.88
445.361	157.88
445.582	115.88
445.803	106.88
446.024	116.88
446.245	108.88
446.466	109.88
446.687	108.88
446.908	102.88
447.129	116.88
447.35	115.88
447.571	120.88
447.792	100.88
448.013	110.88
448.234	117.88
448.455	115.88
448.675	106.88
448.896	113.88
449.117	97.88
449.338	113.88
449.559	121.88
449.779	95.88
450	110.88
450.221	107.88
450.442	102.88
450.662	105.88
450.883	86.88
451.104	97.88
451.324	111.88
451.545	117.88
451.766	100.88
451.986	115.88
452.207	105.88
452.428	105.88
452.648	105.88
452.869	105.88
453.089	99.88
453.31	101.88
453.53	98.88
453.751	97.88
453.971	98.88
454.192	87.88
454.412	92.88
454.633	96.88
454.853	97.88
455.073	95.88
455.294	94.88
455.514	94.88
455.734	108.88
455.955	103.88
456.175	92.88
456.395	98.88
456.616	94.88
456.836	101.88
457.056	99.88
457.276	99.88
457.497	96.88
457.717	91.88
457.937	76.88
458.157	89.88
458.377	86.88
458.598	74.88
458.818	89.88
459.038	79.88
459.258	94.88
459.478	74.88
459.698	94.88
459.918	85.88
460.138	77.88
460.358	88.88
460.578	104.88
460.798	102.88
461.018	86.88
461.238	99.88
461.458	90.88
461.678	95.88
461.898	84.88
462.118	90.88
462.338	93.88
462.558	109.88
462.777	87.88
462.997	101.88
463.217	102.88
463.437	93.88
463.657	113.88
463.876	87.88
464.096	106.88
464.316	102.88
464.536	101.88
464.755	100.88
464.975	104.88
465.195	106.88
465.414	112.88
465.634	108.88
465.854	93.88
466.073	86.88
466.293	100.88
466.512	106.88
466.732	95.88
466.951	115.88
467.171	115.88
467.391	105.88
467.61	112.88
467.829	106.88
468.049	115.88
468.268	88.88
468.488	100.88
468.707	114.88
468.927	100.88
469.146	100.88
469.365	106.88
469.585	97.88
469.804	105.88
470.023	96.88
470.243	106.88
470.462	107.88
470.681	101.88
470.901	117.88
471.12	119.88
471.339	123.88
471.558	118.88
471.777	114.88
471.997	100.88
472.216	103.88
472.435	103.88
472.654	84.88
472.873	89.88
473.092	84.88
473.311	113.88
473.53	93.88
473.749	107.88
473.968	93.88
474.187	99.88
474.406	105.88
474.625	105.88
474.844	107.88
475.063	117.88
475.282	99.88
475.501	105.88
475.72	105.88
475.939	99.88
476.158	117.88
476.377	106.88
476.596	113.88
476.814	108.88
477.033	109.88
477.252	102.88
477.471	117.88
477.69	116.88
477.908	106.88
478.127	117.88
478.346	118.88
478.564	97.88
478.783	109.88
479.002	115.88
479.22	103.88
479.439	108.88
479.658	96.88
479.876	92.88
480.095	101.88
480.313	84.88
480.532	94.88
480.751	78.88
480.969	85.88
481.188	78.88
481.406	91.88
481.624	88.88
481.843	96.88
482.061	83.88
482.28	98.88
482.498	107.88
482.717	92.88
482.935	107.88
483.153	113.88
483.372	107.88
483.59	115.88
483.808	101.88
484.027	108.88
484.245	116.88
484.463	119.88
484.681	128.88
484.9	107.88
485.118	120.88
485.336	109.88
485.554	98.88
485.772	98.88
485.99	99.88
486.209	103.88
486.427	98.88
486.645	98.88
486.863	104.88
487.081	103.88
487.299	107.88
487.517	107.88
487.735	113.88
487.953	133.88
488.171	119.88
488.389	143.88
488.607	128.88
488.825	114.88
489.043	116.88
489.261	106.88
489.479	110.88
489.696	108.88
489.914	104.88
490.132	111.88
490.35	114.88
490.568	110.88
490.786	119.88
491.003	117.88
491.221	130.88
491.439	138.88
491.657	139.88
491.874	133.88
492.092	135.88
492.31	153.88
492.527	153.88
492.745	139.88
492.963	140.88
493.18	134.88
493.398	120.88
493.615	138.88
493.833	122.88
494.05	122.88
494.268	121.88
494.485	129.88
494.703	130.88
494.92	133.88
495.138	136.88
495.355	139.88
495.573	110.88
495.79	107.88
496.008	118.88
496.225	125.88
496.442	127.88
496.66	129.88
496.877	127.88
497.094	128.88
497.312	122.88
497.529	119.88
497.746	115.88
497.963	124.88
498.181	101.88
498.398	106.88
498.615	101.88
498.832	90.88
499.049	95.88
499.267	107.88
499.484	103.88
499.701	115.88
499.918	101.88
500.135	110.88
500.352	103.88
500.569	127.88
500.786	119.88
501.003	114.88
501.22	105.88
501.437	114.88
501.654	102.88
501.871	106.88
502.088	101.88
502.305	99.88
502.522	95.88
502.739	107.88
502.956	111.88
503.172	100.88
503.389	100.88
503.606	116.88
503.823	94.88
504.04	112.88
504.256	97.88
504.473	101.88
504.69	99.88
504.907	110.88
505.123	94.88
505.34	89.88
505.557	81.88
505.773	90.88
505.99	115.88
506.207	92.88
506.423	107.88
506.64	88.88
506.856	97.88
507.073	94.88
507.289	89.88
507.506	101.88
507.722	96.88
507.939	99.88
508.155	89.88
508.372	104.88
508.588	109.88
508.805	108.88
509.021	99.88
509.238	85.88
509.454	100.88
509.67	78.88
509.887	82.88
510.103	87.88
510.319	83.88
510.536	86.88
510.752	93.88
510.968	86.88
511.184	70.88
511.401	96.88
511.617	82.88
511.833	89.88
512.049	82.88
512.265	83.88
512.481	90.88
512.698	96.88
512.914	101.88
513.13	94.88
513.346	69.88
513.562	75.88
513.778	88.88
513.994	109.88
514.21	95.88
514.426	81.88
514.642	96.88
514.858	99.88
515.074	80.88
515.29	101.88
515.506	84.88
515.721	82.88
515.937	84.88
516.153	86.88
516.369	75.88
516.585	85.88
516.801	91.88
517.016	90.88
517.232	80.88
517.448	78.88
517.664	86.88
517.879	80.88
518.095	99.88
518.311	102.88
518.527	94.88
518.742	91.88
518.958	84.88
519.173	91.88
519.389	101.88
519.605	97.88
519.82	106.88
520.036	102.88
520.251	93.88
520.467	107.88
520.682	92.88
520.898	92.88
521.113	76.88
521.329	95.88
521.544	77.88
521.76	98.88
521.975	91.88
522.19	93.88
522.406	81.88
522.621	85.88
522.836	92.88
523.052	87.88
523.267	100.88
523.482	95.88
523.698	103.88
523.913	121.88
524.128	103.88
524.343	84.88
524.559	101.88
524.774	90.88
524.989	96.88
525.204	99.88
525.419	113.88
525.634	88.88
525.849	89.88
526.064	87.88
526.28	109.88
526.495	95.88
526.71	82.88
526.925	102.88
527.14	81.88
527.355	85.88
527.57	70.88
527.785	90.88
527.999	83.88
528.214	88.88
528.429	100.88
528.644	100.88
528.859	114.88
529.074	124.88
529.289	118.88
529.503	122.88
529.718	107.88
529.933	117.88
530.148	89.88
530.363	97.88
530.577	83.88
530.792	87.88
531.007	79.88
531.221	85.88
531.436	79.88
531.651	98.88
531.865	90.88
532.08	89.88
532.295	75.88
532.509	74.88
532.724	85.88
532.938	85.88
533.153	95.88
533.367	105.88
533.582	101.88
533.796	97.88
534.011	92.88
534.225	94.88
534.44	93.88
534.654	90.88
534.868	85.88
535.083	90.88
535.297	95.88
535.511	103.88
535.726	99.88
535.94	94.88
536.154	85.88
536.369	87.88
536.583	96.88
536.797	83.88
537.011	87.88
537.225	88.88
537.44	85.88
537.654	97.88
537.868	101.88
538.082	90.88
538.296	93.88
538.51	91.88
538.724	106.88
538.938	102.88
539.153	98.88
539.367	95.88
539.581	105.88
539.795	82.88
540.009	81.88
540.222	86.88
540.436	77.88
540.65	94.88
540.864	117.88
541.078	127.88
541.292	129.88
541.506	120.88
541.72	121.88
541.934	131.88
542.147	129.88
542.361	133.88
542.575	122.88
542.789	117.88
543.002	127.88
543.216	97.88
543.43	98.88
543.644	105.88
543.857	116.88
544.071	119.88
544.285	138.88
544.498	113.88
544.712	122.88
544.925	120.88
545.139	109.88
545.352	110.88
545.566	120.88
545.779	125.88
545.993	128.88
546.206	129.88
546.42	125.88
546.633	124.88
546.847	108.88
547.06	125.88
547.274	133.88
547.487	135.88
547.7	126.88
547.914	137.88
548.127	107.88
548.34	114.88
548.554	119.88
548.767	124.88
548.98	116.88
549.193	127.88
549.407	110.88
549.62	119.88
549.833	122.88
550.046	126.88
550.259	126.88
550.473	119.88
550.686	111.88
550.899	111.88
551.112	110.88
551.325	107.88
551.538	115.88
551.751	102.88
551.964	93.88
552.177	91.88
552.39	110.88
552.603	117.88
552.816	117.88
553.029	113.88
553.242	125.88
553.455	114.88
553.667	120.88
553.88	111.88
554.093	128.88
554.306	121.88
554.519	114.88
554.732	113.88
554.944	104.88
555.157	113.88
555.37	117.88
555.583	120.88
555.795	108.88
556.008	105.88
556.221	114.88
556.433	113.88
556.646	108.88
556.859	114.88
557.071	123.88
557.284	110.88
557.496	105.88
557.709	124.88
557.921	109.88
558.134	109.88
558.346	125.88
558.559	117.88
558.771	114.88
558.984	109.88
559.196	106.88
559.409	110.88
559.621	113.88
559.833	100.88
560.046	107.88
560.258	114.88
560.47	96.88
560.683	108.88
560.895	110.88
561.107	110.88
561.32	103.88
561.532	102.88
561.744	118.88
561.956	102.88
562.168	114.88
562.381	107.88
562.593	100.88
562.805	92.88
563.017	108.88
563.229	101.88
563.441	101.88
563.653	116.88
563.865	115.88
564.077	94.88
564.289	94.88
564.501	117.88
564.713	87.88
564.925	109.88
565.137	97.88
565.349	114.88
565.561	108.88
565.773	103.88
565.985	98.88
566.197	99.88
566.408	121.88
566.62	107.88
566.832	100.88
567.044	106.88
567.255	100.88
567.467	105.88
567.679	97.88
567.891	94.88
568.102	95.88
568.314	88.88
568.526	85.88
568.737	79.88
568.949	80.88
569.161	86.88
569.372	92.88
569.584	76.88
569.795	82.88
570.007	77.88
570.218	87.88
570.43	80.88
570.641	77.88
570.853	108.88
571.064	89.88
571.276	106.88
571.487	87.88
571.698	94.88
571.91	91.88
572.121	104.88
572.333	94.88
572.544	92.88
572.755	92.88
572.966	95.88
573.178	76.88
573.389	75.88
573.6	86.88
573.811	93.88
574.023	81.88
574.234	75.88
574.445	91.88
574.656	95.88
574.867	101.88
575.078	78.88
575.289	90.88
575.501	87.88
575.712	90.88
575.923	91.88
576.134	92.88
576.345	85.88
576.556	101.88
576.767	93.88
576.978	104.88
577.188	87.88
577.399	85.88
577.61	74.88
577.821	83.88
578.032	87.88
578.243	97.88
578.454	107.88
578.665	86.88
578.875	82.88
579.086	87.88
579.297	83.88
579.508	97.88
579.718	94.88
579.929	75.88
580.14	65.88
580.35	71.88
580.561	81.88
580.772	89.88
580.982	82.88
581.193	84.88
581.403	88.88
581.614	104.88
581.825	82.88
582.035	74.88
582.246	83.88
582.456	93.88
582.667	83.88
582.877	89.88
583.087	85.88
583.298	101.88
583.508	96.88
583.719	89.88
583.929	85.88
584.139	78.88
584.35	76.88
584.56	94.88
584.77	92.88
584.981	83.88
585.191	94.88
585.401	86.88
585.611	86.88
585.821	79.88
586.032	96.88
586.242	89.88
586.452	84.88
586.662	83.88
586.872	75.88
587.082	94.88
587.292	89.88
587.502	89.88
587.713	87.88
587.923	94.88
588.133	83.88
588.343	87.88
588.553	83.88
588.762	99.88
588.972	80.88
589.182	72.88
589.392	81.88
589.602	99.88
589.812	85.88
590.022	78.88
590.232	73.88
590.441	84.88
590.651	85.88
590.861	76.88
591.071	101.88
591.281	87.88
591.49	79.88
591.7	78.88
591.91	94.88
592.119	92.88
592.329	73.88
592.539	81.88
592.748	79.88
592.958	94.88
593.167	70.88
593.377	74.88
593.587	91.88
593.796	83.88
594.006	93.88
594.215	80.88
594.424	93.88
594.634	86.88
594.843	83.88
595.053	100.88
595.262	87.88
595.472	101.88
595.681	77.88
595.89	85.88
596.1	91.88
596.309	101.88
596.518	84.88
596.727	86.88
596.937	86.88
597.146	84.88
597.355	88.88
597.564	91.88
597.774	79.88
597.983	95.88
598.192	83.88
598.401	88.88
598.61	82.88
598.819	88.88
599.028	94.88
599.237	97.88
599.446	92.88
599.655	91.88
599.864	99.88
600.073	91.88
600.282	92.88
600.491	85.88
600.7	91.88
600.909	93.88
601.118	82.88
601.327	107.88
601.536	86.88
601.745	94.88
601.953	92.88
602.162	97.88
602.371	105.88
602.58	103.88
602.789	94.88
602.997	97.88
603.206	99.88
603.415	102.88
603.623	93.88
603.832	106.88
604.041	97.88
604.249	86.88
604.458	95.88
604.666	92.88
604.875	95.88
605.084	97.88
605.292	86.88
605.501	93.88
605.709	91.88
605.918	108.88
606.126	104.88
606.334	105.88
606.543	101.88
606.751	80.88
606.96	103.88
607.168	103.88
607.376	104.88
607.585	93.88
607.793	91.88
608.001	93.88
608.21	97.88
608.418	102.88
608.626	101.88
608.834	97.88
609.043	94.88
609.251	110.88
609.459	98.88
609.667	92.88
609.875	85.88
610.083	96.88
610.291	98.88
610.499	102.88
610.707	99.88
610.916	89.88
611.124	85.88
611.332	97.88
611.54	87.88
611.748	102.88
611.955	90.88
612.163	97.88
612.371	107.88
612.579	97.88
612.787	98.88
612.995	99.88
613.203	97.88
613.411	104.88
613.618	95.88
613.826	101.88
614.034	107.88
614.242	92.88
614.449	100.88
614.657	105.88
614.865	98.88
615.072	90.88
615.28	99.88
615.488	102.88
615.695	104.88
615.903	91.88
616.111	96.88
616.318	102.88
616.526	106.88
616.733	100.88
616.941	104.88
617.148	106.88
617.356	87.88
617.563	77.88
617.771	83.88
617.978	89.88
618.185	70.88
618.393	101.88
618.6	101.88
618.807	103.88
619.015	86.88
619.222	98.88
619.429	88.88
619.637	109.88
619.844	97.88
620.051	100.88
620.258	92.88
620.466	79.88
620.673	103.88
620.88	96.88
621.087	101.88
621.294	103.88
621.501	113.88
621.708	86.88
621.915	93.88
622.122	104.88
622.329	83.88
622.536	83.88
622.743	95.88
622.95	87.88
623.157	99.88
623.364	100.88
623.571	99.88
623.778	105.88
623.985	91.88
624.192	89.88
624.399	99.88
624.606	98.88
624.812	94.88
625.019	93.88
625.226	82.88
625.433	83.88
625.639	99.88
625.846	97.88
626.053	95.88
626.259	74.88
626.466	77.88
626.673	88.88
626.879	88.88
627.086	104.88
627.293	89.88
627.499	84.88
627.706	93.88
627.912	85.88
628.119	103.88
628.325	100.88
628.532	95.88
628.738	81.88
628.945	103.88
629.151	89.88
629.357	86.88
629.564	95.88
629.77	105.88
629.976	101.88
630.183	97.88
630.389	88.88
630.595	85.88
630.802	93.88
631.008	96.88
631.214	83.88
631.42	98.88
631.627	100.88
631.833	89.88
632.039	78.88
632.245	87.88
632.451	100.88
632.657	97.88
632.863	93.88
633.069	89.88
633.275	94.88
633.481	96.88
633.688	91.88
633.893	85.88
634.099	76.88
634.305	85.88
634.511	92.88
634.717	90.88
634.923	82.88
635.129	89.88
635.335	90.88
635.541	96.88
635.747	72.88
635.952	84.88
636.158	90.88
636.364	92.88
636.57	102.88
636.775	93.88
636.981	94.88
637.187	93.88
637.392	98.88
637.598	93.88
637.804	79.88
638.009	99.88
638.215	90.88
638.421	85.88
638.626	101.88
638.832	86.88
639.037	79.88
639.243	100.88
639.448	89.88
639.654	104.88
639.859	101.88
640.065	86.88
640.27	82.88
640.475	81.88
640.681	92.88
640.886	93.88
641.091	94.88
641.297	116.88
641.502	89.88
641.707	94.88
641.913	90.88
642.118	88.88
642.323	84.88
642.528	94.88
642.733	88.88
642.939	98.88
643.144	91.88
643.349	97.88
643.554	94.88
643.759	110.88
643.964	100.88
644.169	85.88
644.374	94.88
644.579	90.88
644.784	90.88
644.989	82.88
645.194	86.88
645.399	88.88
645.604	95.88
645.809	89.88
646.014	103.88
646.219	88.88
646.423	75.88
646.628	87.88
646.833	91.88
647.038	92.88
647.243	91.88
647.447	94.88
647.652	93.88
647.857	90.88
648.062	97.88
648.266	97.88
648.471	90.88
648.676	94.88
648.88	93.88
649.085	88.88
649.289	81.88
649.494	90.88
649.698	84.88
649.903	97.88
650.107	96.88
650.312	105.88
650.516	98.88
650.721	93.88
650.925	88.88
651.13	85.88
651.334	84.88
651.539	85.88
651.743	84.88
651.947	90.88
652.152	95.88
652.356	101.88
652.56	105.88
652.764	84.88
652.969	94.88
653.173	89.88
653.377	79.88
653.581	88.88
653.785	93.88
653.99	89.88
654.194	93.88
654.398	95.88
654.602	99.88
654.806	100.88
655.01	79.88
655.214	75.88
655.418	89.88
655.622	90.88
655.826	80.88
656.03	79.88
656.234	89.88
656.438	95.88
656.642	102.88
656.846	95.88
657.049	93.88
657.253	85.88
657.457	90.88
657.661	76.88
657.865	100.88
658.068	88.88
658.272	102.88
658.476	94.88
658.68	79.88
658.883	85.88
659.087	77.88
659.291	93.88
659.494	87.88
659.698	94.88
659.901	99.88
660.105	93.88
660.309	92.88
660.512	88.88
660.716	86.88
660.919	78.88
661.123	99.88
661.326	88.88
661.53	80.88
661.733	85.88
661.936	91.88
662.14	78.88
662.343	88.88
662.546	75.88
662.75	89.88
662.953	84.88
663.156	99.88
663.36	79.88
663.563	85.88
663.766	80.88
663.969	83.88
664.173	93.88
664.376	65.88
664.579	86.88
664.782	87.88
664.985	82.88
665.188	84.88
665.391	89.88
665.594	78.88
665.797	87.88
666	94.88
666.203	86.88
666.406	73.88
666.609	75.88
666.812	78.88
667.015	80.88
667.218	75.88
667.421	76.88
667.624	79.88
667.827	84.88
668.03	83.88
668.232	79.88
668.435	71.88
668.638	67.88
668.841	88.88
669.043	97.88
669.246	94.88
669.449	86.88
669.651	71.88
669.854	84.88
670.057	100.88
670.259	80.88
670.462	74.88
670.665	80.88
670.867	86.88
671.07	88.88
671.272	90.88
671.475	83.88
671.677	85.88
671.88	78.88
672.082	92.88
672.284	96.88
672.487	93.88
672.689	86.88
672.892	65.88
