Data from Zn(NO3)2Standard.Agarose3%.GreenCap.LampEnergy5.5.E.O_HRD10591_15-02-26-768.txt Node
Date: Mon Jul 22 15:02:26 EDT 2019
User: cochatt
Spectrometer: HR+D1059
Trigger mode: 1
Integration Time (sec): 1.000000E-1
Scans to average: 1
Electric dark correction enabled: true
Nonlinearity correction enabled: false
Boxcar width: 0
XAxis mode: Wavelengths
Number of Pixels in Spectrum: 2048
>>>>>Begin Spectral Data<<<<<
223.165	-19.31
223.4	-19.31
223.635	-19.31
223.869	-8.31
224.104	-10.31
224.338	-19.31
224.573	-11.31
224.808	-2.31
225.042	-13.31
225.277	-10.31
225.511	-15.31
225.746	5.69
225.98	9.69
226.215	6.69
226.449	20.69
226.683	19.69
226.918	25.69
227.152	21.69
227.387	20.69
227.621	50.69
227.856	51.69
228.09	41.69
228.324	49.69
228.559	44.69
228.793	49.69
229.027	62.69
229.262	65.69
229.496	72.69
229.73	55.69
229.964	73.69
230.199	73.69
230.433	57.69
230.667	83.69
230.901	88.69
231.136	90.69
231.37	67.69
231.604	88.69
231.838	78.69
232.072	75.69
232.306	81.69
232.541	79.69
232.775	75.69
233.009	76.69
233.243	78.69
233.477	83.69
233.711	86.69
233.945	80.69
234.179	91.69
234.413	76.69
234.647	76.69
234.881	81.69
235.115	81.69
235.349	83.69
235.583	83.69
235.817	84.69
236.051	78.69
236.285	89.69
236.519	87.69
236.753	80.69
236.987	75.69
237.221	75.69
237.455	70.69
237.689	81.69
237.922	59.69
238.156	80.69
238.39	83.69
238.624	78.69
238.858	70.69
239.091	79.69
239.325	74.69
239.559	59.69
239.793	72.69
240.027	94.69
240.26	80.69
240.494	83.69
240.728	71.69
240.961	82.69
241.195	69.69
241.429	78.69
241.662	66.69
241.896	65.69
242.13	67.69
242.363	80.69
242.597	77.69
242.83	78.69
243.064	75.69
243.298	72.69
243.531	88.69
243.765	68.69
243.998	82.69
244.232	85.69
244.465	82.69
244.699	81.69
244.932	85.69
245.166	73.69
245.399	91.69
245.633	83.69
245.866	67.69
246.099	74.69
246.333	67.69
246.566	75.69
246.8	87.69
247.033	86.69
247.266	75.69
247.5	86.69
247.733	88.69
247.966	83.69
248.2	77.69
248.433	74.69
248.666	79.69
248.899	75.69
249.133	74.69
249.366	79.69
249.599	84.69
249.832	80.69
250.066	70.69
250.299	72.69
250.532	88.69
250.765	92.69
250.998	88.69
251.231	87.69
251.465	76.69
251.698	75.69
251.931	77.69
252.164	80.69
252.397	82.69
252.63	87.69
252.863	78.69
253.096	85.69
253.329	99.69
253.562	71.69
253.795	70.69
254.028	84.69
254.261	77.69
254.494	73.69
254.727	75.69
254.96	78.69
255.193	90.69
255.426	85.69
255.659	86.69
255.892	80.69
256.124	76.69
256.357	84.69
256.59	82.69
256.823	78.69
257.056	79.69
257.289	74.69
257.521	87.69
257.754	82.69
257.987	86.69
258.22	88.69
258.452	74.69
258.685	78.69
258.918	91.69
259.151	85.69
259.383	81.69
259.616	85.69
259.849	81.69
260.081	92.69
260.314	88.69
260.547	78.69
260.779	93.69
261.012	83.69
261.244	80.69
261.477	73.69
261.71	90.69
261.942	75.69
262.175	89.69
262.407	81.69
262.64	89.69
262.872	79.69
263.105	75.69
263.337	86.69
263.57	76.69
263.802	92.69
264.035	81.69
264.267	78.69
264.499	82.69
264.732	78.69
264.964	76.69
265.197	86.69
265.429	83.69
265.661	63.69
265.894	82.69
266.126	84.69
266.358	90.69
266.591	85.69
266.823	76.69
267.055	89.69
267.287	84.69
267.52	93.69
267.752	75.69
267.984	86.69
268.216	95.69
268.448	89.69
268.681	90.69
268.913	85.69
269.145	91.69
269.377	87.69
269.609	83.69
269.841	90.69
270.073	100.69
270.306	81.69
270.538	83.69
270.77	84.69
271.002	90.69
271.234	83.69
271.466	86.69
271.698	85.69
271.93	69.69
272.162	84.69
272.394	82.69
272.626	76.69
272.858	86.69
273.09	81.69
273.322	84.69
273.553	81.69
273.785	75.69
274.017	85.69
274.249	80.69
274.481	83.69
274.713	88.69
274.945	88.69
275.176	83.69
275.408	87.69
275.64	93.69
275.872	88.69
276.104	80.69
276.335	83.69
276.567	85.69
276.799	64.69
277.031	81.69
277.262	81.69
277.494	90.69
277.726	81.69
277.957	73.69
278.189	96.69
278.421	96.69
278.652	97.69
278.884	71.69
279.115	73.69
279.347	75.69
279.579	80.69
279.81	83.69
280.042	87.69
280.273	71.69
280.505	85.69
280.736	88.69
280.968	91.69
281.199	72.69
281.431	67.69
281.662	79.69
281.894	99.69
282.125	79.69
282.356	93.69
282.588	77.69
282.819	80.69
283.051	78.69
283.282	88.69
283.513	92.69
283.745	82.69
283.976	87.69
284.207	91.69
284.439	85.69
284.67	79.69
284.901	90.69
285.132	90.69
285.364	87.69
285.595	85.69
285.826	97.69
286.057	83.69
286.288	87.69
286.52	88.69
286.751	86.69
286.982	81.69
287.213	76.69
287.444	85.69
287.675	94.69
287.906	98.69
288.138	93.69
288.369	69.69
288.6	95.69
288.831	79.69
289.062	89.69
289.293	82.69
289.524	81.69
289.755	76.69
289.986	75.69
290.217	84.69
290.448	93.69
290.679	91.69
290.91	75.69
291.141	77.69
291.371	77.69
291.602	90.69
291.833	97.69
292.064	83.69
292.295	68.69
292.526	79.69
292.757	77.69
292.987	73.69
293.218	84.69
293.449	91.69
293.68	90.69
293.91	89.69
294.141	92.69
294.372	83.69
294.603	86.69
294.833	89.69
295.064	86.69
295.295	82.69
295.525	91.69
295.756	77.69
295.987	76.69
296.217	86.69
296.448	83.69
296.679	82.69
296.909	77.69
297.14	88.69
297.37	87.69
297.601	84.69
297.831	83.69
298.062	75.69
298.292	88.69
298.523	90.69
298.753	87.69
298.984	91.69
299.214	89.69
299.445	85.69
299.675	95.69
299.905	98.69
300.136	85.69
300.366	101.69
300.597	96.69
300.827	96.69
301.057	95.69
301.288	85.69
301.518	82.69
301.748	93.69
301.979	86.69
302.209	86.69
302.439	91.69
302.669	86.69
302.9	73.69
303.13	92.69
303.36	78.69
303.59	91.69
303.82	87.69
304.051	92.69
304.281	85.69
304.511	87.69
304.741	91.69
304.971	88.69
305.201	83.69
305.431	89.69
305.661	85.69
305.891	80.69
306.121	84.69
306.352	110.69
306.582	92.69
306.812	99.69
307.042	105.69
307.272	89.69
307.502	84.69
307.731	79.69
307.961	71.69
308.191	79.69
308.421	92.69
308.651	95.69
308.881	91.69
309.111	85.69
309.341	85.69
309.571	86.69
309.8	70.69
310.03	76.69
310.26	64.69
310.49	90.69
310.72	90.69
310.949	86.69
311.179	97.69
311.409	77.69
311.639	61.69
311.868	78.69
312.098	89.69
312.328	76.69
312.557	104.69
312.787	94.69
313.017	79.69
313.246	76.69
313.476	82.69
313.706	80.69
313.935	84.69
314.165	77.69
314.394	92.69
314.624	81.69
314.853	102.69
315.083	97.69
315.312	87.69
315.542	81.69
315.771	86.69
316.001	81.69
316.23	78.69
316.46	89.69
316.689	87.69
316.919	83.69
317.148	95.69
317.377	83.69
317.607	82.69
317.836	84.69
318.065	86.69
318.295	84.69
318.524	86.69
318.753	66.69
318.983	79.69
319.212	97.69
319.441	91.69
319.67	83.69
319.9	97.69
320.129	81.69
320.358	90.69
320.587	77.69
320.816	72.69
321.046	65.69
321.275	76.69
321.504	86.69
321.733	88.69
321.962	81.69
322.191	73.69
322.42	74.69
322.649	86.69
322.878	79.69
323.108	93.69
323.337	88.69
323.566	90.69
323.795	98.69
324.024	94.69
324.253	97.69
324.482	84.69
324.71	89.69
324.939	90.69
325.168	82.69
325.397	80.69
325.626	98.69
325.855	89.69
326.084	74.69
326.313	72.69
326.542	85.69
326.77	97.69
326.999	100.69
327.228	98.69
327.457	84.69
327.686	85.69
327.914	106.69
328.143	71.69
328.372	78.69
328.6	91.69
328.829	73.69
329.058	83.69
329.287	86.69
329.515	84.69
329.744	96.69
329.972	87.69
330.201	100.69
330.43	85.69
330.658	94.69
330.887	98.69
331.115	83.69
331.344	83.69
331.572	83.69
331.801	90.69
332.03	68.69
332.258	94.69
332.486	95.69
332.715	79.69
332.943	79.69
333.172	79.69
333.4	90.69
333.629	93.69
333.857	92.69
334.085	93.69
334.314	87.69
334.542	86.69
334.771	77.69
334.999	99.69
335.227	81.69
335.455	92.69
335.684	74.69
335.912	85.69
336.14	97.69
336.369	63.69
336.597	90.69
336.825	87.69
337.053	86.69
337.281	86.69
337.51	90.69
337.738	87.69
337.966	76.69
338.194	84.69
338.422	81.69
338.65	78.69
338.878	94.69
339.106	95.69
339.334	87.69
339.562	79.69
339.79	104.69
340.018	74.69
340.246	81.69
340.474	84.69
340.702	75.69
340.93	93.69
341.158	89.69
341.386	84.69
341.614	95.69
341.842	76.69
342.07	67.69
342.298	86.69
342.526	83.69
342.754	89.69
342.981	86.69
343.209	86.69
343.437	86.69
343.665	84.69
343.893	82.69
344.12	94.69
344.348	99.69
344.576	89.69
344.804	102.69
345.031	76.69
345.259	89.69
345.487	72.69
345.714	88.69
345.942	83.69
346.17	76.69
346.397	77.69
346.625	74.69
346.853	83.69
347.08	92.69
347.308	100.69
347.535	95.69
347.763	76.69
347.99	69.69
348.218	86.69
348.445	83.69
348.673	89.69
348.9	86.69
349.128	102.69
349.355	93.69
349.583	91.69
349.81	88.69
350.037	106.69
350.265	72.69
350.492	80.69
350.72	70.69
350.947	84.69
351.174	100.69
351.402	93.69
351.629	91.69
351.856	83.69
352.083	81.69
352.311	86.69
352.538	94.69
352.765	83.69
352.992	76.69
353.22	83.69
353.447	80.69
353.674	78.69
353.901	94.69
354.128	96.69
354.355	92.69
354.583	85.69
354.81	90.69
355.037	83.69
355.264	89.69
355.491	88.69
355.718	83.69
355.945	80.69
356.172	78.69
356.399	87.69
356.626	80.69
356.853	84.69
357.08	79.69
357.307	95.69
357.534	80.69
357.761	97.69
357.988	70.69
358.215	93.69
358.441	81.69
358.668	90.69
358.895	86.69
359.122	70.69
359.349	71.69
359.576	87.69
359.802	88.69
360.029	87.69
360.256	89.69
360.483	82.69
360.709	76.69
360.936	91.69
361.163	93.69
361.39	75.69
361.616	106.69
361.843	78.69
362.07	81.69
362.296	78.69
362.523	75.69
362.749	80.69
362.976	77.69
363.203	75.69
363.429	89.69
363.656	87.69
363.882	74.69
364.109	78.69
364.335	78.69
364.562	86.69
364.788	92.69
365.015	91.69
365.241	103.69
365.468	94.69
365.694	83.69
365.92	75.69
366.147	76.69
366.373	86.69
366.599	91.69
366.826	82.69
367.052	78.69
367.278	91.69
367.505	82.69
367.731	83.69
367.957	80.69
368.184	78.69
368.41	90.69
368.636	75.69
368.862	88.69
369.089	73.69
369.315	96.69
369.541	84.69
369.767	73.69
369.993	91.69
370.219	94.69
370.445	90.69
370.672	75.69
370.898	82.69
371.124	92.69
371.35	84.69
371.576	89.69
371.802	100.69
372.028	90.69
372.254	60.69
372.48	76.69
372.706	83.69
372.932	85.69
373.158	90.69
373.384	77.69
373.61	80.69
373.835	74.69
374.061	85.69
374.287	80.69
374.513	88.69
374.739	93.69
374.965	70.69
375.191	88.69
375.416	94.69
375.642	107.69
375.868	75.69
376.094	76.69
376.319	75.69
376.545	86.69
376.771	75.69
376.997	89.69
377.222	88.69
377.448	97.69
377.674	86.69
377.899	84.69
378.125	82.69
378.35	87.69
378.576	94.69
378.802	81.69
379.027	88.69
379.253	97.69
379.478	87.69
379.704	85.69
379.929	92.69
380.155	72.69
380.38	80.69
380.606	82.69
380.831	106.69
381.057	109.69
381.282	76.69
381.507	94.69
381.733	99.69
381.958	89.69
382.184	85.69
382.409	69.69
382.634	81.69
382.86	78.69
383.085	95.69
383.31	70.69
383.535	104.69
383.761	95.69
383.986	89.69
384.211	83.69
384.436	84.69
384.662	82.69
384.887	73.69
385.112	89.69
385.337	81.69
385.562	97.69
385.787	75.69
386.013	87.69
386.238	70.69
386.463	85.69
386.688	82.69
386.913	81.69
387.138	85.69
387.363	87.69
387.588	100.69
387.813	89.69
388.038	71.69
388.263	75.69
388.488	69.69
388.713	77.69
388.938	90.69
389.163	84.69
389.387	88.69
389.612	92.69
389.837	90.69
390.062	88.69
390.287	86.69
390.512	79.69
390.736	83.69
390.961	78.69
391.186	86.69
391.411	78.69
391.636	90.69
391.86	79.69
392.085	94.69
392.31	89.69
392.534	87.69
392.759	84.69
392.984	91.69
393.208	92.69
393.433	78.69
393.658	68.69
393.882	75.69
394.107	87.69
394.331	90.69
394.556	83.69
394.78	83.69
395.005	77.69
395.229	80.69
395.454	68.69
395.678	79.69
395.903	88.69
396.127	80.69
396.352	72.69
396.576	73.69
396.801	63.69
397.025	80.69
397.249	83.69
397.474	82.69
397.698	84.69
397.922	86.69
398.147	103.69
398.371	82.69
398.595	79.69
398.82	80.69
399.044	93.69
399.268	79.69
399.492	69.69
399.717	92.69
399.941	89.69
400.165	83.69
400.389	87.69
400.613	78.69
400.837	78.69
401.062	87.69
401.286	78.69
401.51	90.69
401.734	86.69
401.958	94.69
402.182	109.69
402.406	79.69
402.63	78.69
402.854	86.69
403.078	87.69
403.302	81.69
403.526	87.69
403.75	90.69
403.974	87.69
404.198	85.69
404.422	79.69
404.645	91.69
404.869	79.69
405.093	96.69
405.317	107.69
405.541	82.69
405.765	91.69
405.988	89.69
406.212	71.69
406.436	63.69
406.66	85.69
406.883	91.69
407.107	86.69
407.331	82.69
407.555	90.69
407.778	90.69
408.002	84.69
408.226	79.69
408.449	84.69
408.673	102.69
408.896	88.69
409.12	85.69
409.344	75.69
409.567	89.69
409.791	80.69
410.014	85.69
410.238	61.69
410.461	85.69
410.685	83.69
410.908	93.69
411.132	95.69
411.355	78.69
411.578	82.69
411.802	78.69
412.025	93.69
412.249	71.69
412.472	97.69
412.695	99.69
412.919	86.69
413.142	82.69
413.365	77.69
413.589	75.69
413.812	87.69
414.035	91.69
414.258	75.69
414.482	85.69
414.705	89.69
414.928	78.69
415.151	87.69
415.374	94.69
415.597	78.69
415.821	100.69
416.044	79.69
416.267	77.69
416.49	88.69
416.713	87.69
416.936	103.69
417.159	88.69
417.382	85.69
417.605	98.69
417.828	94.69
418.051	73.69
418.274	92.69
418.497	84.69
418.72	97.69
418.943	79.69
419.166	91.69
419.389	78.69
419.611	73.69
419.834	78.69
420.057	91.69
420.28	80.69
420.503	92.69
420.726	105.69
420.948	93.69
421.171	95.69
421.394	93.69
421.617	95.69
421.839	81.69
422.062	93.69
422.285	82.69
422.507	90.69
422.73	83.69
422.953	89.69
423.175	95.69
423.398	82.69
423.621	80.69
423.843	79.69
424.066	87.69
424.288	87.69
424.511	74.69
424.733	96.69
424.956	80.69
425.178	91.69
425.401	89.69
425.623	90.69
425.846	90.69
426.068	81.69
426.291	79.69
426.513	84.69
426.735	93.69
426.958	93.69
427.18	86.69
427.402	82.69
427.625	90.69
427.847	85.69
428.069	87.69
428.292	81.69
428.514	89.69
428.736	86.69
428.958	83.69
429.181	79.69
429.403	81.69
429.625	85.69
429.847	98.69
430.069	89.69
430.292	102.69
430.514	82.69
430.736	77.69
430.958	82.69
431.18	87.69
431.402	89.69
431.624	94.69
431.846	90.69
432.068	76.69
432.29	86.69
432.512	90.69
432.734	100.69
432.956	96.69
433.178	86.69
433.4	96.69
433.622	93.69
433.844	97.69
434.066	100.69
434.287	88.69
434.509	76.69
434.731	73.69
434.953	87.69
435.175	89.69
435.397	89.69
435.618	88.69
435.84	85.69
436.062	75.69
436.284	89.69
436.505	83.69
436.727	78.69
436.949	88.69
437.17	86.69
437.392	89.69
437.614	87.69
437.835	87.69
438.057	93.69
438.278	79.69
438.5	85.69
438.721	83.69
438.943	86.69
439.165	95.69
439.386	85.69
439.608	83.69
439.829	72.69
440.05	79.69
440.272	87.69
440.493	74.69
440.715	97.69
440.936	90.69
441.158	86.69
441.379	92.69
441.6	99.69
441.822	89.69
442.043	104.69
442.264	107.69
442.486	83.69
442.707	93.69
442.928	113.69
443.149	93.69
443.371	98.69
443.592	97.69
443.813	82.69
444.034	79.69
444.255	90.69
444.476	89.69
444.698	106.69
444.919	112.69
445.14	223.69
445.361	175.69
445.582	102.69
445.803	83.69
446.024	93.69
446.245	79.69
446.466	82.69
446.687	101.69
446.908	102.69
447.129	92.69
447.35	79.69
447.571	98.69
447.792	93.69
448.013	97.69
448.234	97.69
448.455	100.69
448.675	104.69
448.896	91.69
449.117	98.69
449.338	93.69
449.559	100.69
449.779	97.69
450	93.69
450.221	76.69
450.442	90.69
450.662	98.69
450.883	87.69
451.104	83.69
451.324	93.69
451.545	100.69
451.766	76.69
451.986	77.69
452.207	97.69
452.428	91.69
452.648	97.69
452.869	82.69
453.089	86.69
453.31	90.69
453.53	94.69
453.751	90.69
453.971	90.69
454.192	96.69
454.412	94.69
454.633	81.69
454.853	90.69
455.073	83.69
455.294	80.69
455.514	90.69
455.734	87.69
455.955	88.69
456.175	87.69
456.395	85.69
456.616	77.69
456.836	74.69
457.056	77.69
457.276	87.69
457.497	86.69
457.717	80.69
457.937	75.69
458.157	80.69
458.377	74.69
458.598	82.69
458.818	71.69
459.038	84.69
459.258	75.69
459.478	80.69
459.698	93.69
459.918	86.69
460.138	88.69
460.358	88.69
460.578	83.69
460.798	89.69
461.018	81.69
461.238	76.69
461.458	85.69
461.678	77.69
461.898	85.69
462.118	90.69
462.338	89.69
462.558	80.69
462.777	85.69
462.997	92.69
463.217	80.69
463.437	92.69
463.657	82.69
463.876	90.69
464.096	85.69
464.316	67.69
464.536	89.69
464.755	81.69
464.975	92.69
465.195	93.69
465.414	99.69
465.634	100.69
465.854	93.69
466.073	78.69
466.293	90.69
466.512	87.69
466.732	85.69
466.951	110.69
467.171	87.69
467.391	90.69
467.61	88.69
467.829	94.69
468.049	88.69
468.268	96.69
468.488	80.69
468.707	80.69
468.927	86.69
469.146	79.69
469.365	90.69
469.585	92.69
469.804	89.69
470.023	90.69
470.243	94.69
470.462	92.69
470.681	96.69
470.901	92.69
471.12	101.69
471.339	93.69
471.558	79.69
471.777	86.69
471.997	98.69
472.216	104.69
472.435	79.69
472.654	89.69
472.873	87.69
473.092	86.69
473.311	94.69
473.53	87.69
473.749	90.69
473.968	78.69
474.187	104.69
474.406	92.69
474.625	95.69
474.844	89.69
475.063	97.69
475.282	74.69
475.501	79.69
475.72	97.69
475.939	79.69
476.158	79.69
476.377	85.69
476.596	89.69
476.814	86.69
477.033	94.69
477.252	86.69
477.471	90.69
477.69	91.69
477.908	103.69
478.127	98.69
478.346	89.69
478.564	78.69
478.783	89.69
479.002	103.69
479.22	87.69
479.439	84.69
479.658	67.69
479.876	84.69
480.095	77.69
480.313	75.69
480.532	88.69
480.751	91.69
480.969	89.69
481.188	79.69
481.406	77.69
481.624	85.69
481.843	79.69
482.061	83.69
482.28	88.69
482.498	92.69
482.717	90.69
482.935	83.69
483.153	93.69
483.372	107.69
483.59	100.69
483.808	97.69
484.027	117.69
484.245	85.69
484.463	75.69
484.681	105.69
484.9	98.69
485.118	99.69
485.336	85.69
485.554	83.69
485.772	77.69
485.99	89.69
486.209	79.69
486.427	73.69
486.645	75.69
486.863	90.69
487.081	89.69
487.299	84.69
487.517	93.69
487.735	108.69
487.953	89.69
488.171	103.69
488.389	106.69
488.607	101.69
488.825	89.69
489.043	90.69
489.261	96.69
489.479	98.69
489.696	97.69
489.914	110.69
490.132	108.69
490.35	90.69
490.568	86.69
490.786	88.69
491.003	104.69
491.221	105.69
491.439	83.69
491.657	93.69
491.874	109.69
492.092	117.69
492.31	118.69
492.527	108.69
492.745	107.69
492.963	108.69
493.18	96.69
493.398	92.69
493.615	106.69
493.833	106.69
494.05	87.69
494.268	85.69
494.485	104.69
494.703	102.69
494.92	92.69
495.138	105.69
495.355	87.69
495.573	114.69
495.79	94.69
496.008	117.69
496.225	96.69
496.442	94.69
496.66	102.69
496.877	86.69
497.094	102.69
497.312	90.69
497.529	87.69
497.746	85.69
497.963	87.69
498.181	101.69
498.398	88.69
498.615	96.69
498.832	91.69
499.049	91.69
499.267	91.69
499.484	87.69
499.701	98.69
499.918	92.69
500.135	106.69
500.352	92.69
500.569	98.69
500.786	91.69
501.003	105.69
501.22	92.69
501.437	97.69
501.654	94.69
501.871	85.69
502.088	86.69
502.305	91.69
502.522	92.69
502.739	89.69
502.956	106.69
503.172	99.69
503.389	85.69
503.606	90.69
503.823	75.69
504.04	85.69
504.256	86.69
504.473	90.69
504.69	91.69
504.907	85.69
505.123	77.69
505.34	86.69
505.557	88.69
505.773	93.69
505.99	84.69
506.207	97.69
506.423	98.69
506.64	98.69
506.856	84.69
507.073	78.69
507.289	101.69
507.506	98.69
507.722	92.69
507.939	95.69
508.155	79.69
508.372	85.69
508.588	98.69
508.805	94.69
509.021	102.69
509.238	83.69
509.454	88.69
509.67	84.69
509.887	90.69
510.103	68.69
510.319	81.69
510.536	90.69
510.752	81.69
510.968	93.69
511.184	92.69
511.401	71.69
511.617	89.69
511.833	88.69
512.049	72.69
512.265	86.69
512.481	80.69
512.698	87.69
512.914	79.69
513.13	97.69
513.346	93.69
513.562	92.69
513.778	75.69
513.994	85.69
514.21	80.69
514.426	78.69
514.642	87.69
514.858	95.69
515.074	89.69
515.29	80.69
515.506	89.69
515.721	89.69
515.937	77.69
516.153	82.69
516.369	63.69
516.585	76.69
516.801	91.69
517.016	80.69
517.232	75.69
517.448	70.69
517.664	70.69
517.879	87.69
518.095	87.69
518.311	72.69
518.527	80.69
518.742	92.69
518.958	77.69
519.173	98.69
519.389	89.69
519.605	80.69
519.82	98.69
520.036	93.69
520.251	93.69
520.467	90.69
520.682	85.69
520.898	89.69
521.113	80.69
521.329	76.69
521.544	80.69
521.76	90.69
521.975	86.69
522.19	92.69
522.406	103.69
522.621	85.69
522.836	85.69
523.052	94.69
523.267	90.69
523.482	87.69
523.698	84.69
523.913	71.69
524.128	94.69
524.343	96.69
524.559	91.69
524.774	86.69
524.989	104.69
525.204	87.69
525.419	95.69
525.634	83.69
525.849	94.69
526.064	87.69
526.28	84.69
526.495	89.69
526.71	86.69
526.925	88.69
527.14	74.69
527.355	84.69
527.57	89.69
527.785	94.69
527.999	81.69
528.214	79.69
528.429	97.69
528.644	92.69
528.859	84.69
529.074	98.69
529.289	94.69
529.503	97.69
529.718	86.69
529.933	75.69
530.148	75.69
530.363	86.69
530.577	83.69
530.792	87.69
531.007	87.69
531.221	80.69
531.436	104.69
531.651	81.69
531.865	74.69
532.08	87.69
532.295	89.69
532.509	92.69
532.724	89.69
532.938	82.69
533.153	92.69
533.367	98.69
533.582	96.69
533.796	85.69
534.011	91.69
534.225	98.69
534.44	93.69
534.654	60.69
534.868	78.69
535.083	76.69
535.297	83.69
535.511	93.69
535.726	98.69
535.94	78.69
536.154	92.69
536.369	92.69
536.583	97.69
536.797	73.69
537.011	79.69
537.225	76.69
537.44	76.69
537.654	87.69
537.868	75.69
538.082	80.69
538.296	86.69
538.51	74.69
538.724	97.69
538.938	88.69
539.153	94.69
539.367	95.69
539.581	95.69
539.795	100.69
540.009	83.69
540.222	94.69
540.436	99.69
540.65	94.69
540.864	98.69
541.078	90.69
541.292	90.69
541.506	95.69
541.72	109.69
541.934	84.69
542.147	108.69
542.361	94.69
542.575	120.69
542.789	99.69
543.002	91.69
543.216	91.69
543.43	86.69
543.644	107.69
543.857	94.69
544.071	93.69
544.285	98.69
544.498	93.69
544.712	117.69
544.925	103.69
545.139	101.69
545.352	103.69
545.566	104.69
545.779	112.69
545.993	107.69
546.206	97.69
546.42	96.69
546.633	99.69
546.847	102.69
547.06	105.69
547.274	107.69
547.487	96.69
547.7	105.69
547.914	96.69
548.127	89.69
548.34	99.69
548.554	101.69
548.767	108.69
548.98	86.69
549.193	101.69
549.407	96.69
549.62	99.69
549.833	104.69
550.046	90.69
550.259	87.69
550.473	91.69
550.686	87.69
550.899	101.69
551.112	93.69
551.325	85.69
551.538	88.69
551.751	91.69
551.964	94.69
552.177	100.69
552.39	110.69
552.603	95.69
552.816	99.69
553.029	87.69
553.242	101.69
553.455	98.69
553.667	106.69
553.88	93.69
554.093	104.69
554.306	92.69
554.519	109.69
554.732	97.69
554.944	97.69
555.157	90.69
555.37	94.69
555.583	101.69
555.795	94.69
556.008	93.69
556.221	94.69
556.433	101.69
556.646	87.69
556.859	92.69
557.071	92.69
557.284	103.69
557.496	100.69
557.709	83.69
557.921	89.69
558.134	102.69
558.346	95.69
558.559	83.69
558.771	93.69
558.984	91.69
559.196	86.69
559.409	78.69
559.621	93.69
559.833	101.69
560.046	92.69
560.258	100.69
560.47	83.69
560.683	89.69
560.895	92.69
561.107	107.69
561.32	98.69
561.532	96.69
561.744	100.69
561.956	103.69
562.168	88.69
562.381	96.69
562.593	111.69
562.805	97.69
563.017	78.69
563.229	97.69
563.441	106.69
563.653	78.69
563.865	86.69
564.077	91.69
564.289	88.69
564.501	80.69
564.713	95.69
564.925	84.69
565.137	82.69
565.349	90.69
565.561	89.69
565.773	94.69
565.985	98.69
566.197	104.69
566.408	82.69
566.62	81.69
566.832	85.69
567.044	97.69
567.255	97.69
567.467	81.69
567.679	91.69
567.891	106.69
568.102	78.69
568.314	89.69
568.526	89.69
568.737	78.69
568.949	89.69
569.161	93.69
569.372	91.69
569.584	93.69
569.795	90.69
570.007	90.69
570.218	74.69
570.43	77.69
570.641	76.69
570.853	94.69
571.064	85.69
571.276	90.69
571.487	80.69
571.698	84.69
571.91	82.69
572.121	80.69
572.333	90.69
572.544	94.69
572.755	78.69
572.966	89.69
573.178	87.69
573.389	70.69
573.6	85.69
573.811	100.69
574.023	75.69
574.234	88.69
574.445	91.69
574.656	70.69
574.867	72.69
575.078	87.69
575.289	97.69
575.501	87.69
575.712	86.69
575.923	85.69
576.134	91.69
576.345	94.69
576.556	85.69
576.767	86.69
576.978	97.69
577.188	81.69
577.399	90.69
577.61	101.69
577.821	78.69
578.032	84.69
578.243	87.69
578.454	76.69
578.665	92.69
578.875	86.69
579.086	95.69
579.297	86.69
579.508	85.69
579.718	91.69
579.929	94.69
580.14	72.69
580.35	78.69
580.561	94.69
580.772	97.69
580.982	91.69
581.193	89.69
581.403	90.69
581.614	82.69
581.825	84.69
582.035	83.69
582.246	80.69
582.456	84.69
582.667	82.69
582.877	95.69
583.087	81.69
583.298	91.69
583.508	86.69
583.719	78.69
583.929	75.69
584.139	83.69
584.35	90.69
584.56	89.69
584.77	73.69
584.981	77.69
585.191	88.69
585.401	89.69
585.611	89.69
585.821	87.69
586.032	86.69
586.242	90.69
586.452	90.69
586.662	88.69
586.872	79.69
587.082	80.69
587.292	67.69
587.502	89.69
587.713	78.69
587.923	97.69
588.133	91.69
588.343	84.69
588.553	73.69
588.762	79.69
588.972	78.69
589.182	78.69
589.392	79.69
589.602	80.69
589.812	81.69
590.022	87.69
590.232	89.69
590.441	85.69
590.651	78.69
590.861	75.69
591.071	85.69
591.281	72.69
591.49	86.69
591.7	87.69
591.91	79.69
592.119	71.69
592.329	67.69
592.539	82.69
592.748	90.69
592.958	94.69
593.167	87.69
593.377	74.69
593.587	89.69
593.796	85.69
594.006	77.69
594.215	90.69
594.424	80.69
594.634	77.69
594.843	97.69
595.053	89.69
595.262	85.69
595.472	84.69
595.681	90.69
595.89	93.69
596.1	88.69
596.309	94.69
596.518	88.69
596.727	76.69
596.937	94.69
597.146	84.69
597.355	92.69
597.564	75.69
597.774	84.69
597.983	66.69
598.192	87.69
598.401	83.69
598.61	70.69
598.819	71.69
599.028	77.69
599.237	91.69
599.446	83.69
599.655	84.69
599.864	91.69
600.073	80.69
600.282	88.69
600.491	81.69
600.7	80.69
600.909	92.69
601.118	90.69
601.327	87.69
601.536	88.69
601.745	87.69
601.953	84.69
602.162	95.69
602.371	91.69
602.58	75.69
602.789	90.69
602.997	75.69
603.206	90.69
603.415	79.69
603.623	95.69
603.832	84.69
604.041	75.69
604.249	85.69
604.458	78.69
604.666	90.69
604.875	85.69
605.084	67.69
605.292	85.69
605.501	80.69
605.709	99.69
605.918	90.69
606.126	100.69
606.334	90.69
606.543	95.69
606.751	76.69
606.96	99.69
607.168	81.69
607.376	88.69
607.585	77.69
607.793	90.69
608.001	82.69
608.21	92.69
608.418	86.69
608.626	79.69
608.834	87.69
609.043	97.69
609.251	89.69
609.459	85.69
609.667	102.69
609.875	94.69
610.083	89.69
610.291	93.69
610.499	98.69
610.707	87.69
610.916	94.69
611.124	85.69
611.332	70.69
611.54	89.69
611.748	93.69
611.955	92.69
612.163	91.69
612.371	103.69
612.579	90.69
612.787	87.69
612.995	101.69
613.203	95.69
613.411	80.69
613.618	83.69
613.826	86.69
614.034	81.69
614.242	98.69
614.449	86.69
614.657	85.69
614.865	73.69
615.072	98.69
615.28	86.69
615.488	89.69
615.695	88.69
615.903	76.69
616.111	98.69
616.318	91.69
616.526	95.69
616.733	89.69
616.941	81.69
617.148	93.69
617.356	81.69
617.563	84.69
617.771	98.69
617.978	95.69
618.185	82.69
618.393	81.69
618.6	81.69
618.807	88.69
619.015	83.69
619.222	98.69
619.429	84.69
619.637	84.69
619.844	85.69
620.051	83.69
620.258	66.69
620.466	90.69
620.673	101.69
620.88	87.69
621.087	107.69
621.294	83.69
621.501	83.69
621.708	87.69
621.915	101.69
622.122	99.69
622.329	100.69
622.536	73.69
622.743	78.69
622.95	78.69
623.157	86.69
623.364	78.69
623.571	82.69
623.778	95.69
623.985	95.69
624.192	101.69
624.399	94.69
624.606	95.69
624.812	92.69
625.019	82.69
625.226	87.69
625.433	84.69
625.639	70.69
625.846	75.69
626.053	93.69
626.259	90.69
626.466	98.69
626.673	79.69
626.879	95.69
627.086	83.69
627.293	92.69
627.499	91.69
627.706	81.69
627.912	75.69
628.119	93.69
628.325	77.69
628.532	92.69
628.738	87.69
628.945	77.69
629.151	93.69
629.357	86.69
629.564	96.69
629.77	97.69
629.976	76.69
630.183	102.69
630.389	81.69
630.595	85.69
630.802	99.69
631.008	85.69
631.214	91.69
631.42	93.69
631.627	97.69
631.833	79.69
632.039	88.69
632.245	95.69
632.451	75.69
632.657	83.69
632.863	96.69
633.069	90.69
633.275	98.69
633.481	87.69
633.688	104.69
633.893	91.69
634.099	93.69
634.305	89.69
634.511	101.69
634.717	82.69
634.923	91.69
635.129	76.69
635.335	71.69
635.541	85.69
635.747	87.69
635.952	81.69
636.158	85.69
636.364	89.69
636.57	85.69
636.775	100.69
636.981	94.69
637.187	94.69
637.392	90.69
637.598	96.69
637.804	77.69
638.009	83.69
638.215	102.69
638.421	84.69
638.626	96.69
638.832	67.69
639.037	95.69
639.243	84.69
639.448	79.69
639.654	86.69
639.859	90.69
640.065	72.69
640.27	84.69
640.475	86.69
640.681	89.69
640.886	84.69
641.091	81.69
641.297	82.69
641.502	91.69
641.707	85.69
641.913	77.69
642.118	73.69
642.323	84.69
642.528	90.69
642.733	78.69
642.939	84.69
643.144	85.69
643.349	91.69
643.554	101.69
643.759	90.69
643.964	84.69
644.169	85.69
644.374	99.69
644.579	105.69
644.784	83.69
644.989	77.69
645.194	99.69
645.399	97.69
645.604	80.69
645.809	78.69
646.014	78.69
646.219	91.69
646.423	83.69
646.628	86.69
646.833	84.69
647.038	89.69
647.243	89.69
647.447	79.69
647.652	90.69
647.857	93.69
648.062	88.69
648.266	90.69
648.471	91.69
648.676	87.69
648.88	90.69
649.085	90.69
649.289	95.69
649.494	71.69
649.698	99.69
649.903	71.69
650.107	84.69
650.312	90.69
650.516	92.69
650.721	91.69
650.925	89.69
651.13	72.69
651.334	85.69
651.539	84.69
651.743	82.69
651.947	87.69
652.152	96.69
652.356	105.69
652.56	84.69
652.764	86.69
652.969	81.69
653.173	82.69
653.377	89.69
653.581	78.69
653.785	75.69
653.99	83.69
654.194	89.69
654.398	81.69
654.602	84.69
654.806	79.69
655.01	77.69
655.214	79.69
655.418	80.69
655.622	69.69
655.826	89.69
656.03	91.69
656.234	77.69
656.438	87.69
656.642	95.69
656.846	75.69
657.049	84.69
657.253	77.69
657.457	93.69
657.661	87.69
657.865	76.69
658.068	94.69
658.272	83.69
658.476	83.69
658.68	76.69
658.883	89.69
659.087	69.69
659.291	77.69
659.494	94.69
659.698	76.69
659.901	78.69
660.105	92.69
660.309	79.69
660.512	93.69
660.716	74.69
660.919	75.69
661.123	85.69
661.326	97.69
661.53	100.69
661.733	92.69
661.936	82.69
662.14	79.69
662.343	99.69
662.546	78.69
662.75	78.69
662.953	78.69
663.156	77.69
663.36	88.69
663.563	82.69
663.766	85.69
663.969	86.69
664.173	85.69
664.376	86.69
664.579	86.69
664.782	71.69
664.985	95.69
665.188	88.69
665.391	85.69
665.594	76.69
665.797	81.69
666	83.69
666.203	79.69
666.406	93.69
666.609	78.69
666.812	84.69
667.015	85.69
667.218	88.69
667.421	93.69
667.624	88.69
667.827	89.69
668.03	88.69
668.232	88.69
668.435	94.69
668.638	80.69
668.841	92.69
669.043	91.69
669.246	79.69
669.449	74.69
669.651	83.69
669.854	75.69
670.057	61.69
670.259	84.69
670.462	87.69
670.665	79.69
670.867	86.69
671.07	81.69
671.272	94.69
671.475	76.69
671.677	91.69
671.88	79.69
672.082	71.69
672.284	96.69
672.487	88.69
672.689	86.69
672.892	86.69
