Data from Zn(NO3)2Standard.Agarose3%.GreenCap.LampEnergy5.5.E.O_HRD10591_15-01-30-767.txt Node
Date: Mon Jul 22 15:01:30 EDT 2019
User: cochatt
Spectrometer: HR+D1059
Trigger mode: 1
Integration Time (sec): 1.000000E-1
Scans to average: 1
Electric dark correction enabled: true
Nonlinearity correction enabled: false
Boxcar width: 0
XAxis mode: Wavelengths
Number of Pixels in Spectrum: 2048
>>>>>Begin Spectral Data<<<<<
223.165	-12.25
223.4	-12.25
223.635	-12.25
223.869	-13.25
224.104	-25.25
224.338	-3.25
224.573	-11.25
224.808	-3.25
225.042	-6.25
225.277	-9.25
225.511	3.75
225.746	9.75
225.98	1.75
226.215	-2.25
226.449	15.75
226.683	19.75
226.918	12.75
227.152	22.75
227.387	43.75
227.621	30.75
227.856	66.75
228.09	47.75
228.324	43.75
228.559	61.75
228.793	56.75
229.027	61.75
229.262	59.75
229.496	54.75
229.73	70.75
229.964	92.75
230.199	59.75
230.433	71.75
230.667	76.75
230.901	86.75
231.136	87.75
231.37	85.75
231.604	87.75
231.838	68.75
232.072	72.75
232.306	86.75
232.541	75.75
232.775	88.75
233.009	91.75
233.243	83.75
233.477	101.75
233.711	74.75
233.945	77.75
234.179	92.75
234.413	74.75
234.647	72.75
234.881	75.75
235.115	87.75
235.349	100.75
235.583	80.75
235.817	72.75
236.051	81.75
236.285	73.75
236.519	88.75
236.753	84.75
236.987	77.75
237.221	67.75
237.455	77.75
237.689	94.75
237.922	63.75
238.156	70.75
238.39	75.75
238.624	83.75
238.858	76.75
239.091	100.75
239.325	88.75
239.559	77.75
239.793	70.75
240.027	74.75
240.26	73.75
240.494	78.75
240.728	78.75
240.961	84.75
241.195	69.75
241.429	89.75
241.662	74.75
241.896	74.75
242.13	77.75
242.363	70.75
242.597	77.75
242.83	63.75
243.064	74.75
243.298	84.75
243.531	73.75
243.765	75.75
243.998	75.75
244.232	74.75
244.465	77.75
244.699	80.75
244.932	77.75
245.166	93.75
245.399	86.75
245.633	89.75
245.866	68.75
246.099	63.75
246.333	72.75
246.566	90.75
246.8	75.75
247.033	88.75
247.266	81.75
247.5	62.75
247.733	77.75
247.966	78.75
248.2	93.75
248.433	85.75
248.666	81.75
248.899	84.75
249.133	70.75
249.366	75.75
249.599	76.75
249.832	88.75
250.066	96.75
250.299	73.75
250.532	85.75
250.765	91.75
250.998	69.75
251.231	78.75
251.465	72.75
251.698	71.75
251.931	67.75
252.164	77.75
252.397	77.75
252.63	90.75
252.863	80.75
253.096	78.75
253.329	92.75
253.562	84.75
253.795	62.75
254.028	90.75
254.261	81.75
254.494	64.75
254.727	88.75
254.96	78.75
255.193	79.75
255.426	82.75
255.659	89.75
255.892	81.75
256.124	72.75
256.357	71.75
256.59	82.75
256.823	85.75
257.056	85.75
257.289	90.75
257.521	82.75
257.754	80.75
257.987	77.75
258.22	84.75
258.452	80.75
258.685	67.75
258.918	70.75
259.151	73.75
259.383	93.75
259.616	76.75
259.849	74.75
260.081	83.75
260.314	73.75
260.547	69.75
260.779	68.75
261.012	92.75
261.244	80.75
261.477	86.75
261.71	69.75
261.942	75.75
262.175	97.75
262.407	78.75
262.64	91.75
262.872	85.75
263.105	68.75
263.337	64.75
263.57	86.75
263.802	66.75
264.035	76.75
264.267	86.75
264.499	90.75
264.732	71.75
264.964	68.75
265.197	83.75
265.429	85.75
265.661	92.75
265.894	79.75
266.126	75.75
266.358	85.75
266.591	80.75
266.823	78.75
267.055	65.75
267.287	97.75
267.52	74.75
267.752	86.75
267.984	75.75
268.216	92.75
268.448	80.75
268.681	79.75
268.913	86.75
269.145	75.75
269.377	85.75
269.609	66.75
269.841	74.75
270.073	78.75
270.306	93.75
270.538	90.75
270.77	78.75
271.002	89.75
271.234	82.75
271.466	80.75
271.698	77.75
271.93	88.75
272.162	85.75
272.394	92.75
272.626	70.75
272.858	97.75
273.09	86.75
273.322	94.75
273.553	77.75
273.785	71.75
274.017	72.75
274.249	83.75
274.481	67.75
274.713	85.75
274.945	77.75
275.176	71.75
275.408	95.75
275.64	90.75
275.872	77.75
276.104	74.75
276.335	75.75
276.567	83.75
276.799	75.75
277.031	77.75
277.262	84.75
277.494	76.75
277.726	82.75
277.957	88.75
278.189	91.75
278.421	74.75
278.652	87.75
278.884	72.75
279.115	71.75
279.347	97.75
279.579	73.75
279.81	77.75
280.042	81.75
280.273	84.75
280.505	92.75
280.736	84.75
280.968	88.75
281.199	73.75
281.431	92.75
281.662	94.75
281.894	87.75
282.125	86.75
282.356	83.75
282.588	87.75
282.819	82.75
283.051	86.75
283.282	91.75
283.513	86.75
283.745	78.75
283.976	79.75
284.207	94.75
284.439	74.75
284.67	93.75
284.901	92.75
285.132	82.75
285.364	80.75
285.595	84.75
285.826	73.75
286.057	96.75
286.288	84.75
286.52	78.75
286.751	75.75
286.982	78.75
287.213	76.75
287.444	83.75
287.675	87.75
287.906	91.75
288.138	94.75
288.369	87.75
288.6	85.75
288.831	83.75
289.062	92.75
289.293	78.75
289.524	70.75
289.755	81.75
289.986	76.75
290.217	93.75
290.448	86.75
290.679	92.75
290.91	82.75
291.141	80.75
291.371	73.75
291.602	76.75
291.833	82.75
292.064	70.75
292.295	88.75
292.526	94.75
292.757	81.75
292.987	84.75
293.218	89.75
293.449	83.75
293.68	64.75
293.91	76.75
294.141	73.75
294.372	78.75
294.603	88.75
294.833	99.75
295.064	83.75
295.295	85.75
295.525	76.75
295.756	90.75
295.987	84.75
296.217	77.75
296.448	78.75
296.679	87.75
296.909	76.75
297.14	96.75
297.37	87.75
297.601	84.75
297.831	82.75
298.062	85.75
298.292	101.75
298.523	84.75
298.753	68.75
298.984	91.75
299.214	82.75
299.445	84.75
299.675	80.75
299.905	74.75
300.136	83.75
300.366	76.75
300.597	75.75
300.827	72.75
301.057	70.75
301.288	86.75
301.518	93.75
301.748	88.75
301.979	86.75
302.209	86.75
302.439	87.75
302.669	87.75
302.9	92.75
303.13	82.75
303.36	92.75
303.59	89.75
303.82	76.75
304.051	91.75
304.281	97.75
304.511	82.75
304.741	84.75
304.971	91.75
305.201	85.75
305.431	86.75
305.661	92.75
305.891	94.75
306.121	82.75
306.352	81.75
306.582	84.75
306.812	84.75
307.042	86.75
307.272	86.75
307.502	79.75
307.731	86.75
307.961	89.75
308.191	93.75
308.421	92.75
308.651	93.75
308.881	92.75
309.111	92.75
309.341	86.75
309.571	87.75
309.8	78.75
310.03	82.75
310.26	96.75
310.49	73.75
310.72	78.75
310.949	91.75
311.179	87.75
311.409	78.75
311.639	91.75
311.868	98.75
312.098	88.75
312.328	78.75
312.557	90.75
312.787	84.75
313.017	82.75
313.246	86.75
313.476	86.75
313.706	89.75
313.935	84.75
314.165	78.75
314.394	71.75
314.624	91.75
314.853	87.75
315.083	77.75
315.312	90.75
315.542	83.75
315.771	76.75
316.001	92.75
316.23	78.75
316.46	86.75
316.689	90.75
316.919	101.75
317.148	97.75
317.377	82.75
317.607	81.75
317.836	77.75
318.065	78.75
318.295	96.75
318.524	89.75
318.753	83.75
318.983	90.75
319.212	74.75
319.441	86.75
319.67	88.75
319.9	88.75
320.129	67.75
320.358	85.75
320.587	77.75
320.816	83.75
321.046	78.75
321.275	84.75
321.504	75.75
321.733	79.75
321.962	79.75
322.191	81.75
322.42	89.75
322.649	96.75
322.878	81.75
323.108	103.75
323.337	81.75
323.566	84.75
323.795	70.75
324.024	96.75
324.253	83.75
324.482	69.75
324.71	84.75
324.939	99.75
325.168	82.75
325.397	91.75
325.626	77.75
325.855	87.75
326.084	80.75
326.313	77.75
326.542	86.75
326.77	96.75
326.999	82.75
327.228	78.75
327.457	79.75
327.686	84.75
327.914	78.75
328.143	83.75
328.372	74.75
328.6	79.75
328.829	83.75
329.058	82.75
329.287	84.75
329.515	89.75
329.744	85.75
329.972	94.75
330.201	85.75
330.43	87.75
330.658	88.75
330.887	75.75
331.115	79.75
331.344	80.75
331.572	89.75
331.801	84.75
332.03	82.75
332.258	84.75
332.486	89.75
332.715	76.75
332.943	84.75
333.172	80.75
333.4	84.75
333.629	91.75
333.857	70.75
334.085	88.75
334.314	88.75
334.542	81.75
334.771	86.75
334.999	76.75
335.227	84.75
335.455	70.75
335.684	86.75
335.912	90.75
336.14	87.75
336.369	92.75
336.597	97.75
336.825	78.75
337.053	78.75
337.281	86.75
337.51	83.75
337.738	98.75
337.966	70.75
338.194	82.75
338.422	91.75
338.65	75.75
338.878	78.75
339.106	83.75
339.334	81.75
339.562	83.75
339.79	103.75
340.018	81.75
340.246	89.75
340.474	85.75
340.702	71.75
340.93	81.75
341.158	90.75
341.386	77.75
341.614	85.75
341.842	74.75
342.07	82.75
342.298	68.75
342.526	88.75
342.754	74.75
342.981	73.75
343.209	83.75
343.437	91.75
343.665	86.75
343.893	73.75
344.12	91.75
344.348	89.75
344.576	77.75
344.804	80.75
345.031	88.75
345.259	88.75
345.487	77.75
345.714	91.75
345.942	88.75
346.17	79.75
346.397	94.75
346.625	78.75
346.853	85.75
347.08	76.75
347.308	80.75
347.535	91.75
347.763	89.75
347.99	93.75
348.218	88.75
348.445	87.75
348.673	83.75
348.9	91.75
349.128	90.75
349.355	87.75
349.583	86.75
349.81	88.75
350.037	76.75
350.265	92.75
350.492	89.75
350.72	78.75
350.947	67.75
351.174	88.75
351.402	74.75
351.629	77.75
351.856	80.75
352.083	79.75
352.311	88.75
352.538	74.75
352.765	102.75
352.992	79.75
353.22	68.75
353.447	97.75
353.674	89.75
353.901	73.75
354.128	83.75
354.355	92.75
354.583	72.75
354.81	71.75
355.037	84.75
355.264	74.75
355.491	88.75
355.718	78.75
355.945	89.75
356.172	87.75
356.399	69.75
356.626	74.75
356.853	86.75
357.08	92.75
357.307	78.75
357.534	77.75
357.761	81.75
357.988	92.75
358.215	84.75
358.441	90.75
358.668	77.75
358.895	78.75
359.122	76.75
359.349	87.75
359.576	84.75
359.802	89.75
360.029	77.75
360.256	102.75
360.483	85.75
360.709	81.75
360.936	107.75
361.163	85.75
361.39	65.75
361.616	88.75
361.843	84.75
362.07	89.75
362.296	86.75
362.523	79.75
362.749	83.75
362.976	73.75
363.203	80.75
363.429	85.75
363.656	60.75
363.882	80.75
364.109	82.75
364.335	91.75
364.562	70.75
364.788	77.75
365.015	96.75
365.241	95.75
365.468	89.75
365.694	86.75
365.92	80.75
366.147	102.75
366.373	105.75
366.599	80.75
366.826	81.75
367.052	76.75
367.278	86.75
367.505	78.75
367.731	80.75
367.957	78.75
368.184	63.75
368.41	69.75
368.636	83.75
368.862	84.75
369.089	87.75
369.315	82.75
369.541	91.75
369.767	86.75
369.993	89.75
370.219	77.75
370.445	84.75
370.672	79.75
370.898	79.75
371.124	84.75
371.35	82.75
371.576	78.75
371.802	75.75
372.028	89.75
372.254	79.75
372.48	67.75
372.706	72.75
372.932	73.75
373.158	80.75
373.384	89.75
373.61	100.75
373.835	76.75
374.061	79.75
374.287	88.75
374.513	74.75
374.739	84.75
374.965	75.75
375.191	84.75
375.416	72.75
375.642	76.75
375.868	83.75
376.094	81.75
376.319	90.75
376.545	72.75
376.771	93.75
376.997	82.75
377.222	83.75
377.448	69.75
377.674	69.75
377.899	93.75
378.125	78.75
378.35	74.75
378.576	78.75
378.802	77.75
379.027	86.75
379.253	76.75
379.478	96.75
379.704	90.75
379.929	65.75
380.155	93.75
380.38	79.75
380.606	84.75
380.831	86.75
381.057	89.75
381.282	82.75
381.507	82.75
381.733	76.75
381.958	89.75
382.184	79.75
382.409	77.75
382.634	79.75
382.86	70.75
383.085	67.75
383.31	78.75
383.535	96.75
383.761	91.75
383.986	73.75
384.211	75.75
384.436	82.75
384.662	72.75
384.887	76.75
385.112	79.75
385.337	90.75
385.562	88.75
385.787	85.75
386.013	69.75
386.238	84.75
386.463	75.75
386.688	76.75
386.913	78.75
387.138	76.75
387.363	69.75
387.588	96.75
387.813	94.75
388.038	81.75
388.263	82.75
388.488	82.75
388.713	77.75
388.938	91.75
389.163	89.75
389.387	82.75
389.612	88.75
389.837	78.75
390.062	83.75
390.287	86.75
390.512	70.75
390.736	92.75
390.961	86.75
391.186	84.75
391.411	69.75
391.636	86.75
391.86	78.75
392.085	93.75
392.31	84.75
392.534	76.75
392.759	74.75
392.984	73.75
393.208	68.75
393.433	83.75
393.658	91.75
393.882	67.75
394.107	78.75
394.331	73.75
394.556	91.75
394.78	80.75
395.005	72.75
395.229	61.75
395.454	76.75
395.678	89.75
395.903	84.75
396.127	77.75
396.352	79.75
396.576	92.75
396.801	69.75
397.025	93.75
397.249	70.75
397.474	94.75
397.698	83.75
397.922	89.75
398.147	81.75
398.371	76.75
398.595	90.75
398.82	66.75
399.044	65.75
399.268	85.75
399.492	73.75
399.717	90.75
399.941	72.75
400.165	94.75
400.389	78.75
400.613	86.75
400.837	76.75
401.062	88.75
401.286	71.75
401.51	83.75
401.734	75.75
401.958	82.75
402.182	79.75
402.406	76.75
402.63	92.75
402.854	85.75
403.078	89.75
403.302	73.75
403.526	88.75
403.75	75.75
403.974	75.75
404.198	81.75
404.422	76.75
404.645	87.75
404.869	75.75
405.093	71.75
405.317	78.75
405.541	85.75
405.765	86.75
405.988	89.75
406.212	94.75
406.436	89.75
406.66	80.75
406.883	78.75
407.107	84.75
407.331	79.75
407.555	88.75
407.778	78.75
408.002	85.75
408.226	98.75
408.449	72.75
408.673	91.75
408.896	73.75
409.12	71.75
409.344	101.75
409.567	81.75
409.791	78.75
410.014	84.75
410.238	74.75
410.461	75.75
410.685	90.75
410.908	82.75
411.132	87.75
411.355	107.75
411.578	78.75
411.802	76.75
412.025	86.75
412.249	76.75
412.472	88.75
412.695	80.75
412.919	76.75
413.142	84.75
413.365	86.75
413.589	85.75
413.812	96.75
414.035	86.75
414.258	72.75
414.482	84.75
414.705	89.75
414.928	78.75
415.151	89.75
415.374	76.75
415.597	90.75
415.821	82.75
416.044	87.75
416.267	76.75
416.49	85.75
416.713	91.75
416.936	73.75
417.159	84.75
417.382	88.75
417.605	89.75
417.828	92.75
418.051	88.75
418.274	85.75
418.497	78.75
418.72	83.75
418.943	86.75
419.166	83.75
419.389	76.75
419.611	83.75
419.834	82.75
420.057	95.75
420.28	84.75
420.503	74.75
420.726	82.75
420.948	84.75
421.171	79.75
421.394	86.75
421.617	92.75
421.839	83.75
422.062	78.75
422.285	87.75
422.507	88.75
422.73	74.75
422.953	74.75
423.175	73.75
423.398	83.75
423.621	90.75
423.843	83.75
424.066	74.75
424.288	87.75
424.511	73.75
424.733	82.75
424.956	83.75
425.178	71.75
425.401	99.75
425.623	92.75
425.846	94.75
426.068	72.75
426.291	75.75
426.513	86.75
426.735	98.75
426.958	75.75
427.18	92.75
427.402	88.75
427.625	95.75
427.847	81.75
428.069	81.75
428.292	91.75
428.514	91.75
428.736	92.75
428.958	78.75
429.181	94.75
429.403	81.75
429.625	89.75
429.847	86.75
430.069	89.75
430.292	91.75
430.514	88.75
430.736	86.75
430.958	87.75
431.18	80.75
431.402	85.75
431.624	96.75
431.846	75.75
432.068	76.75
432.29	81.75
432.512	70.75
432.734	90.75
432.956	89.75
433.178	90.75
433.4	99.75
433.622	96.75
433.844	94.75
434.066	89.75
434.287	90.75
434.509	89.75
434.731	83.75
434.953	100.75
435.175	84.75
435.397	93.75
435.618	91.75
435.84	65.75
436.062	75.75
436.284	85.75
436.505	87.75
436.727	93.75
436.949	100.75
437.17	95.75
437.392	85.75
437.614	100.75
437.835	89.75
438.057	80.75
438.278	87.75
438.5	81.75
438.721	89.75
438.943	76.75
439.165	77.75
439.386	108.75
439.608	108.75
439.829	84.75
440.05	80.75
440.272	84.75
440.493	78.75
440.715	80.75
440.936	85.75
441.158	97.75
441.379	95.75
441.6	97.75
441.822	91.75
442.043	80.75
442.264	82.75
442.486	77.75
442.707	81.75
442.928	94.75
443.149	103.75
443.371	88.75
443.592	88.75
443.813	86.75
444.034	85.75
444.255	93.75
444.476	92.75
444.698	94.75
444.919	76.75
445.14	184.75
445.361	130.75
445.582	88.75
445.803	86.75
446.024	75.75
446.245	98.75
446.466	93.75
446.687	88.75
446.908	88.75
447.129	97.75
447.35	98.75
447.571	89.75
447.792	99.75
448.013	82.75
448.234	83.75
448.455	102.75
448.675	97.75
448.896	77.75
449.117	91.75
449.338	98.75
449.559	91.75
449.779	79.75
450	90.75
450.221	85.75
450.442	81.75
450.662	92.75
450.883	83.75
451.104	82.75
451.324	78.75
451.545	81.75
451.766	90.75
451.986	64.75
452.207	87.75
452.428	81.75
452.648	89.75
452.869	91.75
453.089	90.75
453.31	72.75
453.53	93.75
453.751	74.75
453.971	73.75
454.192	78.75
454.412	74.75
454.633	74.75
454.853	84.75
455.073	97.75
455.294	92.75
455.514	84.75
455.734	95.75
455.955	69.75
456.175	90.75
456.395	88.75
456.616	88.75
456.836	81.75
457.056	86.75
457.276	87.75
457.497	97.75
457.717	87.75
457.937	92.75
458.157	90.75
458.377	92.75
458.598	79.75
458.818	67.75
459.038	80.75
459.258	77.75
459.478	78.75
459.698	84.75
459.918	77.75
460.138	79.75
460.358	94.75
460.578	79.75
460.798	88.75
461.018	86.75
461.238	70.75
461.458	73.75
461.678	77.75
461.898	82.75
462.118	84.75
462.338	72.75
462.558	79.75
462.777	89.75
462.997	84.75
463.217	95.75
463.437	74.75
463.657	84.75
463.876	83.75
464.096	84.75
464.316	85.75
464.536	87.75
464.755	88.75
464.975	98.75
465.195	95.75
465.414	91.75
465.634	84.75
465.854	67.75
466.073	82.75
466.293	96.75
466.512	101.75
466.732	92.75
466.951	93.75
467.171	90.75
467.391	85.75
467.61	89.75
467.829	74.75
468.049	94.75
468.268	78.75
468.488	93.75
468.707	88.75
468.927	94.75
469.146	94.75
469.365	82.75
469.585	93.75
469.804	85.75
470.023	94.75
470.243	85.75
470.462	92.75
470.681	82.75
470.901	83.75
471.12	104.75
471.339	93.75
471.558	89.75
471.777	81.75
471.997	89.75
472.216	90.75
472.435	80.75
472.654	79.75
472.873	85.75
473.092	84.75
473.311	101.75
473.53	78.75
473.749	82.75
473.968	105.75
474.187	89.75
474.406	90.75
474.625	81.75
474.844	95.75
475.063	85.75
475.282	94.75
475.501	90.75
475.72	98.75
475.939	93.75
476.158	85.75
476.377	91.75
476.596	90.75
476.814	91.75
477.033	91.75
477.252	79.75
477.471	91.75
477.69	84.75
477.908	89.75
478.127	85.75
478.346	83.75
478.564	104.75
478.783	94.75
479.002	88.75
479.22	92.75
479.439	97.75
479.658	89.75
479.876	87.75
480.095	104.75
480.313	80.75
480.532	100.75
480.751	82.75
480.969	83.75
481.188	68.75
481.406	78.75
481.624	80.75
481.843	66.75
482.061	79.75
482.28	102.75
482.498	86.75
482.717	97.75
482.935	84.75
483.153	90.75
483.372	89.75
483.59	94.75
483.808	84.75
484.027	91.75
484.245	97.75
484.463	87.75
484.681	100.75
484.9	90.75
485.118	86.75
485.336	93.75
485.554	78.75
485.772	81.75
485.99	101.75
486.209	86.75
486.427	83.75
486.645	83.75
486.863	88.75
487.081	86.75
487.299	78.75
487.517	89.75
487.735	93.75
487.953	109.75
488.171	103.75
488.389	91.75
488.607	79.75
488.825	80.75
489.043	85.75
489.261	89.75
489.479	94.75
489.696	81.75
489.914	92.75
490.132	95.75
490.35	90.75
490.568	93.75
490.786	83.75
491.003	85.75
491.221	88.75
491.439	107.75
491.657	99.75
491.874	117.75
492.092	113.75
492.31	120.75
492.527	106.75
492.745	100.75
492.963	105.75
493.18	105.75
493.398	97.75
493.615	108.75
493.833	98.75
494.05	93.75
494.268	88.75
494.485	82.75
494.703	95.75
494.92	93.75
495.138	77.75
495.355	93.75
495.573	98.75
495.79	90.75
496.008	107.75
496.225	94.75
496.442	105.75
496.66	101.75
496.877	92.75
497.094	94.75
497.312	104.75
497.529	105.75
497.746	83.75
497.963	87.75
498.181	87.75
498.398	85.75
498.615	98.75
498.832	79.75
499.049	79.75
499.267	82.75
499.484	90.75
499.701	85.75
499.918	100.75
500.135	73.75
500.352	100.75
500.569	97.75
500.786	93.75
501.003	94.75
501.22	98.75
501.437	98.75
501.654	93.75
501.871	79.75
502.088	94.75
502.305	81.75
502.522	98.75
502.739	86.75
502.956	75.75
503.172	88.75
503.389	90.75
503.606	86.75
503.823	86.75
504.04	86.75
504.256	96.75
504.473	92.75
504.69	101.75
504.907	95.75
505.123	92.75
505.34	93.75
505.557	88.75
505.773	88.75
505.99	101.75
506.207	95.75
506.423	98.75
506.64	97.75
506.856	89.75
507.073	88.75
507.289	88.75
507.506	82.75
507.722	90.75
507.939	81.75
508.155	96.75
508.372	90.75
508.588	82.75
508.805	87.75
509.021	95.75
509.238	90.75
509.454	84.75
509.67	81.75
509.887	90.75
510.103	70.75
510.319	83.75
510.536	84.75
510.752	82.75
510.968	78.75
511.184	87.75
511.401	76.75
511.617	86.75
511.833	77.75
512.049	100.75
512.265	84.75
512.481	86.75
512.698	75.75
512.914	87.75
513.13	87.75
513.346	82.75
513.562	82.75
513.778	85.75
513.994	89.75
514.21	82.75
514.426	88.75
514.642	81.75
514.858	84.75
515.074	85.75
515.29	85.75
515.506	86.75
515.721	86.75
515.937	77.75
516.153	109.75
516.369	73.75
516.585	83.75
516.801	86.75
517.016	78.75
517.232	92.75
517.448	81.75
517.664	87.75
517.879	74.75
518.095	89.75
518.311	72.75
518.527	80.75
518.742	94.75
518.958	84.75
519.173	84.75
519.389	92.75
519.605	87.75
519.82	76.75
520.036	85.75
520.251	95.75
520.467	101.75
520.682	76.75
520.898	87.75
521.113	90.75
521.329	71.75
521.544	86.75
521.76	86.75
521.975	78.75
522.19	75.75
522.406	91.75
522.621	86.75
522.836	94.75
523.052	99.75
523.267	100.75
523.482	90.75
523.698	92.75
523.913	88.75
524.128	89.75
524.343	98.75
524.559	97.75
524.774	81.75
524.989	68.75
525.204	97.75
525.419	92.75
525.634	89.75
525.849	85.75
526.064	85.75
526.28	79.75
526.495	81.75
526.71	90.75
526.925	82.75
527.14	86.75
527.355	92.75
527.57	77.75
527.785	93.75
527.999	91.75
528.214	81.75
528.429	84.75
528.644	97.75
528.859	100.75
529.074	101.75
529.289	92.75
529.503	102.75
529.718	94.75
529.933	104.75
530.148	106.75
530.363	90.75
530.577	83.75
530.792	83.75
531.007	88.75
531.221	80.75
531.436	90.75
531.651	85.75
531.865	86.75
532.08	84.75
532.295	80.75
532.509	75.75
532.724	77.75
532.938	77.75
533.153	89.75
533.367	86.75
533.582	101.75
533.796	90.75
534.011	92.75
534.225	88.75
534.44	96.75
534.654	78.75
534.868	70.75
535.083	89.75
535.297	84.75
535.511	87.75
535.726	90.75
535.94	80.75
536.154	85.75
536.369	85.75
536.583	87.75
536.797	83.75
537.011	97.75
537.225	81.75
537.44	81.75
537.654	83.75
537.868	82.75
538.082	80.75
538.296	99.75
538.51	74.75
538.724	93.75
538.938	86.75
539.153	96.75
539.367	86.75
539.581	99.75
539.795	82.75
540.009	85.75
540.222	100.75
540.436	94.75
540.65	85.75
540.864	84.75
541.078	98.75
541.292	95.75
541.506	94.75
541.72	103.75
541.934	120.75
542.147	114.75
542.361	92.75
542.575	100.75
542.789	77.75
543.002	86.75
543.216	101.75
543.43	92.75
543.644	93.75
543.857	89.75
544.071	101.75
544.285	101.75
544.498	94.75
544.712	106.75
544.925	91.75
545.139	81.75
545.352	99.75
545.566	102.75
545.779	107.75
545.993	105.75
546.206	99.75
546.42	88.75
546.633	97.75
546.847	99.75
547.06	120.75
547.274	112.75
547.487	104.75
547.7	107.75
547.914	94.75
548.127	90.75
548.34	105.75
548.554	121.75
548.767	105.75
548.98	105.75
549.193	98.75
549.407	96.75
549.62	97.75
549.833	88.75
550.046	92.75
550.259	87.75
550.473	98.75
550.686	97.75
550.899	107.75
551.112	104.75
551.325	96.75
551.538	103.75
551.751	105.75
551.964	90.75
552.177	90.75
552.39	108.75
552.603	88.75
552.816	80.75
553.029	104.75
553.242	100.75
553.455	106.75
553.667	96.75
553.88	80.75
554.093	84.75
554.306	91.75
554.519	95.75
554.732	87.75
554.944	105.75
555.157	102.75
555.37	96.75
555.583	87.75
555.795	105.75
556.008	95.75
556.221	100.75
556.433	84.75
556.646	85.75
556.859	90.75
557.071	95.75
557.284	94.75
557.496	89.75
557.709	93.75
557.921	83.75
558.134	96.75
558.346	86.75
558.559	88.75
558.771	104.75
558.984	85.75
559.196	101.75
559.409	100.75
559.621	92.75
559.833	96.75
560.046	92.75
560.258	98.75
560.47	85.75
560.683	106.75
560.895	92.75
561.107	97.75
561.32	89.75
561.532	98.75
561.744	90.75
561.956	103.75
562.168	91.75
562.381	107.75
562.593	93.75
562.805	94.75
563.017	98.75
563.229	78.75
563.441	89.75
563.653	80.75
563.865	92.75
564.077	90.75
564.289	85.75
564.501	93.75
564.713	103.75
564.925	99.75
565.137	90.75
565.349	89.75
565.561	86.75
565.773	84.75
565.985	98.75
566.197	73.75
566.408	90.75
566.62	82.75
566.832	89.75
567.044	88.75
567.255	93.75
567.467	84.75
567.679	88.75
567.891	89.75
568.102	92.75
568.314	64.75
568.526	96.75
568.737	78.75
568.949	78.75
569.161	78.75
569.372	81.75
569.584	87.75
569.795	91.75
570.007	76.75
570.218	83.75
570.43	83.75
570.641	80.75
570.853	74.75
571.064	78.75
571.276	82.75
571.487	89.75
571.698	85.75
571.91	97.75
572.121	94.75
572.333	82.75
572.544	88.75
572.755	83.75
572.966	77.75
573.178	70.75
573.389	93.75
573.6	74.75
573.811	96.75
574.023	77.75
574.234	89.75
574.445	60.75
574.656	87.75
574.867	92.75
575.078	90.75
575.289	83.75
575.501	83.75
575.712	87.75
575.923	87.75
576.134	96.75
576.345	94.75
576.556	82.75
576.767	88.75
576.978	85.75
577.188	73.75
577.399	92.75
577.61	82.75
577.821	93.75
578.032	73.75
578.243	75.75
578.454	93.75
578.665	82.75
578.875	89.75
579.086	93.75
579.297	86.75
579.508	87.75
579.718	76.75
579.929	81.75
580.14	85.75
580.35	77.75
580.561	87.75
580.772	82.75
580.982	89.75
581.193	84.75
581.403	82.75
581.614	90.75
581.825	79.75
582.035	88.75
582.246	87.75
582.456	89.75
582.667	72.75
582.877	75.75
583.087	76.75
583.298	88.75
583.508	74.75
583.719	72.75
583.929	77.75
584.139	87.75
584.35	90.75
584.56	89.75
584.77	88.75
584.981	82.75
585.191	76.75
585.401	77.75
585.611	88.75
585.821	91.75
586.032	87.75
586.242	82.75
586.452	72.75
586.662	89.75
586.872	72.75
587.082	84.75
587.292	82.75
587.502	82.75
587.713	92.75
587.923	83.75
588.133	91.75
588.343	71.75
588.553	77.75
588.762	75.75
588.972	92.75
589.182	84.75
589.392	76.75
589.602	84.75
589.812	99.75
590.022	84.75
590.232	80.75
590.441	88.75
590.651	81.75
590.861	85.75
591.071	74.75
591.281	72.75
591.49	83.75
591.7	77.75
591.91	67.75
592.119	89.75
592.329	76.75
592.539	80.75
592.748	84.75
592.958	79.75
593.167	68.75
593.377	74.75
593.587	87.75
593.796	92.75
594.006	92.75
594.215	91.75
594.424	83.75
594.634	103.75
594.843	98.75
595.053	85.75
595.262	71.75
595.472	81.75
595.681	90.75
595.89	84.75
596.1	75.75
596.309	81.75
596.518	89.75
596.727	93.75
596.937	66.75
597.146	90.75
597.355	65.75
597.564	77.75
597.774	89.75
597.983	89.75
598.192	84.75
598.401	85.75
598.61	77.75
598.819	81.75
599.028	74.75
599.237	72.75
599.446	94.75
599.655	92.75
599.864	93.75
600.073	79.75
600.282	88.75
600.491	93.75
600.7	82.75
600.909	93.75
601.118	89.75
601.327	88.75
601.536	96.75
601.745	79.75
601.953	91.75
602.162	84.75
602.371	86.75
602.58	78.75
602.789	90.75
602.997	74.75
603.206	90.75
603.415	79.75
603.623	75.75
603.832	81.75
604.041	77.75
604.249	103.75
604.458	96.75
604.666	82.75
604.875	91.75
605.084	86.75
605.292	92.75
605.501	94.75
605.709	77.75
605.918	91.75
606.126	88.75
606.334	80.75
606.543	78.75
606.751	80.75
606.96	101.75
607.168	89.75
607.376	101.75
607.585	76.75
607.793	67.75
608.001	93.75
608.21	78.75
608.418	85.75
608.626	92.75
608.834	91.75
609.043	91.75
609.251	93.75
609.459	99.75
609.667	98.75
609.875	90.75
610.083	78.75
610.291	72.75
610.499	90.75
610.707	87.75
610.916	95.75
611.124	96.75
611.332	103.75
611.54	79.75
611.748	83.75
611.955	101.75
612.163	87.75
612.371	90.75
612.579	100.75
612.787	92.75
612.995	75.75
613.203	87.75
613.411	75.75
613.618	81.75
613.826	92.75
614.034	86.75
614.242	80.75
614.449	88.75
614.657	81.75
614.865	93.75
615.072	85.75
615.28	78.75
615.488	88.75
615.695	81.75
615.903	91.75
616.111	80.75
616.318	99.75
616.526	96.75
616.733	87.75
616.941	92.75
617.148	75.75
617.356	75.75
617.563	82.75
617.771	91.75
617.978	101.75
618.185	85.75
618.393	96.75
618.6	88.75
618.807	92.75
619.015	80.75
619.222	89.75
619.429	88.75
619.637	83.75
619.844	73.75
620.051	86.75
620.258	90.75
620.466	94.75
620.673	92.75
620.88	96.75
621.087	88.75
621.294	84.75
621.501	93.75
621.708	83.75
621.915	77.75
622.122	99.75
622.329	96.75
622.536	84.75
622.743	85.75
622.95	71.75
623.157	96.75
623.364	88.75
623.571	92.75
623.778	91.75
623.985	96.75
624.192	90.75
624.399	78.75
624.606	88.75
624.812	75.75
625.019	84.75
625.226	72.75
625.433	80.75
625.639	69.75
625.846	88.75
626.053	74.75
626.259	86.75
626.466	93.75
626.673	89.75
626.879	80.75
627.086	93.75
627.293	85.75
627.499	89.75
627.706	90.75
627.912	83.75
628.119	87.75
628.325	77.75
628.532	86.75
628.738	86.75
628.945	100.75
629.151	85.75
629.357	98.75
629.564	85.75
629.77	81.75
629.976	86.75
630.183	69.75
630.389	81.75
630.595	88.75
630.802	90.75
631.008	89.75
631.214	99.75
631.42	83.75
631.627	81.75
631.833	84.75
632.039	76.75
632.245	93.75
632.451	76.75
632.657	89.75
632.863	88.75
633.069	86.75
633.275	98.75
633.481	90.75
633.688	98.75
633.893	64.75
634.099	87.75
634.305	87.75
634.511	85.75
634.717	85.75
634.923	88.75
635.129	78.75
635.335	79.75
635.541	78.75
635.747	94.75
635.952	86.75
636.158	67.75
636.364	97.75
636.57	85.75
636.775	98.75
636.981	80.75
637.187	91.75
637.392	88.75
637.598	74.75
637.804	91.75
638.009	91.75
638.215	91.75
638.421	82.75
638.626	80.75
638.832	86.75
639.037	85.75
639.243	92.75
639.448	93.75
639.654	96.75
639.859	79.75
640.065	80.75
640.27	86.75
640.475	84.75
640.681	81.75
640.886	86.75
641.091	77.75
641.297	94.75
641.502	84.75
641.707	80.75
641.913	100.75
642.118	105.75
642.323	81.75
642.528	88.75
642.733	70.75
642.939	89.75
643.144	86.75
643.349	91.75
643.554	93.75
643.759	92.75
643.964	82.75
644.169	82.75
644.374	91.75
644.579	95.75
644.784	88.75
644.989	99.75
645.194	91.75
645.399	88.75
645.604	79.75
645.809	98.75
646.014	78.75
646.219	86.75
646.423	74.75
646.628	93.75
646.833	92.75
647.038	78.75
647.243	84.75
647.447	89.75
647.652	79.75
647.857	72.75
648.062	96.75
648.266	79.75
648.471	96.75
648.676	82.75
648.88	85.75
649.085	90.75
649.289	80.75
649.494	89.75
649.698	83.75
649.903	75.75
650.107	87.75
650.312	94.75
650.516	66.75
650.721	92.75
650.925	94.75
651.13	81.75
651.334	85.75
651.539	85.75
651.743	89.75
651.947	92.75
652.152	92.75
652.356	65.75
652.56	82.75
652.764	86.75
652.969	89.75
653.173	84.75
653.377	80.75
653.581	89.75
653.785	82.75
653.99	72.75
654.194	85.75
654.398	95.75
654.602	100.75
654.806	88.75
655.01	82.75
655.214	89.75
655.418	92.75
655.622	100.75
655.826	86.75
656.03	72.75
656.234	89.75
656.438	84.75
656.642	83.75
656.846	90.75
657.049	91.75
657.253	72.75
657.457	93.75
657.661	84.75
657.865	80.75
658.068	88.75
658.272	87.75
658.476	72.75
658.68	70.75
658.883	76.75
659.087	90.75
659.291	92.75
659.494	83.75
659.698	85.75
659.901	91.75
660.105	72.75
660.309	87.75
660.512	78.75
660.716	90.75
660.919	86.75
661.123	84.75
661.326	82.75
661.53	68.75
661.733	77.75
661.936	95.75
662.14	86.75
662.343	90.75
662.546	77.75
662.75	92.75
662.953	89.75
663.156	89.75
663.36	81.75
663.563	65.75
663.766	80.75
663.969	85.75
664.173	90.75
664.376	89.75
664.579	70.75
664.782	77.75
664.985	88.75
665.188	60.75
665.391	93.75
665.594	89.75
665.797	91.75
666	82.75
666.203	75.75
666.406	72.75
666.609	76.75
666.812	91.75
667.015	85.75
667.218	86.75
667.421	88.75
667.624	81.75
667.827	69.75
668.03	78.75
668.232	84.75
668.435	89.75
668.638	80.75
668.841	88.75
669.043	72.75
669.246	79.75
669.449	78.75
669.651	87.75
669.854	88.75
670.057	93.75
670.259	88.75
670.462	72.75
670.665	64.75
670.867	68.75
671.07	82.75
671.272	92.75
671.475	82.75
671.677	80.75
671.88	81.75
672.082	81.75
672.284	76.75
672.487	74.75
672.689	81.75
672.892	82.75
