Data from Zn(NO3)2Standard.Agarose3%.GreenCap.LampEnergy5.5.E.O_HRD10591_15-02-04-768.txt Node
Date: Mon Jul 22 15:02:04 EDT 2019
User: cochatt
Spectrometer: HR+D1059
Trigger mode: 1
Integration Time (sec): 1.000000E-1
Scans to average: 1
Electric dark correction enabled: true
Nonlinearity correction enabled: false
Boxcar width: 0
XAxis mode: Wavelengths
Number of Pixels in Spectrum: 2048
>>>>>Begin Spectral Data<<<<<
223.165	-30.81
223.4	-30.81
223.635	-30.81
223.869	-21.81
224.104	-10.81
224.338	-5.81
224.573	-12.81
224.808	-3.81
225.042	-4.81
225.277	-2.81
225.511	1.19
225.746	6.19
225.98	-0.81
226.215	0.19
226.449	9.19
226.683	17.19
226.918	27.19
227.152	33.19
227.387	38.19
227.621	39.19
227.856	51.19
228.09	59.19
228.324	53.19
228.559	49.19
228.793	60.19
229.027	60.19
229.262	66.19
229.496	74.19
229.73	66.19
229.964	90.19
230.199	88.19
230.433	92.19
230.667	73.19
230.901	77.19
231.136	82.19
231.37	74.19
231.604	62.19
231.838	81.19
232.072	70.19
232.306	80.19
232.541	85.19
232.775	72.19
233.009	75.19
233.243	90.19
233.477	81.19
233.711	77.19
233.945	77.19
234.179	76.19
234.413	84.19
234.647	78.19
234.881	69.19
235.115	85.19
235.349	85.19
235.583	77.19
235.817	78.19
236.051	81.19
236.285	90.19
236.519	82.19
236.753	71.19
236.987	84.19
237.221	74.19
237.455	77.19
237.689	78.19
237.922	65.19
238.156	74.19
238.39	79.19
238.624	74.19
238.858	73.19
239.091	79.19
239.325	71.19
239.559	81.19
239.793	77.19
240.027	73.19
240.26	83.19
240.494	82.19
240.728	70.19
240.961	85.19
241.195	69.19
241.429	69.19
241.662	81.19
241.896	83.19
242.13	69.19
242.363	79.19
242.597	79.19
242.83	73.19
243.064	84.19
243.298	87.19
243.531	87.19
243.765	93.19
243.998	72.19
244.232	72.19
244.465	74.19
244.699	62.19
244.932	82.19
245.166	70.19
245.399	74.19
245.633	73.19
245.866	75.19
246.099	80.19
246.333	85.19
246.566	72.19
246.8	84.19
247.033	69.19
247.266	76.19
247.5	86.19
247.733	77.19
247.966	89.19
248.2	91.19
248.433	86.19
248.666	79.19
248.899	61.19
249.133	79.19
249.366	83.19
249.599	78.19
249.832	89.19
250.066	89.19
250.299	91.19
250.532	74.19
250.765	85.19
250.998	84.19
251.231	77.19
251.465	92.19
251.698	78.19
251.931	82.19
252.164	94.19
252.397	76.19
252.63	83.19
252.863	73.19
253.096	85.19
253.329	75.19
253.562	73.19
253.795	88.19
254.028	92.19
254.261	85.19
254.494	83.19
254.727	84.19
254.96	78.19
255.193	65.19
255.426	94.19
255.659	65.19
255.892	81.19
256.124	76.19
256.357	69.19
256.59	74.19
256.823	78.19
257.056	87.19
257.289	72.19
257.521	78.19
257.754	75.19
257.987	93.19
258.22	83.19
258.452	74.19
258.685	91.19
258.918	86.19
259.151	81.19
259.383	83.19
259.616	81.19
259.849	97.19
260.081	93.19
260.314	87.19
260.547	78.19
260.779	83.19
261.012	75.19
261.244	78.19
261.477	76.19
261.71	80.19
261.942	80.19
262.175	86.19
262.407	79.19
262.64	73.19
262.872	66.19
263.105	79.19
263.337	86.19
263.57	81.19
263.802	87.19
264.035	85.19
264.267	84.19
264.499	82.19
264.732	77.19
264.964	83.19
265.197	84.19
265.429	84.19
265.661	71.19
265.894	83.19
266.126	97.19
266.358	85.19
266.591	92.19
266.823	99.19
267.055	84.19
267.287	92.19
267.52	82.19
267.752	86.19
267.984	95.19
268.216	97.19
268.448	82.19
268.681	85.19
268.913	80.19
269.145	71.19
269.377	87.19
269.609	82.19
269.841	97.19
270.073	76.19
270.306	84.19
270.538	96.19
270.77	73.19
271.002	85.19
271.234	99.19
271.466	76.19
271.698	75.19
271.93	98.19
272.162	88.19
272.394	85.19
272.626	98.19
272.858	94.19
273.09	73.19
273.322	92.19
273.553	87.19
273.785	94.19
274.017	101.19
274.249	83.19
274.481	84.19
274.713	71.19
274.945	87.19
275.176	78.19
275.408	85.19
275.64	77.19
275.872	77.19
276.104	85.19
276.335	73.19
276.567	83.19
276.799	78.19
277.031	83.19
277.262	85.19
277.494	76.19
277.726	61.19
277.957	78.19
278.189	76.19
278.421	86.19
278.652	95.19
278.884	86.19
279.115	77.19
279.347	83.19
279.579	93.19
279.81	96.19
280.042	101.19
280.273	98.19
280.505	91.19
280.736	93.19
280.968	88.19
281.199	91.19
281.431	81.19
281.662	80.19
281.894	74.19
282.125	89.19
282.356	83.19
282.588	92.19
282.819	85.19
283.051	85.19
283.282	93.19
283.513	96.19
283.745	90.19
283.976	85.19
284.207	93.19
284.439	84.19
284.67	83.19
284.901	90.19
285.132	94.19
285.364	93.19
285.595	81.19
285.826	91.19
286.057	90.19
286.288	92.19
286.52	78.19
286.751	88.19
286.982	89.19
287.213	67.19
287.444	86.19
287.675	87.19
287.906	102.19
288.138	89.19
288.369	89.19
288.6	88.19
288.831	84.19
289.062	86.19
289.293	86.19
289.524	92.19
289.755	79.19
289.986	100.19
290.217	89.19
290.448	99.19
290.679	75.19
290.91	87.19
291.141	98.19
291.371	89.19
291.602	86.19
291.833	78.19
292.064	77.19
292.295	90.19
292.526	85.19
292.757	87.19
292.987	84.19
293.218	82.19
293.449	90.19
293.68	86.19
293.91	82.19
294.141	88.19
294.372	88.19
294.603	94.19
294.833	94.19
295.064	85.19
295.295	100.19
295.525	73.19
295.756	85.19
295.987	90.19
296.217	79.19
296.448	78.19
296.679	78.19
296.909	85.19
297.14	81.19
297.37	91.19
297.601	91.19
297.831	73.19
298.062	76.19
298.292	76.19
298.523	88.19
298.753	87.19
298.984	87.19
299.214	81.19
299.445	84.19
299.675	92.19
299.905	91.19
300.136	85.19
300.366	97.19
300.597	84.19
300.827	82.19
301.057	80.19
301.288	92.19
301.518	73.19
301.748	78.19
301.979	94.19
302.209	98.19
302.439	93.19
302.669	93.19
302.9	85.19
303.13	86.19
303.36	85.19
303.59	91.19
303.82	83.19
304.051	87.19
304.281	91.19
304.511	92.19
304.741	94.19
304.971	76.19
305.201	77.19
305.431	81.19
305.661	84.19
305.891	76.19
306.121	92.19
306.352	72.19
306.582	74.19
306.812	102.19
307.042	91.19
307.272	91.19
307.502	88.19
307.731	93.19
307.961	79.19
308.191	83.19
308.421	85.19
308.651	77.19
308.881	95.19
309.111	101.19
309.341	90.19
309.571	100.19
309.8	85.19
310.03	87.19
310.26	83.19
310.49	83.19
310.72	98.19
310.949	95.19
311.179	93.19
311.409	85.19
311.639	82.19
311.868	100.19
312.098	82.19
312.328	97.19
312.557	92.19
312.787	79.19
313.017	84.19
313.246	82.19
313.476	79.19
313.706	78.19
313.935	87.19
314.165	91.19
314.394	74.19
314.624	88.19
314.853	92.19
315.083	76.19
315.312	86.19
315.542	90.19
315.771	84.19
316.001	94.19
316.23	91.19
316.46	79.19
316.689	92.19
316.919	92.19
317.148	82.19
317.377	89.19
317.607	78.19
317.836	85.19
318.065	89.19
318.295	84.19
318.524	87.19
318.753	73.19
318.983	89.19
319.212	88.19
319.441	90.19
319.67	83.19
319.9	81.19
320.129	69.19
320.358	86.19
320.587	102.19
320.816	96.19
321.046	94.19
321.275	89.19
321.504	93.19
321.733	90.19
321.962	76.19
322.191	79.19
322.42	81.19
322.649	80.19
322.878	87.19
323.108	83.19
323.337	84.19
323.566	84.19
323.795	95.19
324.024	91.19
324.253	75.19
324.482	75.19
324.71	73.19
324.939	80.19
325.168	90.19
325.397	82.19
325.626	89.19
325.855	100.19
326.084	84.19
326.313	85.19
326.542	85.19
326.77	90.19
326.999	100.19
327.228	89.19
327.457	76.19
327.686	98.19
327.914	88.19
328.143	92.19
328.372	89.19
328.6	91.19
328.829	90.19
329.058	83.19
329.287	92.19
329.515	82.19
329.744	84.19
329.972	82.19
330.201	77.19
330.43	79.19
330.658	82.19
330.887	92.19
331.115	86.19
331.344	92.19
331.572	83.19
331.801	93.19
332.03	79.19
332.258	85.19
332.486	93.19
332.715	86.19
332.943	89.19
333.172	94.19
333.4	100.19
333.629	86.19
333.857	82.19
334.085	79.19
334.314	88.19
334.542	85.19
334.771	80.19
334.999	78.19
335.227	85.19
335.455	79.19
335.684	86.19
335.912	90.19
336.14	74.19
336.369	82.19
336.597	89.19
336.825	90.19
337.053	85.19
337.281	80.19
337.51	81.19
337.738	87.19
337.966	87.19
338.194	87.19
338.422	77.19
338.65	100.19
338.878	90.19
339.106	91.19
339.334	80.19
339.562	90.19
339.79	90.19
340.018	96.19
340.246	94.19
340.474	77.19
340.702	67.19
340.93	85.19
341.158	76.19
341.386	79.19
341.614	88.19
341.842	92.19
342.07	93.19
342.298	89.19
342.526	71.19
342.754	74.19
342.981	76.19
343.209	85.19
343.437	91.19
343.665	86.19
343.893	91.19
344.12	89.19
344.348	84.19
344.576	82.19
344.804	85.19
345.031	83.19
345.259	84.19
345.487	94.19
345.714	91.19
345.942	85.19
346.17	102.19
346.397	99.19
346.625	83.19
346.853	79.19
347.08	68.19
347.308	72.19
347.535	90.19
347.763	95.19
347.99	81.19
348.218	89.19
348.445	75.19
348.673	85.19
348.9	92.19
349.128	85.19
349.355	94.19
349.583	87.19
349.81	82.19
350.037	81.19
350.265	77.19
350.492	83.19
350.72	94.19
350.947	83.19
351.174	79.19
351.402	88.19
351.629	90.19
351.856	77.19
352.083	88.19
352.311	71.19
352.538	70.19
352.765	78.19
352.992	86.19
353.22	85.19
353.447	83.19
353.674	81.19
353.901	85.19
354.128	71.19
354.355	78.19
354.583	95.19
354.81	99.19
355.037	98.19
355.264	73.19
355.491	102.19
355.718	92.19
355.945	89.19
356.172	87.19
356.399	76.19
356.626	79.19
356.853	77.19
357.08	90.19
357.307	97.19
357.534	84.19
357.761	83.19
357.988	85.19
358.215	87.19
358.441	97.19
358.668	85.19
358.895	86.19
359.122	80.19
359.349	97.19
359.576	87.19
359.802	92.19
360.029	83.19
360.256	70.19
360.483	93.19
360.709	85.19
360.936	94.19
361.163	105.19
361.39	96.19
361.616	78.19
361.843	77.19
362.07	84.19
362.296	91.19
362.523	76.19
362.749	75.19
362.976	86.19
363.203	94.19
363.429	87.19
363.656	86.19
363.882	93.19
364.109	85.19
364.335	86.19
364.562	55.19
364.788	73.19
365.015	85.19
365.241	78.19
365.468	84.19
365.694	72.19
365.92	70.19
366.147	84.19
366.373	81.19
366.599	74.19
366.826	92.19
367.052	85.19
367.278	87.19
367.505	73.19
367.731	95.19
367.957	80.19
368.184	86.19
368.41	83.19
368.636	94.19
368.862	92.19
369.089	69.19
369.315	75.19
369.541	94.19
369.767	93.19
369.993	76.19
370.219	86.19
370.445	88.19
370.672	80.19
370.898	76.19
371.124	88.19
371.35	84.19
371.576	85.19
371.802	89.19
372.028	96.19
372.254	89.19
372.48	82.19
372.706	77.19
372.932	82.19
373.158	75.19
373.384	91.19
373.61	85.19
373.835	81.19
374.061	87.19
374.287	86.19
374.513	85.19
374.739	89.19
374.965	83.19
375.191	79.19
375.416	65.19
375.642	71.19
375.868	99.19
376.094	84.19
376.319	92.19
376.545	73.19
376.771	73.19
376.997	84.19
377.222	76.19
377.448	91.19
377.674	81.19
377.899	97.19
378.125	77.19
378.35	93.19
378.576	99.19
378.802	74.19
379.027	87.19
379.253	85.19
379.478	86.19
379.704	75.19
379.929	82.19
380.155	79.19
380.38	95.19
380.606	83.19
380.831	86.19
381.057	76.19
381.282	85.19
381.507	90.19
381.733	86.19
381.958	95.19
382.184	80.19
382.409	78.19
382.634	89.19
382.86	80.19
383.085	79.19
383.31	85.19
383.535	89.19
383.761	98.19
383.986	72.19
384.211	98.19
384.436	80.19
384.662	101.19
384.887	94.19
385.112	73.19
385.337	76.19
385.562	84.19
385.787	80.19
386.013	74.19
386.238	65.19
386.463	83.19
386.688	92.19
386.913	83.19
387.138	84.19
387.363	83.19
387.588	85.19
387.813	90.19
388.038	89.19
388.263	80.19
388.488	85.19
388.713	79.19
388.938	68.19
389.163	84.19
389.387	97.19
389.612	89.19
389.837	74.19
390.062	93.19
390.287	89.19
390.512	89.19
390.736	83.19
390.961	73.19
391.186	84.19
391.411	83.19
391.636	81.19
391.86	97.19
392.085	85.19
392.31	89.19
392.534	77.19
392.759	76.19
392.984	82.19
393.208	70.19
393.433	87.19
393.658	81.19
393.882	73.19
394.107	86.19
394.331	91.19
394.556	85.19
394.78	83.19
395.005	92.19
395.229	94.19
395.454	93.19
395.678	95.19
395.903	87.19
396.127	105.19
396.352	92.19
396.576	84.19
396.801	80.19
397.025	82.19
397.249	79.19
397.474	85.19
397.698	85.19
397.922	90.19
398.147	84.19
398.371	103.19
398.595	92.19
398.82	89.19
399.044	83.19
399.268	89.19
399.492	85.19
399.717	84.19
399.941	87.19
400.165	90.19
400.389	76.19
400.613	87.19
400.837	92.19
401.062	78.19
401.286	84.19
401.51	76.19
401.734	88.19
401.958	82.19
402.182	87.19
402.406	78.19
402.63	78.19
402.854	92.19
403.078	101.19
403.302	93.19
403.526	79.19
403.75	85.19
403.974	80.19
404.198	79.19
404.422	82.19
404.645	88.19
404.869	78.19
405.093	74.19
405.317	78.19
405.541	76.19
405.765	91.19
405.988	95.19
406.212	87.19
406.436	90.19
406.66	80.19
406.883	80.19
407.107	90.19
407.331	77.19
407.555	72.19
407.778	81.19
408.002	90.19
408.226	77.19
408.449	87.19
408.673	78.19
408.896	90.19
409.12	94.19
409.344	89.19
409.567	85.19
409.791	88.19
410.014	82.19
410.238	92.19
410.461	103.19
410.685	103.19
410.908	84.19
411.132	94.19
411.355	93.19
411.578	85.19
411.802	73.19
412.025	73.19
412.249	91.19
412.472	88.19
412.695	95.19
412.919	97.19
413.142	91.19
413.365	82.19
413.589	90.19
413.812	100.19
414.035	100.19
414.258	84.19
414.482	94.19
414.705	70.19
414.928	87.19
415.151	93.19
415.374	95.19
415.597	76.19
415.821	76.19
416.044	97.19
416.267	86.19
416.49	84.19
416.713	86.19
416.936	94.19
417.159	97.19
417.382	88.19
417.605	80.19
417.828	90.19
418.051	78.19
418.274	97.19
418.497	83.19
418.72	72.19
418.943	93.19
419.166	89.19
419.389	95.19
419.611	99.19
419.834	85.19
420.057	87.19
420.28	90.19
420.503	82.19
420.726	99.19
420.948	92.19
421.171	87.19
421.394	86.19
421.617	73.19
421.839	92.19
422.062	95.19
422.285	100.19
422.507	85.19
422.73	93.19
422.953	79.19
423.175	89.19
423.398	87.19
423.621	87.19
423.843	84.19
424.066	70.19
424.288	94.19
424.511	90.19
424.733	86.19
424.956	68.19
425.178	101.19
425.401	89.19
425.623	83.19
425.846	98.19
426.068	87.19
426.291	86.19
426.513	82.19
426.735	82.19
426.958	82.19
427.18	76.19
427.402	93.19
427.625	95.19
427.847	83.19
428.069	92.19
428.292	76.19
428.514	86.19
428.736	79.19
428.958	83.19
429.181	86.19
429.403	87.19
429.625	88.19
429.847	78.19
430.069	73.19
430.292	95.19
430.514	88.19
430.736	87.19
430.958	81.19
431.18	94.19
431.402	99.19
431.624	88.19
431.846	71.19
432.068	93.19
432.29	90.19
432.512	86.19
432.734	81.19
432.956	86.19
433.178	91.19
433.4	79.19
433.622	91.19
433.844	92.19
434.066	83.19
434.287	87.19
434.509	102.19
434.731	80.19
434.953	85.19
435.175	95.19
435.397	83.19
435.618	70.19
435.84	84.19
436.062	85.19
436.284	80.19
436.505	83.19
436.727	89.19
436.949	93.19
437.17	81.19
437.392	94.19
437.614	81.19
437.835	85.19
438.057	69.19
438.278	90.19
438.5	86.19
438.721	89.19
438.943	78.19
439.165	106.19
439.386	100.19
439.608	102.19
439.829	82.19
440.05	95.19
440.272	104.19
440.493	83.19
440.715	93.19
440.936	81.19
441.158	107.19
441.379	98.19
441.6	103.19
441.822	86.19
442.043	91.19
442.264	98.19
442.486	99.19
442.707	88.19
442.928	82.19
443.149	91.19
443.371	88.19
443.592	107.19
443.813	73.19
444.034	77.19
444.255	93.19
444.476	79.19
444.698	89.19
444.919	89.19
445.14	210.19
445.361	155.19
445.582	95.19
445.803	103.19
446.024	86.19
446.245	82.19
446.466	95.19
446.687	91.19
446.908	90.19
447.129	100.19
447.35	94.19
447.571	85.19
447.792	89.19
448.013	91.19
448.234	74.19
448.455	74.19
448.675	95.19
448.896	78.19
449.117	103.19
449.338	71.19
449.559	82.19
449.779	95.19
450	82.19
450.221	85.19
450.442	86.19
450.662	83.19
450.883	81.19
451.104	86.19
451.324	103.19
451.545	84.19
451.766	96.19
451.986	82.19
452.207	78.19
452.428	82.19
452.648	98.19
452.869	82.19
453.089	83.19
453.31	88.19
453.53	69.19
453.751	99.19
453.971	91.19
454.192	83.19
454.412	80.19
454.633	94.19
454.853	84.19
455.073	99.19
455.294	81.19
455.514	77.19
455.734	89.19
455.955	87.19
456.175	73.19
456.395	85.19
456.616	67.19
456.836	77.19
457.056	87.19
457.276	75.19
457.497	88.19
457.717	97.19
457.937	93.19
458.157	81.19
458.377	95.19
458.598	84.19
458.818	68.19
459.038	85.19
459.258	90.19
459.478	80.19
459.698	80.19
459.918	103.19
460.138	83.19
460.358	87.19
460.578	93.19
460.798	85.19
461.018	94.19
461.238	82.19
461.458	89.19
461.678	76.19
461.898	81.19
462.118	89.19
462.338	77.19
462.558	90.19
462.777	73.19
462.997	68.19
463.217	84.19
463.437	76.19
463.657	85.19
463.876	82.19
464.096	82.19
464.316	78.19
464.536	88.19
464.755	106.19
464.975	86.19
465.195	102.19
465.414	93.19
465.634	93.19
465.854	98.19
466.073	87.19
466.293	83.19
466.512	77.19
466.732	93.19
466.951	92.19
467.171	77.19
467.391	94.19
467.61	86.19
467.829	89.19
468.049	88.19
468.268	90.19
468.488	82.19
468.707	95.19
468.927	85.19
469.146	99.19
469.365	96.19
469.585	100.19
469.804	90.19
470.023	87.19
470.243	101.19
470.462	89.19
470.681	106.19
470.901	92.19
471.12	81.19
471.339	97.19
471.558	89.19
471.777	87.19
471.997	84.19
472.216	82.19
472.435	90.19
472.654	83.19
472.873	83.19
473.092	109.19
473.311	91.19
473.53	76.19
473.749	85.19
473.968	90.19
474.187	85.19
474.406	83.19
474.625	85.19
474.844	111.19
475.063	95.19
475.282	97.19
475.501	90.19
475.72	87.19
475.939	97.19
476.158	83.19
476.377	79.19
476.596	90.19
476.814	81.19
477.033	79.19
477.252	99.19
477.471	98.19
477.69	90.19
477.908	87.19
478.127	89.19
478.346	79.19
478.564	87.19
478.783	85.19
479.002	86.19
479.22	102.19
479.439	85.19
479.658	106.19
479.876	97.19
480.095	86.19
480.313	104.19
480.532	92.19
480.751	83.19
480.969	74.19
481.188	98.19
481.406	86.19
481.624	93.19
481.843	91.19
482.061	84.19
482.28	89.19
482.498	89.19
482.717	84.19
482.935	90.19
483.153	96.19
483.372	101.19
483.59	87.19
483.808	94.19
484.027	88.19
484.245	80.19
484.463	89.19
484.681	88.19
484.9	89.19
485.118	99.19
485.336	87.19
485.554	93.19
485.772	91.19
485.99	81.19
486.209	72.19
486.427	79.19
486.645	77.19
486.863	84.19
487.081	91.19
487.299	84.19
487.517	91.19
487.735	89.19
487.953	102.19
488.171	92.19
488.389	98.19
488.607	97.19
488.825	82.19
489.043	87.19
489.261	77.19
489.479	95.19
489.696	105.19
489.914	88.19
490.132	93.19
490.35	91.19
490.568	94.19
490.786	108.19
491.003	110.19
491.221	85.19
491.439	104.19
491.657	85.19
491.874	97.19
492.092	104.19
492.31	104.19
492.527	113.19
492.745	87.19
492.963	111.19
493.18	104.19
493.398	106.19
493.615	96.19
493.833	99.19
494.05	107.19
494.268	95.19
494.485	89.19
494.703	100.19
494.92	99.19
495.138	98.19
495.355	108.19
495.573	123.19
495.79	92.19
496.008	97.19
496.225	116.19
496.442	90.19
496.66	109.19
496.877	95.19
497.094	105.19
497.312	89.19
497.529	91.19
497.746	100.19
497.963	92.19
498.181	86.19
498.398	95.19
498.615	101.19
498.832	91.19
499.049	84.19
499.267	90.19
499.484	91.19
499.701	90.19
499.918	90.19
500.135	94.19
500.352	91.19
500.569	87.19
500.786	102.19
501.003	88.19
501.22	93.19
501.437	82.19
501.654	82.19
501.871	79.19
502.088	99.19
502.305	97.19
502.522	90.19
502.739	78.19
502.956	96.19
503.172	88.19
503.389	72.19
503.606	83.19
503.823	98.19
504.04	86.19
504.256	105.19
504.473	95.19
504.69	79.19
504.907	87.19
505.123	76.19
505.34	88.19
505.557	95.19
505.773	99.19
505.99	89.19
506.207	80.19
506.423	104.19
506.64	92.19
506.856	79.19
507.073	79.19
507.289	94.19
507.506	99.19
507.722	96.19
507.939	85.19
508.155	108.19
508.372	88.19
508.588	93.19
508.805	85.19
509.021	94.19
509.238	85.19
509.454	85.19
509.67	98.19
509.887	91.19
510.103	87.19
510.319	86.19
510.536	74.19
510.752	100.19
510.968	78.19
511.184	74.19
511.401	75.19
511.617	93.19
511.833	79.19
512.049	91.19
512.265	90.19
512.481	97.19
512.698	81.19
512.914	79.19
513.13	91.19
513.346	89.19
513.562	90.19
513.778	93.19
513.994	86.19
514.21	80.19
514.426	83.19
514.642	73.19
514.858	84.19
515.074	83.19
515.29	87.19
515.506	73.19
515.721	104.19
515.937	88.19
516.153	72.19
516.369	81.19
516.585	70.19
516.801	88.19
517.016	92.19
517.232	95.19
517.448	88.19
517.664	94.19
517.879	95.19
518.095	70.19
518.311	80.19
518.527	104.19
518.742	76.19
518.958	97.19
519.173	83.19
519.389	91.19
519.605	87.19
519.82	103.19
520.036	97.19
520.251	80.19
520.467	96.19
520.682	82.19
520.898	93.19
521.113	79.19
521.329	83.19
521.544	90.19
521.76	86.19
521.975	87.19
522.19	95.19
522.406	87.19
522.621	86.19
522.836	84.19
523.052	105.19
523.267	86.19
523.482	109.19
523.698	93.19
523.913	85.19
524.128	95.19
524.343	86.19
524.559	91.19
524.774	82.19
524.989	95.19
525.204	101.19
525.419	103.19
525.634	82.19
525.849	76.19
526.064	92.19
526.28	85.19
526.495	89.19
526.71	94.19
526.925	92.19
527.14	77.19
527.355	87.19
527.57	98.19
527.785	99.19
527.999	86.19
528.214	70.19
528.429	90.19
528.644	92.19
528.859	77.19
529.074	94.19
529.289	88.19
529.503	99.19
529.718	95.19
529.933	105.19
530.148	94.19
530.363	91.19
530.577	79.19
530.792	94.19
531.007	92.19
531.221	78.19
531.436	81.19
531.651	82.19
531.865	92.19
532.08	91.19
532.295	92.19
532.509	82.19
532.724	86.19
532.938	86.19
533.153	84.19
533.367	91.19
533.582	90.19
533.796	74.19
534.011	91.19
534.225	87.19
534.44	82.19
534.654	90.19
534.868	82.19
535.083	83.19
535.297	96.19
535.511	93.19
535.726	86.19
535.94	90.19
536.154	92.19
536.369	94.19
536.583	85.19
536.797	86.19
537.011	79.19
537.225	86.19
537.44	81.19
537.654	72.19
537.868	90.19
538.082	84.19
538.296	90.19
538.51	101.19
538.724	84.19
538.938	86.19
539.153	81.19
539.367	89.19
539.581	78.19
539.795	83.19
540.009	88.19
540.222	67.19
540.436	90.19
540.65	82.19
540.864	87.19
541.078	84.19
541.292	96.19
541.506	88.19
541.72	91.19
541.934	88.19
542.147	94.19
542.361	110.19
542.575	100.19
542.789	100.19
543.002	93.19
543.216	94.19
543.43	91.19
543.644	93.19
543.857	93.19
544.071	84.19
544.285	107.19
544.498	114.19
544.712	84.19
544.925	100.19
545.139	88.19
545.352	106.19
545.566	90.19
545.779	97.19
545.993	94.19
546.206	100.19
546.42	93.19
546.633	97.19
546.847	103.19
547.06	100.19
547.274	90.19
547.487	99.19
547.7	118.19
547.914	102.19
548.127	92.19
548.34	94.19
548.554	89.19
548.767	102.19
548.98	95.19
549.193	90.19
549.407	109.19
549.62	86.19
549.833	94.19
550.046	92.19
550.259	108.19
550.473	87.19
550.686	110.19
550.899	103.19
551.112	92.19
551.325	104.19
551.538	89.19
551.751	92.19
551.964	98.19
552.177	100.19
552.39	103.19
552.603	116.19
552.816	105.19
553.029	90.19
553.242	90.19
553.455	90.19
553.667	107.19
553.88	108.19
554.093	90.19
554.306	82.19
554.519	106.19
554.732	91.19
554.944	93.19
555.157	97.19
555.37	110.19
555.583	87.19
555.795	99.19
556.008	84.19
556.221	91.19
556.433	86.19
556.646	94.19
556.859	90.19
557.071	88.19
557.284	109.19
557.496	108.19
557.709	77.19
557.921	102.19
558.134	75.19
558.346	101.19
558.559	94.19
558.771	85.19
558.984	110.19
559.196	86.19
559.409	97.19
559.621	98.19
559.833	110.19
560.046	82.19
560.258	96.19
560.47	92.19
560.683	99.19
560.895	87.19
561.107	95.19
561.32	98.19
561.532	102.19
561.744	97.19
561.956	87.19
562.168	92.19
562.381	95.19
562.593	100.19
562.805	103.19
563.017	96.19
563.229	90.19
563.441	85.19
563.653	105.19
563.865	94.19
564.077	100.19
564.289	105.19
564.501	79.19
564.713	99.19
564.925	89.19
565.137	75.19
565.349	80.19
565.561	92.19
565.773	91.19
565.985	92.19
566.197	86.19
566.408	89.19
566.62	89.19
566.832	89.19
567.044	81.19
567.255	105.19
567.467	97.19
567.679	89.19
567.891	92.19
568.102	99.19
568.314	90.19
568.526	83.19
568.737	85.19
568.949	83.19
569.161	102.19
569.372	92.19
569.584	81.19
569.795	71.19
570.007	94.19
570.218	93.19
570.43	94.19
570.641	96.19
570.853	87.19
571.064	82.19
571.276	82.19
571.487	93.19
571.698	89.19
571.91	96.19
572.121	97.19
572.333	91.19
572.544	87.19
572.755	88.19
572.966	71.19
573.178	78.19
573.389	102.19
573.6	74.19
573.811	90.19
574.023	89.19
574.234	105.19
574.445	93.19
574.656	85.19
574.867	80.19
575.078	73.19
575.289	99.19
575.501	71.19
575.712	78.19
575.923	79.19
576.134	88.19
576.345	93.19
576.556	90.19
576.767	102.19
576.978	90.19
577.188	94.19
577.399	80.19
577.61	94.19
577.821	92.19
578.032	90.19
578.243	94.19
578.454	99.19
578.665	71.19
578.875	73.19
579.086	92.19
579.297	97.19
579.508	82.19
579.718	96.19
579.929	90.19
580.14	91.19
580.35	95.19
580.561	86.19
580.772	92.19
580.982	81.19
581.193	84.19
581.403	75.19
581.614	84.19
581.825	80.19
582.035	84.19
582.246	93.19
582.456	84.19
582.667	97.19
582.877	81.19
583.087	91.19
583.298	87.19
583.508	87.19
583.719	89.19
583.929	86.19
584.139	87.19
584.35	74.19
584.56	76.19
584.77	79.19
584.981	85.19
585.191	85.19
585.401	88.19
585.611	89.19
585.821	91.19
586.032	88.19
586.242	89.19
586.452	87.19
586.662	94.19
586.872	91.19
587.082	96.19
587.292	78.19
587.502	84.19
587.713	86.19
587.923	75.19
588.133	82.19
588.343	89.19
588.553	85.19
588.762	88.19
588.972	95.19
589.182	89.19
589.392	81.19
589.602	90.19
589.812	89.19
590.022	85.19
590.232	92.19
590.441	73.19
590.651	90.19
590.861	89.19
591.071	79.19
591.281	92.19
591.49	81.19
591.7	95.19
591.91	88.19
592.119	86.19
592.329	91.19
592.539	71.19
592.748	68.19
592.958	93.19
593.167	74.19
593.377	85.19
593.587	104.19
593.796	85.19
594.006	101.19
594.215	77.19
594.424	71.19
594.634	81.19
594.843	86.19
595.053	88.19
595.262	81.19
595.472	95.19
595.681	83.19
595.89	75.19
596.1	81.19
596.309	83.19
596.518	87.19
596.727	76.19
596.937	89.19
597.146	86.19
597.355	100.19
597.564	92.19
597.774	91.19
597.983	75.19
598.192	73.19
598.401	88.19
598.61	88.19
598.819	100.19
599.028	83.19
599.237	81.19
599.446	77.19
599.655	93.19
599.864	87.19
600.073	91.19
600.282	89.19
600.491	89.19
600.7	87.19
600.909	80.19
601.118	76.19
601.327	86.19
601.536	81.19
601.745	77.19
601.953	86.19
602.162	94.19
602.371	84.19
602.58	96.19
602.789	90.19
602.997	98.19
603.206	85.19
603.415	90.19
603.623	82.19
603.832	102.19
604.041	86.19
604.249	89.19
604.458	87.19
604.666	75.19
604.875	89.19
605.084	86.19
605.292	83.19
605.501	85.19
605.709	98.19
605.918	93.19
606.126	93.19
606.334	84.19
606.543	83.19
606.751	87.19
606.96	97.19
607.168	98.19
607.376	94.19
607.585	97.19
607.793	77.19
608.001	85.19
608.21	90.19
608.418	87.19
608.626	85.19
608.834	92.19
609.043	74.19
609.251	90.19
609.459	95.19
609.667	93.19
609.875	96.19
610.083	100.19
610.291	76.19
610.499	86.19
610.707	85.19
610.916	86.19
611.124	90.19
611.332	85.19
611.54	83.19
611.748	87.19
611.955	94.19
612.163	94.19
612.371	85.19
612.579	77.19
612.787	95.19
612.995	94.19
613.203	88.19
613.411	93.19
613.618	91.19
613.826	91.19
614.034	102.19
614.242	101.19
614.449	107.19
614.657	77.19
614.865	101.19
615.072	97.19
615.28	106.19
615.488	90.19
615.695	90.19
615.903	95.19
616.111	92.19
616.318	94.19
616.526	88.19
616.733	79.19
616.941	101.19
617.148	92.19
617.356	92.19
617.563	82.19
617.771	91.19
617.978	76.19
618.185	77.19
618.393	93.19
618.6	77.19
618.807	97.19
619.015	84.19
619.222	93.19
619.429	86.19
619.637	80.19
619.844	104.19
620.051	90.19
620.258	91.19
620.466	96.19
620.673	92.19
620.88	99.19
621.087	92.19
621.294	92.19
621.501	77.19
621.708	88.19
621.915	79.19
622.122	77.19
622.329	89.19
622.536	85.19
622.743	92.19
622.95	90.19
623.157	89.19
623.364	87.19
623.571	91.19
623.778	85.19
623.985	86.19
624.192	94.19
624.399	93.19
624.606	91.19
624.812	86.19
625.019	95.19
625.226	83.19
625.433	88.19
625.639	90.19
625.846	93.19
626.053	86.19
626.259	87.19
626.466	75.19
626.673	86.19
626.879	78.19
627.086	89.19
627.293	75.19
627.499	83.19
627.706	90.19
627.912	79.19
628.119	87.19
628.325	95.19
628.532	87.19
628.738	86.19
628.945	84.19
629.151	79.19
629.357	75.19
629.564	86.19
629.77	93.19
629.976	93.19
630.183	92.19
630.389	90.19
630.595	79.19
630.802	83.19
631.008	86.19
631.214	83.19
631.42	103.19
631.627	82.19
631.833	108.19
632.039	73.19
632.245	72.19
632.451	90.19
632.657	95.19
632.863	86.19
633.069	83.19
633.275	83.19
633.481	99.19
633.688	96.19
633.893	86.19
634.099	85.19
634.305	77.19
634.511	83.19
634.717	85.19
634.923	88.19
635.129	92.19
635.335	80.19
635.541	93.19
635.747	94.19
635.952	87.19
636.158	84.19
636.364	87.19
636.57	90.19
636.775	98.19
636.981	99.19
637.187	91.19
637.392	103.19
637.598	89.19
637.804	86.19
638.009	85.19
638.215	86.19
638.421	88.19
638.626	95.19
638.832	92.19
639.037	103.19
639.243	79.19
639.448	100.19
639.654	89.19
639.859	97.19
640.065	78.19
640.27	91.19
640.475	90.19
640.681	81.19
640.886	71.19
641.091	79.19
641.297	91.19
641.502	92.19
641.707	107.19
641.913	90.19
642.118	72.19
642.323	82.19
642.528	88.19
642.733	97.19
642.939	86.19
643.144	75.19
643.349	76.19
643.554	85.19
643.759	99.19
643.964	93.19
644.169	91.19
644.374	82.19
644.579	87.19
644.784	91.19
644.989	88.19
645.194	89.19
645.399	86.19
645.604	95.19
645.809	94.19
646.014	82.19
646.219	83.19
646.423	89.19
646.628	74.19
646.833	98.19
647.038	96.19
647.243	77.19
647.447	87.19
647.652	84.19
647.857	97.19
648.062	86.19
648.266	84.19
648.471	84.19
648.676	77.19
648.88	81.19
649.085	84.19
649.289	81.19
649.494	93.19
649.698	98.19
649.903	83.19
650.107	83.19
650.312	82.19
650.516	83.19
650.721	86.19
650.925	82.19
651.13	96.19
651.334	86.19
651.539	88.19
651.743	73.19
651.947	84.19
652.152	95.19
652.356	95.19
652.56	96.19
652.764	100.19
652.969	76.19
653.173	84.19
653.377	77.19
653.581	84.19
653.785	85.19
653.99	89.19
654.194	97.19
654.398	77.19
654.602	89.19
654.806	75.19
655.01	88.19
655.214	94.19
655.418	89.19
655.622	75.19
655.826	79.19
656.03	91.19
656.234	79.19
656.438	85.19
656.642	99.19
656.846	85.19
657.049	76.19
657.253	89.19
657.457	70.19
657.661	91.19
657.865	78.19
658.068	76.19
658.272	95.19
658.476	84.19
658.68	65.19
658.883	81.19
659.087	94.19
659.291	80.19
659.494	89.19
659.698	82.19
659.901	77.19
660.105	72.19
660.309	84.19
660.512	82.19
660.716	85.19
660.919	89.19
661.123	88.19
661.326	92.19
661.53	92.19
661.733	91.19
661.936	82.19
662.14	78.19
662.343	83.19
662.546	81.19
662.75	88.19
662.953	77.19
663.156	80.19
663.36	79.19
663.563	82.19
663.766	71.19
663.969	83.19
664.173	83.19
664.376	77.19
664.579	83.19
664.782	71.19
664.985	73.19
665.188	76.19
665.391	79.19
665.594	67.19
665.797	79.19
666	83.19
666.203	77.19
666.406	91.19
666.609	85.19
666.812	76.19
667.015	84.19
667.218	95.19
667.421	78.19
667.624	72.19
667.827	79.19
668.03	74.19
668.232	87.19
668.435	75.19
668.638	78.19
668.841	88.19
669.043	83.19
669.246	67.19
669.449	83.19
669.651	83.19
669.854	85.19
670.057	78.19
670.259	85.19
670.462	87.19
670.665	80.19
670.867	81.19
671.07	95.19
671.272	93.19
671.475	88.19
671.677	81.19
671.88	87.19
672.082	77.19
672.284	95.19
672.487	101.19
672.689	85.19
672.892	81.19
