Data from Zn(NO3)2Standard.Agarose3%.GreenCap.LampEnergy10E.O_HRD10591_15-08-58-951.txt Node
Date: Mon Jul 22 15:08:58 EDT 2019
User: cochatt
Spectrometer: HR+D1059
Trigger mode: 1
Integration Time (sec): 1.000000E-1
Scans to average: 1
Electric dark correction enabled: true
Nonlinearity correction enabled: false
Boxcar width: 0
XAxis mode: Wavelengths
Number of Pixels in Spectrum: 2048
>>>>>Begin Spectral Data<<<<<
223.165	-3.94
223.4	-3.94
223.635	-3.94
223.869	-16.94
224.104	-13.94
224.338	-13.94
224.573	-0.94
224.808	-12.94
225.042	-7.94
225.277	-5.94
225.511	-1.94
225.746	3.06
225.98	4.06
226.215	16.06
226.449	-6.94
226.683	12.06
226.918	31.06
227.152	19.06
227.387	21.06
227.621	37.06
227.856	43.06
228.09	37.06
228.324	68.06
228.559	65.06
228.793	48.06
229.027	76.06
229.262	66.06
229.496	73.06
229.73	73.06
229.964	69.06
230.199	69.06
230.433	82.06
230.667	82.06
230.901	84.06
231.136	77.06
231.37	87.06
231.604	72.06
231.838	76.06
232.072	84.06
232.306	91.06
232.541	80.06
232.775	100.06
233.009	86.06
233.243	90.06
233.477	99.06
233.711	93.06
233.945	83.06
234.179	72.06
234.413	75.06
234.647	98.06
234.881	93.06
235.115	79.06
235.349	77.06
235.583	88.06
235.817	80.06
236.051	78.06
236.285	76.06
236.519	85.06
236.753	74.06
236.987	81.06
237.221	72.06
237.455	80.06
237.689	77.06
237.922	81.06
238.156	70.06
238.39	80.06
238.624	74.06
238.858	87.06
239.091	86.06
239.325	72.06
239.559	81.06
239.793	79.06
240.027	76.06
240.26	76.06
240.494	78.06
240.728	82.06
240.961	84.06
241.195	81.06
241.429	78.06
241.662	67.06
241.896	86.06
242.13	76.06
242.363	82.06
242.597	72.06
242.83	73.06
243.064	82.06
243.298	78.06
243.531	86.06
243.765	73.06
243.998	87.06
244.232	70.06
244.465	75.06
244.699	74.06
244.932	87.06
245.166	85.06
245.399	75.06
245.633	78.06
245.866	79.06
246.099	90.06
246.333	102.06
246.566	77.06
246.8	89.06
247.033	74.06
247.266	86.06
247.5	84.06
247.733	82.06
247.966	87.06
248.2	88.06
248.433	90.06
248.666	85.06
248.899	80.06
249.133	81.06
249.366	90.06
249.599	85.06
249.832	77.06
250.066	81.06
250.299	82.06
250.532	88.06
250.765	68.06
250.998	69.06
251.231	80.06
251.465	81.06
251.698	71.06
251.931	79.06
252.164	82.06
252.397	84.06
252.63	84.06
252.863	80.06
253.096	68.06
253.329	77.06
253.562	90.06
253.795	77.06
254.028	93.06
254.261	78.06
254.494	86.06
254.727	80.06
254.96	72.06
255.193	78.06
255.426	77.06
255.659	74.06
255.892	70.06
256.124	76.06
256.357	88.06
256.59	100.06
256.823	83.06
257.056	75.06
257.289	86.06
257.521	81.06
257.754	78.06
257.987	85.06
258.22	77.06
258.452	71.06
258.685	86.06
258.918	88.06
259.151	78.06
259.383	84.06
259.616	79.06
259.849	81.06
260.081	82.06
260.314	85.06
260.547	95.06
260.779	90.06
261.012	69.06
261.244	72.06
261.477	80.06
261.71	83.06
261.942	72.06
262.175	77.06
262.407	84.06
262.64	79.06
262.872	82.06
263.105	92.06
263.337	82.06
263.57	80.06
263.802	84.06
264.035	79.06
264.267	84.06
264.499	76.06
264.732	87.06
264.964	70.06
265.197	75.06
265.429	79.06
265.661	78.06
265.894	95.06
266.126	92.06
266.358	83.06
266.591	85.06
266.823	86.06
267.055	88.06
267.287	79.06
267.52	76.06
267.752	91.06
267.984	90.06
268.216	76.06
268.448	94.06
268.681	91.06
268.913	78.06
269.145	82.06
269.377	79.06
269.609	77.06
269.841	98.06
270.073	83.06
270.306	87.06
270.538	94.06
270.77	80.06
271.002	80.06
271.234	74.06
271.466	86.06
271.698	76.06
271.93	90.06
272.162	79.06
272.394	95.06
272.626	90.06
272.858	86.06
273.09	80.06
273.322	84.06
273.553	91.06
273.785	82.06
274.017	96.06
274.249	88.06
274.481	85.06
274.713	76.06
274.945	94.06
275.176	88.06
275.408	91.06
275.64	72.06
275.872	85.06
276.104	81.06
276.335	82.06
276.567	68.06
276.799	88.06
277.031	86.06
277.262	86.06
277.494	93.06
277.726	87.06
277.957	69.06
278.189	85.06
278.421	86.06
278.652	99.06
278.884	98.06
279.115	92.06
279.347	77.06
279.579	91.06
279.81	70.06
280.042	89.06
280.273	77.06
280.505	98.06
280.736	82.06
280.968	97.06
281.199	90.06
281.431	90.06
281.662	84.06
281.894	97.06
282.125	86.06
282.356	88.06
282.588	87.06
282.819	96.06
283.051	79.06
283.282	77.06
283.513	83.06
283.745	86.06
283.976	91.06
284.207	84.06
284.439	79.06
284.67	94.06
284.901	90.06
285.132	91.06
285.364	90.06
285.595	86.06
285.826	90.06
286.057	90.06
286.288	85.06
286.52	80.06
286.751	94.06
286.982	87.06
287.213	88.06
287.444	90.06
287.675	76.06
287.906	78.06
288.138	90.06
288.369	93.06
288.6	78.06
288.831	102.06
289.062	83.06
289.293	77.06
289.524	85.06
289.755	88.06
289.986	91.06
290.217	87.06
290.448	81.06
290.679	90.06
290.91	95.06
291.141	85.06
291.371	86.06
291.602	75.06
291.833	104.06
292.064	90.06
292.295	72.06
292.526	79.06
292.757	85.06
292.987	88.06
293.218	92.06
293.449	82.06
293.68	75.06
293.91	89.06
294.141	99.06
294.372	77.06
294.603	83.06
294.833	76.06
295.064	79.06
295.295	67.06
295.525	83.06
295.756	63.06
295.987	86.06
296.217	91.06
296.448	90.06
296.679	69.06
296.909	77.06
297.14	83.06
297.37	87.06
297.601	88.06
297.831	86.06
298.062	85.06
298.292	86.06
298.523	97.06
298.753	91.06
298.984	79.06
299.214	87.06
299.445	79.06
299.675	78.06
299.905	86.06
300.136	90.06
300.366	80.06
300.597	86.06
300.827	98.06
301.057	98.06
301.288	98.06
301.518	90.06
301.748	78.06
301.979	82.06
302.209	87.06
302.439	75.06
302.669	85.06
302.9	80.06
303.13	78.06
303.36	80.06
303.59	86.06
303.82	78.06
304.051	94.06
304.281	78.06
304.511	71.06
304.741	86.06
304.971	86.06
305.201	91.06
305.431	82.06
305.661	94.06
305.891	84.06
306.121	90.06
306.352	78.06
306.582	86.06
306.812	91.06
307.042	96.06
307.272	88.06
307.502	94.06
307.731	100.06
307.961	93.06
308.191	77.06
308.421	87.06
308.651	85.06
308.881	78.06
309.111	91.06
309.341	86.06
309.571	93.06
309.8	103.06
310.03	91.06
310.26	76.06
310.49	90.06
310.72	79.06
310.949	102.06
311.179	82.06
311.409	92.06
311.639	89.06
311.868	88.06
312.098	78.06
312.328	77.06
312.557	79.06
312.787	87.06
313.017	80.06
313.246	94.06
313.476	92.06
313.706	96.06
313.935	77.06
314.165	98.06
314.394	79.06
314.624	91.06
314.853	80.06
315.083	86.06
315.312	77.06
315.542	74.06
315.771	83.06
316.001	95.06
316.23	86.06
316.46	70.06
316.689	85.06
316.919	83.06
317.148	98.06
317.377	83.06
317.607	78.06
317.836	85.06
318.065	87.06
318.295	79.06
318.524	92.06
318.753	102.06
318.983	92.06
319.212	86.06
319.441	92.06
319.67	77.06
319.9	87.06
320.129	94.06
320.358	99.06
320.587	96.06
320.816	89.06
321.046	83.06
321.275	92.06
321.504	95.06
321.733	87.06
321.962	87.06
322.191	96.06
322.42	92.06
322.649	101.06
322.878	81.06
323.108	93.06
323.337	77.06
323.566	98.06
323.795	84.06
324.024	88.06
324.253	77.06
324.482	96.06
324.71	94.06
324.939	79.06
325.168	92.06
325.397	91.06
325.626	85.06
325.855	82.06
326.084	91.06
326.313	86.06
326.542	79.06
326.77	86.06
326.999	74.06
327.228	78.06
327.457	82.06
327.686	72.06
327.914	89.06
328.143	86.06
328.372	84.06
328.6	78.06
328.829	80.06
329.058	93.06
329.287	88.06
329.515	88.06
329.744	87.06
329.972	75.06
330.201	80.06
330.43	86.06
330.658	83.06
330.887	73.06
331.115	92.06
331.344	87.06
331.572	89.06
331.801	79.06
332.03	74.06
332.258	91.06
332.486	74.06
332.715	86.06
332.943	79.06
333.172	86.06
333.4	84.06
333.629	76.06
333.857	82.06
334.085	85.06
334.314	78.06
334.542	75.06
334.771	94.06
334.999	87.06
335.227	88.06
335.455	86.06
335.684	105.06
335.912	86.06
336.14	88.06
336.369	87.06
336.597	92.06
336.825	86.06
337.053	93.06
337.281	100.06
337.51	94.06
337.738	84.06
337.966	94.06
338.194	86.06
338.422	85.06
338.65	89.06
338.878	88.06
339.106	74.06
339.334	90.06
339.562	102.06
339.79	82.06
340.018	81.06
340.246	90.06
340.474	79.06
340.702	88.06
340.93	95.06
341.158	91.06
341.386	80.06
341.614	79.06
341.842	90.06
342.07	86.06
342.298	72.06
342.526	75.06
342.754	85.06
342.981	91.06
343.209	84.06
343.437	91.06
343.665	84.06
343.893	69.06
344.12	82.06
344.348	84.06
344.576	86.06
344.804	81.06
345.031	72.06
345.259	84.06
345.487	88.06
345.714	94.06
345.942	84.06
346.17	84.06
346.397	88.06
346.625	87.06
346.853	72.06
347.08	84.06
347.308	75.06
347.535	99.06
347.763	79.06
347.99	90.06
348.218	93.06
348.445	84.06
348.673	70.06
348.9	72.06
349.128	74.06
349.355	78.06
349.583	101.06
349.81	87.06
350.037	76.06
350.265	88.06
350.492	83.06
350.72	92.06
350.947	87.06
351.174	78.06
351.402	81.06
351.629	82.06
351.856	92.06
352.083	83.06
352.311	90.06
352.538	80.06
352.765	77.06
352.992	89.06
353.22	76.06
353.447	83.06
353.674	95.06
353.901	86.06
354.128	80.06
354.355	85.06
354.583	84.06
354.81	91.06
355.037	79.06
355.264	81.06
355.491	88.06
355.718	89.06
355.945	101.06
356.172	94.06
356.399	84.06
356.626	99.06
356.853	80.06
357.08	104.06
357.307	96.06
357.534	86.06
357.761	84.06
357.988	103.06
358.215	91.06
358.441	85.06
358.668	88.06
358.895	99.06
359.122	90.06
359.349	91.06
359.576	90.06
359.802	83.06
360.029	82.06
360.256	87.06
360.483	77.06
360.709	91.06
360.936	86.06
361.163	86.06
361.39	102.06
361.616	93.06
361.843	86.06
362.07	88.06
362.296	86.06
362.523	77.06
362.749	87.06
362.976	94.06
363.203	87.06
363.429	97.06
363.656	90.06
363.882	84.06
364.109	93.06
364.335	78.06
364.562	86.06
364.788	85.06
365.015	86.06
365.241	88.06
365.468	85.06
365.694	82.06
365.92	103.06
366.147	70.06
366.373	87.06
366.599	83.06
366.826	93.06
367.052	77.06
367.278	76.06
367.505	79.06
367.731	86.06
367.957	83.06
368.184	74.06
368.41	84.06
368.636	89.06
368.862	88.06
369.089	84.06
369.315	99.06
369.541	84.06
369.767	77.06
369.993	98.06
370.219	95.06
370.445	81.06
370.672	89.06
370.898	95.06
371.124	91.06
371.35	90.06
371.576	84.06
371.802	87.06
372.028	102.06
372.254	73.06
372.48	86.06
372.706	83.06
372.932	87.06
373.158	103.06
373.384	88.06
373.61	81.06
373.835	88.06
374.061	95.06
374.287	74.06
374.513	98.06
374.739	99.06
374.965	95.06
375.191	95.06
375.416	86.06
375.642	84.06
375.868	87.06
376.094	94.06
376.319	82.06
376.545	84.06
376.771	94.06
376.997	77.06
377.222	68.06
377.448	75.06
377.674	91.06
377.899	85.06
378.125	92.06
378.35	84.06
378.576	80.06
378.802	73.06
379.027	84.06
379.253	89.06
379.478	98.06
379.704	78.06
379.929	89.06
380.155	87.06
380.38	76.06
380.606	102.06
380.831	89.06
381.057	102.06
381.282	102.06
381.507	79.06
381.733	76.06
381.958	98.06
382.184	92.06
382.409	79.06
382.634	95.06
382.86	84.06
383.085	94.06
383.31	88.06
383.535	80.06
383.761	93.06
383.986	90.06
384.211	92.06
384.436	89.06
384.662	96.06
384.887	76.06
385.112	95.06
385.337	76.06
385.562	98.06
385.787	99.06
386.013	96.06
386.238	87.06
386.463	88.06
386.688	91.06
386.913	92.06
387.138	91.06
387.363	96.06
387.588	92.06
387.813	90.06
388.038	91.06
388.263	100.06
388.488	89.06
388.713	94.06
388.938	87.06
389.163	104.06
389.387	116.06
389.612	102.06
389.837	89.06
390.062	105.06
390.287	76.06
390.512	91.06
390.736	94.06
390.961	75.06
391.186	83.06
391.411	91.06
391.636	94.06
391.86	79.06
392.085	103.06
392.31	108.06
392.534	86.06
392.759	95.06
392.984	111.06
393.208	90.06
393.433	87.06
393.658	95.06
393.882	93.06
394.107	103.06
394.331	97.06
394.556	107.06
394.78	93.06
395.005	89.06
395.229	84.06
395.454	104.06
395.678	88.06
395.903	98.06
396.127	88.06
396.352	108.06
396.576	94.06
396.801	90.06
397.025	84.06
397.249	91.06
397.474	104.06
397.698	120.06
397.922	83.06
398.147	101.06
398.371	82.06
398.595	100.06
398.82	99.06
399.044	80.06
399.268	96.06
399.492	98.06
399.717	100.06
399.941	89.06
400.165	90.06
400.389	101.06
400.613	100.06
400.837	92.06
401.062	85.06
401.286	91.06
401.51	101.06
401.734	78.06
401.958	95.06
402.182	101.06
402.406	95.06
402.63	100.06
402.854	92.06
403.078	94.06
403.302	82.06
403.526	86.06
403.75	101.06
403.974	87.06
404.198	97.06
404.422	95.06
404.645	86.06
404.869	111.06
405.093	91.06
405.317	87.06
405.541	100.06
405.765	107.06
405.988	100.06
406.212	102.06
406.436	87.06
406.66	99.06
406.883	92.06
407.107	99.06
407.331	92.06
407.555	103.06
407.778	99.06
408.002	100.06
408.226	99.06
408.449	104.06
408.673	85.06
408.896	97.06
409.12	94.06
409.344	83.06
409.567	93.06
409.791	103.06
410.014	102.06
410.238	94.06
410.461	107.06
410.685	104.06
410.908	97.06
411.132	110.06
411.355	83.06
411.578	110.06
411.802	92.06
412.025	111.06
412.249	92.06
412.472	108.06
412.695	98.06
412.919	93.06
413.142	90.06
413.365	107.06
413.589	105.06
413.812	101.06
414.035	101.06
414.258	83.06
414.482	124.06
414.705	101.06
414.928	98.06
415.151	99.06
415.374	86.06
415.597	109.06
415.821	87.06
416.044	100.06
416.267	102.06
416.49	95.06
416.713	95.06
416.936	96.06
417.159	102.06
417.382	92.06
417.605	98.06
417.828	94.06
418.051	102.06
418.274	99.06
418.497	106.06
418.72	112.06
418.943	98.06
419.166	102.06
419.389	104.06
419.611	90.06
419.834	94.06
420.057	103.06
420.28	104.06
420.503	98.06
420.726	116.06
420.948	109.06
421.171	99.06
421.394	114.06
421.617	103.06
421.839	108.06
422.062	115.06
422.285	106.06
422.507	101.06
422.73	107.06
422.953	98.06
423.175	98.06
423.398	99.06
423.621	102.06
423.843	110.06
424.066	103.06
424.288	104.06
424.511	116.06
424.733	97.06
424.956	107.06
425.178	122.06
425.401	109.06
425.623	112.06
425.846	104.06
426.068	107.06
426.291	103.06
426.513	108.06
426.735	99.06
426.958	96.06
427.18	111.06
427.402	110.06
427.625	100.06
427.847	110.06
428.069	109.06
428.292	112.06
428.514	114.06
428.736	109.06
428.958	112.06
429.181	115.06
429.403	123.06
429.625	104.06
429.847	116.06
430.069	111.06
430.292	114.06
430.514	105.06
430.736	98.06
430.958	95.06
431.18	99.06
431.402	102.06
431.624	102.06
431.846	102.06
432.068	102.06
432.29	95.06
432.512	107.06
432.734	85.06
432.956	111.06
433.178	108.06
433.4	98.06
433.622	122.06
433.844	102.06
434.066	121.06
434.287	101.06
434.509	96.06
434.731	104.06
434.953	88.06
435.175	107.06
435.397	96.06
435.618	82.06
435.84	108.06
436.062	93.06
436.284	106.06
436.505	98.06
436.727	116.06
436.949	119.06
437.17	94.06
437.392	106.06
437.614	101.06
437.835	103.06
438.057	93.06
438.278	93.06
438.5	98.06
438.721	94.06
438.943	113.06
439.165	96.06
439.386	101.06
439.608	106.06
439.829	96.06
440.05	124.06
440.272	100.06
440.493	118.06
440.715	113.06
440.936	121.06
441.158	122.06
441.379	112.06
441.6	120.06
441.822	122.06
442.043	104.06
442.264	112.06
442.486	104.06
442.707	110.06
442.928	104.06
443.149	122.06
443.371	114.06
443.592	107.06
443.813	116.06
444.034	114.06
444.255	112.06
444.476	103.06
444.698	108.06
444.919	107.06
445.14	251.06
445.361	180.06
445.582	104.06
445.803	111.06
446.024	107.06
446.245	111.06
446.466	110.06
446.687	115.06
446.908	128.06
447.129	119.06
447.35	118.06
447.571	120.06
447.792	117.06
448.013	114.06
448.234	112.06
448.455	112.06
448.675	106.06
448.896	108.06
449.117	113.06
449.338	124.06
449.559	119.06
449.779	105.06
450	108.06
450.221	115.06
450.442	102.06
450.662	106.06
450.883	98.06
451.104	117.06
451.324	99.06
451.545	107.06
451.766	111.06
451.986	106.06
452.207	103.06
452.428	109.06
452.648	110.06
452.869	109.06
453.089	102.06
453.31	100.06
453.53	98.06
453.751	99.06
453.971	101.06
454.192	96.06
454.412	101.06
454.633	90.06
454.853	103.06
455.073	116.06
455.294	104.06
455.514	98.06
455.734	86.06
455.955	111.06
456.175	99.06
456.395	81.06
456.616	95.06
456.836	94.06
457.056	85.06
457.276	80.06
457.497	89.06
457.717	100.06
457.937	87.06
458.157	107.06
458.377	89.06
458.598	84.06
458.818	100.06
459.038	71.06
459.258	101.06
459.478	92.06
459.698	87.06
459.918	94.06
460.138	104.06
460.358	93.06
460.578	89.06
460.798	102.06
461.018	92.06
461.238	116.06
461.458	92.06
461.678	95.06
461.898	89.06
462.118	106.06
462.338	95.06
462.558	97.06
462.777	94.06
462.997	102.06
463.217	88.06
463.437	94.06
463.657	94.06
463.876	101.06
464.096	95.06
464.316	85.06
464.536	96.06
464.755	114.06
464.975	96.06
465.195	94.06
465.414	102.06
465.634	108.06
465.854	117.06
466.073	119.06
466.293	92.06
466.512	102.06
466.732	92.06
466.951	103.06
467.171	108.06
467.391	107.06
467.61	100.06
467.829	107.06
468.049	107.06
468.268	104.06
468.488	121.06
468.707	106.06
468.927	121.06
469.146	110.06
469.365	122.06
469.585	114.06
469.804	107.06
470.023	119.06
470.243	108.06
470.462	113.06
470.681	104.06
470.901	104.06
471.12	107.06
471.339	128.06
471.558	105.06
471.777	118.06
471.997	107.06
472.216	109.06
472.435	99.06
472.654	79.06
472.873	89.06
473.092	109.06
473.311	103.06
473.53	102.06
473.749	109.06
473.968	105.06
474.187	90.06
474.406	98.06
474.625	106.06
474.844	111.06
475.063	114.06
475.282	108.06
475.501	108.06
475.72	112.06
475.939	108.06
476.158	111.06
476.377	118.06
476.596	94.06
476.814	110.06
477.033	116.06
477.252	105.06
477.471	104.06
477.69	112.06
477.908	118.06
478.127	118.06
478.346	121.06
478.564	108.06
478.783	120.06
479.002	114.06
479.22	102.06
479.439	118.06
479.658	106.06
479.876	89.06
480.095	89.06
480.313	97.06
480.532	121.06
480.751	101.06
480.969	80.06
481.188	77.06
481.406	94.06
481.624	80.06
481.843	79.06
482.061	92.06
482.28	92.06
482.498	93.06
482.717	92.06
482.935	116.06
483.153	120.06
483.372	124.06
483.59	123.06
483.808	110.06
484.027	111.06
484.245	114.06
484.463	115.06
484.681	126.06
484.9	113.06
485.118	119.06
485.336	114.06
485.554	111.06
485.772	111.06
485.99	85.06
486.209	104.06
486.427	107.06
486.645	118.06
486.863	109.06
487.081	116.06
487.299	109.06
487.517	106.06
487.735	103.06
487.953	126.06
488.171	128.06
488.389	119.06
488.607	120.06
488.825	115.06
489.043	87.06
489.261	97.06
489.479	109.06
489.696	113.06
489.914	120.06
490.132	107.06
490.35	124.06
490.568	115.06
490.786	127.06
491.003	131.06
491.221	134.06
491.439	139.06
491.657	137.06
491.874	139.06
492.092	160.06
492.31	148.06
492.527	157.06
492.745	150.06
492.963	139.06
493.18	146.06
493.398	151.06
493.615	134.06
493.833	128.06
494.05	142.06
494.268	128.06
494.485	137.06
494.703	128.06
494.92	118.06
495.138	129.06
495.355	122.06
495.573	132.06
495.79	116.06
496.008	133.06
496.225	136.06
496.442	131.06
496.66	128.06
496.877	126.06
497.094	121.06
497.312	121.06
497.529	116.06
497.746	127.06
497.963	114.06
498.181	106.06
498.398	103.06
498.615	104.06
498.832	110.06
499.049	97.06
499.267	107.06
499.484	102.06
499.701	106.06
499.918	120.06
500.135	103.06
500.352	112.06
500.569	108.06
500.786	127.06
501.003	117.06
501.22	103.06
501.437	101.06
501.654	109.06
501.871	126.06
502.088	115.06
502.305	108.06
502.522	117.06
502.739	118.06
502.956	109.06
503.172	94.06
503.389	98.06
503.606	103.06
503.823	114.06
504.04	106.06
504.256	107.06
504.473	92.06
504.69	104.06
504.907	113.06
505.123	103.06
505.34	110.06
505.557	107.06
505.773	102.06
505.99	104.06
506.207	108.06
506.423	99.06
506.64	100.06
506.856	101.06
507.073	107.06
507.289	102.06
507.506	103.06
507.722	99.06
507.939	97.06
508.155	100.06
508.372	91.06
508.588	101.06
508.805	101.06
509.021	93.06
509.238	99.06
509.454	107.06
509.67	82.06
509.887	99.06
510.103	88.06
510.319	87.06
510.536	94.06
510.752	91.06
510.968	87.06
511.184	95.06
511.401	81.06
511.617	93.06
511.833	86.06
512.049	102.06
512.265	95.06
512.481	90.06
512.698	90.06
512.914	93.06
513.13	94.06
513.346	91.06
513.562	87.06
513.778	85.06
513.994	84.06
514.21	90.06
514.426	86.06
514.642	80.06
514.858	89.06
515.074	89.06
515.29	84.06
515.506	100.06
515.721	86.06
515.937	94.06
516.153	79.06
516.369	99.06
516.585	85.06
516.801	102.06
517.016	93.06
517.232	91.06
517.448	92.06
517.664	83.06
517.879	92.06
518.095	101.06
518.311	87.06
518.527	98.06
518.742	99.06
518.958	99.06
519.173	105.06
519.389	99.06
519.605	95.06
519.82	93.06
520.036	83.06
520.251	99.06
520.467	105.06
520.682	85.06
520.898	88.06
521.113	87.06
521.329	88.06
521.544	82.06
521.76	76.06
521.975	103.06
522.19	85.06
522.406	90.06
522.621	85.06
522.836	102.06
523.052	91.06
523.267	93.06
523.482	97.06
523.698	101.06
523.913	102.06
524.128	108.06
524.343	89.06
524.559	93.06
524.774	104.06
524.989	104.06
525.204	106.06
525.419	120.06
525.634	102.06
525.849	115.06
526.064	94.06
526.28	100.06
526.495	80.06
526.71	83.06
526.925	71.06
527.14	79.06
527.355	81.06
527.57	90.06
527.785	87.06
527.999	90.06
528.214	102.06
528.429	93.06
528.644	111.06
528.859	101.06
529.074	122.06
529.289	124.06
529.503	121.06
529.718	97.06
529.933	102.06
530.148	107.06
530.363	95.06
530.577	102.06
530.792	81.06
531.007	75.06
531.221	78.06
531.436	87.06
531.651	84.06
531.865	84.06
532.08	82.06
532.295	93.06
532.509	83.06
532.724	86.06
532.938	82.06
533.153	101.06
533.367	101.06
533.582	98.06
533.796	109.06
534.011	80.06
534.225	97.06
534.44	87.06
534.654	96.06
534.868	103.06
535.083	89.06
535.297	102.06
535.511	97.06
535.726	84.06
535.94	97.06
536.154	85.06
536.369	86.06
536.583	98.06
536.797	99.06
537.011	78.06
537.225	82.06
537.44	100.06
537.654	83.06
537.868	96.06
538.082	92.06
538.296	88.06
538.51	95.06
538.724	94.06
538.938	111.06
539.153	105.06
539.367	120.06
539.581	100.06
539.795	91.06
540.009	105.06
540.222	108.06
540.436	82.06
540.65	88.06
540.864	103.06
541.078	118.06
541.292	122.06
541.506	127.06
541.72	133.06
541.934	145.06
542.147	148.06
542.361	130.06
542.575	139.06
542.789	123.06
543.002	109.06
543.216	105.06
543.43	90.06
543.644	107.06
543.857	107.06
544.071	110.06
544.285	124.06
544.498	111.06
544.712	118.06
544.925	120.06
545.139	123.06
545.352	115.06
545.566	117.06
545.779	123.06
545.993	116.06
546.206	139.06
546.42	134.06
546.633	126.06
546.847	124.06
547.06	137.06
547.274	106.06
547.487	110.06
547.7	126.06
547.914	125.06
548.127	123.06
548.34	124.06
548.554	117.06
548.767	131.06
548.98	125.06
549.193	111.06
549.407	120.06
549.62	124.06
549.833	115.06
550.046	125.06
550.259	130.06
550.473	97.06
550.686	116.06
550.899	128.06
551.112	107.06
551.325	118.06
551.538	96.06
551.751	104.06
551.964	115.06
552.177	126.06
552.39	108.06
552.603	121.06
552.816	126.06
553.029	127.06
553.242	127.06
553.455	115.06
553.667	131.06
553.88	116.06
554.093	123.06
554.306	118.06
554.519	106.06
554.732	122.06
554.944	124.06
555.157	116.06
555.37	124.06
555.583	123.06
555.795	121.06
556.008	106.06
556.221	117.06
556.433	115.06
556.646	95.06
556.859	103.06
557.071	103.06
557.284	106.06
557.496	113.06
557.709	113.06
557.921	132.06
558.134	108.06
558.346	111.06
558.559	101.06
558.771	120.06
558.984	119.06
559.196	97.06
559.409	96.06
559.621	106.06
559.833	108.06
560.046	107.06
560.258	121.06
560.47	110.06
560.683	102.06
560.895	103.06
561.107	95.06
561.32	96.06
561.532	96.06
561.744	111.06
561.956	93.06
562.168	114.06
562.381	107.06
562.593	114.06
562.805	107.06
563.017	108.06
563.229	116.06
563.441	105.06
563.653	106.06
563.865	102.06
564.077	104.06
564.289	93.06
564.501	105.06
564.713	101.06
564.925	103.06
565.137	95.06
565.349	92.06
565.561	94.06
565.773	118.06
565.985	91.06
566.197	85.06
566.408	103.06
566.62	104.06
566.832	105.06
567.044	109.06
567.255	87.06
567.467	102.06
567.679	114.06
567.891	111.06
568.102	104.06
568.314	88.06
568.526	81.06
568.737	88.06
568.949	85.06
569.161	90.06
569.372	93.06
569.584	102.06
569.795	94.06
570.007	83.06
570.218	85.06
570.43	99.06
570.641	100.06
570.853	79.06
571.064	105.06
571.276	93.06
571.487	97.06
571.698	103.06
571.91	98.06
572.121	89.06
572.333	100.06
572.544	97.06
572.755	83.06
572.966	85.06
573.178	76.06
573.389	81.06
573.6	76.06
573.811	89.06
574.023	100.06
574.234	84.06
574.445	91.06
574.656	93.06
574.867	107.06
575.078	93.06
575.289	91.06
575.501	100.06
575.712	104.06
575.923	96.06
576.134	97.06
576.345	96.06
576.556	105.06
576.767	103.06
576.978	93.06
577.188	87.06
577.399	90.06
577.61	98.06
577.821	94.06
578.032	109.06
578.243	80.06
578.454	91.06
578.665	84.06
578.875	90.06
579.086	95.06
579.297	81.06
579.508	103.06
579.718	88.06
579.929	89.06
580.14	95.06
580.35	90.06
580.561	75.06
580.772	111.06
580.982	62.06
581.193	86.06
581.403	87.06
581.614	89.06
581.825	87.06
582.035	91.06
582.246	99.06
582.456	102.06
582.667	79.06
582.877	99.06
583.087	84.06
583.298	95.06
583.508	81.06
583.719	83.06
583.929	94.06
584.139	90.06
584.35	94.06
584.56	92.06
584.77	89.06
584.981	95.06
585.191	93.06
585.401	76.06
585.611	76.06
585.821	91.06
586.032	96.06
586.242	77.06
586.452	81.06
586.662	96.06
586.872	86.06
587.082	95.06
587.292	77.06
587.502	76.06
587.713	94.06
587.923	85.06
588.133	72.06
588.343	82.06
588.553	80.06
588.762	91.06
588.972	75.06
589.182	98.06
589.392	96.06
589.602	84.06
589.812	64.06
590.022	92.06
590.232	83.06
590.441	92.06
590.651	78.06
590.861	84.06
591.071	77.06
591.281	105.06
591.49	89.06
591.7	94.06
591.91	82.06
592.119	89.06
592.329	87.06
592.539	83.06
592.748	99.06
592.958	90.06
593.167	92.06
593.377	95.06
593.587	88.06
593.796	83.06
594.006	79.06
594.215	75.06
594.424	85.06
594.634	79.06
594.843	104.06
595.053	100.06
595.262	91.06
595.472	78.06
595.681	92.06
595.89	85.06
596.1	85.06
596.309	83.06
596.518	96.06
596.727	100.06
596.937	89.06
597.146	83.06
597.355	103.06
597.564	96.06
597.774	84.06
597.983	85.06
598.192	75.06
598.401	80.06
598.61	95.06
598.819	89.06
599.028	91.06
599.237	81.06
599.446	86.06
599.655	81.06
599.864	101.06
600.073	90.06
600.282	90.06
600.491	95.06
600.7	109.06
600.909	85.06
601.118	88.06
601.327	102.06
601.536	106.06
601.745	99.06
601.953	100.06
602.162	96.06
602.371	91.06
602.58	101.06
602.789	100.06
602.997	92.06
603.206	101.06
603.415	91.06
603.623	104.06
603.832	112.06
604.041	92.06
604.249	95.06
604.458	95.06
604.666	85.06
604.875	90.06
605.084	105.06
605.292	98.06
605.501	91.06
605.709	107.06
605.918	96.06
606.126	97.06
606.334	116.06
606.543	96.06
606.751	99.06
606.96	97.06
607.168	89.06
607.376	87.06
607.585	95.06
607.793	99.06
608.001	85.06
608.21	108.06
608.418	93.06
608.626	97.06
608.834	114.06
609.043	88.06
609.251	104.06
609.459	119.06
609.667	98.06
609.875	118.06
610.083	109.06
610.291	109.06
610.499	97.06
610.707	108.06
610.916	77.06
611.124	97.06
611.332	86.06
611.54	97.06
611.748	104.06
611.955	105.06
612.163	98.06
612.371	102.06
612.579	94.06
612.787	106.06
612.995	95.06
613.203	97.06
613.411	89.06
613.618	98.06
613.826	88.06
614.034	89.06
614.242	101.06
614.449	90.06
614.657	99.06
614.865	101.06
615.072	104.06
615.28	103.06
615.488	99.06
615.695	95.06
615.903	92.06
616.111	105.06
616.318	94.06
616.526	95.06
616.733	107.06
616.941	105.06
617.148	106.06
617.356	93.06
617.563	114.06
617.771	107.06
617.978	99.06
618.185	100.06
618.393	99.06
618.6	83.06
618.807	99.06
619.015	95.06
619.222	108.06
619.429	118.06
619.637	106.06
619.844	96.06
620.051	90.06
620.258	101.06
620.466	96.06
620.673	107.06
620.88	98.06
621.087	114.06
621.294	114.06
621.501	95.06
621.708	88.06
621.915	91.06
622.122	73.06
622.329	111.06
622.536	98.06
622.743	95.06
622.95	95.06
623.157	104.06
623.364	88.06
623.571	105.06
623.778	86.06
623.985	95.06
624.192	102.06
624.399	105.06
624.606	91.06
624.812	96.06
625.019	97.06
625.226	97.06
625.433	99.06
625.639	99.06
625.846	98.06
626.053	93.06
626.259	91.06
626.466	108.06
626.673	89.06
626.879	86.06
627.086	95.06
627.293	84.06
627.499	101.06
627.706	88.06
627.912	83.06
628.119	102.06
628.325	103.06
628.532	91.06
628.738	80.06
628.945	94.06
629.151	91.06
629.357	80.06
629.564	92.06
629.77	98.06
629.976	88.06
630.183	86.06
630.389	96.06
630.595	82.06
630.802	82.06
631.008	101.06
631.214	87.06
631.42	88.06
631.627	91.06
631.833	96.06
632.039	93.06
632.245	97.06
632.451	95.06
632.657	87.06
632.863	102.06
633.069	92.06
633.275	90.06
633.481	87.06
633.688	86.06
633.893	89.06
634.099	100.06
634.305	106.06
634.511	81.06
634.717	101.06
634.923	87.06
635.129	80.06
635.335	100.06
635.541	98.06
635.747	86.06
635.952	99.06
636.158	97.06
636.364	92.06
636.57	107.06
636.775	91.06
636.981	88.06
637.187	99.06
637.392	100.06
637.598	104.06
637.804	102.06
638.009	90.06
638.215	97.06
638.421	107.06
638.626	87.06
638.832	93.06
639.037	110.06
639.243	89.06
639.448	94.06
639.654	94.06
639.859	99.06
640.065	87.06
640.27	94.06
640.475	89.06
640.681	81.06
640.886	99.06
641.091	93.06
641.297	97.06
641.502	77.06
641.707	82.06
641.913	89.06
642.118	76.06
642.323	99.06
642.528	86.06
642.733	88.06
642.939	95.06
643.144	78.06
643.349	93.06
643.554	99.06
643.759	87.06
643.964	76.06
644.169	90.06
644.374	93.06
644.579	97.06
644.784	86.06
644.989	99.06
645.194	92.06
645.399	85.06
645.604	86.06
645.809	75.06
646.014	91.06
646.219	80.06
646.423	83.06
646.628	86.06
646.833	93.06
647.038	101.06
647.243	94.06
647.447	96.06
647.652	85.06
647.857	86.06
648.062	74.06
648.266	76.06
648.471	94.06
648.676	98.06
648.88	80.06
649.085	93.06
649.289	83.06
649.494	87.06
649.698	104.06
649.903	110.06
650.107	105.06
650.312	86.06
650.516	86.06
650.721	88.06
650.925	85.06
651.13	105.06
651.334	92.06
651.539	101.06
651.743	98.06
651.947	91.06
652.152	93.06
652.356	73.06
652.56	92.06
652.764	104.06
652.969	98.06
653.173	96.06
653.377	79.06
653.581	91.06
653.785	83.06
653.99	90.06
654.194	86.06
654.398	86.06
654.602	70.06
654.806	78.06
655.01	92.06
655.214	93.06
655.418	88.06
655.622	83.06
655.826	87.06
656.03	73.06
656.234	85.06
656.438	86.06
656.642	89.06
656.846	92.06
657.049	77.06
657.253	89.06
657.457	84.06
657.661	92.06
657.865	87.06
658.068	74.06
658.272	79.06
658.476	81.06
658.68	73.06
658.883	76.06
659.087	89.06
659.291	86.06
659.494	79.06
659.698	87.06
659.901	84.06
660.105	93.06
660.309	92.06
660.512	85.06
660.716	88.06
660.919	94.06
661.123	93.06
661.326	82.06
661.53	84.06
661.733	86.06
661.936	75.06
662.14	86.06
662.343	84.06
662.546	92.06
662.75	80.06
662.953	69.06
663.156	86.06
663.36	74.06
663.563	88.06
663.766	76.06
663.969	99.06
664.173	88.06
664.376	90.06
664.579	84.06
664.782	91.06
664.985	89.06
665.188	81.06
665.391	86.06
665.594	91.06
665.797	76.06
666	76.06
666.203	87.06
666.406	100.06
666.609	77.06
666.812	77.06
667.015	73.06
667.218	80.06
667.421	74.06
667.624	93.06
667.827	81.06
668.03	81.06
668.232	86.06
668.435	83.06
668.638	84.06
668.841	87.06
669.043	84.06
669.246	76.06
669.449	83.06
669.651	107.06
669.854	80.06
670.057	83.06
670.259	80.06
670.462	81.06
670.665	92.06
670.867	96.06
671.07	77.06
671.272	78.06
671.475	77.06
671.677	78.06
671.88	92.06
672.082	86.06
672.284	83.06
672.487	88.06
672.689	83.06
672.892	79.06
