Data from Zn(NO3)2Standard.Agarose3%.GreenCap.LampEnergy5.5.E.O_HRD10591_15-03-36-768.txt Node
Date: Mon Jul 22 15:03:36 EDT 2019
User: cochatt
Spectrometer: HR+D1059
Trigger mode: 1
Integration Time (sec): 1.000000E-1
Scans to average: 1
Electric dark correction enabled: true
Nonlinearity correction enabled: false
Boxcar width: 0
XAxis mode: Wavelengths
Number of Pixels in Spectrum: 2048
>>>>>Begin Spectral Data<<<<<
223.165	-5.31
223.4	-5.31
223.635	-5.31
223.869	-24.31
224.104	-29.31
224.338	-15.31
224.573	-15.31
224.808	-5.31
225.042	4.69
225.277	-11.31
225.511	0.69
225.746	12.69
225.98	9.69
226.215	5.69
226.449	13.69
226.683	18.69
226.918	19.69
227.152	20.69
227.387	26.69
227.621	30.69
227.856	51.69
228.09	43.69
228.324	35.69
228.559	56.69
228.793	58.69
229.027	59.69
229.262	59.69
229.496	60.69
229.73	70.69
229.964	78.69
230.199	69.69
230.433	75.69
230.667	76.69
230.901	71.69
231.136	77.69
231.37	73.69
231.604	80.69
231.838	85.69
232.072	87.69
232.306	78.69
232.541	74.69
232.775	75.69
233.009	77.69
233.243	91.69
233.477	71.69
233.711	81.69
233.945	68.69
234.179	76.69
234.413	75.69
234.647	80.69
234.881	73.69
235.115	87.69
235.349	77.69
235.583	73.69
235.817	76.69
236.051	64.69
236.285	77.69
236.519	74.69
236.753	73.69
236.987	71.69
237.221	69.69
237.455	79.69
237.689	75.69
237.922	79.69
238.156	79.69
238.39	84.69
238.624	78.69
238.858	72.69
239.091	79.69
239.325	69.69
239.559	76.69
239.793	75.69
240.027	72.69
240.26	73.69
240.494	82.69
240.728	72.69
240.961	91.69
241.195	72.69
241.429	64.69
241.662	66.69
241.896	76.69
242.13	73.69
242.363	85.69
242.597	78.69
242.83	72.69
243.064	67.69
243.298	79.69
243.531	82.69
243.765	80.69
243.998	72.69
244.232	81.69
244.465	74.69
244.699	75.69
244.932	82.69
245.166	83.69
245.399	84.69
245.633	75.69
245.866	73.69
246.099	87.69
246.333	86.69
246.566	79.69
246.8	75.69
247.033	76.69
247.266	73.69
247.5	80.69
247.733	91.69
247.966	88.69
248.2	87.69
248.433	78.69
248.666	86.69
248.899	72.69
249.133	82.69
249.366	75.69
249.599	60.69
249.832	75.69
250.066	88.69
250.299	65.69
250.532	86.69
250.765	78.69
250.998	69.69
251.231	66.69
251.465	61.69
251.698	80.69
251.931	71.69
252.164	72.69
252.397	83.69
252.63	87.69
252.863	75.69
253.096	64.69
253.329	87.69
253.562	74.69
253.795	78.69
254.028	81.69
254.261	82.69
254.494	73.69
254.727	92.69
254.96	80.69
255.193	77.69
255.426	73.69
255.659	89.69
255.892	82.69
256.124	73.69
256.357	76.69
256.59	73.69
256.823	84.69
257.056	94.69
257.289	86.69
257.521	85.69
257.754	91.69
257.987	93.69
258.22	88.69
258.452	83.69
258.685	76.69
258.918	66.69
259.151	72.69
259.383	72.69
259.616	78.69
259.849	79.69
260.081	86.69
260.314	84.69
260.547	86.69
260.779	84.69
261.012	82.69
261.244	76.69
261.477	95.69
261.71	81.69
261.942	90.69
262.175	89.69
262.407	77.69
262.64	79.69
262.872	74.69
263.105	72.69
263.337	76.69
263.57	72.69
263.802	85.69
264.035	71.69
264.267	75.69
264.499	90.69
264.732	78.69
264.964	89.69
265.197	78.69
265.429	72.69
265.661	84.69
265.894	86.69
266.126	92.69
266.358	84.69
266.591	72.69
266.823	85.69
267.055	73.69
267.287	91.69
267.52	70.69
267.752	77.69
267.984	91.69
268.216	89.69
268.448	92.69
268.681	91.69
268.913	75.69
269.145	94.69
269.377	84.69
269.609	77.69
269.841	79.69
270.073	79.69
270.306	88.69
270.538	72.69
270.77	73.69
271.002	80.69
271.234	91.69
271.466	98.69
271.698	72.69
271.93	72.69
272.162	93.69
272.394	85.69
272.626	80.69
272.858	92.69
273.09	68.69
273.322	83.69
273.553	82.69
273.785	67.69
274.017	75.69
274.249	94.69
274.481	81.69
274.713	91.69
274.945	79.69
275.176	90.69
275.408	85.69
275.64	81.69
275.872	91.69
276.104	80.69
276.335	87.69
276.567	80.69
276.799	85.69
277.031	83.69
277.262	73.69
277.494	92.69
277.726	80.69
277.957	82.69
278.189	84.69
278.421	82.69
278.652	91.69
278.884	80.69
279.115	83.69
279.347	76.69
279.579	77.69
279.81	83.69
280.042	76.69
280.273	87.69
280.505	73.69
280.736	87.69
280.968	80.69
281.199	91.69
281.431	88.69
281.662	81.69
281.894	79.69
282.125	80.69
282.356	74.69
282.588	70.69
282.819	83.69
283.051	81.69
283.282	83.69
283.513	85.69
283.745	84.69
283.976	72.69
284.207	86.69
284.439	80.69
284.67	84.69
284.901	95.69
285.132	84.69
285.364	94.69
285.595	74.69
285.826	64.69
286.057	76.69
286.288	83.69
286.52	84.69
286.751	81.69
286.982	74.69
287.213	93.69
287.444	88.69
287.675	91.69
287.906	70.69
288.138	83.69
288.369	83.69
288.6	90.69
288.831	82.69
289.062	90.69
289.293	79.69
289.524	76.69
289.755	81.69
289.986	88.69
290.217	68.69
290.448	79.69
290.679	87.69
290.91	92.69
291.141	96.69
291.371	77.69
291.602	87.69
291.833	88.69
292.064	72.69
292.295	67.69
292.526	75.69
292.757	79.69
292.987	74.69
293.218	89.69
293.449	98.69
293.68	85.69
293.91	87.69
294.141	77.69
294.372	72.69
294.603	90.69
294.833	65.69
295.064	78.69
295.295	84.69
295.525	72.69
295.756	80.69
295.987	92.69
296.217	77.69
296.448	86.69
296.679	96.69
296.909	82.69
297.14	96.69
297.37	69.69
297.601	76.69
297.831	80.69
298.062	81.69
298.292	73.69
298.523	85.69
298.753	99.69
298.984	84.69
299.214	68.69
299.445	95.69
299.675	72.69
299.905	91.69
300.136	90.69
300.366	78.69
300.597	80.69
300.827	99.69
301.057	90.69
301.288	80.69
301.518	76.69
301.748	78.69
301.979	82.69
302.209	76.69
302.439	74.69
302.669	79.69
302.9	85.69
303.13	81.69
303.36	75.69
303.59	91.69
303.82	97.69
304.051	87.69
304.281	88.69
304.511	80.69
304.741	71.69
304.971	81.69
305.201	84.69
305.431	74.69
305.661	85.69
305.891	90.69
306.121	85.69
306.352	86.69
306.582	72.69
306.812	101.69
307.042	84.69
307.272	82.69
307.502	86.69
307.731	87.69
307.961	83.69
308.191	72.69
308.421	84.69
308.651	78.69
308.881	90.69
309.111	81.69
309.341	91.69
309.571	80.69
309.8	78.69
310.03	80.69
310.26	86.69
310.49	77.69
310.72	75.69
310.949	69.69
311.179	77.69
311.409	104.69
311.639	88.69
311.868	83.69
312.098	77.69
312.328	92.69
312.557	82.69
312.787	73.69
313.017	93.69
313.246	82.69
313.476	85.69
313.706	87.69
313.935	86.69
314.165	79.69
314.394	84.69
314.624	84.69
314.853	82.69
315.083	92.69
315.312	72.69
315.542	84.69
315.771	79.69
316.001	84.69
316.23	89.69
316.46	95.69
316.689	74.69
316.919	71.69
317.148	86.69
317.377	88.69
317.607	77.69
317.836	84.69
318.065	87.69
318.295	86.69
318.524	73.69
318.753	76.69
318.983	77.69
319.212	61.69
319.441	85.69
319.67	86.69
319.9	82.69
320.129	74.69
320.358	94.69
320.587	90.69
320.816	84.69
321.046	89.69
321.275	84.69
321.504	87.69
321.733	72.69
321.962	75.69
322.191	80.69
322.42	84.69
322.649	80.69
322.878	91.69
323.108	90.69
323.337	88.69
323.566	82.69
323.795	75.69
324.024	84.69
324.253	81.69
324.482	93.69
324.71	80.69
324.939	84.69
325.168	87.69
325.397	81.69
325.626	76.69
325.855	92.69
326.084	90.69
326.313	100.69
326.542	86.69
326.77	75.69
326.999	80.69
327.228	88.69
327.457	77.69
327.686	83.69
327.914	84.69
328.143	89.69
328.372	91.69
328.6	76.69
328.829	76.69
329.058	88.69
329.287	93.69
329.515	86.69
329.744	87.69
329.972	87.69
330.201	83.69
330.43	88.69
330.658	79.69
330.887	68.69
331.115	89.69
331.344	81.69
331.572	85.69
331.801	86.69
332.03	83.69
332.258	90.69
332.486	95.69
332.715	86.69
332.943	97.69
333.172	92.69
333.4	85.69
333.629	83.69
333.857	90.69
334.085	87.69
334.314	76.69
334.542	80.69
334.771	81.69
334.999	74.69
335.227	86.69
335.455	87.69
335.684	93.69
335.912	82.69
336.14	83.69
336.369	73.69
336.597	94.69
336.825	90.69
337.053	77.69
337.281	96.69
337.51	77.69
337.738	88.69
337.966	75.69
338.194	88.69
338.422	75.69
338.65	61.69
338.878	85.69
339.106	75.69
339.334	82.69
339.562	77.69
339.79	70.69
340.018	77.69
340.246	70.69
340.474	81.69
340.702	81.69
340.93	85.69
341.158	72.69
341.386	82.69
341.614	77.69
341.842	80.69
342.07	80.69
342.298	96.69
342.526	89.69
342.754	73.69
342.981	91.69
343.209	75.69
343.437	94.69
343.665	80.69
343.893	77.69
344.12	83.69
344.348	77.69
344.576	86.69
344.804	76.69
345.031	84.69
345.259	76.69
345.487	100.69
345.714	93.69
345.942	86.69
346.17	102.69
346.397	80.69
346.625	88.69
346.853	78.69
347.08	81.69
347.308	81.69
347.535	74.69
347.763	77.69
347.99	80.69
348.218	91.69
348.445	82.69
348.673	86.69
348.9	78.69
349.128	92.69
349.355	83.69
349.583	89.69
349.81	80.69
350.037	83.69
350.265	91.69
350.492	89.69
350.72	80.69
350.947	79.69
351.174	84.69
351.402	86.69
351.629	87.69
351.856	94.69
352.083	80.69
352.311	89.69
352.538	92.69
352.765	83.69
352.992	93.69
353.22	77.69
353.447	80.69
353.674	82.69
353.901	90.69
354.128	90.69
354.355	78.69
354.583	75.69
354.81	86.69
355.037	86.69
355.264	79.69
355.491	80.69
355.718	72.69
355.945	89.69
356.172	88.69
356.399	82.69
356.626	81.69
356.853	79.69
357.08	83.69
357.307	97.69
357.534	75.69
357.761	77.69
357.988	92.69
358.215	91.69
358.441	75.69
358.668	79.69
358.895	79.69
359.122	82.69
359.349	81.69
359.576	78.69
359.802	80.69
360.029	75.69
360.256	88.69
360.483	77.69
360.709	95.69
360.936	79.69
361.163	83.69
361.39	82.69
361.616	82.69
361.843	87.69
362.07	77.69
362.296	75.69
362.523	93.69
362.749	74.69
362.976	75.69
363.203	89.69
363.429	90.69
363.656	85.69
363.882	94.69
364.109	88.69
364.335	95.69
364.562	84.69
364.788	80.69
365.015	81.69
365.241	84.69
365.468	79.69
365.694	89.69
365.92	75.69
366.147	82.69
366.373	81.69
366.599	76.69
366.826	81.69
367.052	81.69
367.278	88.69
367.505	79.69
367.731	91.69
367.957	92.69
368.184	84.69
368.41	87.69
368.636	84.69
368.862	88.69
369.089	78.69
369.315	88.69
369.541	84.69
369.767	85.69
369.993	95.69
370.219	77.69
370.445	79.69
370.672	94.69
370.898	95.69
371.124	81.69
371.35	82.69
371.576	93.69
371.802	81.69
372.028	68.69
372.254	91.69
372.48	88.69
372.706	72.69
372.932	69.69
373.158	69.69
373.384	76.69
373.61	95.69
373.835	76.69
374.061	73.69
374.287	89.69
374.513	89.69
374.739	80.69
374.965	89.69
375.191	79.69
375.416	90.69
375.642	77.69
375.868	91.69
376.094	87.69
376.319	93.69
376.545	92.69
376.771	74.69
376.997	81.69
377.222	95.69
377.448	89.69
377.674	80.69
377.899	77.69
378.125	85.69
378.35	73.69
378.576	85.69
378.802	75.69
379.027	77.69
379.253	88.69
379.478	83.69
379.704	83.69
379.929	74.69
380.155	81.69
380.38	87.69
380.606	87.69
380.831	80.69
381.057	78.69
381.282	86.69
381.507	109.69
381.733	85.69
381.958	72.69
382.184	98.69
382.409	69.69
382.634	79.69
382.86	96.69
383.085	84.69
383.31	91.69
383.535	74.69
383.761	74.69
383.986	77.69
384.211	85.69
384.436	82.69
384.662	80.69
384.887	96.69
385.112	92.69
385.337	84.69
385.562	95.69
385.787	95.69
386.013	81.69
386.238	88.69
386.463	86.69
386.688	94.69
386.913	84.69
387.138	87.69
387.363	77.69
387.588	88.69
387.813	85.69
388.038	89.69
388.263	90.69
388.488	91.69
388.713	85.69
388.938	75.69
389.163	76.69
389.387	99.69
389.612	82.69
389.837	77.69
390.062	88.69
390.287	83.69
390.512	84.69
390.736	70.69
390.961	85.69
391.186	78.69
391.411	85.69
391.636	77.69
391.86	87.69
392.085	86.69
392.31	92.69
392.534	91.69
392.759	87.69
392.984	73.69
393.208	64.69
393.433	89.69
393.658	87.69
393.882	84.69
394.107	83.69
394.331	90.69
394.556	84.69
394.78	96.69
395.005	82.69
395.229	81.69
395.454	91.69
395.678	84.69
395.903	76.69
396.127	75.69
396.352	73.69
396.576	84.69
396.801	83.69
397.025	85.69
397.249	78.69
397.474	89.69
397.698	92.69
397.922	82.69
398.147	91.69
398.371	85.69
398.595	87.69
398.82	89.69
399.044	79.69
399.268	81.69
399.492	91.69
399.717	96.69
399.941	78.69
400.165	79.69
400.389	82.69
400.613	93.69
400.837	84.69
401.062	76.69
401.286	85.69
401.51	90.69
401.734	79.69
401.958	83.69
402.182	80.69
402.406	75.69
402.63	86.69
402.854	85.69
403.078	82.69
403.302	98.69
403.526	93.69
403.75	77.69
403.974	80.69
404.198	85.69
404.422	90.69
404.645	93.69
404.869	99.69
405.093	81.69
405.317	95.69
405.541	73.69
405.765	73.69
405.988	84.69
406.212	81.69
406.436	86.69
406.66	78.69
406.883	85.69
407.107	83.69
407.331	77.69
407.555	83.69
407.778	88.69
408.002	79.69
408.226	90.69
408.449	78.69
408.673	100.69
408.896	92.69
409.12	83.69
409.344	82.69
409.567	82.69
409.791	83.69
410.014	71.69
410.238	73.69
410.461	104.69
410.685	80.69
410.908	95.69
411.132	84.69
411.355	67.69
411.578	86.69
411.802	80.69
412.025	85.69
412.249	94.69
412.472	82.69
412.695	95.69
412.919	89.69
413.142	81.69
413.365	61.69
413.589	76.69
413.812	93.69
414.035	84.69
414.258	85.69
414.482	87.69
414.705	81.69
414.928	91.69
415.151	82.69
415.374	92.69
415.597	92.69
415.821	78.69
416.044	104.69
416.267	97.69
416.49	102.69
416.713	92.69
416.936	90.69
417.159	79.69
417.382	83.69
417.605	81.69
417.828	92.69
418.051	83.69
418.274	89.69
418.497	72.69
418.72	86.69
418.943	97.69
419.166	89.69
419.389	94.69
419.611	96.69
419.834	100.69
420.057	90.69
420.28	92.69
420.503	89.69
420.726	100.69
420.948	74.69
421.171	97.69
421.394	90.69
421.617	98.69
421.839	83.69
422.062	86.69
422.285	96.69
422.507	83.69
422.73	84.69
422.953	68.69
423.175	80.69
423.398	90.69
423.621	95.69
423.843	84.69
424.066	86.69
424.288	85.69
424.511	92.69
424.733	92.69
424.956	80.69
425.178	85.69
425.401	89.69
425.623	91.69
425.846	85.69
426.068	86.69
426.291	77.69
426.513	86.69
426.735	94.69
426.958	87.69
427.18	69.69
427.402	77.69
427.625	93.69
427.847	95.69
428.069	92.69
428.292	87.69
428.514	90.69
428.736	86.69
428.958	94.69
429.181	99.69
429.403	84.69
429.625	77.69
429.847	90.69
430.069	80.69
430.292	91.69
430.514	89.69
430.736	86.69
430.958	82.69
431.18	97.69
431.402	85.69
431.624	95.69
431.846	81.69
432.068	87.69
432.29	95.69
432.512	85.69
432.734	76.69
432.956	83.69
433.178	92.69
433.4	88.69
433.622	82.69
433.844	89.69
434.066	90.69
434.287	84.69
434.509	79.69
434.731	87.69
434.953	90.69
435.175	77.69
435.397	96.69
435.618	95.69
435.84	95.69
436.062	79.69
436.284	76.69
436.505	92.69
436.727	85.69
436.949	96.69
437.17	89.69
437.392	78.69
437.614	76.69
437.835	76.69
438.057	90.69
438.278	100.69
438.5	64.69
438.721	94.69
438.943	80.69
439.165	76.69
439.386	87.69
439.608	78.69
439.829	93.69
440.05	79.69
440.272	95.69
440.493	94.69
440.715	82.69
440.936	88.69
441.158	103.69
441.379	83.69
441.6	88.69
441.822	100.69
442.043	89.69
442.264	91.69
442.486	89.69
442.707	88.69
442.928	105.69
443.149	87.69
443.371	89.69
443.592	88.69
443.813	86.69
444.034	84.69
444.255	88.69
444.476	101.69
444.698	96.69
444.919	99.69
445.14	232.69
445.361	157.69
445.582	74.69
445.803	88.69
446.024	94.69
446.245	96.69
446.466	103.69
446.687	104.69
446.908	74.69
447.129	96.69
447.35	87.69
447.571	102.69
447.792	94.69
448.013	91.69
448.234	88.69
448.455	85.69
448.675	95.69
448.896	90.69
449.117	89.69
449.338	81.69
449.559	91.69
449.779	79.69
450	96.69
450.221	97.69
450.442	95.69
450.662	104.69
450.883	81.69
451.104	89.69
451.324	82.69
451.545	98.69
451.766	104.69
451.986	102.69
452.207	89.69
452.428	99.69
452.648	93.69
452.869	90.69
453.089	99.69
453.31	81.69
453.53	91.69
453.751	88.69
453.971	83.69
454.192	87.69
454.412	87.69
454.633	82.69
454.853	85.69
455.073	90.69
455.294	78.69
455.514	88.69
455.734	81.69
455.955	93.69
456.175	95.69
456.395	78.69
456.616	84.69
456.836	85.69
457.056	93.69
457.276	82.69
457.497	82.69
457.717	87.69
457.937	81.69
458.157	80.69
458.377	91.69
458.598	86.69
458.818	80.69
459.038	95.69
459.258	88.69
459.478	87.69
459.698	95.69
459.918	85.69
460.138	86.69
460.358	86.69
460.578	93.69
460.798	86.69
461.018	87.69
461.238	83.69
461.458	81.69
461.678	74.69
461.898	89.69
462.118	71.69
462.338	85.69
462.558	78.69
462.777	89.69
462.997	99.69
463.217	95.69
463.437	83.69
463.657	82.69
463.876	90.69
464.096	80.69
464.316	71.69
464.536	88.69
464.755	92.69
464.975	84.69
465.195	96.69
465.414	80.69
465.634	76.69
465.854	91.69
466.073	84.69
466.293	91.69
466.512	87.69
466.732	102.69
466.951	89.69
467.171	90.69
467.391	100.69
467.61	84.69
467.829	85.69
468.049	89.69
468.268	88.69
468.488	88.69
468.707	91.69
468.927	99.69
469.146	91.69
469.365	83.69
469.585	100.69
469.804	108.69
470.023	90.69
470.243	95.69
470.462	95.69
470.681	94.69
470.901	77.69
471.12	104.69
471.339	81.69
471.558	96.69
471.777	90.69
471.997	81.69
472.216	85.69
472.435	76.69
472.654	75.69
472.873	82.69
473.092	104.69
473.311	75.69
473.53	85.69
473.749	82.69
473.968	93.69
474.187	90.69
474.406	80.69
474.625	91.69
474.844	84.69
475.063	101.69
475.282	85.69
475.501	92.69
475.72	80.69
475.939	91.69
476.158	74.69
476.377	90.69
476.596	85.69
476.814	81.69
477.033	86.69
477.252	84.69
477.471	86.69
477.69	88.69
477.908	92.69
478.127	85.69
478.346	89.69
478.564	87.69
478.783	83.69
479.002	84.69
479.22	86.69
479.439	99.69
479.658	90.69
479.876	89.69
480.095	87.69
480.313	87.69
480.532	83.69
480.751	98.69
480.969	75.69
481.188	83.69
481.406	84.69
481.624	74.69
481.843	91.69
482.061	71.69
482.28	85.69
482.498	92.69
482.717	76.69
482.935	99.69
483.153	88.69
483.372	98.69
483.59	97.69
483.808	91.69
484.027	91.69
484.245	107.69
484.463	88.69
484.681	90.69
484.9	107.69
485.118	87.69
485.336	85.69
485.554	84.69
485.772	79.69
485.99	85.69
486.209	83.69
486.427	88.69
486.645	92.69
486.863	103.69
487.081	91.69
487.299	89.69
487.517	78.69
487.735	85.69
487.953	84.69
488.171	107.69
488.389	94.69
488.607	95.69
488.825	97.69
489.043	84.69
489.261	90.69
489.479	96.69
489.696	88.69
489.914	90.69
490.132	90.69
490.35	103.69
490.568	92.69
490.786	93.69
491.003	106.69
491.221	97.69
491.439	88.69
491.657	88.69
491.874	93.69
492.092	106.69
492.31	106.69
492.527	89.69
492.745	112.69
492.963	107.69
493.18	99.69
493.398	93.69
493.615	95.69
493.833	93.69
494.05	112.69
494.268	103.69
494.485	84.69
494.703	92.69
494.92	113.69
495.138	89.69
495.355	113.69
495.573	97.69
495.79	98.69
496.008	107.69
496.225	106.69
496.442	97.69
496.66	110.69
496.877	101.69
497.094	91.69
497.312	100.69
497.529	99.69
497.746	89.69
497.963	92.69
498.181	97.69
498.398	86.69
498.615	89.69
498.832	90.69
499.049	84.69
499.267	88.69
499.484	89.69
499.701	104.69
499.918	84.69
500.135	88.69
500.352	89.69
500.569	96.69
500.786	95.69
501.003	84.69
501.22	87.69
501.437	88.69
501.654	82.69
501.871	76.69
502.088	72.69
502.305	90.69
502.522	90.69
502.739	83.69
502.956	96.69
503.172	91.69
503.389	85.69
503.606	91.69
503.823	99.69
504.04	85.69
504.256	91.69
504.473	97.69
504.69	87.69
504.907	99.69
505.123	93.69
505.34	84.69
505.557	99.69
505.773	97.69
505.99	80.69
506.207	81.69
506.423	79.69
506.64	103.69
506.856	91.69
507.073	88.69
507.289	100.69
507.506	80.69
507.722	94.69
507.939	90.69
508.155	95.69
508.372	93.69
508.588	94.69
508.805	77.69
509.021	89.69
509.238	83.69
509.454	77.69
509.67	90.69
509.887	85.69
510.103	89.69
510.319	79.69
510.536	84.69
510.752	74.69
510.968	83.69
511.184	75.69
511.401	74.69
511.617	88.69
511.833	73.69
512.049	88.69
512.265	87.69
512.481	84.69
512.698	92.69
512.914	90.69
513.13	91.69
513.346	97.69
513.562	70.69
513.778	89.69
513.994	81.69
514.21	91.69
514.426	97.69
514.642	81.69
514.858	92.69
515.074	85.69
515.29	84.69
515.506	64.69
515.721	97.69
515.937	86.69
516.153	74.69
516.369	80.69
516.585	85.69
516.801	73.69
517.016	85.69
517.232	71.69
517.448	71.69
517.664	80.69
517.879	95.69
518.095	95.69
518.311	93.69
518.527	89.69
518.742	91.69
518.958	98.69
519.173	74.69
519.389	87.69
519.605	86.69
519.82	98.69
520.036	93.69
520.251	85.69
520.467	95.69
520.682	89.69
520.898	99.69
521.113	82.69
521.329	68.69
521.544	87.69
521.76	91.69
521.975	77.69
522.19	97.69
522.406	94.69
522.621	77.69
522.836	91.69
523.052	90.69
523.267	77.69
523.482	88.69
523.698	81.69
523.913	102.69
524.128	84.69
524.343	88.69
524.559	92.69
524.774	83.69
524.989	97.69
525.204	90.69
525.419	103.69
525.634	79.69
525.849	90.69
526.064	87.69
526.28	88.69
526.495	79.69
526.71	93.69
526.925	82.69
527.14	84.69
527.355	91.69
527.57	84.69
527.785	90.69
527.999	89.69
528.214	87.69
528.429	77.69
528.644	82.69
528.859	89.69
529.074	85.69
529.289	90.69
529.503	100.69
529.718	99.69
529.933	89.69
530.148	70.69
530.363	93.69
530.577	82.69
530.792	95.69
531.007	84.69
531.221	79.69
531.436	80.69
531.651	92.69
531.865	73.69
532.08	95.69
532.295	86.69
532.509	82.69
532.724	93.69
532.938	76.69
533.153	93.69
533.367	91.69
533.582	83.69
533.796	75.69
534.011	100.69
534.225	94.69
534.44	83.69
534.654	77.69
534.868	90.69
535.083	93.69
535.297	85.69
535.511	81.69
535.726	75.69
535.94	86.69
536.154	92.69
536.369	91.69
536.583	81.69
536.797	76.69
537.011	77.69
537.225	79.69
537.44	78.69
537.654	70.69
537.868	90.69
538.082	88.69
538.296	75.69
538.51	80.69
538.724	87.69
538.938	96.69
539.153	90.69
539.367	90.69
539.581	98.69
539.795	101.69
540.009	89.69
540.222	83.69
540.436	76.69
540.65	101.69
540.864	88.69
541.078	92.69
541.292	81.69
541.506	93.69
541.72	111.69
541.934	93.69
542.147	105.69
542.361	115.69
542.575	117.69
542.789	99.69
543.002	95.69
543.216	90.69
543.43	83.69
543.644	89.69
543.857	96.69
544.071	102.69
544.285	95.69
544.498	86.69
544.712	104.69
544.925	113.69
545.139	102.69
545.352	101.69
545.566	97.69
545.779	104.69
545.993	93.69
546.206	100.69
546.42	97.69
546.633	95.69
546.847	108.69
547.06	97.69
547.274	92.69
547.487	94.69
547.7	94.69
547.914	95.69
548.127	89.69
548.34	97.69
548.554	97.69
548.767	95.69
548.98	94.69
549.193	102.69
549.407	98.69
549.62	80.69
549.833	102.69
550.046	98.69
550.259	107.69
550.473	101.69
550.686	97.69
550.899	86.69
551.112	93.69
551.325	107.69
551.538	89.69
551.751	91.69
551.964	85.69
552.177	92.69
552.39	105.69
552.603	101.69
552.816	91.69
553.029	101.69
553.242	87.69
553.455	90.69
553.667	91.69
553.88	95.69
554.093	97.69
554.306	84.69
554.519	97.69
554.732	89.69
554.944	97.69
555.157	97.69
555.37	115.69
555.583	98.69
555.795	100.69
556.008	99.69
556.221	103.69
556.433	99.69
556.646	103.69
556.859	84.69
557.071	87.69
557.284	85.69
557.496	95.69
557.709	93.69
557.921	97.69
558.134	92.69
558.346	95.69
558.559	104.69
558.771	104.69
558.984	97.69
559.196	88.69
559.409	93.69
559.621	101.69
559.833	86.69
560.046	93.69
560.258	99.69
560.47	86.69
560.683	82.69
560.895	101.69
561.107	84.69
561.32	90.69
561.532	97.69
561.744	92.69
561.956	94.69
562.168	82.69
562.381	95.69
562.593	88.69
562.805	80.69
563.017	92.69
563.229	86.69
563.441	89.69
563.653	85.69
563.865	92.69
564.077	85.69
564.289	81.69
564.501	75.69
564.713	89.69
564.925	87.69
565.137	90.69
565.349	95.69
565.561	90.69
565.773	90.69
565.985	88.69
566.197	96.69
566.408	89.69
566.62	85.69
566.832	89.69
567.044	87.69
567.255	96.69
567.467	89.69
567.679	91.69
567.891	89.69
568.102	82.69
568.314	76.69
568.526	88.69
568.737	94.69
568.949	94.69
569.161	100.69
569.372	78.69
569.584	77.69
569.795	74.69
570.007	84.69
570.218	81.69
570.43	77.69
570.641	89.69
570.853	71.69
571.064	75.69
571.276	89.69
571.487	92.69
571.698	88.69
571.91	84.69
572.121	89.69
572.333	85.69
572.544	88.69
572.755	78.69
572.966	77.69
573.178	61.69
573.389	83.69
573.6	88.69
573.811	81.69
574.023	77.69
574.234	87.69
574.445	72.69
574.656	82.69
574.867	85.69
575.078	86.69
575.289	91.69
575.501	96.69
575.712	88.69
575.923	92.69
576.134	85.69
576.345	82.69
576.556	81.69
576.767	93.69
576.978	92.69
577.188	77.69
577.399	73.69
577.61	79.69
577.821	84.69
578.032	83.69
578.243	95.69
578.454	85.69
578.665	90.69
578.875	80.69
579.086	97.69
579.297	81.69
579.508	88.69
579.718	94.69
579.929	82.69
580.14	85.69
580.35	89.69
580.561	77.69
580.772	93.69
580.982	100.69
581.193	81.69
581.403	83.69
581.614	85.69
581.825	78.69
582.035	89.69
582.246	84.69
582.456	76.69
582.667	65.69
582.877	84.69
583.087	91.69
583.298	84.69
583.508	75.69
583.719	81.69
583.929	88.69
584.139	78.69
584.35	76.69
584.56	93.69
584.77	96.69
584.981	72.69
585.191	92.69
585.401	75.69
585.611	77.69
585.821	85.69
586.032	87.69
586.242	78.69
586.452	79.69
586.662	89.69
586.872	77.69
587.082	84.69
587.292	74.69
587.502	92.69
587.713	85.69
587.923	81.69
588.133	89.69
588.343	73.69
588.553	72.69
588.762	67.69
588.972	90.69
589.182	91.69
589.392	80.69
589.602	95.69
589.812	73.69
590.022	80.69
590.232	92.69
590.441	78.69
590.651	82.69
590.861	81.69
591.071	91.69
591.281	93.69
591.49	82.69
591.7	79.69
591.91	88.69
592.119	84.69
592.329	72.69
592.539	80.69
592.748	67.69
592.958	90.69
593.167	91.69
593.377	80.69
593.587	97.69
593.796	84.69
594.006	89.69
594.215	83.69
594.424	102.69
594.634	88.69
594.843	83.69
595.053	74.69
595.262	94.69
595.472	81.69
595.681	82.69
595.89	68.69
596.1	91.69
596.309	72.69
596.518	91.69
596.727	89.69
596.937	97.69
597.146	87.69
597.355	88.69
597.564	86.69
597.774	81.69
597.983	88.69
598.192	89.69
598.401	70.69
598.61	84.69
598.819	85.69
599.028	83.69
599.237	79.69
599.446	86.69
599.655	89.69
599.864	92.69
600.073	83.69
600.282	89.69
600.491	77.69
600.7	75.69
600.909	87.69
601.118	82.69
601.327	80.69
601.536	86.69
601.745	91.69
601.953	73.69
602.162	88.69
602.371	94.69
602.58	85.69
602.789	92.69
602.997	82.69
603.206	87.69
603.415	94.69
603.623	84.69
603.832	84.69
604.041	86.69
604.249	82.69
604.458	85.69
604.666	72.69
604.875	89.69
605.084	77.69
605.292	88.69
605.501	83.69
605.709	73.69
605.918	87.69
606.126	96.69
606.334	88.69
606.543	79.69
606.751	101.69
606.96	96.69
607.168	90.69
607.376	98.69
607.585	87.69
607.793	79.69
608.001	83.69
608.21	85.69
608.418	108.69
608.626	97.69
608.834	100.69
609.043	87.69
609.251	91.69
609.459	82.69
609.667	89.69
609.875	81.69
610.083	91.69
610.291	92.69
610.499	98.69
610.707	82.69
610.916	92.69
611.124	89.69
611.332	85.69
611.54	72.69
611.748	90.69
611.955	87.69
612.163	87.69
612.371	110.69
612.579	95.69
612.787	83.69
612.995	93.69
613.203	96.69
613.411	96.69
613.618	82.69
613.826	88.69
614.034	90.69
614.242	87.69
614.449	88.69
614.657	95.69
614.865	98.69
615.072	88.69
615.28	102.69
615.488	90.69
615.695	79.69
615.903	71.69
616.111	87.69
616.318	90.69
616.526	99.69
616.733	100.69
616.941	81.69
617.148	87.69
617.356	90.69
617.563	83.69
617.771	90.69
617.978	82.69
618.185	90.69
618.393	84.69
618.6	88.69
618.807	99.69
619.015	83.69
619.222	84.69
619.429	93.69
619.637	85.69
619.844	85.69
620.051	98.69
620.258	75.69
620.466	87.69
620.673	79.69
620.88	90.69
621.087	87.69
621.294	78.69
621.501	82.69
621.708	77.69
621.915	92.69
622.122	88.69
622.329	87.69
622.536	98.69
622.743	105.69
622.95	102.69
623.157	92.69
623.364	95.69
623.571	99.69
623.778	95.69
623.985	96.69
624.192	90.69
624.399	86.69
624.606	82.69
624.812	85.69
625.019	96.69
625.226	99.69
625.433	88.69
625.639	86.69
625.846	94.69
626.053	93.69
626.259	84.69
626.466	94.69
626.673	96.69
626.879	90.69
627.086	82.69
627.293	76.69
627.499	85.69
627.706	65.69
627.912	76.69
628.119	90.69
628.325	92.69
628.532	97.69
628.738	90.69
628.945	82.69
629.151	83.69
629.357	78.69
629.564	85.69
629.77	93.69
629.976	84.69
630.183	91.69
630.389	77.69
630.595	91.69
630.802	76.69
631.008	81.69
631.214	109.69
631.42	73.69
631.627	83.69
631.833	84.69
632.039	80.69
632.245	76.69
632.451	96.69
632.657	85.69
632.863	95.69
633.069	95.69
633.275	91.69
633.481	92.69
633.688	78.69
633.893	84.69
634.099	99.69
634.305	81.69
634.511	96.69
634.717	86.69
634.923	71.69
635.129	72.69
635.335	98.69
635.541	71.69
635.747	99.69
635.952	101.69
636.158	83.69
636.364	82.69
636.57	95.69
636.775	79.69
636.981	96.69
637.187	92.69
637.392	106.69
637.598	95.69
637.804	83.69
638.009	84.69
638.215	93.69
638.421	91.69
638.626	93.69
638.832	82.69
639.037	87.69
639.243	82.69
639.448	94.69
639.654	91.69
639.859	85.69
640.065	80.69
640.27	95.69
640.475	76.69
640.681	99.69
640.886	77.69
641.091	91.69
641.297	84.69
641.502	86.69
641.707	83.69
641.913	97.69
642.118	93.69
642.323	90.69
642.528	81.69
642.733	82.69
642.939	87.69
643.144	88.69
643.349	92.69
643.554	75.69
643.759	78.69
643.964	91.69
644.169	92.69
644.374	85.69
644.579	84.69
644.784	91.69
644.989	84.69
645.194	83.69
645.399	87.69
645.604	96.69
645.809	82.69
646.014	84.69
646.219	88.69
646.423	88.69
646.628	103.69
646.833	102.69
647.038	81.69
647.243	86.69
647.447	79.69
647.652	78.69
647.857	71.69
648.062	83.69
648.266	88.69
648.471	77.69
648.676	97.69
648.88	75.69
649.085	85.69
649.289	90.69
649.494	81.69
649.698	94.69
649.903	89.69
650.107	74.69
650.312	87.69
650.516	81.69
650.721	84.69
650.925	77.69
651.13	81.69
651.334	71.69
651.539	88.69
651.743	70.69
651.947	81.69
652.152	83.69
652.356	79.69
652.56	95.69
652.764	82.69
652.969	77.69
653.173	90.69
653.377	63.69
653.581	81.69
653.785	79.69
653.99	93.69
654.194	81.69
654.398	76.69
654.602	81.69
654.806	73.69
655.01	83.69
655.214	76.69
655.418	91.69
655.622	80.69
655.826	89.69
656.03	81.69
656.234	77.69
656.438	86.69
656.642	92.69
656.846	77.69
657.049	85.69
657.253	88.69
657.457	80.69
657.661	66.69
657.865	85.69
658.068	88.69
658.272	84.69
658.476	75.69
658.68	67.69
658.883	88.69
659.087	75.69
659.291	85.69
659.494	83.69
659.698	85.69
659.901	88.69
660.105	74.69
660.309	85.69
660.512	82.69
660.716	94.69
660.919	75.69
661.123	86.69
661.326	77.69
661.53	88.69
661.733	83.69
661.936	89.69
662.14	92.69
662.343	83.69
662.546	77.69
662.75	79.69
662.953	75.69
663.156	100.69
663.36	94.69
663.563	91.69
663.766	91.69
663.969	85.69
664.173	85.69
664.376	74.69
664.579	72.69
664.782	75.69
664.985	92.69
665.188	87.69
665.391	73.69
665.594	76.69
665.797	77.69
666	82.69
666.203	83.69
666.406	85.69
666.609	77.69
666.812	80.69
667.015	76.69
667.218	90.69
667.421	77.69
667.624	83.69
667.827	77.69
668.03	87.69
668.232	89.69
668.435	85.69
668.638	75.69
668.841	89.69
669.043	76.69
669.246	71.69
669.449	91.69
669.651	79.69
669.854	76.69
670.057	77.69
670.259	70.69
670.462	84.69
670.665	80.69
670.867	71.69
671.07	80.69
671.272	72.69
671.475	92.69
671.677	78.69
671.88	94.69
672.082	87.69
672.284	73.69
672.487	98.69
672.689	92.69
672.892	92.69
