Data from Zn(NO3)2Standard.Agarose3%.GreenCap.LampEnergy5.5.E.O_HRD10591_15-01-23-767.txt Node
Date: Mon Jul 22 15:01:23 EDT 2019
User: cochatt
Spectrometer: HR+D1059
Trigger mode: 1
Integration Time (sec): 1.000000E-1
Scans to average: 1
Electric dark correction enabled: true
Nonlinearity correction enabled: false
Boxcar width: 0
XAxis mode: Wavelengths
Number of Pixels in Spectrum: 2048
>>>>>Begin Spectral Data<<<<<
223.165	-8.94
223.4	-8.94
223.635	-8.94
223.869	-14.94
224.104	-20.94
224.338	-14.94
224.573	-19.94
224.808	-25.94
225.042	-3.94
225.277	0.06
225.511	-6.94
225.746	7.06
225.98	10.06
226.215	9.06
226.449	12.06
226.683	17.06
226.918	35.06
227.152	26.06
227.387	35.06
227.621	24.06
227.856	38.06
228.09	46.06
228.324	46.06
228.559	50.06
228.793	58.06
229.027	51.06
229.262	60.06
229.496	67.06
229.73	62.06
229.964	76.06
230.199	75.06
230.433	76.06
230.667	85.06
230.901	76.06
231.136	73.06
231.37	75.06
231.604	51.06
231.838	83.06
232.072	80.06
232.306	67.06
232.541	80.06
232.775	75.06
233.009	93.06
233.243	79.06
233.477	71.06
233.711	67.06
233.945	76.06
234.179	74.06
234.413	76.06
234.647	80.06
234.881	84.06
235.115	79.06
235.349	94.06
235.583	81.06
235.817	74.06
236.051	87.06
236.285	65.06
236.519	73.06
236.753	73.06
236.987	74.06
237.221	75.06
237.455	72.06
237.689	82.06
237.922	76.06
238.156	86.06
238.39	73.06
238.624	64.06
238.858	79.06
239.091	84.06
239.325	69.06
239.559	74.06
239.793	81.06
240.027	63.06
240.26	80.06
240.494	71.06
240.728	62.06
240.961	85.06
241.195	84.06
241.429	66.06
241.662	92.06
241.896	92.06
242.13	80.06
242.363	70.06
242.597	76.06
242.83	79.06
243.064	86.06
243.298	67.06
243.531	79.06
243.765	79.06
243.998	76.06
244.232	72.06
244.465	87.06
244.699	76.06
244.932	78.06
245.166	80.06
245.399	83.06
245.633	74.06
245.866	74.06
246.099	74.06
246.333	66.06
246.566	84.06
246.8	70.06
247.033	81.06
247.266	92.06
247.5	71.06
247.733	72.06
247.966	81.06
248.2	75.06
248.433	75.06
248.666	74.06
248.899	88.06
249.133	82.06
249.366	88.06
249.599	79.06
249.832	78.06
250.066	67.06
250.299	64.06
250.532	67.06
250.765	76.06
250.998	82.06
251.231	81.06
251.465	86.06
251.698	84.06
251.931	80.06
252.164	54.06
252.397	85.06
252.63	75.06
252.863	81.06
253.096	79.06
253.329	73.06
253.562	74.06
253.795	74.06
254.028	78.06
254.261	71.06
254.494	73.06
254.727	93.06
254.96	84.06
255.193	71.06
255.426	92.06
255.659	80.06
255.892	80.06
256.124	76.06
256.357	73.06
256.59	68.06
256.823	78.06
257.056	86.06
257.289	74.06
257.521	70.06
257.754	82.06
257.987	77.06
258.22	70.06
258.452	92.06
258.685	89.06
258.918	79.06
259.151	75.06
259.383	70.06
259.616	78.06
259.849	78.06
260.081	87.06
260.314	95.06
260.547	78.06
260.779	84.06
261.012	76.06
261.244	75.06
261.477	76.06
261.71	90.06
261.942	76.06
262.175	85.06
262.407	79.06
262.64	82.06
262.872	86.06
263.105	76.06
263.337	79.06
263.57	73.06
263.802	81.06
264.035	66.06
264.267	77.06
264.499	78.06
264.732	76.06
264.964	94.06
265.197	86.06
265.429	83.06
265.661	75.06
265.894	72.06
266.126	78.06
266.358	70.06
266.591	88.06
266.823	79.06
267.055	76.06
267.287	79.06
267.52	78.06
267.752	74.06
267.984	80.06
268.216	92.06
268.448	76.06
268.681	88.06
268.913	72.06
269.145	80.06
269.377	84.06
269.609	91.06
269.841	85.06
270.073	84.06
270.306	75.06
270.538	83.06
270.77	75.06
271.002	82.06
271.234	62.06
271.466	87.06
271.698	91.06
271.93	89.06
272.162	77.06
272.394	76.06
272.626	79.06
272.858	84.06
273.09	65.06
273.322	81.06
273.553	88.06
273.785	84.06
274.017	91.06
274.249	74.06
274.481	78.06
274.713	87.06
274.945	81.06
275.176	67.06
275.408	72.06
275.64	90.06
275.872	78.06
276.104	91.06
276.335	87.06
276.567	76.06
276.799	83.06
277.031	75.06
277.262	75.06
277.494	82.06
277.726	88.06
277.957	69.06
278.189	94.06
278.421	91.06
278.652	95.06
278.884	93.06
279.115	81.06
279.347	73.06
279.579	90.06
279.81	79.06
280.042	77.06
280.273	89.06
280.505	87.06
280.736	78.06
280.968	80.06
281.199	95.06
281.431	79.06
281.662	98.06
281.894	83.06
282.125	78.06
282.356	90.06
282.588	82.06
282.819	84.06
283.051	94.06
283.282	90.06
283.513	80.06
283.745	83.06
283.976	75.06
284.207	94.06
284.439	74.06
284.67	78.06
284.901	85.06
285.132	91.06
285.364	74.06
285.595	76.06
285.826	86.06
286.057	84.06
286.288	91.06
286.52	89.06
286.751	93.06
286.982	74.06
287.213	63.06
287.444	86.06
287.675	84.06
287.906	80.06
288.138	72.06
288.369	85.06
288.6	78.06
288.831	80.06
289.062	90.06
289.293	85.06
289.524	90.06
289.755	83.06
289.986	75.06
290.217	77.06
290.448	73.06
290.679	88.06
290.91	88.06
291.141	78.06
291.371	70.06
291.602	111.06
291.833	70.06
292.064	81.06
292.295	82.06
292.526	93.06
292.757	98.06
292.987	87.06
293.218	71.06
293.449	83.06
293.68	77.06
293.91	84.06
294.141	75.06
294.372	87.06
294.603	77.06
294.833	74.06
295.064	78.06
295.295	78.06
295.525	86.06
295.756	85.06
295.987	69.06
296.217	87.06
296.448	79.06
296.679	90.06
296.909	89.06
297.14	79.06
297.37	86.06
297.601	95.06
297.831	86.06
298.062	88.06
298.292	81.06
298.523	103.06
298.753	86.06
298.984	83.06
299.214	88.06
299.445	97.06
299.675	89.06
299.905	84.06
300.136	83.06
300.366	71.06
300.597	76.06
300.827	87.06
301.057	76.06
301.288	90.06
301.518	75.06
301.748	80.06
301.979	71.06
302.209	82.06
302.439	87.06
302.669	76.06
302.9	85.06
303.13	73.06
303.36	80.06
303.59	84.06
303.82	93.06
304.051	91.06
304.281	82.06
304.511	95.06
304.741	84.06
304.971	86.06
305.201	72.06
305.431	83.06
305.661	89.06
305.891	84.06
306.121	94.06
306.352	90.06
306.582	90.06
306.812	77.06
307.042	90.06
307.272	85.06
307.502	73.06
307.731	76.06
307.961	72.06
308.191	81.06
308.421	78.06
308.651	90.06
308.881	79.06
309.111	88.06
309.341	82.06
309.571	78.06
309.8	78.06
310.03	71.06
310.26	85.06
310.49	75.06
310.72	73.06
310.949	91.06
311.179	80.06
311.409	84.06
311.639	81.06
311.868	88.06
312.098	91.06
312.328	88.06
312.557	86.06
312.787	81.06
313.017	87.06
313.246	97.06
313.476	95.06
313.706	90.06
313.935	73.06
314.165	90.06
314.394	86.06
314.624	90.06
314.853	64.06
315.083	80.06
315.312	84.06
315.542	96.06
315.771	89.06
316.001	86.06
316.23	76.06
316.46	72.06
316.689	83.06
316.919	77.06
317.148	81.06
317.377	97.06
317.607	98.06
317.836	65.06
318.065	90.06
318.295	65.06
318.524	86.06
318.753	69.06
318.983	89.06
319.212	76.06
319.441	98.06
319.67	82.06
319.9	84.06
320.129	79.06
320.358	75.06
320.587	88.06
320.816	89.06
321.046	73.06
321.275	81.06
321.504	86.06
321.733	92.06
321.962	80.06
322.191	97.06
322.42	77.06
322.649	112.06
322.878	85.06
323.108	76.06
323.337	82.06
323.566	90.06
323.795	87.06
324.024	86.06
324.253	81.06
324.482	69.06
324.71	99.06
324.939	84.06
325.168	91.06
325.397	74.06
325.626	88.06
325.855	72.06
326.084	78.06
326.313	83.06
326.542	69.06
326.77	87.06
326.999	78.06
327.228	91.06
327.457	78.06
327.686	74.06
327.914	68.06
328.143	81.06
328.372	77.06
328.6	74.06
328.829	76.06
329.058	75.06
329.287	84.06
329.515	87.06
329.744	80.06
329.972	76.06
330.201	85.06
330.43	94.06
330.658	83.06
330.887	89.06
331.115	78.06
331.344	73.06
331.572	79.06
331.801	78.06
332.03	78.06
332.258	82.06
332.486	95.06
332.715	87.06
332.943	73.06
333.172	76.06
333.4	84.06
333.629	84.06
333.857	85.06
334.085	75.06
334.314	82.06
334.542	82.06
334.771	75.06
334.999	90.06
335.227	73.06
335.455	65.06
335.684	88.06
335.912	89.06
336.14	87.06
336.369	83.06
336.597	91.06
336.825	72.06
337.053	79.06
337.281	72.06
337.51	80.06
337.738	90.06
337.966	91.06
338.194	83.06
338.422	81.06
338.65	70.06
338.878	82.06
339.106	81.06
339.334	85.06
339.562	85.06
339.79	91.06
340.018	78.06
340.246	75.06
340.474	72.06
340.702	73.06
340.93	89.06
341.158	84.06
341.386	85.06
341.614	80.06
341.842	79.06
342.07	71.06
342.298	92.06
342.526	73.06
342.754	87.06
342.981	90.06
343.209	83.06
343.437	72.06
343.665	74.06
343.893	80.06
344.12	88.06
344.348	68.06
344.576	91.06
344.804	90.06
345.031	82.06
345.259	82.06
345.487	82.06
345.714	80.06
345.942	91.06
346.17	90.06
346.397	90.06
346.625	81.06
346.853	87.06
347.08	84.06
347.308	79.06
347.535	83.06
347.763	87.06
347.99	82.06
348.218	92.06
348.445	95.06
348.673	70.06
348.9	76.06
349.128	92.06
349.355	82.06
349.583	88.06
349.81	70.06
350.037	87.06
350.265	90.06
350.492	107.06
350.72	91.06
350.947	78.06
351.174	80.06
351.402	80.06
351.629	73.06
351.856	80.06
352.083	78.06
352.311	78.06
352.538	84.06
352.765	75.06
352.992	88.06
353.22	81.06
353.447	76.06
353.674	99.06
353.901	92.06
354.128	76.06
354.355	71.06
354.583	74.06
354.81	79.06
355.037	84.06
355.264	87.06
355.491	78.06
355.718	68.06
355.945	94.06
356.172	84.06
356.399	70.06
356.626	87.06
356.853	89.06
357.08	71.06
357.307	83.06
357.534	75.06
357.761	81.06
357.988	86.06
358.215	88.06
358.441	94.06
358.668	81.06
358.895	91.06
359.122	82.06
359.349	73.06
359.576	84.06
359.802	89.06
360.029	92.06
360.256	90.06
360.483	87.06
360.709	87.06
360.936	87.06
361.163	86.06
361.39	87.06
361.616	78.06
361.843	98.06
362.07	75.06
362.296	69.06
362.523	80.06
362.749	82.06
362.976	72.06
363.203	76.06
363.429	72.06
363.656	84.06
363.882	63.06
364.109	80.06
364.335	78.06
364.562	86.06
364.788	93.06
365.015	84.06
365.241	76.06
365.468	83.06
365.694	91.06
365.92	78.06
366.147	87.06
366.373	88.06
366.599	88.06
366.826	87.06
367.052	79.06
367.278	64.06
367.505	92.06
367.731	82.06
367.957	84.06
368.184	83.06
368.41	96.06
368.636	79.06
368.862	88.06
369.089	75.06
369.315	67.06
369.541	85.06
369.767	78.06
369.993	85.06
370.219	84.06
370.445	90.06
370.672	64.06
370.898	71.06
371.124	83.06
371.35	86.06
371.576	87.06
371.802	84.06
372.028	92.06
372.254	85.06
372.48	78.06
372.706	89.06
372.932	87.06
373.158	82.06
373.384	74.06
373.61	85.06
373.835	88.06
374.061	79.06
374.287	79.06
374.513	78.06
374.739	79.06
374.965	84.06
375.191	92.06
375.416	83.06
375.642	96.06
375.868	82.06
376.094	78.06
376.319	76.06
376.545	75.06
376.771	86.06
376.997	79.06
377.222	84.06
377.448	81.06
377.674	94.06
377.899	90.06
378.125	70.06
378.35	89.06
378.576	77.06
378.802	72.06
379.027	74.06
379.253	88.06
379.478	85.06
379.704	70.06
379.929	95.06
380.155	75.06
380.38	87.06
380.606	88.06
380.831	94.06
381.057	83.06
381.282	86.06
381.507	78.06
381.733	72.06
381.958	84.06
382.184	75.06
382.409	89.06
382.634	98.06
382.86	83.06
383.085	70.06
383.31	84.06
383.535	90.06
383.761	81.06
383.986	79.06
384.211	80.06
384.436	80.06
384.662	97.06
384.887	90.06
385.112	96.06
385.337	74.06
385.562	89.06
385.787	83.06
386.013	91.06
386.238	87.06
386.463	87.06
386.688	81.06
386.913	93.06
387.138	71.06
387.363	81.06
387.588	110.06
387.813	69.06
388.038	82.06
388.263	88.06
388.488	78.06
388.713	73.06
388.938	88.06
389.163	88.06
389.387	79.06
389.612	95.06
389.837	68.06
390.062	71.06
390.287	85.06
390.512	81.06
390.736	83.06
390.961	67.06
391.186	87.06
391.411	82.06
391.636	66.06
391.86	79.06
392.085	78.06
392.31	84.06
392.534	90.06
392.759	76.06
392.984	77.06
393.208	85.06
393.433	91.06
393.658	82.06
393.882	80.06
394.107	84.06
394.331	82.06
394.556	77.06
394.78	70.06
395.005	92.06
395.229	79.06
395.454	72.06
395.678	76.06
395.903	88.06
396.127	89.06
396.352	73.06
396.576	80.06
396.801	76.06
397.025	95.06
397.249	87.06
397.474	99.06
397.698	79.06
397.922	82.06
398.147	91.06
398.371	92.06
398.595	83.06
398.82	83.06
399.044	77.06
399.268	80.06
399.492	72.06
399.717	72.06
399.941	70.06
400.165	96.06
400.389	86.06
400.613	93.06
400.837	88.06
401.062	77.06
401.286	92.06
401.51	83.06
401.734	85.06
401.958	94.06
402.182	80.06
402.406	79.06
402.63	85.06
402.854	86.06
403.078	81.06
403.302	78.06
403.526	105.06
403.75	94.06
403.974	89.06
404.198	74.06
404.422	87.06
404.645	93.06
404.869	87.06
405.093	79.06
405.317	83.06
405.541	81.06
405.765	91.06
405.988	89.06
406.212	89.06
406.436	76.06
406.66	75.06
406.883	88.06
407.107	84.06
407.331	87.06
407.555	91.06
407.778	81.06
408.002	79.06
408.226	95.06
408.449	72.06
408.673	76.06
408.896	65.06
409.12	78.06
409.344	83.06
409.567	84.06
409.791	67.06
410.014	75.06
410.238	75.06
410.461	77.06
410.685	76.06
410.908	70.06
411.132	76.06
411.355	75.06
411.578	101.06
411.802	91.06
412.025	83.06
412.249	77.06
412.472	89.06
412.695	82.06
412.919	81.06
413.142	85.06
413.365	84.06
413.589	87.06
413.812	98.06
414.035	82.06
414.258	73.06
414.482	76.06
414.705	89.06
414.928	88.06
415.151	87.06
415.374	84.06
415.597	73.06
415.821	93.06
416.044	89.06
416.267	78.06
416.49	84.06
416.713	80.06
416.936	92.06
417.159	79.06
417.382	85.06
417.605	100.06
417.828	93.06
418.051	74.06
418.274	88.06
418.497	91.06
418.72	82.06
418.943	96.06
419.166	92.06
419.389	97.06
419.611	87.06
419.834	92.06
420.057	84.06
420.28	90.06
420.503	96.06
420.726	80.06
420.948	89.06
421.171	81.06
421.394	77.06
421.617	86.06
421.839	84.06
422.062	77.06
422.285	82.06
422.507	84.06
422.73	95.06
422.953	87.06
423.175	86.06
423.398	81.06
423.621	91.06
423.843	96.06
424.066	77.06
424.288	82.06
424.511	88.06
424.733	88.06
424.956	88.06
425.178	89.06
425.401	83.06
425.623	101.06
425.846	85.06
426.068	81.06
426.291	80.06
426.513	94.06
426.735	88.06
426.958	91.06
427.18	94.06
427.402	84.06
427.625	70.06
427.847	70.06
428.069	84.06
428.292	79.06
428.514	93.06
428.736	89.06
428.958	91.06
429.181	93.06
429.403	89.06
429.625	80.06
429.847	85.06
430.069	82.06
430.292	103.06
430.514	88.06
430.736	90.06
430.958	87.06
431.18	90.06
431.402	88.06
431.624	83.06
431.846	97.06
432.068	80.06
432.29	79.06
432.512	81.06
432.734	74.06
432.956	78.06
433.178	85.06
433.4	82.06
433.622	81.06
433.844	82.06
434.066	95.06
434.287	98.06
434.509	80.06
434.731	75.06
434.953	88.06
435.175	96.06
435.397	89.06
435.618	84.06
435.84	80.06
436.062	83.06
436.284	80.06
436.505	102.06
436.727	92.06
436.949	85.06
437.17	98.06
437.392	104.06
437.614	93.06
437.835	96.06
438.057	99.06
438.278	79.06
438.5	85.06
438.721	84.06
438.943	97.06
439.165	88.06
439.386	89.06
439.608	76.06
439.829	96.06
440.05	105.06
440.272	98.06
440.493	89.06
440.715	90.06
440.936	90.06
441.158	91.06
441.379	92.06
441.6	86.06
441.822	82.06
442.043	85.06
442.264	81.06
442.486	75.06
442.707	88.06
442.928	82.06
443.149	100.06
443.371	102.06
443.592	86.06
443.813	88.06
444.034	88.06
444.255	100.06
444.476	86.06
444.698	96.06
444.919	95.06
445.14	191.06
445.361	123.06
445.582	100.06
445.803	92.06
446.024	99.06
446.245	85.06
446.466	89.06
446.687	83.06
446.908	89.06
447.129	92.06
447.35	94.06
447.571	98.06
447.792	79.06
448.013	98.06
448.234	88.06
448.455	84.06
448.675	92.06
448.896	85.06
449.117	87.06
449.338	85.06
449.559	96.06
449.779	86.06
450	80.06
450.221	92.06
450.442	100.06
450.662	82.06
450.883	96.06
451.104	96.06
451.324	88.06
451.545	85.06
451.766	79.06
451.986	72.06
452.207	98.06
452.428	87.06
452.648	90.06
452.869	77.06
453.089	77.06
453.31	95.06
453.53	82.06
453.751	74.06
453.971	86.06
454.192	69.06
454.412	75.06
454.633	82.06
454.853	91.06
455.073	106.06
455.294	89.06
455.514	81.06
455.734	88.06
455.955	98.06
456.175	88.06
456.395	75.06
456.616	82.06
456.836	90.06
457.056	100.06
457.276	84.06
457.497	100.06
457.717	80.06
457.937	92.06
458.157	68.06
458.377	87.06
458.598	84.06
458.818	78.06
459.038	75.06
459.258	80.06
459.478	80.06
459.698	71.06
459.918	74.06
460.138	86.06
460.358	88.06
460.578	82.06
460.798	94.06
461.018	88.06
461.238	92.06
461.458	85.06
461.678	72.06
461.898	90.06
462.118	83.06
462.338	81.06
462.558	82.06
462.777	79.06
462.997	87.06
463.217	79.06
463.437	72.06
463.657	81.06
463.876	91.06
464.096	76.06
464.316	81.06
464.536	87.06
464.755	80.06
464.975	82.06
465.195	81.06
465.414	80.06
465.634	95.06
465.854	99.06
466.073	85.06
466.293	84.06
466.512	87.06
466.732	94.06
466.951	94.06
467.171	88.06
467.391	95.06
467.61	75.06
467.829	97.06
468.049	90.06
468.268	79.06
468.488	82.06
468.707	87.06
468.927	103.06
469.146	91.06
469.365	78.06
469.585	86.06
469.804	94.06
470.023	74.06
470.243	81.06
470.462	91.06
470.681	81.06
470.901	82.06
471.12	93.06
471.339	86.06
471.558	81.06
471.777	90.06
471.997	79.06
472.216	90.06
472.435	100.06
472.654	81.06
472.873	98.06
473.092	89.06
473.311	90.06
473.53	90.06
473.749	97.06
473.968	71.06
474.187	71.06
474.406	96.06
474.625	88.06
474.844	83.06
475.063	91.06
475.282	85.06
475.501	75.06
475.72	77.06
475.939	85.06
476.158	75.06
476.377	90.06
476.596	84.06
476.814	86.06
477.033	68.06
477.252	74.06
477.471	82.06
477.69	87.06
477.908	103.06
478.127	97.06
478.346	82.06
478.564	102.06
478.783	104.06
479.002	102.06
479.22	90.06
479.439	83.06
479.658	90.06
479.876	82.06
480.095	75.06
480.313	87.06
480.532	76.06
480.751	98.06
480.969	79.06
481.188	75.06
481.406	100.06
481.624	82.06
481.843	79.06
482.061	82.06
482.28	90.06
482.498	102.06
482.717	91.06
482.935	78.06
483.153	76.06
483.372	95.06
483.59	105.06
483.808	91.06
484.027	83.06
484.245	94.06
484.463	85.06
484.681	86.06
484.9	98.06
485.118	95.06
485.336	72.06
485.554	88.06
485.772	98.06
485.99	89.06
486.209	71.06
486.427	83.06
486.645	85.06
486.863	78.06
487.081	98.06
487.299	97.06
487.517	88.06
487.735	108.06
487.953	99.06
488.171	101.06
488.389	87.06
488.607	83.06
488.825	87.06
489.043	90.06
489.261	88.06
489.479	101.06
489.696	79.06
489.914	85.06
490.132	101.06
490.35	99.06
490.568	118.06
490.786	96.06
491.003	102.06
491.221	94.06
491.439	86.06
491.657	107.06
491.874	100.06
492.092	100.06
492.31	107.06
492.527	113.06
492.745	99.06
492.963	94.06
493.18	95.06
493.398	98.06
493.615	104.06
493.833	107.06
494.05	103.06
494.268	102.06
494.485	106.06
494.703	103.06
494.92	84.06
495.138	99.06
495.355	91.06
495.573	107.06
495.79	86.06
496.008	97.06
496.225	106.06
496.442	92.06
496.66	93.06
496.877	86.06
497.094	96.06
497.312	85.06
497.529	83.06
497.746	103.06
497.963	98.06
498.181	98.06
498.398	91.06
498.615	85.06
498.832	87.06
499.049	84.06
499.267	82.06
499.484	64.06
499.701	84.06
499.918	92.06
500.135	92.06
500.352	94.06
500.569	98.06
500.786	106.06
501.003	94.06
501.22	94.06
501.437	98.06
501.654	91.06
501.871	78.06
502.088	84.06
502.305	89.06
502.522	97.06
502.739	86.06
502.956	84.06
503.172	83.06
503.389	91.06
503.606	85.06
503.823	77.06
504.04	87.06
504.256	83.06
504.473	84.06
504.69	82.06
504.907	79.06
505.123	90.06
505.34	90.06
505.557	91.06
505.773	99.06
505.99	97.06
506.207	88.06
506.423	92.06
506.64	91.06
506.856	92.06
507.073	80.06
507.289	89.06
507.506	75.06
507.722	92.06
507.939	86.06
508.155	100.06
508.372	107.06
508.588	100.06
508.805	91.06
509.021	72.06
509.238	86.06
509.454	96.06
509.67	78.06
509.887	84.06
510.103	77.06
510.319	95.06
510.536	85.06
510.752	71.06
510.968	85.06
511.184	86.06
511.401	92.06
511.617	82.06
511.833	67.06
512.049	95.06
512.265	75.06
512.481	76.06
512.698	82.06
512.914	79.06
513.13	79.06
513.346	85.06
513.562	90.06
513.778	108.06
513.994	79.06
514.21	80.06
514.426	83.06
514.642	87.06
514.858	81.06
515.074	73.06
515.29	71.06
515.506	81.06
515.721	83.06
515.937	84.06
516.153	74.06
516.369	71.06
516.585	88.06
516.801	79.06
517.016	71.06
517.232	79.06
517.448	80.06
517.664	87.06
517.879	77.06
518.095	82.06
518.311	75.06
518.527	92.06
518.742	83.06
518.958	86.06
519.173	81.06
519.389	101.06
519.605	83.06
519.82	80.06
520.036	73.06
520.251	80.06
520.467	86.06
520.682	69.06
520.898	88.06
521.113	81.06
521.329	90.06
521.544	79.06
521.76	89.06
521.975	82.06
522.19	80.06
522.406	80.06
522.621	78.06
522.836	78.06
523.052	92.06
523.267	89.06
523.482	94.06
523.698	80.06
523.913	92.06
524.128	86.06
524.343	86.06
524.559	90.06
524.774	92.06
524.989	91.06
525.204	83.06
525.419	86.06
525.634	98.06
525.849	73.06
526.064	87.06
526.28	97.06
526.495	78.06
526.71	65.06
526.925	90.06
527.14	85.06
527.355	85.06
527.57	77.06
527.785	79.06
527.999	82.06
528.214	87.06
528.429	77.06
528.644	90.06
528.859	102.06
529.074	84.06
529.289	90.06
529.503	103.06
529.718	88.06
529.933	89.06
530.148	91.06
530.363	91.06
530.577	79.06
530.792	86.06
531.007	91.06
531.221	75.06
531.436	85.06
531.651	92.06
531.865	71.06
532.08	94.06
532.295	89.06
532.509	80.06
532.724	75.06
532.938	84.06
533.153	88.06
533.367	92.06
533.582	87.06
533.796	97.06
534.011	87.06
534.225	66.06
534.44	76.06
534.654	82.06
534.868	78.06
535.083	89.06
535.297	103.06
535.511	101.06
535.726	76.06
535.94	91.06
536.154	98.06
536.369	96.06
536.583	95.06
536.797	90.06
537.011	91.06
537.225	86.06
537.44	85.06
537.654	86.06
537.868	80.06
538.082	84.06
538.296	78.06
538.51	82.06
538.724	92.06
538.938	84.06
539.153	95.06
539.367	85.06
539.581	74.06
539.795	86.06
540.009	102.06
540.222	95.06
540.436	82.06
540.65	96.06
540.864	67.06
541.078	84.06
541.292	83.06
541.506	99.06
541.72	113.06
541.934	104.06
542.147	106.06
542.361	101.06
542.575	87.06
542.789	90.06
543.002	89.06
543.216	82.06
543.43	72.06
543.644	99.06
543.857	101.06
544.071	107.06
544.285	100.06
544.498	96.06
544.712	98.06
544.925	89.06
545.139	89.06
545.352	100.06
545.566	99.06
545.779	111.06
545.993	95.06
546.206	88.06
546.42	104.06
546.633	102.06
546.847	96.06
547.06	94.06
547.274	104.06
547.487	94.06
547.7	91.06
547.914	83.06
548.127	87.06
548.34	98.06
548.554	103.06
548.767	102.06
548.98	106.06
549.193	111.06
549.407	96.06
549.62	93.06
549.833	89.06
550.046	101.06
550.259	107.06
550.473	93.06
550.686	103.06
550.899	88.06
551.112	92.06
551.325	92.06
551.538	98.06
551.751	101.06
551.964	91.06
552.177	97.06
552.39	99.06
552.603	113.06
552.816	99.06
553.029	103.06
553.242	118.06
553.455	84.06
553.667	99.06
553.88	94.06
554.093	100.06
554.306	100.06
554.519	101.06
554.732	104.06
554.944	84.06
555.157	83.06
555.37	94.06
555.583	88.06
555.795	91.06
556.008	98.06
556.221	92.06
556.433	98.06
556.646	92.06
556.859	86.06
557.071	85.06
557.284	98.06
557.496	92.06
557.709	88.06
557.921	97.06
558.134	80.06
558.346	84.06
558.559	111.06
558.771	76.06
558.984	103.06
559.196	88.06
559.409	89.06
559.621	90.06
559.833	89.06
560.046	90.06
560.258	79.06
560.47	88.06
560.683	88.06
560.895	90.06
561.107	115.06
561.32	85.06
561.532	82.06
561.744	105.06
561.956	114.06
562.168	87.06
562.381	103.06
562.593	81.06
562.805	96.06
563.017	104.06
563.229	104.06
563.441	88.06
563.653	82.06
563.865	100.06
564.077	93.06
564.289	79.06
564.501	95.06
564.713	87.06
564.925	89.06
565.137	90.06
565.349	89.06
565.561	87.06
565.773	102.06
565.985	84.06
566.197	111.06
566.408	88.06
566.62	76.06
566.832	91.06
567.044	108.06
567.255	89.06
567.467	91.06
567.679	75.06
567.891	86.06
568.102	93.06
568.314	96.06
568.526	92.06
568.737	85.06
568.949	79.06
569.161	81.06
569.372	75.06
569.584	83.06
569.795	73.06
570.007	88.06
570.218	91.06
570.43	68.06
570.641	91.06
570.853	92.06
571.064	86.06
571.276	91.06
571.487	83.06
571.698	84.06
571.91	90.06
572.121	79.06
572.333	81.06
572.544	72.06
572.755	101.06
572.966	78.06
573.178	82.06
573.389	84.06
573.6	82.06
573.811	80.06
574.023	96.06
574.234	83.06
574.445	73.06
574.656	84.06
574.867	88.06
575.078	83.06
575.289	94.06
575.501	96.06
575.712	83.06
575.923	78.06
576.134	83.06
576.345	84.06
576.556	83.06
576.767	89.06
576.978	84.06
577.188	92.06
577.399	83.06
577.61	89.06
577.821	84.06
578.032	74.06
578.243	69.06
578.454	92.06
578.665	83.06
578.875	73.06
579.086	79.06
579.297	80.06
579.508	86.06
579.718	90.06
579.929	80.06
580.14	91.06
580.35	85.06
580.561	74.06
580.772	82.06
580.982	77.06
581.193	83.06
581.403	91.06
581.614	97.06
581.825	86.06
582.035	87.06
582.246	81.06
582.456	82.06
582.667	88.06
582.877	88.06
583.087	93.06
583.298	88.06
583.508	91.06
583.719	79.06
583.929	84.06
584.139	85.06
584.35	86.06
584.56	76.06
584.77	77.06
584.981	79.06
585.191	86.06
585.401	76.06
585.611	92.06
585.821	89.06
586.032	81.06
586.242	91.06
586.452	89.06
586.662	84.06
586.872	95.06
587.082	84.06
587.292	86.06
587.502	89.06
587.713	86.06
587.923	81.06
588.133	93.06
588.343	88.06
588.553	88.06
588.762	75.06
588.972	79.06
589.182	78.06
589.392	87.06
589.602	92.06
589.812	97.06
590.022	77.06
590.232	83.06
590.441	78.06
590.651	91.06
590.861	95.06
591.071	89.06
591.281	81.06
591.49	74.06
591.7	97.06
591.91	88.06
592.119	70.06
592.329	87.06
592.539	79.06
592.748	86.06
592.958	85.06
593.167	82.06
593.377	88.06
593.587	94.06
593.796	83.06
594.006	82.06
594.215	91.06
594.424	94.06
594.634	78.06
594.843	78.06
595.053	71.06
595.262	76.06
595.472	88.06
595.681	95.06
595.89	88.06
596.1	90.06
596.309	99.06
596.518	101.06
596.727	92.06
596.937	75.06
597.146	99.06
597.355	83.06
597.564	90.06
597.774	94.06
597.983	99.06
598.192	81.06
598.401	87.06
598.61	81.06
598.819	91.06
599.028	78.06
599.237	77.06
599.446	85.06
599.655	96.06
599.864	100.06
600.073	95.06
600.282	71.06
600.491	87.06
600.7	96.06
600.909	82.06
601.118	79.06
601.327	94.06
601.536	75.06
601.745	97.06
601.953	101.06
602.162	74.06
602.371	82.06
602.58	91.06
602.789	78.06
602.997	83.06
603.206	99.06
603.415	90.06
603.623	88.06
603.832	87.06
604.041	86.06
604.249	94.06
604.458	72.06
604.666	82.06
604.875	106.06
605.084	89.06
605.292	80.06
605.501	82.06
605.709	88.06
605.918	91.06
606.126	78.06
606.334	85.06
606.543	104.06
606.751	87.06
606.96	87.06
607.168	84.06
607.376	92.06
607.585	81.06
607.793	98.06
608.001	94.06
608.21	96.06
608.418	72.06
608.626	87.06
608.834	93.06
609.043	87.06
609.251	82.06
609.459	90.06
609.667	86.06
609.875	97.06
610.083	91.06
610.291	94.06
610.499	78.06
610.707	88.06
610.916	83.06
611.124	83.06
611.332	97.06
611.54	94.06
611.748	98.06
611.955	92.06
612.163	88.06
612.371	87.06
612.579	81.06
612.787	90.06
612.995	82.06
613.203	106.06
613.411	79.06
613.618	83.06
613.826	81.06
614.034	83.06
614.242	90.06
614.449	80.06
614.657	79.06
614.865	91.06
615.072	90.06
615.28	98.06
615.488	74.06
615.695	72.06
615.903	88.06
616.111	85.06
616.318	90.06
616.526	87.06
616.733	91.06
616.941	98.06
617.148	87.06
617.356	81.06
617.563	81.06
617.771	88.06
617.978	75.06
618.185	95.06
618.393	83.06
618.6	88.06
618.807	96.06
619.015	101.06
619.222	81.06
619.429	95.06
619.637	83.06
619.844	98.06
620.051	82.06
620.258	87.06
620.466	85.06
620.673	84.06
620.88	88.06
621.087	88.06
621.294	91.06
621.501	83.06
621.708	83.06
621.915	92.06
622.122	77.06
622.329	89.06
622.536	83.06
622.743	77.06
622.95	88.06
623.157	89.06
623.364	84.06
623.571	83.06
623.778	80.06
623.985	92.06
624.192	87.06
624.399	98.06
624.606	98.06
624.812	73.06
625.019	98.06
625.226	80.06
625.433	81.06
625.639	90.06
625.846	82.06
626.053	80.06
626.259	80.06
626.466	91.06
626.673	79.06
626.879	86.06
627.086	90.06
627.293	94.06
627.499	107.06
627.706	89.06
627.912	79.06
628.119	83.06
628.325	77.06
628.532	65.06
628.738	72.06
628.945	77.06
629.151	81.06
629.357	87.06
629.564	98.06
629.77	74.06
629.976	83.06
630.183	88.06
630.389	90.06
630.595	74.06
630.802	88.06
631.008	96.06
631.214	79.06
631.42	93.06
631.627	87.06
631.833	85.06
632.039	79.06
632.245	94.06
632.451	92.06
632.657	93.06
632.863	92.06
633.069	87.06
633.275	94.06
633.481	91.06
633.688	74.06
633.893	87.06
634.099	75.06
634.305	89.06
634.511	75.06
634.717	71.06
634.923	88.06
635.129	94.06
635.335	66.06
635.541	91.06
635.747	88.06
635.952	65.06
636.158	71.06
636.364	82.06
636.57	94.06
636.775	79.06
636.981	93.06
637.187	86.06
637.392	77.06
637.598	88.06
637.804	90.06
638.009	82.06
638.215	96.06
638.421	90.06
638.626	98.06
638.832	99.06
639.037	86.06
639.243	65.06
639.448	95.06
639.654	79.06
639.859	78.06
640.065	83.06
640.27	96.06
640.475	81.06
640.681	73.06
640.886	92.06
641.091	91.06
641.297	74.06
641.502	84.06
641.707	77.06
641.913	77.06
642.118	86.06
642.323	88.06
642.528	107.06
642.733	85.06
642.939	74.06
643.144	82.06
643.349	83.06
643.554	85.06
643.759	92.06
643.964	82.06
644.169	84.06
644.374	87.06
644.579	87.06
644.784	92.06
644.989	94.06
645.194	86.06
645.399	78.06
645.604	78.06
645.809	73.06
646.014	90.06
646.219	94.06
646.423	73.06
646.628	90.06
646.833	78.06
647.038	83.06
647.243	88.06
647.447	80.06
647.652	69.06
647.857	82.06
648.062	82.06
648.266	87.06
648.471	80.06
648.676	89.06
648.88	74.06
649.085	82.06
649.289	96.06
649.494	83.06
649.698	87.06
649.903	85.06
650.107	84.06
650.312	88.06
650.516	91.06
650.721	89.06
650.925	92.06
651.13	85.06
651.334	81.06
651.539	99.06
651.743	88.06
651.947	90.06
652.152	79.06
652.356	84.06
652.56	74.06
652.764	85.06
652.969	72.06
653.173	78.06
653.377	75.06
653.581	100.06
653.785	87.06
653.99	79.06
654.194	79.06
654.398	86.06
654.602	78.06
654.806	75.06
655.01	83.06
655.214	83.06
655.418	85.06
655.622	74.06
655.826	79.06
656.03	87.06
656.234	81.06
656.438	73.06
656.642	91.06
656.846	94.06
657.049	76.06
657.253	92.06
657.457	94.06
657.661	80.06
657.865	85.06
658.068	82.06
658.272	75.06
658.476	78.06
658.68	80.06
658.883	73.06
659.087	75.06
659.291	79.06
659.494	81.06
659.698	80.06
659.901	64.06
660.105	66.06
660.309	75.06
660.512	79.06
660.716	89.06
660.919	83.06
661.123	73.06
661.326	60.06
661.53	84.06
661.733	90.06
661.936	85.06
662.14	94.06
662.343	95.06
662.546	87.06
662.75	80.06
662.953	74.06
663.156	62.06
663.36	80.06
663.563	86.06
663.766	78.06
663.969	80.06
664.173	87.06
664.376	73.06
664.579	87.06
664.782	84.06
664.985	99.06
665.188	93.06
665.391	89.06
665.594	74.06
665.797	90.06
666	88.06
666.203	78.06
666.406	77.06
666.609	75.06
666.812	69.06
667.015	84.06
667.218	78.06
667.421	85.06
667.624	82.06
667.827	91.06
668.03	78.06
668.232	85.06
668.435	77.06
668.638	65.06
668.841	78.06
669.043	96.06
669.246	82.06
669.449	74.06
669.651	79.06
669.854	80.06
670.057	73.06
670.259	86.06
670.462	70.06
670.665	79.06
670.867	94.06
671.07	91.06
671.272	104.06
671.475	86.06
671.677	85.06
671.88	84.06
672.082	82.06
672.284	81.06
672.487	85.06
672.689	87.06
672.892	88.06
