Data from Zn(NO3)2Standard.Agarose3%.GreenCap.LampEnergy10E.O_HRD10591_15-07-00-943.txt Node
Date: Mon Jul 22 15:07:00 EDT 2019
User: cochatt
Spectrometer: HR+D1059
Trigger mode: 1
Integration Time (sec): 1.000000E-1
Scans to average: 1
Electric dark correction enabled: true
Nonlinearity correction enabled: false
Boxcar width: 0
XAxis mode: Wavelengths
Number of Pixels in Spectrum: 2048
>>>>>Begin Spectral Data<<<<<
223.165	-24.62
223.4	-24.62
223.635	-24.62
223.869	-12.62
224.104	-12.62
224.338	-18.62
224.573	-9.62
224.808	-5.62
225.042	2.38
225.277	-22.62
225.511	-1.62
225.746	12.38
225.98	2.38
226.215	5.38
226.449	21.38
226.683	17.38
226.918	28.38
227.152	18.38
227.387	33.38
227.621	31.38
227.856	50.38
228.09	50.38
228.324	50.38
228.559	62.38
228.793	53.38
229.027	69.38
229.262	64.38
229.496	59.38
229.73	75.38
229.964	57.38
230.199	67.38
230.433	79.38
230.667	84.38
230.901	92.38
231.136	82.38
231.37	76.38
231.604	74.38
231.838	93.38
232.072	79.38
232.306	61.38
232.541	84.38
232.775	81.38
233.009	88.38
233.243	84.38
233.477	69.38
233.711	69.38
233.945	84.38
234.179	71.38
234.413	93.38
234.647	90.38
234.881	78.38
235.115	86.38
235.349	74.38
235.583	65.38
235.817	87.38
236.051	92.38
236.285	82.38
236.519	90.38
236.753	83.38
236.987	81.38
237.221	65.38
237.455	87.38
237.689	69.38
237.922	74.38
238.156	72.38
238.39	80.38
238.624	83.38
238.858	77.38
239.091	66.38
239.325	83.38
239.559	73.38
239.793	77.38
240.027	75.38
240.26	71.38
240.494	84.38
240.728	83.38
240.961	85.38
241.195	71.38
241.429	70.38
241.662	72.38
241.896	74.38
242.13	81.38
242.363	75.38
242.597	75.38
242.83	71.38
243.064	84.38
243.298	83.38
243.531	74.38
243.765	80.38
243.998	67.38
244.232	85.38
244.465	72.38
244.699	74.38
244.932	61.38
245.166	60.38
245.399	72.38
245.633	82.38
245.866	76.38
246.099	86.38
246.333	69.38
246.566	75.38
246.8	67.38
247.033	79.38
247.266	79.38
247.5	66.38
247.733	84.38
247.966	83.38
248.2	66.38
248.433	85.38
248.666	75.38
248.899	97.38
249.133	75.38
249.366	81.38
249.599	82.38
249.832	87.38
250.066	82.38
250.299	80.38
250.532	66.38
250.765	75.38
250.998	72.38
251.231	75.38
251.465	83.38
251.698	73.38
251.931	83.38
252.164	75.38
252.397	84.38
252.63	84.38
252.863	78.38
253.096	81.38
253.329	76.38
253.562	91.38
253.795	87.38
254.028	76.38
254.261	78.38
254.494	72.38
254.727	91.38
254.96	84.38
255.193	88.38
255.426	63.38
255.659	91.38
255.892	81.38
256.124	75.38
256.357	66.38
256.59	84.38
256.823	91.38
257.056	81.38
257.289	85.38
257.521	76.38
257.754	88.38
257.987	92.38
258.22	88.38
258.452	82.38
258.685	73.38
258.918	78.38
259.151	83.38
259.383	90.38
259.616	88.38
259.849	82.38
260.081	84.38
260.314	80.38
260.547	91.38
260.779	71.38
261.012	80.38
261.244	73.38
261.477	97.38
261.71	71.38
261.942	79.38
262.175	104.38
262.407	80.38
262.64	83.38
262.872	76.38
263.105	81.38
263.337	100.38
263.57	76.38
263.802	70.38
264.035	78.38
264.267	80.38
264.499	77.38
264.732	82.38
264.964	88.38
265.197	69.38
265.429	81.38
265.661	84.38
265.894	86.38
266.126	83.38
266.358	77.38
266.591	83.38
266.823	88.38
267.055	80.38
267.287	72.38
267.52	82.38
267.752	88.38
267.984	93.38
268.216	91.38
268.448	89.38
268.681	75.38
268.913	79.38
269.145	80.38
269.377	80.38
269.609	80.38
269.841	87.38
270.073	77.38
270.306	78.38
270.538	81.38
270.77	78.38
271.002	89.38
271.234	81.38
271.466	74.38
271.698	84.38
271.93	88.38
272.162	89.38
272.394	75.38
272.626	83.38
272.858	106.38
273.09	88.38
273.322	69.38
273.553	85.38
273.785	77.38
274.017	84.38
274.249	95.38
274.481	77.38
274.713	84.38
274.945	75.38
275.176	82.38
275.408	83.38
275.64	87.38
275.872	73.38
276.104	86.38
276.335	79.38
276.567	82.38
276.799	76.38
277.031	78.38
277.262	94.38
277.494	97.38
277.726	78.38
277.957	89.38
278.189	75.38
278.421	85.38
278.652	91.38
278.884	86.38
279.115	89.38
279.347	83.38
279.579	84.38
279.81	88.38
280.042	74.38
280.273	88.38
280.505	87.38
280.736	81.38
280.968	80.38
281.199	85.38
281.431	85.38
281.662	85.38
281.894	70.38
282.125	89.38
282.356	92.38
282.588	76.38
282.819	73.38
283.051	83.38
283.282	70.38
283.513	87.38
283.745	81.38
283.976	82.38
284.207	88.38
284.439	84.38
284.67	90.38
284.901	82.38
285.132	78.38
285.364	81.38
285.595	84.38
285.826	76.38
286.057	108.38
286.288	92.38
286.52	81.38
286.751	85.38
286.982	81.38
287.213	77.38
287.444	81.38
287.675	86.38
287.906	82.38
288.138	81.38
288.369	87.38
288.6	99.38
288.831	91.38
289.062	78.38
289.293	90.38
289.524	72.38
289.755	81.38
289.986	83.38
290.217	88.38
290.448	83.38
290.679	79.38
290.91	86.38
291.141	73.38
291.371	81.38
291.602	79.38
291.833	82.38
292.064	99.38
292.295	87.38
292.526	79.38
292.757	81.38
292.987	83.38
293.218	82.38
293.449	71.38
293.68	76.38
293.91	84.38
294.141	93.38
294.372	99.38
294.603	80.38
294.833	98.38
295.064	87.38
295.295	89.38
295.525	85.38
295.756	77.38
295.987	89.38
296.217	78.38
296.448	95.38
296.679	67.38
296.909	92.38
297.14	85.38
297.37	91.38
297.601	82.38
297.831	86.38
298.062	80.38
298.292	94.38
298.523	71.38
298.753	92.38
298.984	85.38
299.214	85.38
299.445	81.38
299.675	78.38
299.905	75.38
300.136	77.38
300.366	64.38
300.597	80.38
300.827	90.38
301.057	95.38
301.288	94.38
301.518	88.38
301.748	79.38
301.979	96.38
302.209	82.38
302.439	90.38
302.669	96.38
302.9	80.38
303.13	82.38
303.36	77.38
303.59	60.38
303.82	90.38
304.051	90.38
304.281	81.38
304.511	91.38
304.741	89.38
304.971	83.38
305.201	89.38
305.431	84.38
305.661	83.38
305.891	102.38
306.121	77.38
306.352	86.38
306.582	76.38
306.812	86.38
307.042	96.38
307.272	71.38
307.502	94.38
307.731	87.38
307.961	92.38
308.191	89.38
308.421	96.38
308.651	96.38
308.881	82.38
309.111	87.38
309.341	79.38
309.571	85.38
309.8	89.38
310.03	78.38
310.26	88.38
310.49	83.38
310.72	81.38
310.949	66.38
311.179	66.38
311.409	82.38
311.639	90.38
311.868	75.38
312.098	84.38
312.328	82.38
312.557	97.38
312.787	100.38
313.017	87.38
313.246	95.38
313.476	84.38
313.706	84.38
313.935	90.38
314.165	81.38
314.394	80.38
314.624	84.38
314.853	84.38
315.083	88.38
315.312	88.38
315.542	89.38
315.771	99.38
316.001	92.38
316.23	86.38
316.46	78.38
316.689	91.38
316.919	105.38
317.148	83.38
317.377	99.38
317.607	90.38
317.836	96.38
318.065	81.38
318.295	90.38
318.524	86.38
318.753	82.38
318.983	87.38
319.212	90.38
319.441	96.38
319.67	90.38
319.9	75.38
320.129	81.38
320.358	85.38
320.587	92.38
320.816	81.38
321.046	77.38
321.275	82.38
321.504	93.38
321.733	89.38
321.962	76.38
322.191	75.38
322.42	83.38
322.649	87.38
322.878	83.38
323.108	86.38
323.337	88.38
323.566	96.38
323.795	69.38
324.024	91.38
324.253	81.38
324.482	83.38
324.71	82.38
324.939	84.38
325.168	84.38
325.397	88.38
325.626	97.38
325.855	90.38
326.084	69.38
326.313	85.38
326.542	94.38
326.77	99.38
326.999	95.38
327.228	78.38
327.457	84.38
327.686	75.38
327.914	84.38
328.143	89.38
328.372	80.38
328.6	92.38
328.829	86.38
329.058	87.38
329.287	95.38
329.515	78.38
329.744	91.38
329.972	72.38
330.201	86.38
330.43	78.38
330.658	73.38
330.887	77.38
331.115	77.38
331.344	56.38
331.572	93.38
331.801	85.38
332.03	88.38
332.258	96.38
332.486	87.38
332.715	80.38
332.943	103.38
333.172	80.38
333.4	84.38
333.629	71.38
333.857	88.38
334.085	83.38
334.314	83.38
334.542	80.38
334.771	64.38
334.999	83.38
335.227	85.38
335.455	87.38
335.684	76.38
335.912	77.38
336.14	72.38
336.369	85.38
336.597	87.38
336.825	83.38
337.053	98.38
337.281	75.38
337.51	85.38
337.738	92.38
337.966	79.38
338.194	68.38
338.422	78.38
338.65	86.38
338.878	79.38
339.106	88.38
339.334	83.38
339.562	82.38
339.79	82.38
340.018	86.38
340.246	84.38
340.474	92.38
340.702	73.38
340.93	84.38
341.158	73.38
341.386	85.38
341.614	84.38
341.842	75.38
342.07	84.38
342.298	85.38
342.526	81.38
342.754	77.38
342.981	76.38
343.209	81.38
343.437	88.38
343.665	84.38
343.893	93.38
344.12	88.38
344.348	72.38
344.576	92.38
344.804	97.38
345.031	81.38
345.259	66.38
345.487	83.38
345.714	85.38
345.942	74.38
346.17	105.38
346.397	83.38
346.625	83.38
346.853	83.38
347.08	85.38
347.308	96.38
347.535	71.38
347.763	88.38
347.99	73.38
348.218	81.38
348.445	71.38
348.673	82.38
348.9	86.38
349.128	81.38
349.355	83.38
349.583	92.38
349.81	96.38
350.037	93.38
350.265	82.38
350.492	72.38
350.72	76.38
350.947	92.38
351.174	95.38
351.402	83.38
351.629	77.38
351.856	83.38
352.083	80.38
352.311	84.38
352.538	75.38
352.765	77.38
352.992	87.38
353.22	101.38
353.447	104.38
353.674	90.38
353.901	86.38
354.128	76.38
354.355	79.38
354.583	71.38
354.81	96.38
355.037	81.38
355.264	86.38
355.491	91.38
355.718	83.38
355.945	85.38
356.172	92.38
356.399	97.38
356.626	83.38
356.853	77.38
357.08	89.38
357.307	83.38
357.534	81.38
357.761	82.38
357.988	87.38
358.215	85.38
358.441	87.38
358.668	80.38
358.895	97.38
359.122	85.38
359.349	85.38
359.576	72.38
359.802	82.38
360.029	87.38
360.256	85.38
360.483	87.38
360.709	87.38
360.936	96.38
361.163	75.38
361.39	87.38
361.616	85.38
361.843	81.38
362.07	79.38
362.296	79.38
362.523	103.38
362.749	79.38
362.976	102.38
363.203	78.38
363.429	73.38
363.656	89.38
363.882	88.38
364.109	75.38
364.335	76.38
364.562	96.38
364.788	78.38
365.015	88.38
365.241	86.38
365.468	85.38
365.694	75.38
365.92	80.38
366.147	78.38
366.373	90.38
366.599	82.38
366.826	84.38
367.052	79.38
367.278	85.38
367.505	75.38
367.731	74.38
367.957	97.38
368.184	99.38
368.41	81.38
368.636	81.38
368.862	91.38
369.089	67.38
369.315	87.38
369.541	88.38
369.767	89.38
369.993	72.38
370.219	85.38
370.445	84.38
370.672	91.38
370.898	81.38
371.124	83.38
371.35	86.38
371.576	87.38
371.802	89.38
372.028	96.38
372.254	76.38
372.48	89.38
372.706	74.38
372.932	87.38
373.158	85.38
373.384	79.38
373.61	99.38
373.835	83.38
374.061	87.38
374.287	93.38
374.513	96.38
374.739	83.38
374.965	89.38
375.191	85.38
375.416	92.38
375.642	85.38
375.868	93.38
376.094	82.38
376.319	84.38
376.545	68.38
376.771	89.38
376.997	93.38
377.222	86.38
377.448	84.38
377.674	86.38
377.899	72.38
378.125	82.38
378.35	82.38
378.576	89.38
378.802	78.38
379.027	75.38
379.253	90.38
379.478	86.38
379.704	83.38
379.929	78.38
380.155	88.38
380.38	77.38
380.606	96.38
380.831	84.38
381.057	92.38
381.282	82.38
381.507	77.38
381.733	81.38
381.958	94.38
382.184	82.38
382.409	82.38
382.634	94.38
382.86	89.38
383.085	85.38
383.31	97.38
383.535	74.38
383.761	88.38
383.986	90.38
384.211	72.38
384.436	89.38
384.662	84.38
384.887	93.38
385.112	96.38
385.337	92.38
385.562	90.38
385.787	81.38
386.013	77.38
386.238	81.38
386.463	87.38
386.688	74.38
386.913	85.38
387.138	92.38
387.363	92.38
387.588	90.38
387.813	79.38
388.038	98.38
388.263	100.38
388.488	95.38
388.713	83.38
388.938	77.38
389.163	100.38
389.387	72.38
389.612	77.38
389.837	93.38
390.062	73.38
390.287	94.38
390.512	92.38
390.736	81.38
390.961	83.38
391.186	86.38
391.411	84.38
391.636	74.38
391.86	102.38
392.085	105.38
392.31	86.38
392.534	96.38
392.759	86.38
392.984	100.38
393.208	86.38
393.433	109.38
393.658	101.38
393.882	88.38
394.107	98.38
394.331	90.38
394.556	88.38
394.78	83.38
395.005	97.38
395.229	95.38
395.454	93.38
395.678	88.38
395.903	80.38
396.127	92.38
396.352	93.38
396.576	89.38
396.801	97.38
397.025	98.38
397.249	81.38
397.474	91.38
397.698	85.38
397.922	90.38
398.147	95.38
398.371	82.38
398.595	85.38
398.82	90.38
399.044	97.38
399.268	99.38
399.492	89.38
399.717	93.38
399.941	92.38
400.165	85.38
400.389	107.38
400.613	84.38
400.837	91.38
401.062	96.38
401.286	92.38
401.51	98.38
401.734	100.38
401.958	86.38
402.182	89.38
402.406	90.38
402.63	99.38
402.854	85.38
403.078	101.38
403.302	99.38
403.526	94.38
403.75	103.38
403.974	94.38
404.198	97.38
404.422	96.38
404.645	96.38
404.869	92.38
405.093	95.38
405.317	106.38
405.541	101.38
405.765	90.38
405.988	95.38
406.212	95.38
406.436	95.38
406.66	111.38
406.883	96.38
407.107	99.38
407.331	102.38
407.555	106.38
407.778	103.38
408.002	94.38
408.226	92.38
408.449	98.38
408.673	97.38
408.896	95.38
409.12	96.38
409.344	106.38
409.567	104.38
409.791	96.38
410.014	99.38
410.238	98.38
410.461	90.38
410.685	105.38
410.908	92.38
411.132	107.38
411.355	115.38
411.578	106.38
411.802	92.38
412.025	107.38
412.249	104.38
412.472	107.38
412.695	106.38
412.919	106.38
413.142	101.38
413.365	96.38
413.589	104.38
413.812	104.38
414.035	106.38
414.258	98.38
414.482	83.38
414.705	108.38
414.928	89.38
415.151	104.38
415.374	96.38
415.597	93.38
415.821	104.38
416.044	113.38
416.267	89.38
416.49	87.38
416.713	96.38
416.936	87.38
417.159	104.38
417.382	78.38
417.605	102.38
417.828	108.38
418.051	97.38
418.274	105.38
418.497	117.38
418.72	99.38
418.943	111.38
419.166	106.38
419.389	104.38
419.611	81.38
419.834	101.38
420.057	98.38
420.28	112.38
420.503	122.38
420.726	117.38
420.948	107.38
421.171	96.38
421.394	100.38
421.617	111.38
421.839	97.38
422.062	100.38
422.285	100.38
422.507	90.38
422.73	103.38
422.953	104.38
423.175	111.38
423.398	101.38
423.621	105.38
423.843	99.38
424.066	114.38
424.288	108.38
424.511	119.38
424.733	116.38
424.956	119.38
425.178	100.38
425.401	104.38
425.623	108.38
425.846	98.38
426.068	105.38
426.291	101.38
426.513	113.38
426.735	91.38
426.958	121.38
427.18	106.38
427.402	100.38
427.625	99.38
427.847	113.38
428.069	117.38
428.292	100.38
428.514	99.38
428.736	112.38
428.958	115.38
429.181	115.38
429.403	97.38
429.625	92.38
429.847	95.38
430.069	96.38
430.292	105.38
430.514	115.38
430.736	88.38
430.958	107.38
431.18	98.38
431.402	91.38
431.624	98.38
431.846	91.38
432.068	90.38
432.29	90.38
432.512	101.38
432.734	114.38
432.956	108.38
433.178	104.38
433.4	104.38
433.622	99.38
433.844	106.38
434.066	91.38
434.287	88.38
434.509	91.38
434.731	82.38
434.953	95.38
435.175	90.38
435.397	103.38
435.618	87.38
435.84	87.38
436.062	85.38
436.284	104.38
436.505	96.38
436.727	94.38
436.949	115.38
437.17	97.38
437.392	93.38
437.614	101.38
437.835	89.38
438.057	98.38
438.278	100.38
438.5	108.38
438.721	96.38
438.943	115.38
439.165	122.38
439.386	120.38
439.608	102.38
439.829	103.38
440.05	96.38
440.272	104.38
440.493	108.38
440.715	105.38
440.936	105.38
441.158	106.38
441.379	104.38
441.6	119.38
441.822	123.38
442.043	114.38
442.264	108.38
442.486	109.38
442.707	112.38
442.928	106.38
443.149	92.38
443.371	107.38
443.592	110.38
443.813	104.38
444.034	86.38
444.255	116.38
444.476	90.38
444.698	109.38
444.919	113.38
445.14	232.38
445.361	165.38
445.582	123.38
445.803	119.38
446.024	86.38
446.245	121.38
446.466	103.38
446.687	121.38
446.908	106.38
447.129	129.38
447.35	102.38
447.571	112.38
447.792	108.38
448.013	96.38
448.234	102.38
448.455	113.38
448.675	109.38
448.896	105.38
449.117	115.38
449.338	117.38
449.559	103.38
449.779	110.38
450	118.38
450.221	102.38
450.442	115.38
450.662	103.38
450.883	108.38
451.104	115.38
451.324	96.38
451.545	100.38
451.766	108.38
451.986	101.38
452.207	106.38
452.428	98.38
452.648	99.38
452.869	106.38
453.089	93.38
453.31	100.38
453.53	94.38
453.751	96.38
453.971	86.38
454.192	90.38
454.412	93.38
454.633	103.38
454.853	102.38
455.073	94.38
455.294	82.38
455.514	107.38
455.734	99.38
455.955	95.38
456.175	106.38
456.395	76.38
456.616	99.38
456.836	99.38
457.056	91.38
457.276	92.38
457.497	101.38
457.717	83.38
457.937	89.38
458.157	84.38
458.377	92.38
458.598	91.38
458.818	85.38
459.038	82.38
459.258	97.38
459.478	84.38
459.698	81.38
459.918	82.38
460.138	91.38
460.358	98.38
460.578	84.38
460.798	108.38
461.018	113.38
461.238	97.38
461.458	97.38
461.678	89.38
461.898	99.38
462.118	100.38
462.338	100.38
462.558	97.38
462.777	103.38
462.997	98.38
463.217	95.38
463.437	106.38
463.657	90.38
463.876	97.38
464.096	81.38
464.316	93.38
464.536	94.38
464.755	88.38
464.975	119.38
465.195	97.38
465.414	96.38
465.634	85.38
465.854	111.38
466.073	113.38
466.293	103.38
466.512	93.38
466.732	100.38
466.951	117.38
467.171	106.38
467.391	93.38
467.61	107.38
467.829	104.38
468.049	102.38
468.268	113.38
468.488	120.38
468.707	101.38
468.927	123.38
469.146	127.38
469.365	104.38
469.585	99.38
469.804	112.38
470.023	96.38
470.243	111.38
470.462	117.38
470.681	111.38
470.901	108.38
471.12	115.38
471.339	113.38
471.558	118.38
471.777	111.38
471.997	107.38
472.216	120.38
472.435	108.38
472.654	106.38
472.873	106.38
473.092	80.38
473.311	100.38
473.53	106.38
473.749	103.38
473.968	130.38
474.187	113.38
474.406	111.38
474.625	100.38
474.844	111.38
475.063	116.38
475.282	97.38
475.501	105.38
475.72	100.38
475.939	105.38
476.158	113.38
476.377	95.38
476.596	97.38
476.814	122.38
477.033	93.38
477.252	99.38
477.471	121.38
477.69	111.38
477.908	116.38
478.127	105.38
478.346	116.38
478.564	113.38
478.783	108.38
479.002	113.38
479.22	107.38
479.439	115.38
479.658	95.38
479.876	88.38
480.095	110.38
480.313	97.38
480.532	104.38
480.751	82.38
480.969	84.38
481.188	85.38
481.406	102.38
481.624	90.38
481.843	91.38
482.061	81.38
482.28	99.38
482.498	95.38
482.717	100.38
482.935	100.38
483.153	111.38
483.372	108.38
483.59	115.38
483.808	107.38
484.027	107.38
484.245	101.38
484.463	97.38
484.681	119.38
484.9	105.38
485.118	111.38
485.336	109.38
485.554	84.38
485.772	94.38
485.99	94.38
486.209	88.38
486.427	77.38
486.645	100.38
486.863	95.38
487.081	113.38
487.299	103.38
487.517	100.38
487.735	116.38
487.953	135.38
488.171	115.38
488.389	115.38
488.607	123.38
488.825	115.38
489.043	105.38
489.261	118.38
489.479	94.38
489.696	117.38
489.914	111.38
490.132	105.38
490.35	124.38
490.568	114.38
490.786	124.38
491.003	122.38
491.221	125.38
491.439	129.38
491.657	127.38
491.874	136.38
492.092	137.38
492.31	147.38
492.527	137.38
492.745	152.38
492.963	126.38
493.18	123.38
493.398	132.38
493.615	128.38
493.833	120.38
494.05	137.38
494.268	137.38
494.485	136.38
494.703	118.38
494.92	113.38
495.138	123.38
495.355	135.38
495.573	113.38
495.79	132.38
496.008	126.38
496.225	121.38
496.442	119.38
496.66	119.38
496.877	127.38
497.094	123.38
497.312	113.38
497.529	117.38
497.746	117.38
497.963	111.38
498.181	117.38
498.398	99.38
498.615	99.38
498.832	102.38
499.049	97.38
499.267	104.38
499.484	122.38
499.701	96.38
499.918	108.38
500.135	122.38
500.352	126.38
500.569	118.38
500.786	111.38
501.003	106.38
501.22	109.38
501.437	114.38
501.654	117.38
501.871	119.38
502.088	105.38
502.305	97.38
502.522	103.38
502.739	105.38
502.956	107.38
503.172	114.38
503.389	104.38
503.606	101.38
503.823	101.38
504.04	96.38
504.256	103.38
504.473	94.38
504.69	97.38
504.907	97.38
505.123	100.38
505.34	104.38
505.557	102.38
505.773	109.38
505.99	93.38
506.207	103.38
506.423	107.38
506.64	99.38
506.856	117.38
507.073	106.38
507.289	110.38
507.506	96.38
507.722	99.38
507.939	98.38
508.155	90.38
508.372	97.38
508.588	110.38
508.805	117.38
509.021	79.38
509.238	102.38
509.454	88.38
509.67	94.38
509.887	77.38
510.103	79.38
510.319	81.38
510.536	87.38
510.752	96.38
510.968	91.38
511.184	82.38
511.401	81.38
511.617	81.38
511.833	91.38
512.049	76.38
512.265	82.38
512.481	99.38
512.698	80.38
512.914	104.38
513.13	101.38
513.346	87.38
513.562	92.38
513.778	93.38
513.994	90.38
514.21	74.38
514.426	90.38
514.642	81.38
514.858	79.38
515.074	93.38
515.29	90.38
515.506	82.38
515.721	77.38
515.937	98.38
516.153	99.38
516.369	80.38
516.585	66.38
516.801	76.38
517.016	79.38
517.232	88.38
517.448	93.38
517.664	82.38
517.879	95.38
518.095	90.38
518.311	99.38
518.527	89.38
518.742	96.38
518.958	84.38
519.173	102.38
519.389	85.38
519.605	93.38
519.82	93.38
520.036	105.38
520.251	90.38
520.467	92.38
520.682	96.38
520.898	101.38
521.113	78.38
521.329	82.38
521.544	101.38
521.76	85.38
521.975	76.38
522.19	95.38
522.406	83.38
522.621	98.38
522.836	92.38
523.052	105.38
523.267	87.38
523.482	78.38
523.698	89.38
523.913	105.38
524.128	90.38
524.343	104.38
524.559	107.38
524.774	119.38
524.989	96.38
525.204	108.38
525.419	93.38
525.634	94.38
525.849	95.38
526.064	94.38
526.28	108.38
526.495	76.38
526.71	84.38
526.925	85.38
527.14	89.38
527.355	75.38
527.57	93.38
527.785	80.38
527.999	98.38
528.214	91.38
528.429	102.38
528.644	100.38
528.859	104.38
529.074	115.38
529.289	129.38
529.503	114.38
529.718	95.38
529.933	93.38
530.148	93.38
530.363	88.38
530.577	76.38
530.792	96.38
531.007	85.38
531.221	95.38
531.436	84.38
531.651	94.38
531.865	83.38
532.08	80.38
532.295	81.38
532.509	95.38
532.724	84.38
532.938	88.38
533.153	99.38
533.367	91.38
533.582	88.38
533.796	106.38
534.011	97.38
534.225	88.38
534.44	81.38
534.654	95.38
534.868	84.38
535.083	86.38
535.297	97.38
535.511	96.38
535.726	94.38
535.94	95.38
536.154	85.38
536.369	87.38
536.583	93.38
536.797	90.38
537.011	98.38
537.225	89.38
537.44	82.38
537.654	94.38
537.868	90.38
538.082	92.38
538.296	97.38
538.51	95.38
538.724	97.38
538.938	108.38
539.153	88.38
539.367	106.38
539.581	93.38
539.795	101.38
540.009	81.38
540.222	79.38
540.436	92.38
540.65	84.38
540.864	94.38
541.078	114.38
541.292	112.38
541.506	115.38
541.72	136.38
541.934	147.38
542.147	144.38
542.361	115.38
542.575	115.38
542.789	109.38
543.002	108.38
543.216	114.38
543.43	108.38
543.644	115.38
543.857	106.38
544.071	131.38
544.285	133.38
544.498	120.38
544.712	115.38
544.925	119.38
545.139	114.38
545.352	118.38
545.566	119.38
545.779	122.38
545.993	128.38
546.206	117.38
546.42	127.38
546.633	119.38
546.847	113.38
547.06	127.38
547.274	135.38
547.487	140.38
547.7	116.38
547.914	126.38
548.127	120.38
548.34	117.38
548.554	117.38
548.767	123.38
548.98	123.38
549.193	138.38
549.407	119.38
549.62	121.38
549.833	116.38
550.046	121.38
550.259	120.38
550.473	119.38
550.686	131.38
550.899	116.38
551.112	114.38
551.325	122.38
551.538	99.38
551.751	103.38
551.964	112.38
552.177	103.38
552.39	137.38
552.603	124.38
552.816	108.38
553.029	120.38
553.242	115.38
553.455	125.38
553.667	127.38
553.88	123.38
554.093	114.38
554.306	125.38
554.519	122.38
554.732	108.38
554.944	123.38
555.157	104.38
555.37	101.38
555.583	120.38
555.795	108.38
556.008	95.38
556.221	108.38
556.433	114.38
556.646	104.38
556.859	107.38
557.071	114.38
557.284	125.38
557.496	113.38
557.709	102.38
557.921	105.38
558.134	103.38
558.346	101.38
558.559	98.38
558.771	113.38
558.984	98.38
559.196	106.38
559.409	111.38
559.621	103.38
559.833	104.38
560.046	103.38
560.258	100.38
560.47	93.38
560.683	103.38
560.895	106.38
561.107	106.38
561.32	107.38
561.532	104.38
561.744	125.38
561.956	97.38
562.168	107.38
562.381	121.38
562.593	104.38
562.805	108.38
563.017	104.38
563.229	92.38
563.441	100.38
563.653	112.38
563.865	95.38
564.077	100.38
564.289	91.38
564.501	104.38
564.713	103.38
564.925	105.38
565.137	116.38
565.349	90.38
565.561	108.38
565.773	89.38
565.985	91.38
566.197	104.38
566.408	104.38
566.62	114.38
566.832	92.38
567.044	112.38
567.255	99.38
567.467	92.38
567.679	96.38
567.891	101.38
568.102	93.38
568.314	84.38
568.526	83.38
568.737	87.38
568.949	78.38
569.161	94.38
569.372	79.38
569.584	80.38
569.795	88.38
570.007	81.38
570.218	91.38
570.43	91.38
570.641	91.38
570.853	92.38
571.064	93.38
571.276	94.38
571.487	83.38
571.698	89.38
571.91	90.38
572.121	84.38
572.333	111.38
572.544	95.38
572.755	94.38
572.966	99.38
573.178	74.38
573.389	92.38
573.6	71.38
573.811	79.38
574.023	77.38
574.234	91.38
574.445	85.38
574.656	76.38
574.867	91.38
575.078	87.38
575.289	81.38
575.501	91.38
575.712	86.38
575.923	83.38
576.134	105.38
576.345	69.38
576.556	81.38
576.767	90.38
576.978	93.38
577.188	97.38
577.399	84.38
577.61	92.38
577.821	93.38
578.032	95.38
578.243	73.38
578.454	99.38
578.665	89.38
578.875	76.38
579.086	90.38
579.297	86.38
579.508	74.38
579.718	78.38
579.929	89.38
580.14	83.38
580.35	89.38
580.561	77.38
580.772	85.38
580.982	89.38
581.193	95.38
581.403	91.38
581.614	85.38
581.825	92.38
582.035	83.38
582.246	87.38
582.456	95.38
582.667	94.38
582.877	80.38
583.087	81.38
583.298	95.38
583.508	77.38
583.719	89.38
583.929	97.38
584.139	69.38
584.35	86.38
584.56	81.38
584.77	88.38
584.981	82.38
585.191	89.38
585.401	86.38
585.611	87.38
585.821	84.38
586.032	72.38
586.242	83.38
586.452	87.38
586.662	87.38
586.872	81.38
587.082	78.38
587.292	69.38
587.502	95.38
587.713	93.38
587.923	82.38
588.133	84.38
588.343	74.38
588.553	86.38
588.762	102.38
588.972	88.38
589.182	90.38
589.392	76.38
589.602	76.38
589.812	66.38
590.022	82.38
590.232	85.38
590.441	86.38
590.651	84.38
590.861	89.38
591.071	89.38
591.281	85.38
591.49	82.38
591.7	87.38
591.91	82.38
592.119	72.38
592.329	83.38
592.539	89.38
592.748	90.38
592.958	82.38
593.167	66.38
593.377	81.38
593.587	69.38
593.796	100.38
594.006	78.38
594.215	86.38
594.424	87.38
594.634	98.38
594.843	89.38
595.053	98.38
595.262	87.38
595.472	91.38
595.681	83.38
595.89	76.38
596.1	87.38
596.309	84.38
596.518	85.38
596.727	91.38
596.937	94.38
597.146	85.38
597.355	75.38
597.564	81.38
597.774	90.38
597.983	85.38
598.192	94.38
598.401	90.38
598.61	89.38
598.819	88.38
599.028	79.38
599.237	81.38
599.446	88.38
599.655	106.38
599.864	93.38
600.073	86.38
600.282	96.38
600.491	96.38
600.7	80.38
600.909	95.38
601.118	98.38
601.327	93.38
601.536	114.38
601.745	79.38
601.953	98.38
602.162	101.38
602.371	95.38
602.58	90.38
602.789	83.38
602.997	92.38
603.206	96.38
603.415	105.38
603.623	81.38
603.832	94.38
604.041	98.38
604.249	98.38
604.458	99.38
604.666	88.38
604.875	87.38
605.084	92.38
605.292	103.38
605.501	99.38
605.709	97.38
605.918	87.38
606.126	101.38
606.334	84.38
606.543	107.38
606.751	104.38
606.96	103.38
607.168	101.38
607.376	113.38
607.585	105.38
607.793	98.38
608.001	90.38
608.21	91.38
608.418	99.38
608.626	92.38
608.834	89.38
609.043	104.38
609.251	103.38
609.459	88.38
609.667	107.38
609.875	87.38
610.083	95.38
610.291	103.38
610.499	109.38
610.707	90.38
610.916	104.38
611.124	87.38
611.332	96.38
611.54	105.38
611.748	108.38
611.955	101.38
612.163	107.38
612.371	99.38
612.579	98.38
612.787	93.38
612.995	94.38
613.203	98.38
613.411	97.38
613.618	91.38
613.826	109.38
614.034	106.38
614.242	91.38
614.449	89.38
614.657	105.38
614.865	82.38
615.072	90.38
615.28	97.38
615.488	98.38
615.695	91.38
615.903	88.38
616.111	90.38
616.318	111.38
616.526	104.38
616.733	103.38
616.941	90.38
617.148	107.38
617.356	95.38
617.563	106.38
617.771	91.38
617.978	88.38
618.185	95.38
618.393	92.38
618.6	98.38
618.807	88.38
619.015	99.38
619.222	104.38
619.429	81.38
619.637	92.38
619.844	104.38
620.051	85.38
620.258	107.38
620.466	102.38
620.673	73.38
620.88	93.38
621.087	102.38
621.294	83.38
621.501	81.38
621.708	102.38
621.915	99.38
622.122	105.38
622.329	111.38
622.536	83.38
622.743	85.38
622.95	80.38
623.157	83.38
623.364	91.38
623.571	97.38
623.778	87.38
623.985	96.38
624.192	96.38
624.399	88.38
624.606	93.38
624.812	99.38
625.019	76.38
625.226	92.38
625.433	80.38
625.639	87.38
625.846	96.38
626.053	94.38
626.259	99.38
626.466	89.38
626.673	81.38
626.879	80.38
627.086	77.38
627.293	85.38
627.499	97.38
627.706	83.38
627.912	99.38
628.119	94.38
628.325	98.38
628.532	90.38
628.738	89.38
628.945	105.38
629.151	90.38
629.357	89.38
629.564	94.38
629.77	100.38
629.976	84.38
630.183	79.38
630.389	78.38
630.595	89.38
630.802	103.38
631.008	95.38
631.214	94.38
631.42	93.38
631.627	83.38
631.833	82.38
632.039	82.38
632.245	83.38
632.451	103.38
632.657	85.38
632.863	85.38
633.069	91.38
633.275	88.38
633.481	99.38
633.688	89.38
633.893	84.38
634.099	100.38
634.305	93.38
634.511	88.38
634.717	104.38
634.923	100.38
635.129	85.38
635.335	81.38
635.541	92.38
635.747	98.38
635.952	83.38
636.158	89.38
636.364	88.38
636.57	95.38
636.775	96.38
636.981	97.38
637.187	92.38
637.392	88.38
637.598	101.38
637.804	92.38
638.009	91.38
638.215	98.38
638.421	85.38
638.626	84.38
638.832	105.38
639.037	76.38
639.243	88.38
639.448	82.38
639.654	88.38
639.859	80.38
640.065	87.38
640.27	100.38
640.475	105.38
640.681	94.38
640.886	96.38
641.091	103.38
641.297	89.38
641.502	91.38
641.707	98.38
641.913	102.38
642.118	84.38
642.323	92.38
642.528	79.38
642.733	83.38
642.939	91.38
643.144	91.38
643.349	82.38
643.554	91.38
643.759	95.38
643.964	107.38
644.169	85.38
644.374	96.38
644.579	82.38
644.784	80.38
644.989	101.38
645.194	101.38
645.399	95.38
645.604	85.38
645.809	91.38
646.014	88.38
646.219	87.38
646.423	85.38
646.628	92.38
646.833	86.38
647.038	88.38
647.243	82.38
647.447	85.38
647.652	101.38
647.857	86.38
648.062	91.38
648.266	89.38
648.471	86.38
648.676	62.38
648.88	82.38
649.085	83.38
649.289	100.38
649.494	80.38
649.698	100.38
649.903	87.38
650.107	90.38
650.312	93.38
650.516	96.38
650.721	100.38
650.925	72.38
651.13	72.38
651.334	85.38
651.539	86.38
651.743	96.38
651.947	93.38
652.152	80.38
652.356	76.38
652.56	79.38
652.764	86.38
652.969	78.38
653.173	90.38
653.377	74.38
653.581	74.38
653.785	83.38
653.99	85.38
654.194	71.38
654.398	88.38
654.602	88.38
654.806	82.38
655.01	93.38
655.214	86.38
655.418	86.38
655.622	77.38
655.826	94.38
656.03	94.38
656.234	84.38
656.438	78.38
656.642	76.38
656.846	77.38
657.049	85.38
657.253	86.38
657.457	84.38
657.661	80.38
657.865	89.38
658.068	84.38
658.272	65.38
658.476	89.38
658.68	90.38
658.883	84.38
659.087	93.38
659.291	93.38
659.494	82.38
659.698	66.38
659.901	89.38
660.105	86.38
660.309	85.38
660.512	85.38
660.716	63.38
660.919	80.38
661.123	88.38
661.326	84.38
661.53	91.38
661.733	86.38
661.936	82.38
662.14	74.38
662.343	88.38
662.546	85.38
662.75	80.38
662.953	84.38
663.156	81.38
663.36	80.38
663.563	83.38
663.766	95.38
663.969	90.38
664.173	77.38
664.376	100.38
664.579	71.38
664.782	73.38
664.985	76.38
665.188	79.38
665.391	78.38
665.594	71.38
665.797	90.38
666	86.38
666.203	79.38
666.406	80.38
666.609	99.38
666.812	76.38
667.015	79.38
667.218	75.38
667.421	72.38
667.624	83.38
667.827	80.38
668.03	82.38
668.232	71.38
668.435	87.38
668.638	82.38
668.841	82.38
669.043	81.38
669.246	74.38
669.449	78.38
669.651	75.38
669.854	87.38
670.057	66.38
670.259	77.38
670.462	80.38
670.665	85.38
670.867	72.38
671.07	81.38
671.272	84.38
671.475	79.38
671.677	71.38
671.88	81.38
672.082	76.38
672.284	81.38
672.487	86.38
672.689	83.38
672.892	83.38
