Data from Zn(NO3)2Standard.Agarose3%.GreenCap.LampEnergy10E.O_HRD10591_15-06-53-942.txt Node
Date: Mon Jul 22 15:06:53 EDT 2019
User: cochatt
Spectrometer: HR+D1059
Trigger mode: 1
Integration Time (sec): 1.000000E-1
Scans to average: 1
Electric dark correction enabled: true
Nonlinearity correction enabled: false
Boxcar width: 0
XAxis mode: Wavelengths
Number of Pixels in Spectrum: 2048
>>>>>Begin Spectral Data<<<<<
223.165	-14.31
223.4	-14.31
223.635	-14.31
223.869	-11.31
224.104	-4.31
224.338	-19.31
224.573	-13.31
224.808	-26.31
225.042	-18.31
225.277	-0.31
225.511	-4.31
225.746	7.69
225.98	3.69
226.215	1.69
226.449	20.69
226.683	31.69
226.918	10.69
227.152	35.69
227.387	36.69
227.621	33.69
227.856	45.69
228.09	33.69
228.324	45.69
228.559	67.69
228.793	65.69
229.027	61.69
229.262	65.69
229.496	63.69
229.73	70.69
229.964	74.69
230.199	59.69
230.433	66.69
230.667	71.69
230.901	72.69
231.136	71.69
231.37	72.69
231.604	76.69
231.838	74.69
232.072	86.69
232.306	92.69
232.541	75.69
232.775	75.69
233.009	77.69
233.243	88.69
233.477	68.69
233.711	79.69
233.945	74.69
234.179	81.69
234.413	98.69
234.647	73.69
234.881	81.69
235.115	83.69
235.349	90.69
235.583	66.69
235.817	70.69
236.051	55.69
236.285	68.69
236.519	69.69
236.753	73.69
236.987	62.69
237.221	84.69
237.455	90.69
237.689	78.69
237.922	63.69
238.156	68.69
238.39	68.69
238.624	72.69
238.858	66.69
239.091	82.69
239.325	74.69
239.559	83.69
239.793	74.69
240.027	76.69
240.26	80.69
240.494	78.69
240.728	82.69
240.961	82.69
241.195	56.69
241.429	81.69
241.662	73.69
241.896	64.69
242.13	75.69
242.363	82.69
242.597	69.69
242.83	83.69
243.064	76.69
243.298	74.69
243.531	64.69
243.765	68.69
243.998	80.69
244.232	80.69
244.465	72.69
244.699	63.69
244.932	78.69
245.166	79.69
245.399	69.69
245.633	83.69
245.866	82.69
246.099	73.69
246.333	96.69
246.566	88.69
246.8	60.69
247.033	68.69
247.266	60.69
247.5	72.69
247.733	75.69
247.966	93.69
248.2	72.69
248.433	85.69
248.666	73.69
248.899	69.69
249.133	73.69
249.366	89.69
249.599	82.69
249.832	89.69
250.066	87.69
250.299	74.69
250.532	87.69
250.765	80.69
250.998	73.69
251.231	81.69
251.465	84.69
251.698	77.69
251.931	71.69
252.164	80.69
252.397	77.69
252.63	80.69
252.863	67.69
253.096	74.69
253.329	94.69
253.562	98.69
253.795	81.69
254.028	90.69
254.261	83.69
254.494	84.69
254.727	87.69
254.96	93.69
255.193	86.69
255.426	85.69
255.659	84.69
255.892	89.69
256.124	80.69
256.357	77.69
256.59	87.69
256.823	85.69
257.056	73.69
257.289	78.69
257.521	84.69
257.754	90.69
257.987	77.69
258.22	82.69
258.452	77.69
258.685	80.69
258.918	69.69
259.151	84.69
259.383	72.69
259.616	65.69
259.849	81.69
260.081	79.69
260.314	73.69
260.547	81.69
260.779	70.69
261.012	69.69
261.244	80.69
261.477	84.69
261.71	77.69
261.942	74.69
262.175	82.69
262.407	87.69
262.64	76.69
262.872	81.69
263.105	83.69
263.337	81.69
263.57	77.69
263.802	84.69
264.035	78.69
264.267	87.69
264.499	85.69
264.732	87.69
264.964	69.69
265.197	85.69
265.429	84.69
265.661	75.69
265.894	66.69
266.126	80.69
266.358	88.69
266.591	76.69
266.823	86.69
267.055	82.69
267.287	79.69
267.52	81.69
267.752	80.69
267.984	92.69
268.216	72.69
268.448	86.69
268.681	88.69
268.913	93.69
269.145	76.69
269.377	94.69
269.609	80.69
269.841	83.69
270.073	83.69
270.306	91.69
270.538	73.69
270.77	69.69
271.002	88.69
271.234	86.69
271.466	72.69
271.698	90.69
271.93	78.69
272.162	84.69
272.394	84.69
272.626	84.69
272.858	78.69
273.09	79.69
273.322	73.69
273.553	89.69
273.785	81.69
274.017	78.69
274.249	85.69
274.481	84.69
274.713	81.69
274.945	78.69
275.176	80.69
275.408	79.69
275.64	87.69
275.872	78.69
276.104	83.69
276.335	87.69
276.567	88.69
276.799	85.69
277.031	79.69
277.262	90.69
277.494	71.69
277.726	98.69
277.957	76.69
278.189	83.69
278.421	77.69
278.652	87.69
278.884	86.69
279.115	91.69
279.347	73.69
279.579	95.69
279.81	72.69
280.042	74.69
280.273	79.69
280.505	72.69
280.736	91.69
280.968	85.69
281.199	82.69
281.431	72.69
281.662	92.69
281.894	69.69
282.125	82.69
282.356	77.69
282.588	85.69
282.819	94.69
283.051	84.69
283.282	78.69
283.513	83.69
283.745	73.69
283.976	89.69
284.207	68.69
284.439	76.69
284.67	85.69
284.901	90.69
285.132	67.69
285.364	72.69
285.595	88.69
285.826	84.69
286.057	75.69
286.288	74.69
286.52	90.69
286.751	89.69
286.982	91.69
287.213	83.69
287.444	78.69
287.675	77.69
287.906	85.69
288.138	96.69
288.369	99.69
288.6	88.69
288.831	86.69
289.062	89.69
289.293	96.69
289.524	85.69
289.755	85.69
289.986	84.69
290.217	81.69
290.448	85.69
290.679	86.69
290.91	87.69
291.141	92.69
291.371	88.69
291.602	79.69
291.833	80.69
292.064	81.69
292.295	70.69
292.526	81.69
292.757	90.69
292.987	79.69
293.218	87.69
293.449	95.69
293.68	88.69
293.91	81.69
294.141	91.69
294.372	85.69
294.603	84.69
294.833	76.69
295.064	75.69
295.295	87.69
295.525	88.69
295.756	84.69
295.987	81.69
296.217	90.69
296.448	72.69
296.679	79.69
296.909	88.69
297.14	83.69
297.37	95.69
297.601	95.69
297.831	90.69
298.062	103.69
298.292	94.69
298.523	75.69
298.753	87.69
298.984	86.69
299.214	91.69
299.445	93.69
299.675	84.69
299.905	72.69
300.136	74.69
300.366	84.69
300.597	91.69
300.827	75.69
301.057	78.69
301.288	85.69
301.518	87.69
301.748	91.69
301.979	97.69
302.209	84.69
302.439	82.69
302.669	81.69
302.9	92.69
303.13	78.69
303.36	73.69
303.59	73.69
303.82	77.69
304.051	98.69
304.281	99.69
304.511	90.69
304.741	84.69
304.971	94.69
305.201	84.69
305.431	88.69
305.661	87.69
305.891	95.69
306.121	81.69
306.352	85.69
306.582	87.69
306.812	84.69
307.042	92.69
307.272	81.69
307.502	86.69
307.731	88.69
307.961	86.69
308.191	85.69
308.421	84.69
308.651	89.69
308.881	83.69
309.111	81.69
309.341	88.69
309.571	77.69
309.8	77.69
310.03	83.69
310.26	80.69
310.49	68.69
310.72	91.69
310.949	101.69
311.179	72.69
311.409	86.69
311.639	92.69
311.868	86.69
312.098	94.69
312.328	81.69
312.557	69.69
312.787	97.69
313.017	81.69
313.246	89.69
313.476	83.69
313.706	91.69
313.935	63.69
314.165	81.69
314.394	84.69
314.624	89.69
314.853	108.69
315.083	60.69
315.312	80.69
315.542	95.69
315.771	100.69
316.001	85.69
316.23	89.69
316.46	96.69
316.689	68.69
316.919	83.69
317.148	88.69
317.377	88.69
317.607	91.69
317.836	85.69
318.065	86.69
318.295	87.69
318.524	86.69
318.753	102.69
318.983	83.69
319.212	88.69
319.441	83.69
319.67	91.69
319.9	89.69
320.129	84.69
320.358	97.69
320.587	90.69
320.816	80.69
321.046	87.69
321.275	88.69
321.504	89.69
321.733	93.69
321.962	83.69
322.191	95.69
322.42	81.69
322.649	76.69
322.878	82.69
323.108	93.69
323.337	85.69
323.566	81.69
323.795	81.69
324.024	90.69
324.253	85.69
324.482	81.69
324.71	83.69
324.939	70.69
325.168	78.69
325.397	88.69
325.626	78.69
325.855	95.69
326.084	89.69
326.313	84.69
326.542	84.69
326.77	88.69
326.999	81.69
327.228	87.69
327.457	80.69
327.686	82.69
327.914	78.69
328.143	91.69
328.372	77.69
328.6	90.69
328.829	91.69
329.058	85.69
329.287	69.69
329.515	91.69
329.744	86.69
329.972	98.69
330.201	91.69
330.43	85.69
330.658	82.69
330.887	77.69
331.115	83.69
331.344	93.69
331.572	95.69
331.801	73.69
332.03	88.69
332.258	89.69
332.486	79.69
332.715	90.69
332.943	88.69
333.172	76.69
333.4	84.69
333.629	70.69
333.857	90.69
334.085	85.69
334.314	92.69
334.542	69.69
334.771	82.69
334.999	89.69
335.227	76.69
335.455	77.69
335.684	80.69
335.912	79.69
336.14	95.69
336.369	73.69
336.597	77.69
336.825	71.69
337.053	98.69
337.281	82.69
337.51	80.69
337.738	92.69
337.966	77.69
338.194	81.69
338.422	84.69
338.65	73.69
338.878	95.69
339.106	85.69
339.334	76.69
339.562	83.69
339.79	83.69
340.018	77.69
340.246	90.69
340.474	104.69
340.702	83.69
340.93	85.69
341.158	82.69
341.386	89.69
341.614	81.69
341.842	91.69
342.07	82.69
342.298	85.69
342.526	94.69
342.754	80.69
342.981	82.69
343.209	82.69
343.437	86.69
343.665	85.69
343.893	69.69
344.12	85.69
344.348	85.69
344.576	91.69
344.804	80.69
345.031	70.69
345.259	83.69
345.487	81.69
345.714	85.69
345.942	81.69
346.17	91.69
346.397	86.69
346.625	91.69
346.853	84.69
347.08	85.69
347.308	86.69
347.535	101.69
347.763	94.69
347.99	92.69
348.218	87.69
348.445	77.69
348.673	85.69
348.9	88.69
349.128	94.69
349.355	85.69
349.583	87.69
349.81	77.69
350.037	75.69
350.265	89.69
350.492	84.69
350.72	87.69
350.947	91.69
351.174	76.69
351.402	84.69
351.629	88.69
351.856	79.69
352.083	78.69
352.311	95.69
352.538	78.69
352.765	72.69
352.992	95.69
353.22	74.69
353.447	85.69
353.674	84.69
353.901	88.69
354.128	87.69
354.355	104.69
354.583	82.69
354.81	74.69
355.037	82.69
355.264	84.69
355.491	73.69
355.718	81.69
355.945	96.69
356.172	89.69
356.399	80.69
356.626	82.69
356.853	81.69
357.08	93.69
357.307	76.69
357.534	68.69
357.761	87.69
357.988	94.69
358.215	80.69
358.441	76.69
358.668	73.69
358.895	88.69
359.122	83.69
359.349	63.69
359.576	77.69
359.802	80.69
360.029	79.69
360.256	78.69
360.483	88.69
360.709	84.69
360.936	81.69
361.163	83.69
361.39	88.69
361.616	87.69
361.843	100.69
362.07	89.69
362.296	87.69
362.523	83.69
362.749	85.69
362.976	80.69
363.203	93.69
363.429	75.69
363.656	77.69
363.882	73.69
364.109	86.69
364.335	75.69
364.562	84.69
364.788	76.69
365.015	83.69
365.241	81.69
365.468	82.69
365.694	94.69
365.92	95.69
366.147	95.69
366.373	87.69
366.599	86.69
366.826	84.69
367.052	91.69
367.278	83.69
367.505	90.69
367.731	82.69
367.957	96.69
368.184	71.69
368.41	87.69
368.636	83.69
368.862	93.69
369.089	91.69
369.315	88.69
369.541	96.69
369.767	91.69
369.993	76.69
370.219	74.69
370.445	78.69
370.672	71.69
370.898	78.69
371.124	85.69
371.35	89.69
371.576	77.69
371.802	74.69
372.028	81.69
372.254	89.69
372.48	65.69
372.706	92.69
372.932	74.69
373.158	84.69
373.384	102.69
373.61	85.69
373.835	93.69
374.061	82.69
374.287	81.69
374.513	75.69
374.739	87.69
374.965	92.69
375.191	87.69
375.416	91.69
375.642	81.69
375.868	77.69
376.094	89.69
376.319	82.69
376.545	84.69
376.771	96.69
376.997	89.69
377.222	91.69
377.448	84.69
377.674	87.69
377.899	103.69
378.125	82.69
378.35	86.69
378.576	75.69
378.802	96.69
379.027	97.69
379.253	93.69
379.478	87.69
379.704	95.69
379.929	75.69
380.155	88.69
380.38	89.69
380.606	90.69
380.831	88.69
381.057	91.69
381.282	89.69
381.507	81.69
381.733	80.69
381.958	92.69
382.184	92.69
382.409	87.69
382.634	88.69
382.86	89.69
383.085	93.69
383.31	80.69
383.535	89.69
383.761	104.69
383.986	95.69
384.211	87.69
384.436	78.69
384.662	78.69
384.887	80.69
385.112	76.69
385.337	81.69
385.562	83.69
385.787	98.69
386.013	95.69
386.238	85.69
386.463	93.69
386.688	85.69
386.913	93.69
387.138	102.69
387.363	90.69
387.588	90.69
387.813	102.69
388.038	86.69
388.263	92.69
388.488	87.69
388.713	76.69
388.938	88.69
389.163	88.69
389.387	83.69
389.612	87.69
389.837	91.69
390.062	98.69
390.287	91.69
390.512	98.69
390.736	90.69
390.961	80.69
391.186	88.69
391.411	104.69
391.636	95.69
391.86	88.69
392.085	89.69
392.31	97.69
392.534	98.69
392.759	113.69
392.984	105.69
393.208	95.69
393.433	90.69
393.658	97.69
393.882	85.69
394.107	111.69
394.331	103.69
394.556	106.69
394.78	81.69
395.005	93.69
395.229	106.69
395.454	96.69
395.678	97.69
395.903	78.69
396.127	86.69
396.352	103.69
396.576	101.69
396.801	92.69
397.025	93.69
397.249	115.69
397.474	97.69
397.698	96.69
397.922	101.69
398.147	93.69
398.371	92.69
398.595	95.69
398.82	81.69
399.044	95.69
399.268	88.69
399.492	103.69
399.717	93.69
399.941	97.69
400.165	80.69
400.389	93.69
400.613	92.69
400.837	104.69
401.062	101.69
401.286	103.69
401.51	91.69
401.734	92.69
401.958	93.69
402.182	81.69
402.406	83.69
402.63	103.69
402.854	83.69
403.078	98.69
403.302	88.69
403.526	103.69
403.75	107.69
403.974	94.69
404.198	104.69
404.422	97.69
404.645	95.69
404.869	89.69
405.093	97.69
405.317	84.69
405.541	97.69
405.765	91.69
405.988	95.69
406.212	104.69
406.436	91.69
406.66	96.69
406.883	80.69
407.107	81.69
407.331	88.69
407.555	89.69
407.778	98.69
408.002	92.69
408.226	98.69
408.449	94.69
408.673	97.69
408.896	102.69
409.12	100.69
409.344	105.69
409.567	96.69
409.791	105.69
410.014	93.69
410.238	104.69
410.461	93.69
410.685	100.69
410.908	100.69
411.132	89.69
411.355	89.69
411.578	99.69
411.802	111.69
412.025	94.69
412.249	79.69
412.472	97.69
412.695	106.69
412.919	101.69
413.142	100.69
413.365	99.69
413.589	91.69
413.812	100.69
414.035	91.69
414.258	88.69
414.482	98.69
414.705	89.69
414.928	99.69
415.151	100.69
415.374	100.69
415.597	91.69
415.821	81.69
416.044	93.69
416.267	98.69
416.49	101.69
416.713	107.69
416.936	121.69
417.159	103.69
417.382	75.69
417.605	85.69
417.828	97.69
418.051	99.69
418.274	103.69
418.497	99.69
418.72	106.69
418.943	111.69
419.166	106.69
419.389	111.69
419.611	119.69
419.834	94.69
420.057	113.69
420.28	103.69
420.503	97.69
420.726	100.69
420.948	92.69
421.171	94.69
421.394	94.69
421.617	96.69
421.839	93.69
422.062	113.69
422.285	101.69
422.507	94.69
422.73	108.69
422.953	106.69
423.175	108.69
423.398	93.69
423.621	95.69
423.843	118.69
424.066	106.69
424.288	109.69
424.511	107.69
424.733	99.69
424.956	101.69
425.178	115.69
425.401	110.69
425.623	111.69
425.846	106.69
426.068	99.69
426.291	104.69
426.513	104.69
426.735	122.69
426.958	99.69
427.18	96.69
427.402	109.69
427.625	106.69
427.847	89.69
428.069	111.69
428.292	105.69
428.514	108.69
428.736	114.69
428.958	113.69
429.181	108.69
429.403	104.69
429.625	92.69
429.847	86.69
430.069	105.69
430.292	102.69
430.514	96.69
430.736	100.69
430.958	108.69
431.18	99.69
431.402	108.69
431.624	99.69
431.846	94.69
432.068	93.69
432.29	90.69
432.512	91.69
432.734	101.69
432.956	91.69
433.178	111.69
433.4	104.69
433.622	113.69
433.844	113.69
434.066	111.69
434.287	91.69
434.509	87.69
434.731	99.69
434.953	85.69
435.175	103.69
435.397	91.69
435.618	91.69
435.84	90.69
436.062	87.69
436.284	109.69
436.505	92.69
436.727	104.69
436.949	113.69
437.17	97.69
437.392	87.69
437.614	108.69
437.835	95.69
438.057	88.69
438.278	96.69
438.5	96.69
438.721	91.69
438.943	109.69
439.165	102.69
439.386	97.69
439.608	98.69
439.829	102.69
440.05	118.69
440.272	119.69
440.493	108.69
440.715	95.69
440.936	117.69
441.158	119.69
441.379	109.69
441.6	93.69
441.822	102.69
442.043	104.69
442.264	102.69
442.486	105.69
442.707	111.69
442.928	98.69
443.149	110.69
443.371	111.69
443.592	123.69
443.813	115.69
444.034	106.69
444.255	107.69
444.476	100.69
444.698	93.69
444.919	103.69
445.14	209.69
445.361	159.69
445.582	115.69
445.803	111.69
446.024	108.69
446.245	108.69
446.466	105.69
446.687	103.69
446.908	124.69
447.129	113.69
447.35	105.69
447.571	111.69
447.792	95.69
448.013	106.69
448.234	109.69
448.455	100.69
448.675	105.69
448.896	106.69
449.117	122.69
449.338	107.69
449.559	115.69
449.779	113.69
450	105.69
450.221	95.69
450.442	104.69
450.662	105.69
450.883	107.69
451.104	95.69
451.324	99.69
451.545	115.69
451.766	102.69
451.986	98.69
452.207	111.69
452.428	101.69
452.648	92.69
452.869	106.69
453.089	87.69
453.31	94.69
453.53	95.69
453.751	87.69
453.971	96.69
454.192	92.69
454.412	91.69
454.633	99.69
454.853	114.69
455.073	112.69
455.294	99.69
455.514	104.69
455.734	92.69
455.955	100.69
456.175	99.69
456.395	99.69
456.616	79.69
456.836	97.69
457.056	94.69
457.276	88.69
457.497	106.69
457.717	91.69
457.937	79.69
458.157	84.69
458.377	111.69
458.598	88.69
458.818	103.69
459.038	97.69
459.258	102.69
459.478	95.69
459.698	107.69
459.918	94.69
460.138	87.69
460.358	100.69
460.578	81.69
460.798	95.69
461.018	72.69
461.238	121.69
461.458	104.69
461.678	105.69
461.898	108.69
462.118	96.69
462.338	87.69
462.558	97.69
462.777	90.69
462.997	99.69
463.217	85.69
463.437	96.69
463.657	81.69
463.876	91.69
464.096	108.69
464.316	87.69
464.536	95.69
464.755	98.69
464.975	94.69
465.195	103.69
465.414	91.69
465.634	92.69
465.854	101.69
466.073	105.69
466.293	103.69
466.512	100.69
466.732	108.69
466.951	117.69
467.171	106.69
467.391	95.69
467.61	112.69
467.829	114.69
468.049	98.69
468.268	97.69
468.488	110.69
468.707	104.69
468.927	101.69
469.146	111.69
469.365	129.69
469.585	113.69
469.804	100.69
470.023	102.69
470.243	109.69
470.462	114.69
470.681	115.69
470.901	118.69
471.12	106.69
471.339	119.69
471.558	115.69
471.777	114.69
471.997	107.69
472.216	87.69
472.435	101.69
472.654	97.69
472.873	101.69
473.092	107.69
473.311	89.69
473.53	105.69
473.749	105.69
473.968	123.69
474.187	101.69
474.406	89.69
474.625	101.69
474.844	114.69
475.063	115.69
475.282	107.69
475.501	95.69
475.72	108.69
475.939	99.69
476.158	111.69
476.377	103.69
476.596	100.69
476.814	85.69
477.033	83.69
477.252	96.69
477.471	106.69
477.69	100.69
477.908	109.69
478.127	118.69
478.346	96.69
478.564	88.69
478.783	108.69
479.002	105.69
479.22	107.69
479.439	105.69
479.658	111.69
479.876	93.69
480.095	97.69
480.313	89.69
480.532	100.69
480.751	102.69
480.969	84.69
481.188	96.69
481.406	85.69
481.624	75.69
481.843	80.69
482.061	78.69
482.28	100.69
482.498	99.69
482.717	101.69
482.935	109.69
483.153	116.69
483.372	127.69
483.59	119.69
483.808	111.69
484.027	116.69
484.245	92.69
484.463	110.69
484.681	124.69
484.9	108.69
485.118	111.69
485.336	106.69
485.554	99.69
485.772	75.69
485.99	87.69
486.209	102.69
486.427	89.69
486.645	99.69
486.863	111.69
487.081	101.69
487.299	103.69
487.517	108.69
487.735	114.69
487.953	119.69
488.171	123.69
488.389	128.69
488.607	121.69
488.825	121.69
489.043	107.69
489.261	105.69
489.479	123.69
489.696	95.69
489.914	113.69
490.132	123.69
490.35	113.69
490.568	119.69
490.786	114.69
491.003	127.69
491.221	124.69
491.439	119.69
491.657	127.69
491.874	135.69
492.092	140.69
492.31	155.69
492.527	161.69
492.745	151.69
492.963	131.69
493.18	148.69
493.398	131.69
493.615	127.69
493.833	123.69
494.05	121.69
494.268	127.69
494.485	134.69
494.703	130.69
494.92	123.69
495.138	126.69
495.355	122.69
495.573	122.69
495.79	133.69
496.008	121.69
496.225	118.69
496.442	123.69
496.66	135.69
496.877	128.69
497.094	127.69
497.312	115.69
497.529	130.69
497.746	119.69
497.963	115.69
498.181	114.69
498.398	103.69
498.615	104.69
498.832	105.69
499.049	93.69
499.267	96.69
499.484	101.69
499.701	114.69
499.918	106.69
500.135	121.69
500.352	106.69
500.569	108.69
500.786	118.69
501.003	106.69
501.22	112.69
501.437	113.69
501.654	99.69
501.871	103.69
502.088	105.69
502.305	111.69
502.522	99.69
502.739	111.69
502.956	106.69
503.172	101.69
503.389	104.69
503.606	92.69
503.823	104.69
504.04	107.69
504.256	85.69
504.473	90.69
504.69	98.69
504.907	100.69
505.123	112.69
505.34	87.69
505.557	111.69
505.773	113.69
505.99	95.69
506.207	110.69
506.423	107.69
506.64	100.69
506.856	105.69
507.073	105.69
507.289	94.69
507.506	108.69
507.722	96.69
507.939	112.69
508.155	115.69
508.372	105.69
508.588	90.69
508.805	85.69
509.021	92.69
509.238	85.69
509.454	93.69
509.67	98.69
509.887	100.69
510.103	84.69
510.319	83.69
510.536	91.69
510.752	76.69
510.968	88.69
511.184	89.69
511.401	92.69
511.617	84.69
511.833	87.69
512.049	82.69
512.265	93.69
512.481	83.69
512.698	83.69
512.914	96.69
513.13	88.69
513.346	96.69
513.562	86.69
513.778	84.69
513.994	76.69
514.21	106.69
514.426	93.69
514.642	97.69
514.858	91.69
515.074	82.69
515.29	87.69
515.506	74.69
515.721	81.69
515.937	85.69
516.153	88.69
516.369	87.69
516.585	83.69
516.801	79.69
517.016	97.69
517.232	76.69
517.448	92.69
517.664	92.69
517.879	84.69
518.095	89.69
518.311	88.69
518.527	89.69
518.742	94.69
518.958	94.69
519.173	102.69
519.389	91.69
519.605	99.69
519.82	87.69
520.036	105.69
520.251	89.69
520.467	89.69
520.682	80.69
520.898	98.69
521.113	71.69
521.329	87.69
521.544	77.69
521.76	85.69
521.975	89.69
522.19	91.69
522.406	85.69
522.621	88.69
522.836	94.69
523.052	102.69
523.267	107.69
523.482	101.69
523.698	93.69
523.913	88.69
524.128	99.69
524.343	99.69
524.559	111.69
524.774	85.69
524.989	92.69
525.204	88.69
525.419	105.69
525.634	100.69
525.849	90.69
526.064	101.69
526.28	79.69
526.495	99.69
526.71	84.69
526.925	80.69
527.14	76.69
527.355	96.69
527.57	68.69
527.785	84.69
527.999	94.69
528.214	96.69
528.429	96.69
528.644	106.69
528.859	99.69
529.074	113.69
529.289	125.69
529.503	102.69
529.718	119.69
529.933	95.69
530.148	91.69
530.363	91.69
530.577	88.69
530.792	88.69
531.007	85.69
531.221	71.69
531.436	84.69
531.651	83.69
531.865	86.69
532.08	84.69
532.295	97.69
532.509	90.69
532.724	81.69
532.938	94.69
533.153	103.69
533.367	101.69
533.582	114.69
533.796	117.69
534.011	97.69
534.225	84.69
534.44	71.69
534.654	96.69
534.868	88.69
535.083	93.69
535.297	73.69
535.511	82.69
535.726	81.69
535.94	89.69
536.154	88.69
536.369	85.69
536.583	98.69
536.797	91.69
537.011	77.69
537.225	88.69
537.44	76.69
537.654	93.69
537.868	90.69
538.082	73.69
538.296	96.69
538.51	98.69
538.724	95.69
538.938	105.69
539.153	123.69
539.367	96.69
539.581	113.69
539.795	97.69
540.009	74.69
540.222	100.69
540.436	87.69
540.65	95.69
540.864	107.69
541.078	105.69
541.292	114.69
541.506	141.69
541.72	137.69
541.934	123.69
542.147	124.69
542.361	122.69
542.575	139.69
542.789	126.69
543.002	123.69
543.216	102.69
543.43	95.69
543.644	95.69
543.857	123.69
544.071	117.69
544.285	122.69
544.498	111.69
544.712	107.69
544.925	119.69
545.139	121.69
545.352	118.69
545.566	113.69
545.779	129.69
545.993	142.69
546.206	108.69
546.42	122.69
546.633	124.69
546.847	132.69
547.06	125.69
547.274	112.69
547.487	121.69
547.7	115.69
547.914	133.69
548.127	126.69
548.34	120.69
548.554	112.69
548.767	127.69
548.98	117.69
549.193	120.69
549.407	108.69
549.62	121.69
549.833	127.69
550.046	116.69
550.259	124.69
550.473	120.69
550.686	105.69
550.899	125.69
551.112	121.69
551.325	107.69
551.538	115.69
551.751	113.69
551.964	106.69
552.177	101.69
552.39	114.69
552.603	121.69
552.816	115.69
553.029	120.69
553.242	121.69
553.455	126.69
553.667	125.69
553.88	117.69
554.093	123.69
554.306	117.69
554.519	109.69
554.732	104.69
554.944	127.69
555.157	116.69
555.37	113.69
555.583	127.69
555.795	111.69
556.008	119.69
556.221	93.69
556.433	115.69
556.646	122.69
556.859	111.69
557.071	109.69
557.284	120.69
557.496	118.69
557.709	115.69
557.921	124.69
558.134	106.69
558.346	116.69
558.559	105.69
558.771	99.69
558.984	103.69
559.196	124.69
559.409	109.69
559.621	114.69
559.833	103.69
560.046	109.69
560.258	115.69
560.47	118.69
560.683	106.69
560.895	93.69
561.107	110.69
561.32	92.69
561.532	97.69
561.744	106.69
561.956	121.69
562.168	99.69
562.381	110.69
562.593	113.69
562.805	124.69
563.017	111.69
563.229	98.69
563.441	98.69
563.653	89.69
563.865	106.69
564.077	102.69
564.289	96.69
564.501	106.69
564.713	105.69
564.925	97.69
565.137	90.69
565.349	119.69
565.561	108.69
565.773	105.69
565.985	106.69
566.197	96.69
566.408	98.69
566.62	101.69
566.832	107.69
567.044	94.69
567.255	109.69
567.467	96.69
567.679	97.69
567.891	100.69
568.102	91.69
568.314	93.69
568.526	91.69
568.737	85.69
568.949	95.69
569.161	92.69
569.372	68.69
569.584	80.69
569.795	79.69
570.007	75.69
570.218	90.69
570.43	87.69
570.641	85.69
570.853	91.69
571.064	87.69
571.276	88.69
571.487	95.69
571.698	90.69
571.91	98.69
572.121	80.69
572.333	84.69
572.544	81.69
572.755	77.69
572.966	87.69
573.178	88.69
573.389	90.69
573.6	83.69
573.811	83.69
574.023	79.69
574.234	96.69
574.445	95.69
574.656	94.69
574.867	91.69
575.078	84.69
575.289	72.69
575.501	91.69
575.712	94.69
575.923	84.69
576.134	95.69
576.345	95.69
576.556	98.69
576.767	82.69
576.978	100.69
577.188	88.69
577.399	91.69
577.61	90.69
577.821	92.69
578.032	96.69
578.243	84.69
578.454	84.69
578.665	87.69
578.875	73.69
579.086	92.69
579.297	80.69
579.508	87.69
579.718	74.69
579.929	69.69
580.14	110.69
580.35	87.69
580.561	73.69
580.772	89.69
580.982	86.69
581.193	95.69
581.403	103.69
581.614	100.69
581.825	97.69
582.035	84.69
582.246	95.69
582.456	84.69
582.667	98.69
582.877	81.69
583.087	90.69
583.298	99.69
583.508	93.69
583.719	91.69
583.929	72.69
584.139	88.69
584.35	78.69
584.56	95.69
584.77	92.69
584.981	80.69
585.191	82.69
585.401	94.69
585.611	80.69
585.821	96.69
586.032	85.69
586.242	89.69
586.452	86.69
586.662	74.69
586.872	69.69
587.082	80.69
587.292	89.69
587.502	105.69
587.713	88.69
587.923	88.69
588.133	85.69
588.343	85.69
588.553	76.69
588.762	88.69
588.972	104.69
589.182	83.69
589.392	88.69
589.602	97.69
589.812	76.69
590.022	79.69
590.232	90.69
590.441	78.69
590.651	84.69
590.861	76.69
591.071	86.69
591.281	86.69
591.49	90.69
591.7	95.69
591.91	88.69
592.119	84.69
592.329	87.69
592.539	96.69
592.748	91.69
592.958	84.69
593.167	83.69
593.377	79.69
593.587	83.69
593.796	93.69
594.006	87.69
594.215	77.69
594.424	88.69
594.634	87.69
594.843	89.69
595.053	95.69
595.262	95.69
595.472	84.69
595.681	107.69
595.89	92.69
596.1	98.69
596.309	90.69
596.518	84.69
596.727	93.69
596.937	78.69
597.146	92.69
597.355	98.69
597.564	82.69
597.774	78.69
597.983	84.69
598.192	91.69
598.401	93.69
598.61	91.69
598.819	99.69
599.028	91.69
599.237	83.69
599.446	79.69
599.655	96.69
599.864	94.69
600.073	94.69
600.282	82.69
600.491	82.69
600.7	95.69
600.909	93.69
601.118	96.69
601.327	97.69
601.536	100.69
601.745	95.69
601.953	91.69
602.162	92.69
602.371	94.69
602.58	99.69
602.789	107.69
602.997	103.69
603.206	116.69
603.415	104.69
603.623	100.69
603.832	106.69
604.041	97.69
604.249	93.69
604.458	84.69
604.666	86.69
604.875	92.69
605.084	85.69
605.292	97.69
605.501	92.69
605.709	112.69
605.918	73.69
606.126	109.69
606.334	97.69
606.543	104.69
606.751	99.69
606.96	90.69
607.168	98.69
607.376	103.69
607.585	98.69
607.793	99.69
608.001	78.69
608.21	96.69
608.418	100.69
608.626	99.69
608.834	97.69
609.043	97.69
609.251	108.69
609.459	86.69
609.667	102.69
609.875	92.69
610.083	92.69
610.291	120.69
610.499	99.69
610.707	100.69
610.916	101.69
611.124	94.69
611.332	107.69
611.54	89.69
611.748	103.69
611.955	95.69
612.163	90.69
612.371	101.69
612.579	97.69
612.787	99.69
612.995	106.69
613.203	99.69
613.411	100.69
613.618	95.69
613.826	92.69
614.034	94.69
614.242	90.69
614.449	83.69
614.657	97.69
614.865	97.69
615.072	98.69
615.28	107.69
615.488	84.69
615.695	100.69
615.903	89.69
616.111	91.69
616.318	101.69
616.526	94.69
616.733	100.69
616.941	103.69
617.148	95.69
617.356	93.69
617.563	105.69
617.771	90.69
617.978	84.69
618.185	100.69
618.393	97.69
618.6	81.69
618.807	97.69
619.015	80.69
619.222	96.69
619.429	100.69
619.637	99.69
619.844	84.69
620.051	76.69
620.258	93.69
620.466	102.69
620.673	98.69
620.88	86.69
621.087	100.69
621.294	90.69
621.501	107.69
621.708	107.69
621.915	77.69
622.122	100.69
622.329	97.69
622.536	97.69
622.743	95.69
622.95	94.69
623.157	104.69
623.364	107.69
623.571	95.69
623.778	90.69
623.985	85.69
624.192	96.69
624.399	102.69
624.606	107.69
624.812	103.69
625.019	84.69
625.226	90.69
625.433	88.69
625.639	86.69
625.846	96.69
626.053	100.69
626.259	80.69
626.466	111.69
626.673	92.69
626.879	76.69
627.086	98.69
627.293	94.69
627.499	92.69
627.706	78.69
627.912	74.69
628.119	88.69
628.325	84.69
628.532	88.69
628.738	101.69
628.945	88.69
629.151	87.69
629.357	91.69
629.564	103.69
629.77	87.69
629.976	98.69
630.183	107.69
630.389	96.69
630.595	83.69
630.802	93.69
631.008	87.69
631.214	92.69
631.42	85.69
631.627	97.69
631.833	89.69
632.039	85.69
632.245	97.69
632.451	97.69
632.657	89.69
632.863	85.69
633.069	85.69
633.275	84.69
633.481	89.69
633.688	85.69
633.893	88.69
634.099	95.69
634.305	94.69
634.511	87.69
634.717	89.69
634.923	71.69
635.129	79.69
635.335	81.69
635.541	84.69
635.747	91.69
635.952	81.69
636.158	89.69
636.364	91.69
636.57	97.69
636.775	83.69
636.981	86.69
637.187	75.69
637.392	90.69
637.598	89.69
637.804	105.69
638.009	97.69
638.215	75.69
638.421	89.69
638.626	95.69
638.832	85.69
639.037	81.69
639.243	85.69
639.448	95.69
639.654	109.69
639.859	89.69
640.065	86.69
640.27	92.69
640.475	79.69
640.681	84.69
640.886	98.69
641.091	97.69
641.297	104.69
641.502	83.69
641.707	95.69
641.913	76.69
642.118	97.69
642.323	87.69
642.528	98.69
642.733	104.69
642.939	96.69
643.144	71.69
643.349	85.69
643.554	88.69
643.759	91.69
643.964	97.69
644.169	85.69
644.374	97.69
644.579	92.69
644.784	87.69
644.989	98.69
645.194	97.69
645.399	86.69
645.604	99.69
645.809	91.69
646.014	74.69
646.219	87.69
646.423	85.69
646.628	81.69
646.833	95.69
647.038	90.69
647.243	109.69
647.447	90.69
647.652	85.69
647.857	103.69
648.062	78.69
648.266	73.69
648.471	92.69
648.676	98.69
648.88	93.69
649.085	74.69
649.289	83.69
649.494	88.69
649.698	86.69
649.903	77.69
650.107	78.69
650.312	81.69
650.516	75.69
650.721	81.69
650.925	86.69
651.13	89.69
651.334	82.69
651.539	84.69
651.743	82.69
651.947	90.69
652.152	96.69
652.356	101.69
652.56	84.69
652.764	84.69
652.969	76.69
653.173	87.69
653.377	80.69
653.581	86.69
653.785	89.69
653.99	94.69
654.194	98.69
654.398	98.69
654.602	69.69
654.806	87.69
655.01	91.69
655.214	89.69
655.418	80.69
655.622	77.69
655.826	83.69
656.03	82.69
656.234	81.69
656.438	87.69
656.642	86.69
656.846	66.69
657.049	82.69
657.253	85.69
657.457	83.69
657.661	91.69
657.865	82.69
658.068	83.69
658.272	68.69
658.476	82.69
658.68	93.69
658.883	71.69
659.087	83.69
659.291	77.69
659.494	88.69
659.698	82.69
659.901	85.69
660.105	79.69
660.309	96.69
660.512	90.69
660.716	79.69
660.919	76.69
661.123	88.69
661.326	79.69
661.53	85.69
661.733	92.69
661.936	80.69
662.14	81.69
662.343	91.69
662.546	86.69
662.75	82.69
662.953	80.69
663.156	78.69
663.36	74.69
663.563	84.69
663.766	81.69
663.969	65.69
664.173	83.69
664.376	85.69
664.579	90.69
664.782	80.69
664.985	83.69
665.188	87.69
665.391	81.69
665.594	68.69
665.797	71.69
666	85.69
666.203	79.69
666.406	77.69
666.609	88.69
666.812	76.69
667.015	86.69
667.218	82.69
667.421	79.69
667.624	87.69
667.827	90.69
668.03	81.69
668.232	76.69
668.435	89.69
668.638	78.69
668.841	85.69
669.043	77.69
669.246	72.69
669.449	84.69
669.651	90.69
669.854	88.69
670.057	80.69
670.259	68.69
670.462	92.69
670.665	74.69
670.867	86.69
671.07	92.69
671.272	87.69
671.475	74.69
671.677	69.69
671.88	85.69
672.082	83.69
672.284	82.69
672.487	82.69
672.689	87.69
672.892	66.69
