Data from Zn(NO3)2Standard.Agarose3%.GreenCap.LampEnergy5.5.E.O_HRD10591_15-03-11-768.txt Node
Date: Mon Jul 22 15:03:11 EDT 2019
User: cochatt
Spectrometer: HR+D1059
Trigger mode: 1
Integration Time (sec): 1.000000E-1
Scans to average: 1
Electric dark correction enabled: true
Nonlinearity correction enabled: false
Boxcar width: 0
XAxis mode: Wavelengths
Number of Pixels in Spectrum: 2048
>>>>>Begin Spectral Data<<<<<
223.165	-31.25
223.4	-31.25
223.635	-31.25
223.869	-6.25
224.104	-14.25
224.338	-14.25
224.573	-9.25
224.808	-16.25
225.042	-10.25
225.277	-2.25
225.511	-8.25
225.746	6.75
225.98	13.75
226.215	7.75
226.449	17.75
226.683	23.75
226.918	11.75
227.152	30.75
227.387	44.75
227.621	47.75
227.856	43.75
228.09	41.75
228.324	54.75
228.559	53.75
228.793	44.75
229.027	51.75
229.262	62.75
229.496	63.75
229.73	77.75
229.964	75.75
230.199	76.75
230.433	82.75
230.667	65.75
230.901	72.75
231.136	78.75
231.37	78.75
231.604	78.75
231.838	81.75
232.072	81.75
232.306	79.75
232.541	77.75
232.775	83.75
233.009	87.75
233.243	76.75
233.477	76.75
233.711	71.75
233.945	86.75
234.179	84.75
234.413	93.75
234.647	76.75
234.881	82.75
235.115	81.75
235.349	77.75
235.583	87.75
235.817	89.75
236.051	69.75
236.285	82.75
236.519	93.75
236.753	71.75
236.987	76.75
237.221	77.75
237.455	85.75
237.689	87.75
237.922	83.75
238.156	82.75
238.39	72.75
238.624	84.75
238.858	73.75
239.091	82.75
239.325	75.75
239.559	79.75
239.793	82.75
240.027	76.75
240.26	78.75
240.494	78.75
240.728	82.75
240.961	69.75
241.195	59.75
241.429	93.75
241.662	79.75
241.896	79.75
242.13	85.75
242.363	85.75
242.597	74.75
242.83	87.75
243.064	65.75
243.298	87.75
243.531	59.75
243.765	89.75
243.998	83.75
244.232	66.75
244.465	75.75
244.699	74.75
244.932	81.75
245.166	88.75
245.399	70.75
245.633	78.75
245.866	82.75
246.099	89.75
246.333	87.75
246.566	88.75
246.8	68.75
247.033	79.75
247.266	81.75
247.5	74.75
247.733	84.75
247.966	63.75
248.2	77.75
248.433	71.75
248.666	94.75
248.899	75.75
249.133	84.75
249.366	88.75
249.599	69.75
249.832	88.75
250.066	90.75
250.299	77.75
250.532	80.75
250.765	87.75
250.998	78.75
251.231	83.75
251.465	76.75
251.698	87.75
251.931	90.75
252.164	77.75
252.397	77.75
252.63	86.75
252.863	88.75
253.096	85.75
253.329	81.75
253.562	84.75
253.795	83.75
254.028	86.75
254.261	74.75
254.494	83.75
254.727	86.75
254.96	66.75
255.193	90.75
255.426	70.75
255.659	85.75
255.892	75.75
256.124	79.75
256.357	78.75
256.59	83.75
256.823	78.75
257.056	79.75
257.289	76.75
257.521	83.75
257.754	72.75
257.987	74.75
258.22	73.75
258.452	74.75
258.685	69.75
258.918	82.75
259.151	91.75
259.383	69.75
259.616	80.75
259.849	77.75
260.081	79.75
260.314	79.75
260.547	75.75
260.779	74.75
261.012	64.75
261.244	90.75
261.477	93.75
261.71	83.75
261.942	73.75
262.175	78.75
262.407	85.75
262.64	78.75
262.872	86.75
263.105	82.75
263.337	84.75
263.57	75.75
263.802	71.75
264.035	79.75
264.267	69.75
264.499	91.75
264.732	78.75
264.964	75.75
265.197	85.75
265.429	86.75
265.661	100.75
265.894	79.75
266.126	84.75
266.358	67.75
266.591	76.75
266.823	89.75
267.055	75.75
267.287	81.75
267.52	80.75
267.752	98.75
267.984	85.75
268.216	84.75
268.448	87.75
268.681	76.75
268.913	81.75
269.145	90.75
269.377	83.75
269.609	75.75
269.841	81.75
270.073	80.75
270.306	79.75
270.538	78.75
270.77	84.75
271.002	84.75
271.234	84.75
271.466	98.75
271.698	79.75
271.93	91.75
272.162	70.75
272.394	92.75
272.626	76.75
272.858	93.75
273.09	73.75
273.322	87.75
273.553	75.75
273.785	82.75
274.017	96.75
274.249	83.75
274.481	85.75
274.713	97.75
274.945	86.75
275.176	99.75
275.408	97.75
275.64	97.75
275.872	82.75
276.104	88.75
276.335	58.75
276.567	94.75
276.799	71.75
277.031	71.75
277.262	98.75
277.494	76.75
277.726	77.75
277.957	84.75
278.189	85.75
278.421	74.75
278.652	77.75
278.884	89.75
279.115	74.75
279.347	82.75
279.579	75.75
279.81	72.75
280.042	77.75
280.273	76.75
280.505	71.75
280.736	98.75
280.968	73.75
281.199	83.75
281.431	92.75
281.662	90.75
281.894	83.75
282.125	80.75
282.356	83.75
282.588	73.75
282.819	88.75
283.051	92.75
283.282	82.75
283.513	93.75
283.745	90.75
283.976	88.75
284.207	72.75
284.439	79.75
284.67	82.75
284.901	79.75
285.132	92.75
285.364	89.75
285.595	89.75
285.826	94.75
286.057	102.75
286.288	87.75
286.52	102.75
286.751	83.75
286.982	81.75
287.213	97.75
287.444	83.75
287.675	93.75
287.906	93.75
288.138	68.75
288.369	90.75
288.6	90.75
288.831	101.75
289.062	94.75
289.293	81.75
289.524	79.75
289.755	72.75
289.986	94.75
290.217	79.75
290.448	82.75
290.679	82.75
290.91	89.75
291.141	91.75
291.371	93.75
291.602	77.75
291.833	73.75
292.064	79.75
292.295	93.75
292.526	86.75
292.757	92.75
292.987	76.75
293.218	85.75
293.449	87.75
293.68	98.75
293.91	81.75
294.141	88.75
294.372	84.75
294.603	76.75
294.833	88.75
295.064	86.75
295.295	82.75
295.525	92.75
295.756	85.75
295.987	98.75
296.217	77.75
296.448	88.75
296.679	85.75
296.909	85.75
297.14	73.75
297.37	83.75
297.601	74.75
297.831	77.75
298.062	82.75
298.292	99.75
298.523	79.75
298.753	89.75
298.984	83.75
299.214	85.75
299.445	70.75
299.675	73.75
299.905	78.75
300.136	86.75
300.366	87.75
300.597	82.75
300.827	70.75
301.057	82.75
301.288	73.75
301.518	79.75
301.748	85.75
301.979	93.75
302.209	99.75
302.439	83.75
302.669	89.75
302.9	70.75
303.13	79.75
303.36	81.75
303.59	69.75
303.82	87.75
304.051	103.75
304.281	86.75
304.511	99.75
304.741	87.75
304.971	80.75
305.201	77.75
305.431	86.75
305.661	93.75
305.891	97.75
306.121	93.75
306.352	75.75
306.582	87.75
306.812	98.75
307.042	77.75
307.272	87.75
307.502	79.75
307.731	91.75
307.961	79.75
308.191	91.75
308.421	71.75
308.651	89.75
308.881	92.75
309.111	87.75
309.341	70.75
309.571	92.75
309.8	71.75
310.03	83.75
310.26	89.75
310.49	95.75
310.72	83.75
310.949	85.75
311.179	70.75
311.409	83.75
311.639	83.75
311.868	77.75
312.098	85.75
312.328	97.75
312.557	74.75
312.787	81.75
313.017	75.75
313.246	73.75
313.476	81.75
313.706	88.75
313.935	93.75
314.165	87.75
314.394	84.75
314.624	83.75
314.853	80.75
315.083	65.75
315.312	93.75
315.542	88.75
315.771	71.75
316.001	83.75
316.23	96.75
316.46	78.75
316.689	81.75
316.919	96.75
317.148	107.75
317.377	85.75
317.607	92.75
317.836	95.75
318.065	83.75
318.295	86.75
318.524	93.75
318.753	90.75
318.983	84.75
319.212	91.75
319.441	92.75
319.67	78.75
319.9	95.75
320.129	82.75
320.358	89.75
320.587	88.75
320.816	85.75
321.046	74.75
321.275	94.75
321.504	76.75
321.733	76.75
321.962	93.75
322.191	93.75
322.42	90.75
322.649	79.75
322.878	89.75
323.108	79.75
323.337	78.75
323.566	79.75
323.795	89.75
324.024	79.75
324.253	91.75
324.482	70.75
324.71	88.75
324.939	84.75
325.168	92.75
325.397	81.75
325.626	73.75
325.855	80.75
326.084	93.75
326.313	84.75
326.542	74.75
326.77	91.75
326.999	67.75
327.228	101.75
327.457	78.75
327.686	71.75
327.914	97.75
328.143	89.75
328.372	96.75
328.6	81.75
328.829	83.75
329.058	82.75
329.287	79.75
329.515	97.75
329.744	84.75
329.972	92.75
330.201	91.75
330.43	67.75
330.658	87.75
330.887	87.75
331.115	87.75
331.344	83.75
331.572	87.75
331.801	68.75
332.03	90.75
332.258	89.75
332.486	79.75
332.715	87.75
332.943	82.75
333.172	93.75
333.4	78.75
333.629	91.75
333.857	91.75
334.085	80.75
334.314	84.75
334.542	77.75
334.771	82.75
334.999	90.75
335.227	100.75
335.455	80.75
335.684	98.75
335.912	86.75
336.14	90.75
336.369	104.75
336.597	90.75
336.825	91.75
337.053	94.75
337.281	71.75
337.51	77.75
337.738	68.75
337.966	95.75
338.194	86.75
338.422	87.75
338.65	69.75
338.878	91.75
339.106	78.75
339.334	78.75
339.562	91.75
339.79	85.75
340.018	80.75
340.246	83.75
340.474	79.75
340.702	86.75
340.93	88.75
341.158	74.75
341.386	90.75
341.614	72.75
341.842	82.75
342.07	89.75
342.298	90.75
342.526	90.75
342.754	97.75
342.981	74.75
343.209	74.75
343.437	84.75
343.665	95.75
343.893	90.75
344.12	87.75
344.348	79.75
344.576	91.75
344.804	75.75
345.031	87.75
345.259	81.75
345.487	75.75
345.714	85.75
345.942	89.75
346.17	97.75
346.397	86.75
346.625	95.75
346.853	78.75
347.08	87.75
347.308	88.75
347.535	83.75
347.763	79.75
347.99	87.75
348.218	83.75
348.445	78.75
348.673	74.75
348.9	77.75
349.128	93.75
349.355	79.75
349.583	99.75
349.81	98.75
350.037	94.75
350.265	92.75
350.492	79.75
350.72	73.75
350.947	91.75
351.174	83.75
351.402	94.75
351.629	85.75
351.856	78.75
352.083	81.75
352.311	86.75
352.538	81.75
352.765	78.75
352.992	91.75
353.22	69.75
353.447	86.75
353.674	92.75
353.901	75.75
354.128	81.75
354.355	92.75
354.583	81.75
354.81	85.75
355.037	86.75
355.264	84.75
355.491	74.75
355.718	83.75
355.945	98.75
356.172	86.75
356.399	79.75
356.626	75.75
356.853	76.75
357.08	93.75
357.307	103.75
357.534	82.75
357.761	86.75
357.988	77.75
358.215	85.75
358.441	81.75
358.668	78.75
358.895	88.75
359.122	85.75
359.349	80.75
359.576	83.75
359.802	78.75
360.029	79.75
360.256	86.75
360.483	100.75
360.709	86.75
360.936	85.75
361.163	93.75
361.39	79.75
361.616	86.75
361.843	78.75
362.07	68.75
362.296	83.75
362.523	90.75
362.749	84.75
362.976	78.75
363.203	93.75
363.429	87.75
363.656	78.75
363.882	87.75
364.109	79.75
364.335	80.75
364.562	96.75
364.788	80.75
365.015	93.75
365.241	75.75
365.468	88.75
365.694	87.75
365.92	83.75
366.147	81.75
366.373	77.75
366.599	99.75
366.826	74.75
367.052	87.75
367.278	84.75
367.505	63.75
367.731	84.75
367.957	83.75
368.184	75.75
368.41	94.75
368.636	101.75
368.862	92.75
369.089	92.75
369.315	85.75
369.541	89.75
369.767	84.75
369.993	79.75
370.219	93.75
370.445	87.75
370.672	88.75
370.898	84.75
371.124	93.75
371.35	88.75
371.576	77.75
371.802	88.75
372.028	85.75
372.254	83.75
372.48	74.75
372.706	72.75
372.932	79.75
373.158	81.75
373.384	97.75
373.61	89.75
373.835	86.75
374.061	86.75
374.287	86.75
374.513	93.75
374.739	79.75
374.965	87.75
375.191	73.75
375.416	79.75
375.642	94.75
375.868	73.75
376.094	78.75
376.319	78.75
376.545	91.75
376.771	78.75
376.997	101.75
377.222	75.75
377.448	79.75
377.674	83.75
377.899	84.75
378.125	76.75
378.35	85.75
378.576	88.75
378.802	84.75
379.027	79.75
379.253	88.75
379.478	81.75
379.704	84.75
379.929	85.75
380.155	85.75
380.38	95.75
380.606	92.75
380.831	89.75
381.057	97.75
381.282	79.75
381.507	82.75
381.733	79.75
381.958	73.75
382.184	89.75
382.409	81.75
382.634	85.75
382.86	71.75
383.085	82.75
383.31	85.75
383.535	73.75
383.761	93.75
383.986	81.75
384.211	90.75
384.436	76.75
384.662	86.75
384.887	79.75
385.112	93.75
385.337	78.75
385.562	90.75
385.787	78.75
386.013	87.75
386.238	91.75
386.463	83.75
386.688	79.75
386.913	84.75
387.138	79.75
387.363	78.75
387.588	86.75
387.813	85.75
388.038	87.75
388.263	82.75
388.488	83.75
388.713	92.75
388.938	83.75
389.163	69.75
389.387	82.75
389.612	87.75
389.837	80.75
390.062	84.75
390.287	82.75
390.512	97.75
390.736	85.75
390.961	90.75
391.186	87.75
391.411	101.75
391.636	97.75
391.86	87.75
392.085	85.75
392.31	89.75
392.534	82.75
392.759	83.75
392.984	82.75
393.208	96.75
393.433	88.75
393.658	83.75
393.882	88.75
394.107	90.75
394.331	78.75
394.556	92.75
394.78	77.75
395.005	81.75
395.229	77.75
395.454	91.75
395.678	81.75
395.903	82.75
396.127	85.75
396.352	88.75
396.576	83.75
396.801	83.75
397.025	89.75
397.249	87.75
397.474	92.75
397.698	72.75
397.922	80.75
398.147	85.75
398.371	89.75
398.595	83.75
398.82	83.75
399.044	88.75
399.268	112.75
399.492	79.75
399.717	86.75
399.941	81.75
400.165	91.75
400.389	87.75
400.613	86.75
400.837	80.75
401.062	84.75
401.286	85.75
401.51	86.75
401.734	87.75
401.958	88.75
402.182	80.75
402.406	82.75
402.63	94.75
402.854	81.75
403.078	97.75
403.302	87.75
403.526	85.75
403.75	87.75
403.974	90.75
404.198	92.75
404.422	85.75
404.645	83.75
404.869	78.75
405.093	88.75
405.317	75.75
405.541	98.75
405.765	96.75
405.988	95.75
406.212	96.75
406.436	75.75
406.66	87.75
406.883	88.75
407.107	85.75
407.331	92.75
407.555	86.75
407.778	95.75
408.002	91.75
408.226	107.75
408.449	82.75
408.673	93.75
408.896	94.75
409.12	83.75
409.344	85.75
409.567	76.75
409.791	60.75
410.014	103.75
410.238	88.75
410.461	80.75
410.685	69.75
410.908	97.75
411.132	89.75
411.355	85.75
411.578	88.75
411.802	87.75
412.025	90.75
412.249	94.75
412.472	100.75
412.695	105.75
412.919	95.75
413.142	91.75
413.365	80.75
413.589	87.75
413.812	89.75
414.035	81.75
414.258	90.75
414.482	100.75
414.705	89.75
414.928	94.75
415.151	87.75
415.374	84.75
415.597	79.75
415.821	100.75
416.044	86.75
416.267	89.75
416.49	81.75
416.713	80.75
416.936	86.75
417.159	87.75
417.382	87.75
417.605	94.75
417.828	71.75
418.051	89.75
418.274	90.75
418.497	89.75
418.72	96.75
418.943	88.75
419.166	89.75
419.389	85.75
419.611	98.75
419.834	85.75
420.057	102.75
420.28	92.75
420.503	84.75
420.726	77.75
420.948	97.75
421.171	85.75
421.394	92.75
421.617	97.75
421.839	75.75
422.062	90.75
422.285	83.75
422.507	89.75
422.73	88.75
422.953	84.75
423.175	80.75
423.398	78.75
423.621	84.75
423.843	81.75
424.066	90.75
424.288	101.75
424.511	78.75
424.733	90.75
424.956	88.75
425.178	85.75
425.401	79.75
425.623	78.75
425.846	90.75
426.068	81.75
426.291	103.75
426.513	94.75
426.735	90.75
426.958	103.75
427.18	97.75
427.402	71.75
427.625	88.75
427.847	87.75
428.069	95.75
428.292	79.75
428.514	103.75
428.736	89.75
428.958	98.75
429.181	100.75
429.403	78.75
429.625	94.75
429.847	88.75
430.069	100.75
430.292	94.75
430.514	89.75
430.736	83.75
430.958	98.75
431.18	85.75
431.402	83.75
431.624	93.75
431.846	85.75
432.068	89.75
432.29	86.75
432.512	83.75
432.734	88.75
432.956	91.75
433.178	85.75
433.4	88.75
433.622	97.75
433.844	91.75
434.066	90.75
434.287	98.75
434.509	82.75
434.731	78.75
434.953	98.75
435.175	93.75
435.397	84.75
435.618	80.75
435.84	86.75
436.062	87.75
436.284	94.75
436.505	86.75
436.727	96.75
436.949	86.75
437.17	93.75
437.392	90.75
437.614	82.75
437.835	87.75
438.057	93.75
438.278	81.75
438.5	99.75
438.721	91.75
438.943	106.75
439.165	94.75
439.386	77.75
439.608	88.75
439.829	95.75
440.05	94.75
440.272	90.75
440.493	93.75
440.715	90.75
440.936	76.75
441.158	80.75
441.379	86.75
441.6	100.75
441.822	89.75
442.043	87.75
442.264	86.75
442.486	93.75
442.707	95.75
442.928	100.75
443.149	82.75
443.371	74.75
443.592	93.75
443.813	86.75
444.034	80.75
444.255	97.75
444.476	85.75
444.698	94.75
444.919	87.75
445.14	211.75
445.361	143.75
445.582	83.75
445.803	100.75
446.024	98.75
446.245	97.75
446.466	89.75
446.687	89.75
446.908	102.75
447.129	86.75
447.35	88.75
447.571	85.75
447.792	85.75
448.013	85.75
448.234	95.75
448.455	83.75
448.675	77.75
448.896	92.75
449.117	104.75
449.338	71.75
449.559	95.75
449.779	89.75
450	98.75
450.221	78.75
450.442	95.75
450.662	99.75
450.883	77.75
451.104	99.75
451.324	77.75
451.545	94.75
451.766	82.75
451.986	92.75
452.207	86.75
452.428	97.75
452.648	77.75
452.869	76.75
453.089	92.75
453.31	88.75
453.53	79.75
453.751	77.75
453.971	80.75
454.192	92.75
454.412	79.75
454.633	90.75
454.853	78.75
455.073	87.75
455.294	90.75
455.514	83.75
455.734	87.75
455.955	83.75
456.175	92.75
456.395	98.75
456.616	94.75
456.836	87.75
457.056	78.75
457.276	77.75
457.497	81.75
457.717	81.75
457.937	60.75
458.157	87.75
458.377	96.75
458.598	80.75
458.818	89.75
459.038	84.75
459.258	74.75
459.478	80.75
459.698	86.75
459.918	89.75
460.138	86.75
460.358	90.75
460.578	88.75
460.798	87.75
461.018	82.75
461.238	87.75
461.458	73.75
461.678	92.75
461.898	89.75
462.118	97.75
462.338	95.75
462.558	89.75
462.777	76.75
462.997	81.75
463.217	78.75
463.437	96.75
463.657	87.75
463.876	85.75
464.096	77.75
464.316	89.75
464.536	62.75
464.755	74.75
464.975	90.75
465.195	84.75
465.414	115.75
465.634	68.75
465.854	83.75
466.073	98.75
466.293	78.75
466.512	93.75
466.732	84.75
466.951	79.75
467.171	83.75
467.391	87.75
467.61	82.75
467.829	106.75
468.049	89.75
468.268	106.75
468.488	84.75
468.707	94.75
468.927	102.75
469.146	86.75
469.365	92.75
469.585	95.75
469.804	101.75
470.023	88.75
470.243	97.75
470.462	88.75
470.681	94.75
470.901	85.75
471.12	94.75
471.339	85.75
471.558	99.75
471.777	93.75
471.997	78.75
472.216	85.75
472.435	81.75
472.654	86.75
472.873	95.75
473.092	89.75
473.311	98.75
473.53	107.75
473.749	103.75
473.968	84.75
474.187	84.75
474.406	85.75
474.625	84.75
474.844	72.75
475.063	87.75
475.282	87.75
475.501	94.75
475.72	81.75
475.939	87.75
476.158	89.75
476.377	93.75
476.596	81.75
476.814	93.75
477.033	93.75
477.252	83.75
477.471	87.75
477.69	100.75
477.908	91.75
478.127	100.75
478.346	102.75
478.564	72.75
478.783	98.75
479.002	69.75
479.22	93.75
479.439	95.75
479.658	88.75
479.876	92.75
480.095	80.75
480.313	84.75
480.532	90.75
480.751	95.75
480.969	85.75
481.188	88.75
481.406	81.75
481.624	87.75
481.843	86.75
482.061	78.75
482.28	82.75
482.498	94.75
482.717	95.75
482.935	94.75
483.153	101.75
483.372	88.75
483.59	95.75
483.808	98.75
484.027	79.75
484.245	82.75
484.463	86.75
484.681	93.75
484.9	88.75
485.118	91.75
485.336	89.75
485.554	84.75
485.772	90.75
485.99	88.75
486.209	90.75
486.427	79.75
486.645	85.75
486.863	92.75
487.081	93.75
487.299	85.75
487.517	91.75
487.735	90.75
487.953	93.75
488.171	89.75
488.389	98.75
488.607	93.75
488.825	104.75
489.043	94.75
489.261	96.75
489.479	103.75
489.696	89.75
489.914	85.75
490.132	75.75
490.35	98.75
490.568	97.75
490.786	92.75
491.003	104.75
491.221	84.75
491.439	99.75
491.657	99.75
491.874	108.75
492.092	103.75
492.31	109.75
492.527	87.75
492.745	122.75
492.963	99.75
493.18	101.75
493.398	111.75
493.615	93.75
493.833	81.75
494.05	93.75
494.268	93.75
494.485	100.75
494.703	100.75
494.92	107.75
495.138	94.75
495.355	104.75
495.573	101.75
495.79	103.75
496.008	106.75
496.225	96.75
496.442	102.75
496.66	89.75
496.877	84.75
497.094	99.75
497.312	103.75
497.529	96.75
497.746	100.75
497.963	88.75
498.181	82.75
498.398	102.75
498.615	93.75
498.832	89.75
499.049	105.75
499.267	99.75
499.484	83.75
499.701	91.75
499.918	88.75
500.135	96.75
500.352	101.75
500.569	83.75
500.786	95.75
501.003	89.75
501.22	85.75
501.437	93.75
501.654	90.75
501.871	85.75
502.088	88.75
502.305	70.75
502.522	92.75
502.739	93.75
502.956	91.75
503.172	98.75
503.389	103.75
503.606	83.75
503.823	78.75
504.04	101.75
504.256	78.75
504.473	78.75
504.69	92.75
504.907	94.75
505.123	94.75
505.34	82.75
505.557	91.75
505.773	86.75
505.99	86.75
506.207	89.75
506.423	97.75
506.64	87.75
506.856	93.75
507.073	98.75
507.289	92.75
507.506	70.75
507.722	82.75
507.939	82.75
508.155	105.75
508.372	88.75
508.588	97.75
508.805	86.75
509.021	80.75
509.238	73.75
509.454	73.75
509.67	79.75
509.887	87.75
510.103	84.75
510.319	99.75
510.536	83.75
510.752	77.75
510.968	85.75
511.184	91.75
511.401	83.75
511.617	87.75
511.833	83.75
512.049	97.75
512.265	89.75
512.481	91.75
512.698	78.75
512.914	81.75
513.13	75.75
513.346	81.75
513.562	78.75
513.778	78.75
513.994	101.75
514.21	84.75
514.426	70.75
514.642	85.75
514.858	87.75
515.074	87.75
515.29	90.75
515.506	101.75
515.721	83.75
515.937	87.75
516.153	76.75
516.369	95.75
516.585	78.75
516.801	93.75
517.016	82.75
517.232	91.75
517.448	91.75
517.664	97.75
517.879	79.75
518.095	88.75
518.311	82.75
518.527	83.75
518.742	90.75
518.958	86.75
519.173	81.75
519.389	85.75
519.605	100.75
519.82	89.75
520.036	75.75
520.251	88.75
520.467	68.75
520.682	93.75
520.898	76.75
521.113	79.75
521.329	82.75
521.544	81.75
521.76	79.75
521.975	87.75
522.19	89.75
522.406	83.75
522.621	77.75
522.836	81.75
523.052	94.75
523.267	100.75
523.482	83.75
523.698	82.75
523.913	97.75
524.128	91.75
524.343	84.75
524.559	84.75
524.774	81.75
524.989	80.75
525.204	82.75
525.419	100.75
525.634	93.75
525.849	80.75
526.064	88.75
526.28	97.75
526.495	99.75
526.71	91.75
526.925	82.75
527.14	74.75
527.355	83.75
527.57	87.75
527.785	80.75
527.999	91.75
528.214	87.75
528.429	98.75
528.644	84.75
528.859	93.75
529.074	93.75
529.289	96.75
529.503	83.75
529.718	80.75
529.933	95.75
530.148	85.75
530.363	88.75
530.577	103.75
530.792	85.75
531.007	73.75
531.221	84.75
531.436	72.75
531.651	91.75
531.865	85.75
532.08	83.75
532.295	77.75
532.509	79.75
532.724	97.75
532.938	95.75
533.153	75.75
533.367	101.75
533.582	83.75
533.796	93.75
534.011	88.75
534.225	80.75
534.44	78.75
534.654	83.75
534.868	82.75
535.083	78.75
535.297	86.75
535.511	89.75
535.726	97.75
535.94	83.75
536.154	76.75
536.369	97.75
536.583	97.75
536.797	87.75
537.011	90.75
537.225	92.75
537.44	98.75
537.654	91.75
537.868	92.75
538.082	71.75
538.296	87.75
538.51	97.75
538.724	88.75
538.938	91.75
539.153	108.75
539.367	104.75
539.581	78.75
539.795	75.75
540.009	76.75
540.222	99.75
540.436	77.75
540.65	89.75
540.864	81.75
541.078	77.75
541.292	95.75
541.506	92.75
541.72	102.75
541.934	104.75
542.147	106.75
542.361	113.75
542.575	99.75
542.789	100.75
543.002	88.75
543.216	100.75
543.43	90.75
543.644	113.75
543.857	98.75
544.071	78.75
544.285	85.75
544.498	103.75
544.712	101.75
544.925	98.75
545.139	105.75
545.352	96.75
545.566	97.75
545.779	105.75
545.993	107.75
546.206	105.75
546.42	105.75
546.633	110.75
546.847	83.75
547.06	102.75
547.274	107.75
547.487	117.75
547.7	90.75
547.914	93.75
548.127	104.75
548.34	110.75
548.554	101.75
548.767	98.75
548.98	99.75
549.193	94.75
549.407	85.75
549.62	104.75
549.833	94.75
550.046	82.75
550.259	95.75
550.473	84.75
550.686	102.75
550.899	99.75
551.112	105.75
551.325	102.75
551.538	86.75
551.751	100.75
551.964	92.75
552.177	94.75
552.39	77.75
552.603	106.75
552.816	101.75
553.029	81.75
553.242	91.75
553.455	90.75
553.667	99.75
553.88	99.75
554.093	92.75
554.306	98.75
554.519	106.75
554.732	92.75
554.944	90.75
555.157	98.75
555.37	103.75
555.583	91.75
555.795	89.75
556.008	87.75
556.221	95.75
556.433	101.75
556.646	106.75
556.859	77.75
557.071	92.75
557.284	99.75
557.496	88.75
557.709	98.75
557.921	94.75
558.134	110.75
558.346	106.75
558.559	94.75
558.771	83.75
558.984	98.75
559.196	96.75
559.409	86.75
559.621	98.75
559.833	99.75
560.046	103.75
560.258	110.75
560.47	104.75
560.683	89.75
560.895	89.75
561.107	76.75
561.32	98.75
561.532	94.75
561.744	80.75
561.956	98.75
562.168	93.75
562.381	91.75
562.593	102.75
562.805	92.75
563.017	92.75
563.229	89.75
563.441	93.75
563.653	85.75
563.865	97.75
564.077	90.75
564.289	89.75
564.501	79.75
564.713	93.75
564.925	94.75
565.137	107.75
565.349	109.75
565.561	94.75
565.773	95.75
565.985	91.75
566.197	93.75
566.408	89.75
566.62	91.75
566.832	82.75
567.044	90.75
567.255	98.75
567.467	84.75
567.679	81.75
567.891	104.75
568.102	68.75
568.314	86.75
568.526	98.75
568.737	94.75
568.949	83.75
569.161	85.75
569.372	94.75
569.584	78.75
569.795	79.75
570.007	85.75
570.218	87.75
570.43	82.75
570.641	91.75
570.853	80.75
571.064	87.75
571.276	97.75
571.487	85.75
571.698	76.75
571.91	92.75
572.121	89.75
572.333	98.75
572.544	82.75
572.755	86.75
572.966	90.75
573.178	77.75
573.389	93.75
573.6	83.75
573.811	87.75
574.023	81.75
574.234	83.75
574.445	94.75
574.656	84.75
574.867	95.75
575.078	88.75
575.289	84.75
575.501	70.75
575.712	99.75
575.923	91.75
576.134	70.75
576.345	84.75
576.556	98.75
576.767	77.75
576.978	85.75
577.188	93.75
577.399	90.75
577.61	77.75
577.821	79.75
578.032	70.75
578.243	71.75
578.454	79.75
578.665	80.75
578.875	101.75
579.086	81.75
579.297	85.75
579.508	81.75
579.718	79.75
579.929	84.75
580.14	72.75
580.35	85.75
580.561	93.75
580.772	96.75
580.982	90.75
581.193	77.75
581.403	103.75
581.614	78.75
581.825	97.75
582.035	98.75
582.246	86.75
582.456	99.75
582.667	91.75
582.877	87.75
583.087	88.75
583.298	69.75
583.508	79.75
583.719	73.75
583.929	97.75
584.139	88.75
584.35	75.75
584.56	89.75
584.77	96.75
584.981	78.75
585.191	89.75
585.401	73.75
585.611	76.75
585.821	83.75
586.032	85.75
586.242	71.75
586.452	79.75
586.662	82.75
586.872	77.75
587.082	77.75
587.292	77.75
587.502	87.75
587.713	73.75
587.923	78.75
588.133	75.75
588.343	86.75
588.553	87.75
588.762	90.75
588.972	90.75
589.182	79.75
589.392	98.75
589.602	95.75
589.812	88.75
590.022	78.75
590.232	90.75
590.441	99.75
590.651	100.75
590.861	86.75
591.071	74.75
591.281	89.75
591.49	84.75
591.7	79.75
591.91	89.75
592.119	74.75
592.329	85.75
592.539	85.75
592.748	90.75
592.958	72.75
593.167	86.75
593.377	98.75
593.587	78.75
593.796	92.75
594.006	81.75
594.215	84.75
594.424	82.75
594.634	72.75
594.843	87.75
595.053	85.75
595.262	86.75
595.472	100.75
595.681	75.75
595.89	73.75
596.1	71.75
596.309	80.75
596.518	79.75
596.727	83.75
596.937	102.75
597.146	78.75
597.355	91.75
597.564	86.75
597.774	100.75
597.983	98.75
598.192	82.75
598.401	78.75
598.61	95.75
598.819	92.75
599.028	83.75
599.237	83.75
599.446	88.75
599.655	86.75
599.864	72.75
600.073	84.75
600.282	83.75
600.491	86.75
600.7	85.75
600.909	84.75
601.118	87.75
601.327	89.75
601.536	73.75
601.745	96.75
601.953	89.75
602.162	92.75
602.371	65.75
602.58	87.75
602.789	98.75
602.997	83.75
603.206	87.75
603.415	76.75
603.623	94.75
603.832	74.75
604.041	89.75
604.249	104.75
604.458	88.75
604.666	91.75
604.875	90.75
605.084	79.75
605.292	100.75
605.501	100.75
605.709	84.75
605.918	91.75
606.126	78.75
606.334	89.75
606.543	83.75
606.751	87.75
606.96	92.75
607.168	89.75
607.376	80.75
607.585	82.75
607.793	89.75
608.001	91.75
608.21	99.75
608.418	102.75
608.626	82.75
608.834	102.75
609.043	80.75
609.251	75.75
609.459	78.75
609.667	111.75
609.875	82.75
610.083	86.75
610.291	86.75
610.499	96.75
610.707	87.75
610.916	98.75
611.124	90.75
611.332	80.75
611.54	106.75
611.748	84.75
611.955	93.75
612.163	89.75
612.371	95.75
612.579	96.75
612.787	80.75
612.995	79.75
613.203	78.75
613.411	85.75
613.618	88.75
613.826	107.75
614.034	103.75
614.242	93.75
614.449	98.75
614.657	88.75
614.865	103.75
615.072	88.75
615.28	91.75
615.488	90.75
615.695	90.75
615.903	91.75
616.111	90.75
616.318	91.75
616.526	77.75
616.733	90.75
616.941	94.75
617.148	84.75
617.356	76.75
617.563	82.75
617.771	93.75
617.978	82.75
618.185	83.75
618.393	92.75
618.6	85.75
618.807	85.75
619.015	87.75
619.222	86.75
619.429	86.75
619.637	79.75
619.844	99.75
620.051	86.75
620.258	77.75
620.466	86.75
620.673	90.75
620.88	80.75
621.087	76.75
621.294	92.75
621.501	98.75
621.708	86.75
621.915	79.75
622.122	78.75
622.329	96.75
622.536	92.75
622.743	90.75
622.95	84.75
623.157	87.75
623.364	83.75
623.571	85.75
623.778	86.75
623.985	88.75
624.192	86.75
624.399	90.75
624.606	103.75
624.812	90.75
625.019	103.75
625.226	102.75
625.433	92.75
625.639	76.75
625.846	87.75
626.053	78.75
626.259	75.75
626.466	98.75
626.673	83.75
626.879	97.75
627.086	93.75
627.293	100.75
627.499	80.75
627.706	88.75
627.912	99.75
628.119	93.75
628.325	87.75
628.532	95.75
628.738	84.75
628.945	86.75
629.151	86.75
629.357	70.75
629.564	99.75
629.77	91.75
629.976	85.75
630.183	103.75
630.389	79.75
630.595	74.75
630.802	79.75
631.008	86.75
631.214	86.75
631.42	82.75
631.627	89.75
631.833	97.75
632.039	83.75
632.245	89.75
632.451	84.75
632.657	86.75
632.863	94.75
633.069	85.75
633.275	77.75
633.481	95.75
633.688	82.75
633.893	74.75
634.099	89.75
634.305	78.75
634.511	80.75
634.717	85.75
634.923	71.75
635.129	99.75
635.335	87.75
635.541	83.75
635.747	82.75
635.952	89.75
636.158	85.75
636.364	94.75
636.57	95.75
636.775	87.75
636.981	90.75
637.187	85.75
637.392	75.75
637.598	89.75
637.804	78.75
638.009	94.75
638.215	89.75
638.421	95.75
638.626	79.75
638.832	83.75
639.037	104.75
639.243	75.75
639.448	89.75
639.654	91.75
639.859	85.75
640.065	75.75
640.27	103.75
640.475	84.75
640.681	81.75
640.886	98.75
641.091	84.75
641.297	81.75
641.502	83.75
641.707	104.75
641.913	92.75
642.118	78.75
642.323	88.75
642.528	86.75
642.733	76.75
642.939	83.75
643.144	80.75
643.349	87.75
643.554	84.75
643.759	71.75
643.964	75.75
644.169	87.75
644.374	61.75
644.579	76.75
644.784	97.75
644.989	93.75
645.194	94.75
645.399	96.75
645.604	95.75
645.809	82.75
646.014	81.75
646.219	90.75
646.423	85.75
646.628	77.75
646.833	95.75
647.038	101.75
647.243	82.75
647.447	100.75
647.652	81.75
647.857	75.75
648.062	73.75
648.266	98.75
648.471	94.75
648.676	82.75
648.88	85.75
649.085	86.75
649.289	79.75
649.494	89.75
649.698	95.75
649.903	103.75
650.107	86.75
650.312	100.75
650.516	81.75
650.721	77.75
650.925	90.75
651.13	80.75
651.334	77.75
651.539	92.75
651.743	85.75
651.947	97.75
652.152	79.75
652.356	98.75
652.56	80.75
652.764	97.75
652.969	84.75
653.173	81.75
653.377	96.75
653.581	88.75
653.785	76.75
653.99	92.75
654.194	84.75
654.398	81.75
654.602	95.75
654.806	77.75
655.01	83.75
655.214	92.75
655.418	72.75
655.622	83.75
655.826	90.75
656.03	92.75
656.234	84.75
656.438	89.75
656.642	78.75
656.846	73.75
657.049	78.75
657.253	94.75
657.457	86.75
657.661	70.75
657.865	87.75
658.068	77.75
658.272	83.75
658.476	82.75
658.68	79.75
658.883	89.75
659.087	73.75
659.291	81.75
659.494	63.75
659.698	91.75
659.901	84.75
660.105	81.75
660.309	77.75
660.512	88.75
660.716	82.75
660.919	87.75
661.123	91.75
661.326	77.75
661.53	85.75
661.733	80.75
661.936	94.75
662.14	93.75
662.343	90.75
662.546	91.75
662.75	80.75
662.953	86.75
663.156	84.75
663.36	90.75
663.563	81.75
663.766	83.75
663.969	79.75
664.173	67.75
664.376	72.75
664.579	77.75
664.782	73.75
664.985	76.75
665.188	84.75
665.391	69.75
665.594	70.75
665.797	86.75
666	68.75
666.203	88.75
666.406	85.75
666.609	95.75
666.812	97.75
667.015	83.75
667.218	89.75
667.421	82.75
667.624	88.75
667.827	82.75
668.03	92.75
668.232	91.75
668.435	97.75
668.638	84.75
668.841	74.75
669.043	77.75
669.246	77.75
669.449	84.75
669.651	80.75
669.854	73.75
670.057	96.75
670.259	76.75
670.462	84.75
670.665	85.75
670.867	87.75
671.07	87.75
671.272	81.75
671.475	71.75
671.677	83.75
671.88	75.75
672.082	76.75
672.284	84.75
672.487	89.75
672.689	80.75
672.892	80.75
