Data from Zn(NO3)2Standard.Agarose3%.GreenCap.LampEnergy5.5.E.O_HRD10591_15-02-34-768.txt Node
Date: Mon Jul 22 15:02:34 EDT 2019
User: cochatt
Spectrometer: HR+D1059
Trigger mode: 1
Integration Time (sec): 1.000000E-1
Scans to average: 1
Electric dark correction enabled: true
Nonlinearity correction enabled: false
Boxcar width: 0
XAxis mode: Wavelengths
Number of Pixels in Spectrum: 2048
>>>>>Begin Spectral Data<<<<<
223.165	-15.25
223.4	-15.25
223.635	-15.25
223.869	-19.25
224.104	-24.25
224.338	-7.25
224.573	-5.25
224.808	2.75
225.042	-25.25
225.277	-16.25
225.511	-8.25
225.746	11.75
225.98	15.75
226.215	6.75
226.449	26.75
226.683	12.75
226.918	16.75
227.152	27.75
227.387	33.75
227.621	45.75
227.856	55.75
228.09	63.75
228.324	47.75
228.559	56.75
228.793	61.75
229.027	73.75
229.262	69.75
229.496	67.75
229.73	86.75
229.964	76.75
230.199	86.75
230.433	63.75
230.667	80.75
230.901	71.75
231.136	73.75
231.37	76.75
231.604	77.75
231.838	99.75
232.072	84.75
232.306	86.75
232.541	85.75
232.775	80.75
233.009	86.75
233.243	75.75
233.477	94.75
233.711	89.75
233.945	78.75
234.179	75.75
234.413	79.75
234.647	96.75
234.881	73.75
235.115	82.75
235.349	79.75
235.583	70.75
235.817	82.75
236.051	87.75
236.285	74.75
236.519	74.75
236.753	70.75
236.987	71.75
237.221	77.75
237.455	76.75
237.689	63.75
237.922	76.75
238.156	64.75
238.39	83.75
238.624	86.75
238.858	74.75
239.091	75.75
239.325	72.75
239.559	89.75
239.793	72.75
240.027	81.75
240.26	78.75
240.494	70.75
240.728	81.75
240.961	74.75
241.195	79.75
241.429	67.75
241.662	76.75
241.896	70.75
242.13	72.75
242.363	75.75
242.597	72.75
242.83	75.75
243.064	74.75
243.298	71.75
243.531	64.75
243.765	86.75
243.998	80.75
244.232	88.75
244.465	74.75
244.699	69.75
244.932	71.75
245.166	80.75
245.399	71.75
245.633	77.75
245.866	79.75
246.099	78.75
246.333	85.75
246.566	94.75
246.8	80.75
247.033	80.75
247.266	83.75
247.5	89.75
247.733	69.75
247.966	82.75
248.2	93.75
248.433	99.75
248.666	79.75
248.899	63.75
249.133	69.75
249.366	85.75
249.599	58.75
249.832	72.75
250.066	82.75
250.299	87.75
250.532	78.75
250.765	80.75
250.998	77.75
251.231	77.75
251.465	86.75
251.698	75.75
251.931	66.75
252.164	76.75
252.397	87.75
252.63	78.75
252.863	79.75
253.096	89.75
253.329	82.75
253.562	84.75
253.795	68.75
254.028	85.75
254.261	80.75
254.494	86.75
254.727	80.75
254.96	85.75
255.193	83.75
255.426	63.75
255.659	84.75
255.892	91.75
256.124	85.75
256.357	67.75
256.59	84.75
256.823	78.75
257.056	72.75
257.289	90.75
257.521	77.75
257.754	80.75
257.987	91.75
258.22	77.75
258.452	96.75
258.685	98.75
258.918	68.75
259.151	87.75
259.383	81.75
259.616	85.75
259.849	65.75
260.081	67.75
260.314	72.75
260.547	81.75
260.779	78.75
261.012	78.75
261.244	89.75
261.477	100.75
261.71	71.75
261.942	81.75
262.175	92.75
262.407	88.75
262.64	88.75
262.872	92.75
263.105	77.75
263.337	88.75
263.57	92.75
263.802	72.75
264.035	80.75
264.267	77.75
264.499	78.75
264.732	80.75
264.964	77.75
265.197	77.75
265.429	78.75
265.661	76.75
265.894	76.75
266.126	82.75
266.358	84.75
266.591	82.75
266.823	89.75
267.055	90.75
267.287	79.75
267.52	74.75
267.752	85.75
267.984	76.75
268.216	72.75
268.448	68.75
268.681	77.75
268.913	85.75
269.145	90.75
269.377	82.75
269.609	84.75
269.841	78.75
270.073	83.75
270.306	80.75
270.538	80.75
270.77	85.75
271.002	84.75
271.234	93.75
271.466	77.75
271.698	83.75
271.93	80.75
272.162	86.75
272.394	89.75
272.626	79.75
272.858	76.75
273.09	82.75
273.322	79.75
273.553	71.75
273.785	85.75
274.017	94.75
274.249	72.75
274.481	82.75
274.713	77.75
274.945	91.75
275.176	92.75
275.408	86.75
275.64	79.75
275.872	81.75
276.104	93.75
276.335	84.75
276.567	84.75
276.799	76.75
277.031	78.75
277.262	72.75
277.494	90.75
277.726	87.75
277.957	82.75
278.189	76.75
278.421	60.75
278.652	74.75
278.884	80.75
279.115	80.75
279.347	87.75
279.579	68.75
279.81	97.75
280.042	82.75
280.273	84.75
280.505	83.75
280.736	84.75
280.968	76.75
281.199	84.75
281.431	98.75
281.662	92.75
281.894	93.75
282.125	90.75
282.356	86.75
282.588	87.75
282.819	103.75
283.051	80.75
283.282	78.75
283.513	71.75
283.745	81.75
283.976	82.75
284.207	78.75
284.439	92.75
284.67	92.75
284.901	90.75
285.132	73.75
285.364	55.75
285.595	75.75
285.826	78.75
286.057	79.75
286.288	69.75
286.52	87.75
286.751	94.75
286.982	88.75
287.213	81.75
287.444	101.75
287.675	80.75
287.906	87.75
288.138	77.75
288.369	98.75
288.6	76.75
288.831	72.75
289.062	97.75
289.293	86.75
289.524	84.75
289.755	94.75
289.986	83.75
290.217	93.75
290.448	90.75
290.679	81.75
290.91	85.75
291.141	81.75
291.371	87.75
291.602	75.75
291.833	70.75
292.064	86.75
292.295	78.75
292.526	87.75
292.757	81.75
292.987	93.75
293.218	76.75
293.449	78.75
293.68	87.75
293.91	85.75
294.141	84.75
294.372	79.75
294.603	90.75
294.833	85.75
295.064	79.75
295.295	84.75
295.525	73.75
295.756	93.75
295.987	90.75
296.217	73.75
296.448	83.75
296.679	81.75
296.909	100.75
297.14	90.75
297.37	88.75
297.601	94.75
297.831	89.75
298.062	104.75
298.292	76.75
298.523	85.75
298.753	82.75
298.984	91.75
299.214	80.75
299.445	78.75
299.675	93.75
299.905	82.75
300.136	90.75
300.366	91.75
300.597	83.75
300.827	86.75
301.057	99.75
301.288	88.75
301.518	90.75
301.748	90.75
301.979	82.75
302.209	77.75
302.439	83.75
302.669	83.75
302.9	83.75
303.13	72.75
303.36	75.75
303.59	87.75
303.82	94.75
304.051	90.75
304.281	85.75
304.511	92.75
304.741	80.75
304.971	63.75
305.201	85.75
305.431	77.75
305.661	98.75
305.891	85.75
306.121	66.75
306.352	86.75
306.582	90.75
306.812	92.75
307.042	89.75
307.272	88.75
307.502	87.75
307.731	81.75
307.961	91.75
308.191	90.75
308.421	83.75
308.651	86.75
308.881	87.75
309.111	91.75
309.341	91.75
309.571	75.75
309.8	77.75
310.03	85.75
310.26	76.75
310.49	82.75
310.72	88.75
310.949	93.75
311.179	90.75
311.409	84.75
311.639	83.75
311.868	89.75
312.098	96.75
312.328	95.75
312.557	72.75
312.787	86.75
313.017	87.75
313.246	72.75
313.476	86.75
313.706	83.75
313.935	93.75
314.165	95.75
314.394	81.75
314.624	92.75
314.853	83.75
315.083	97.75
315.312	83.75
315.542	88.75
315.771	85.75
316.001	76.75
316.23	86.75
316.46	99.75
316.689	84.75
316.919	82.75
317.148	86.75
317.377	78.75
317.607	80.75
317.836	90.75
318.065	87.75
318.295	83.75
318.524	91.75
318.753	101.75
318.983	94.75
319.212	86.75
319.441	90.75
319.67	91.75
319.9	90.75
320.129	85.75
320.358	70.75
320.587	87.75
320.816	89.75
321.046	85.75
321.275	94.75
321.504	83.75
321.733	84.75
321.962	86.75
322.191	85.75
322.42	74.75
322.649	88.75
322.878	87.75
323.108	78.75
323.337	74.75
323.566	82.75
323.795	98.75
324.024	89.75
324.253	88.75
324.482	90.75
324.71	87.75
324.939	80.75
325.168	79.75
325.397	84.75
325.626	105.75
325.855	88.75
326.084	93.75
326.313	78.75
326.542	82.75
326.77	80.75
326.999	83.75
327.228	73.75
327.457	82.75
327.686	90.75
327.914	93.75
328.143	102.75
328.372	94.75
328.6	91.75
328.829	91.75
329.058	100.75
329.287	84.75
329.515	78.75
329.744	81.75
329.972	86.75
330.201	79.75
330.43	78.75
330.658	99.75
330.887	96.75
331.115	83.75
331.344	95.75
331.572	88.75
331.801	97.75
332.03	79.75
332.258	74.75
332.486	79.75
332.715	83.75
332.943	76.75
333.172	82.75
333.4	85.75
333.629	84.75
333.857	83.75
334.085	75.75
334.314	85.75
334.542	90.75
334.771	86.75
334.999	80.75
335.227	99.75
335.455	77.75
335.684	99.75
335.912	87.75
336.14	101.75
336.369	73.75
336.597	94.75
336.825	91.75
337.053	104.75
337.281	75.75
337.51	84.75
337.738	98.75
337.966	76.75
338.194	84.75
338.422	90.75
338.65	89.75
338.878	88.75
339.106	82.75
339.334	93.75
339.562	83.75
339.79	76.75
340.018	85.75
340.246	71.75
340.474	84.75
340.702	91.75
340.93	94.75
341.158	75.75
341.386	96.75
341.614	95.75
341.842	100.75
342.07	83.75
342.298	82.75
342.526	95.75
342.754	72.75
342.981	83.75
343.209	91.75
343.437	76.75
343.665	89.75
343.893	76.75
344.12	71.75
344.348	87.75
344.576	80.75
344.804	80.75
345.031	94.75
345.259	79.75
345.487	80.75
345.714	97.75
345.942	95.75
346.17	80.75
346.397	78.75
346.625	85.75
346.853	84.75
347.08	89.75
347.308	86.75
347.535	79.75
347.763	93.75
347.99	85.75
348.218	103.75
348.445	88.75
348.673	95.75
348.9	95.75
349.128	82.75
349.355	82.75
349.583	80.75
349.81	73.75
350.037	77.75
350.265	91.75
350.492	81.75
350.72	87.75
350.947	95.75
351.174	81.75
351.402	86.75
351.629	93.75
351.856	99.75
352.083	89.75
352.311	88.75
352.538	95.75
352.765	80.75
352.992	95.75
353.22	77.75
353.447	93.75
353.674	73.75
353.901	72.75
354.128	95.75
354.355	84.75
354.583	84.75
354.81	81.75
355.037	90.75
355.264	94.75
355.491	84.75
355.718	85.75
355.945	86.75
356.172	99.75
356.399	82.75
356.626	94.75
356.853	89.75
357.08	86.75
357.307	84.75
357.534	78.75
357.761	79.75
357.988	80.75
358.215	81.75
358.441	88.75
358.668	85.75
358.895	95.75
359.122	84.75
359.349	83.75
359.576	90.75
359.802	86.75
360.029	89.75
360.256	81.75
360.483	86.75
360.709	74.75
360.936	94.75
361.163	99.75
361.39	59.75
361.616	98.75
361.843	89.75
362.07	94.75
362.296	98.75
362.523	83.75
362.749	84.75
362.976	87.75
363.203	98.75
363.429	100.75
363.656	91.75
363.882	89.75
364.109	93.75
364.335	90.75
364.562	86.75
364.788	78.75
365.015	77.75
365.241	85.75
365.468	86.75
365.694	91.75
365.92	78.75
366.147	84.75
366.373	95.75
366.599	99.75
366.826	78.75
367.052	82.75
367.278	78.75
367.505	89.75
367.731	83.75
367.957	92.75
368.184	94.75
368.41	93.75
368.636	69.75
368.862	76.75
369.089	87.75
369.315	99.75
369.541	85.75
369.767	70.75
369.993	99.75
370.219	80.75
370.445	86.75
370.672	83.75
370.898	87.75
371.124	93.75
371.35	106.75
371.576	88.75
371.802	88.75
372.028	88.75
372.254	82.75
372.48	86.75
372.706	89.75
372.932	83.75
373.158	78.75
373.384	92.75
373.61	83.75
373.835	85.75
374.061	78.75
374.287	80.75
374.513	70.75
374.739	90.75
374.965	89.75
375.191	87.75
375.416	86.75
375.642	104.75
375.868	79.75
376.094	85.75
376.319	96.75
376.545	79.75
376.771	89.75
376.997	76.75
377.222	93.75
377.448	86.75
377.674	85.75
377.899	88.75
378.125	76.75
378.35	78.75
378.576	93.75
378.802	101.75
379.027	88.75
379.253	93.75
379.478	84.75
379.704	93.75
379.929	86.75
380.155	82.75
380.38	85.75
380.606	80.75
380.831	86.75
381.057	88.75
381.282	86.75
381.507	80.75
381.733	90.75
381.958	85.75
382.184	88.75
382.409	82.75
382.634	84.75
382.86	93.75
383.085	90.75
383.31	83.75
383.535	96.75
383.761	87.75
383.986	104.75
384.211	91.75
384.436	86.75
384.662	83.75
384.887	87.75
385.112	90.75
385.337	75.75
385.562	86.75
385.787	77.75
386.013	94.75
386.238	91.75
386.463	88.75
386.688	93.75
386.913	96.75
387.138	83.75
387.363	89.75
387.588	96.75
387.813	90.75
388.038	85.75
388.263	90.75
388.488	87.75
388.713	99.75
388.938	91.75
389.163	79.75
389.387	80.75
389.612	83.75
389.837	89.75
390.062	88.75
390.287	90.75
390.512	82.75
390.736	78.75
390.961	84.75
391.186	101.75
391.411	73.75
391.636	92.75
391.86	87.75
392.085	82.75
392.31	98.75
392.534	87.75
392.759	84.75
392.984	89.75
393.208	85.75
393.433	89.75
393.658	85.75
393.882	99.75
394.107	104.75
394.331	75.75
394.556	87.75
394.78	80.75
395.005	93.75
395.229	86.75
395.454	83.75
395.678	95.75
395.903	97.75
396.127	82.75
396.352	80.75
396.576	93.75
396.801	76.75
397.025	79.75
397.249	81.75
397.474	88.75
397.698	73.75
397.922	84.75
398.147	97.75
398.371	92.75
398.595	88.75
398.82	79.75
399.044	85.75
399.268	87.75
399.492	104.75
399.717	91.75
399.941	81.75
400.165	87.75
400.389	91.75
400.613	98.75
400.837	99.75
401.062	97.75
401.286	83.75
401.51	91.75
401.734	85.75
401.958	80.75
402.182	76.75
402.406	83.75
402.63	85.75
402.854	97.75
403.078	92.75
403.302	91.75
403.526	85.75
403.75	71.75
403.974	85.75
404.198	91.75
404.422	85.75
404.645	96.75
404.869	79.75
405.093	83.75
405.317	90.75
405.541	93.75
405.765	85.75
405.988	91.75
406.212	77.75
406.436	92.75
406.66	81.75
406.883	84.75
407.107	84.75
407.331	99.75
407.555	87.75
407.778	89.75
408.002	91.75
408.226	83.75
408.449	84.75
408.673	87.75
408.896	103.75
409.12	76.75
409.344	86.75
409.567	78.75
409.791	90.75
410.014	87.75
410.238	104.75
410.461	94.75
410.685	78.75
410.908	92.75
411.132	100.75
411.355	91.75
411.578	99.75
411.802	91.75
412.025	102.75
412.249	102.75
412.472	90.75
412.695	89.75
412.919	89.75
413.142	93.75
413.365	83.75
413.589	86.75
413.812	90.75
414.035	90.75
414.258	96.75
414.482	94.75
414.705	100.75
414.928	96.75
415.151	82.75
415.374	84.75
415.597	84.75
415.821	93.75
416.044	91.75
416.267	79.75
416.49	76.75
416.713	85.75
416.936	93.75
417.159	97.75
417.382	80.75
417.605	78.75
417.828	73.75
418.051	89.75
418.274	103.75
418.497	85.75
418.72	94.75
418.943	98.75
419.166	89.75
419.389	87.75
419.611	84.75
419.834	86.75
420.057	108.75
420.28	74.75
420.503	98.75
420.726	94.75
420.948	96.75
421.171	84.75
421.394	96.75
421.617	106.75
421.839	87.75
422.062	84.75
422.285	77.75
422.507	82.75
422.73	97.75
422.953	79.75
423.175	90.75
423.398	81.75
423.621	93.75
423.843	103.75
424.066	93.75
424.288	89.75
424.511	86.75
424.733	95.75
424.956	105.75
425.178	84.75
425.401	87.75
425.623	101.75
425.846	92.75
426.068	99.75
426.291	79.75
426.513	98.75
426.735	82.75
426.958	92.75
427.18	91.75
427.402	83.75
427.625	96.75
427.847	86.75
428.069	85.75
428.292	93.75
428.514	83.75
428.736	88.75
428.958	93.75
429.181	87.75
429.403	100.75
429.625	94.75
429.847	98.75
430.069	98.75
430.292	95.75
430.514	87.75
430.736	84.75
430.958	89.75
431.18	92.75
431.402	89.75
431.624	93.75
431.846	106.75
432.068	97.75
432.29	98.75
432.512	92.75
432.734	83.75
432.956	91.75
433.178	91.75
433.4	82.75
433.622	86.75
433.844	87.75
434.066	98.75
434.287	82.75
434.509	70.75
434.731	82.75
434.953	92.75
435.175	93.75
435.397	87.75
435.618	99.75
435.84	86.75
436.062	88.75
436.284	95.75
436.505	91.75
436.727	102.75
436.949	85.75
437.17	88.75
437.392	102.75
437.614	84.75
437.835	81.75
438.057	87.75
438.278	84.75
438.5	73.75
438.721	103.75
438.943	95.75
439.165	108.75
439.386	90.75
439.608	95.75
439.829	83.75
440.05	100.75
440.272	98.75
440.493	98.75
440.715	93.75
440.936	95.75
441.158	91.75
441.379	79.75
441.6	98.75
441.822	90.75
442.043	89.75
442.264	93.75
442.486	74.75
442.707	91.75
442.928	86.75
443.149	101.75
443.371	84.75
443.592	94.75
443.813	97.75
444.034	92.75
444.255	87.75
444.476	84.75
444.698	86.75
444.919	91.75
445.14	224.75
445.361	137.75
445.582	105.75
445.803	98.75
446.024	90.75
446.245	100.75
446.466	79.75
446.687	91.75
446.908	91.75
447.129	98.75
447.35	110.75
447.571	98.75
447.792	81.75
448.013	94.75
448.234	97.75
448.455	96.75
448.675	108.75
448.896	79.75
449.117	99.75
449.338	86.75
449.559	77.75
449.779	100.75
450	91.75
450.221	95.75
450.442	109.75
450.662	91.75
450.883	86.75
451.104	84.75
451.324	104.75
451.545	91.75
451.766	93.75
451.986	91.75
452.207	87.75
452.428	81.75
452.648	91.75
452.869	79.75
453.089	84.75
453.31	103.75
453.53	83.75
453.751	90.75
453.971	85.75
454.192	83.75
454.412	91.75
454.633	98.75
454.853	90.75
455.073	91.75
455.294	85.75
455.514	82.75
455.734	75.75
455.955	94.75
456.175	99.75
456.395	86.75
456.616	83.75
456.836	90.75
457.056	89.75
457.276	80.75
457.497	79.75
457.717	99.75
457.937	76.75
458.157	95.75
458.377	86.75
458.598	86.75
458.818	79.75
459.038	90.75
459.258	79.75
459.478	91.75
459.698	69.75
459.918	97.75
460.138	81.75
460.358	94.75
460.578	87.75
460.798	86.75
461.018	88.75
461.238	78.75
461.458	92.75
461.678	79.75
461.898	97.75
462.118	98.75
462.338	86.75
462.558	89.75
462.777	75.75
462.997	90.75
463.217	93.75
463.437	101.75
463.657	91.75
463.876	82.75
464.096	83.75
464.316	92.75
464.536	98.75
464.755	93.75
464.975	88.75
465.195	92.75
465.414	97.75
465.634	96.75
465.854	83.75
466.073	83.75
466.293	90.75
466.512	76.75
466.732	80.75
466.951	90.75
467.171	89.75
467.391	93.75
467.61	105.75
467.829	95.75
468.049	95.75
468.268	95.75
468.488	96.75
468.707	88.75
468.927	85.75
469.146	82.75
469.365	88.75
469.585	86.75
469.804	83.75
470.023	87.75
470.243	95.75
470.462	84.75
470.681	80.75
470.901	78.75
471.12	94.75
471.339	104.75
471.558	94.75
471.777	100.75
471.997	80.75
472.216	86.75
472.435	97.75
472.654	84.75
472.873	93.75
473.092	90.75
473.311	82.75
473.53	85.75
473.749	79.75
473.968	106.75
474.187	91.75
474.406	94.75
474.625	91.75
474.844	87.75
475.063	97.75
475.282	86.75
475.501	94.75
475.72	94.75
475.939	89.75
476.158	87.75
476.377	75.75
476.596	87.75
476.814	73.75
477.033	85.75
477.252	92.75
477.471	88.75
477.69	79.75
477.908	98.75
478.127	92.75
478.346	97.75
478.564	94.75
478.783	82.75
479.002	80.75
479.22	102.75
479.439	95.75
479.658	101.75
479.876	79.75
480.095	78.75
480.313	93.75
480.532	104.75
480.751	88.75
480.969	79.75
481.188	75.75
481.406	92.75
481.624	84.75
481.843	95.75
482.061	84.75
482.28	99.75
482.498	78.75
482.717	84.75
482.935	80.75
483.153	96.75
483.372	87.75
483.59	95.75
483.808	90.75
484.027	98.75
484.245	88.75
484.463	83.75
484.681	84.75
484.9	91.75
485.118	80.75
485.336	80.75
485.554	81.75
485.772	89.75
485.99	82.75
486.209	79.75
486.427	91.75
486.645	90.75
486.863	90.75
487.081	72.75
487.299	96.75
487.517	87.75
487.735	108.75
487.953	92.75
488.171	109.75
488.389	106.75
488.607	97.75
488.825	98.75
489.043	90.75
489.261	88.75
489.479	91.75
489.696	96.75
489.914	95.75
490.132	100.75
490.35	92.75
490.568	93.75
490.786	100.75
491.003	100.75
491.221	105.75
491.439	96.75
491.657	99.75
491.874	108.75
492.092	111.75
492.31	102.75
492.527	108.75
492.745	113.75
492.963	103.75
493.18	116.75
493.398	102.75
493.615	98.75
493.833	95.75
494.05	82.75
494.268	81.75
494.485	101.75
494.703	111.75
494.92	107.75
495.138	110.75
495.355	96.75
495.573	97.75
495.79	93.75
496.008	103.75
496.225	119.75
496.442	106.75
496.66	90.75
496.877	92.75
497.094	87.75
497.312	84.75
497.529	88.75
497.746	93.75
497.963	92.75
498.181	85.75
498.398	90.75
498.615	92.75
498.832	89.75
499.049	80.75
499.267	78.75
499.484	100.75
499.701	77.75
499.918	94.75
500.135	95.75
500.352	91.75
500.569	91.75
500.786	97.75
501.003	92.75
501.22	94.75
501.437	91.75
501.654	95.75
501.871	95.75
502.088	86.75
502.305	94.75
502.522	82.75
502.739	89.75
502.956	88.75
503.172	79.75
503.389	90.75
503.606	77.75
503.823	80.75
504.04	78.75
504.256	91.75
504.473	93.75
504.69	89.75
504.907	99.75
505.123	81.75
505.34	93.75
505.557	93.75
505.773	88.75
505.99	85.75
506.207	86.75
506.423	92.75
506.64	90.75
506.856	84.75
507.073	96.75
507.289	99.75
507.506	98.75
507.722	78.75
507.939	86.75
508.155	92.75
508.372	90.75
508.588	86.75
508.805	87.75
509.021	91.75
509.238	83.75
509.454	86.75
509.67	94.75
509.887	84.75
510.103	100.75
510.319	77.75
510.536	80.75
510.752	82.75
510.968	86.75
511.184	87.75
511.401	79.75
511.617	84.75
511.833	90.75
512.049	78.75
512.265	81.75
512.481	90.75
512.698	79.75
512.914	86.75
513.13	72.75
513.346	81.75
513.562	77.75
513.778	88.75
513.994	76.75
514.21	80.75
514.426	102.75
514.642	88.75
514.858	79.75
515.074	74.75
515.29	86.75
515.506	76.75
515.721	71.75
515.937	96.75
516.153	75.75
516.369	88.75
516.585	93.75
516.801	96.75
517.016	88.75
517.232	84.75
517.448	86.75
517.664	67.75
517.879	93.75
518.095	95.75
518.311	81.75
518.527	88.75
518.742	83.75
518.958	77.75
519.173	91.75
519.389	81.75
519.605	79.75
519.82	94.75
520.036	92.75
520.251	87.75
520.467	87.75
520.682	96.75
520.898	77.75
521.113	83.75
521.329	91.75
521.544	89.75
521.76	101.75
521.975	81.75
522.19	76.75
522.406	83.75
522.621	101.75
522.836	96.75
523.052	86.75
523.267	99.75
523.482	87.75
523.698	92.75
523.913	83.75
524.128	79.75
524.343	78.75
524.559	93.75
524.774	77.75
524.989	87.75
525.204	92.75
525.419	100.75
525.634	87.75
525.849	88.75
526.064	89.75
526.28	92.75
526.495	99.75
526.71	74.75
526.925	84.75
527.14	93.75
527.355	92.75
527.57	86.75
527.785	78.75
527.999	83.75
528.214	90.75
528.429	78.75
528.644	98.75
528.859	87.75
529.074	86.75
529.289	103.75
529.503	86.75
529.718	79.75
529.933	87.75
530.148	87.75
530.363	96.75
530.577	78.75
530.792	94.75
531.007	67.75
531.221	83.75
531.436	100.75
531.651	80.75
531.865	79.75
532.08	87.75
532.295	79.75
532.509	79.75
532.724	93.75
532.938	94.75
533.153	90.75
533.367	85.75
533.582	76.75
533.796	86.75
534.011	86.75
534.225	93.75
534.44	90.75
534.654	82.75
534.868	93.75
535.083	83.75
535.297	83.75
535.511	102.75
535.726	80.75
535.94	91.75
536.154	86.75
536.369	88.75
536.583	73.75
536.797	98.75
537.011	82.75
537.225	78.75
537.44	92.75
537.654	85.75
537.868	89.75
538.082	85.75
538.296	92.75
538.51	88.75
538.724	85.75
538.938	92.75
539.153	94.75
539.367	94.75
539.581	77.75
539.795	103.75
540.009	86.75
540.222	77.75
540.436	94.75
540.65	87.75
540.864	85.75
541.078	87.75
541.292	96.75
541.506	101.75
541.72	96.75
541.934	99.75
542.147	115.75
542.361	116.75
542.575	101.75
542.789	103.75
543.002	97.75
543.216	99.75
543.43	93.75
543.644	86.75
543.857	78.75
544.071	84.75
544.285	105.75
544.498	95.75
544.712	98.75
544.925	105.75
545.139	99.75
545.352	71.75
545.566	105.75
545.779	102.75
545.993	97.75
546.206	104.75
546.42	97.75
546.633	93.75
546.847	99.75
547.06	103.75
547.274	104.75
547.487	92.75
547.7	88.75
547.914	87.75
548.127	116.75
548.34	102.75
548.554	102.75
548.767	101.75
548.98	81.75
549.193	98.75
549.407	90.75
549.62	86.75
549.833	91.75
550.046	91.75
550.259	107.75
550.473	93.75
550.686	88.75
550.899	104.75
551.112	89.75
551.325	99.75
551.538	91.75
551.751	94.75
551.964	92.75
552.177	81.75
552.39	95.75
552.603	98.75
552.816	92.75
553.029	86.75
553.242	89.75
553.455	115.75
553.667	102.75
553.88	102.75
554.093	97.75
554.306	96.75
554.519	92.75
554.732	84.75
554.944	81.75
555.157	94.75
555.37	97.75
555.583	94.75
555.795	103.75
556.008	95.75
556.221	101.75
556.433	102.75
556.646	101.75
556.859	80.75
557.071	100.75
557.284	89.75
557.496	95.75
557.709	106.75
557.921	92.75
558.134	96.75
558.346	107.75
558.559	94.75
558.771	79.75
558.984	100.75
559.196	100.75
559.409	77.75
559.621	103.75
559.833	91.75
560.046	98.75
560.258	95.75
560.47	109.75
560.683	85.75
560.895	79.75
561.107	97.75
561.32	90.75
561.532	96.75
561.744	90.75
561.956	91.75
562.168	82.75
562.381	92.75
562.593	92.75
562.805	89.75
563.017	92.75
563.229	81.75
563.441	69.75
563.653	98.75
563.865	97.75
564.077	79.75
564.289	93.75
564.501	86.75
564.713	86.75
564.925	91.75
565.137	85.75
565.349	88.75
565.561	96.75
565.773	76.75
565.985	90.75
566.197	80.75
566.408	95.75
566.62	91.75
566.832	96.75
567.044	90.75
567.255	98.75
567.467	86.75
567.679	83.75
567.891	96.75
568.102	100.75
568.314	99.75
568.526	99.75
568.737	91.75
568.949	85.75
569.161	99.75
569.372	90.75
569.584	86.75
569.795	91.75
570.007	91.75
570.218	77.75
570.43	87.75
570.641	74.75
570.853	88.75
571.064	85.75
571.276	88.75
571.487	86.75
571.698	85.75
571.91	91.75
572.121	74.75
572.333	87.75
572.544	92.75
572.755	82.75
572.966	76.75
573.178	93.75
573.389	84.75
573.6	93.75
573.811	86.75
574.023	79.75
574.234	100.75
574.445	101.75
574.656	76.75
574.867	83.75
575.078	87.75
575.289	98.75
575.501	100.75
575.712	80.75
575.923	81.75
576.134	76.75
576.345	90.75
576.556	84.75
576.767	94.75
576.978	85.75
577.188	99.75
577.399	83.75
577.61	76.75
577.821	88.75
578.032	92.75
578.243	82.75
578.454	89.75
578.665	79.75
578.875	80.75
579.086	84.75
579.297	84.75
579.508	89.75
579.718	80.75
579.929	80.75
580.14	88.75
580.35	79.75
580.561	80.75
580.772	90.75
580.982	94.75
581.193	68.75
581.403	101.75
581.614	96.75
581.825	87.75
582.035	92.75
582.246	87.75
582.456	80.75
582.667	88.75
582.877	87.75
583.087	91.75
583.298	88.75
583.508	88.75
583.719	93.75
583.929	94.75
584.139	92.75
584.35	75.75
584.56	87.75
584.77	83.75
584.981	79.75
585.191	88.75
585.401	88.75
585.611	84.75
585.821	85.75
586.032	84.75
586.242	83.75
586.452	87.75
586.662	90.75
586.872	90.75
587.082	92.75
587.292	82.75
587.502	77.75
587.713	83.75
587.923	86.75
588.133	75.75
588.343	82.75
588.553	74.75
588.762	64.75
588.972	91.75
589.182	77.75
589.392	98.75
589.602	82.75
589.812	92.75
590.022	86.75
590.232	96.75
590.441	93.75
590.651	87.75
590.861	71.75
591.071	82.75
591.281	90.75
591.49	90.75
591.7	87.75
591.91	88.75
592.119	87.75
592.329	88.75
592.539	86.75
592.748	84.75
592.958	91.75
593.167	85.75
593.377	81.75
593.587	95.75
593.796	71.75
594.006	74.75
594.215	78.75
594.424	79.75
594.634	88.75
594.843	80.75
595.053	95.75
595.262	87.75
595.472	92.75
595.681	91.75
595.89	92.75
596.1	80.75
596.309	76.75
596.518	92.75
596.727	102.75
596.937	96.75
597.146	93.75
597.355	84.75
597.564	94.75
597.774	80.75
597.983	96.75
598.192	85.75
598.401	88.75
598.61	86.75
598.819	93.75
599.028	73.75
599.237	80.75
599.446	99.75
599.655	90.75
599.864	82.75
600.073	98.75
600.282	88.75
600.491	88.75
600.7	91.75
600.909	68.75
601.118	90.75
601.327	90.75
601.536	87.75
601.745	82.75
601.953	86.75
602.162	87.75
602.371	95.75
602.58	81.75
602.789	107.75
602.997	90.75
603.206	86.75
603.415	103.75
603.623	85.75
603.832	99.75
604.041	79.75
604.249	77.75
604.458	85.75
604.666	95.75
604.875	89.75
605.084	88.75
605.292	84.75
605.501	81.75
605.709	94.75
605.918	98.75
606.126	88.75
606.334	94.75
606.543	91.75
606.751	90.75
606.96	97.75
607.168	79.75
607.376	79.75
607.585	91.75
607.793	86.75
608.001	79.75
608.21	94.75
608.418	87.75
608.626	82.75
608.834	100.75
609.043	75.75
609.251	86.75
609.459	84.75
609.667	94.75
609.875	90.75
610.083	95.75
610.291	82.75
610.499	95.75
610.707	90.75
610.916	99.75
611.124	100.75
611.332	90.75
611.54	86.75
611.748	97.75
611.955	84.75
612.163	95.75
612.371	116.75
612.579	93.75
612.787	78.75
612.995	77.75
613.203	91.75
613.411	84.75
613.618	86.75
613.826	100.75
614.034	99.75
614.242	101.75
614.449	93.75
614.657	80.75
614.865	89.75
615.072	85.75
615.28	104.75
615.488	86.75
615.695	91.75
615.903	97.75
616.111	91.75
616.318	91.75
616.526	98.75
616.733	103.75
616.941	81.75
617.148	92.75
617.356	99.75
617.563	90.75
617.771	89.75
617.978	92.75
618.185	93.75
618.393	85.75
618.6	89.75
618.807	92.75
619.015	91.75
619.222	87.75
619.429	92.75
619.637	85.75
619.844	98.75
620.051	96.75
620.258	79.75
620.466	84.75
620.673	84.75
620.88	92.75
621.087	98.75
621.294	100.75
621.501	93.75
621.708	91.75
621.915	76.75
622.122	84.75
622.329	93.75
622.536	79.75
622.743	80.75
622.95	88.75
623.157	91.75
623.364	94.75
623.571	85.75
623.778	86.75
623.985	82.75
624.192	86.75
624.399	84.75
624.606	87.75
624.812	95.75
625.019	94.75
625.226	88.75
625.433	90.75
625.639	85.75
625.846	88.75
626.053	92.75
626.259	89.75
626.466	107.75
626.673	96.75
626.879	91.75
627.086	90.75
627.293	81.75
627.499	90.75
627.706	76.75
627.912	91.75
628.119	93.75
628.325	93.75
628.532	94.75
628.738	81.75
628.945	90.75
629.151	83.75
629.357	85.75
629.564	108.75
629.77	86.75
629.976	88.75
630.183	84.75
630.389	105.75
630.595	95.75
630.802	100.75
631.008	98.75
631.214	94.75
631.42	100.75
631.627	92.75
631.833	92.75
632.039	94.75
632.245	90.75
632.451	93.75
632.657	89.75
632.863	86.75
633.069	92.75
633.275	88.75
633.481	76.75
633.688	92.75
633.893	103.75
634.099	102.75
634.305	81.75
634.511	79.75
634.717	86.75
634.923	94.75
635.129	101.75
635.335	100.75
635.541	85.75
635.747	94.75
635.952	80.75
636.158	97.75
636.364	86.75
636.57	95.75
636.775	93.75
636.981	90.75
637.187	77.75
637.392	91.75
637.598	96.75
637.804	83.75
638.009	87.75
638.215	95.75
638.421	90.75
638.626	82.75
638.832	85.75
639.037	89.75
639.243	90.75
639.448	92.75
639.654	94.75
639.859	83.75
640.065	91.75
640.27	76.75
640.475	96.75
640.681	101.75
640.886	96.75
641.091	86.75
641.297	99.75
641.502	85.75
641.707	85.75
641.913	92.75
642.118	89.75
642.323	91.75
642.528	93.75
642.733	87.75
642.939	102.75
643.144	79.75
643.349	85.75
643.554	102.75
643.759	89.75
643.964	104.75
644.169	102.75
644.374	86.75
644.579	88.75
644.784	100.75
644.989	83.75
645.194	75.75
645.399	95.75
645.604	92.75
645.809	94.75
646.014	88.75
646.219	92.75
646.423	84.75
646.628	88.75
646.833	84.75
647.038	93.75
647.243	79.75
647.447	97.75
647.652	84.75
647.857	97.75
648.062	88.75
648.266	86.75
648.471	95.75
648.676	96.75
648.88	86.75
649.085	72.75
649.289	89.75
649.494	88.75
649.698	97.75
649.903	90.75
650.107	81.75
650.312	95.75
650.516	98.75
650.721	83.75
650.925	80.75
651.13	78.75
651.334	76.75
651.539	89.75
651.743	91.75
651.947	95.75
652.152	94.75
652.356	106.75
652.56	89.75
652.764	88.75
652.969	91.75
653.173	89.75
653.377	95.75
653.581	75.75
653.785	86.75
653.99	93.75
654.194	88.75
654.398	89.75
654.602	84.75
654.806	87.75
655.01	101.75
655.214	89.75
655.418	83.75
655.622	75.75
655.826	103.75
656.03	98.75
656.234	83.75
656.438	85.75
656.642	77.75
656.846	84.75
657.049	94.75
657.253	85.75
657.457	91.75
657.661	95.75
657.865	96.75
658.068	96.75
658.272	83.75
658.476	95.75
658.68	90.75
658.883	86.75
659.087	85.75
659.291	86.75
659.494	90.75
659.698	94.75
659.901	89.75
660.105	87.75
660.309	87.75
660.512	87.75
660.716	80.75
660.919	95.75
661.123	91.75
661.326	74.75
661.53	80.75
661.733	88.75
661.936	82.75
662.14	82.75
662.343	81.75
662.546	90.75
662.75	74.75
662.953	85.75
663.156	96.75
663.36	93.75
663.563	87.75
663.766	86.75
663.969	71.75
664.173	84.75
664.376	79.75
664.579	94.75
664.782	80.75
664.985	78.75
665.188	93.75
665.391	88.75
665.594	88.75
665.797	87.75
666	76.75
666.203	79.75
666.406	87.75
666.609	100.75
666.812	78.75
667.015	81.75
667.218	94.75
667.421	92.75
667.624	83.75
667.827	91.75
668.03	82.75
668.232	89.75
668.435	88.75
668.638	78.75
668.841	96.75
669.043	94.75
669.246	76.75
669.449	100.75
669.651	94.75
669.854	83.75
670.057	68.75
670.259	89.75
670.462	85.75
670.665	92.75
670.867	81.75
671.07	95.75
671.272	92.75
671.475	80.75
671.677	99.75
671.88	88.75
672.082	68.75
672.284	77.75
672.487	79.75
672.689	84.75
672.892	72.75
