Data from Zn(NO3)2Standard.Agarose3%.GreenCap.LampEnergy5.5.E.O_HRD10591_15-02-28-768.txt Node
Date: Mon Jul 22 15:02:28 EDT 2019
User: cochatt
Spectrometer: HR+D1059
Trigger mode: 1
Integration Time (sec): 1.000000E-1
Scans to average: 1
Electric dark correction enabled: true
Nonlinearity correction enabled: false
Boxcar width: 0
XAxis mode: Wavelengths
Number of Pixels in Spectrum: 2048
>>>>>Begin Spectral Data<<<<<
223.165	-17.94
223.4	-17.94
223.635	-17.94
223.869	-12.94
224.104	-18.94
224.338	-4.94
224.573	-10.94
224.808	-5.94
225.042	-0.94
225.277	-13.94
225.511	-24.94
225.746	2.06
225.98	-4.94
226.215	15.06
226.449	19.06
226.683	16.06
226.918	30.06
227.152	34.06
227.387	53.06
227.621	47.06
227.856	42.06
228.09	44.06
228.324	54.06
228.559	64.06
228.793	49.06
229.027	52.06
229.262	54.06
229.496	78.06
229.73	80.06
229.964	68.06
230.199	70.06
230.433	82.06
230.667	79.06
230.901	77.06
231.136	80.06
231.37	63.06
231.604	81.06
231.838	91.06
232.072	89.06
232.306	82.06
232.541	90.06
232.775	78.06
233.009	89.06
233.243	85.06
233.477	82.06
233.711	79.06
233.945	75.06
234.179	68.06
234.413	93.06
234.647	71.06
234.881	74.06
235.115	102.06
235.349	63.06
235.583	85.06
235.817	79.06
236.051	70.06
236.285	77.06
236.519	85.06
236.753	76.06
236.987	72.06
237.221	67.06
237.455	89.06
237.689	80.06
237.922	82.06
238.156	79.06
238.39	79.06
238.624	77.06
238.858	73.06
239.091	76.06
239.325	73.06
239.559	71.06
239.793	76.06
240.027	79.06
240.26	78.06
240.494	74.06
240.728	88.06
240.961	70.06
241.195	77.06
241.429	78.06
241.662	73.06
241.896	76.06
242.13	78.06
242.363	76.06
242.597	77.06
242.83	68.06
243.064	59.06
243.298	71.06
243.531	77.06
243.765	80.06
243.998	89.06
244.232	84.06
244.465	80.06
244.699	65.06
244.932	71.06
245.166	83.06
245.399	76.06
245.633	77.06
245.866	83.06
246.099	73.06
246.333	88.06
246.566	93.06
246.8	82.06
247.033	82.06
247.266	70.06
247.5	89.06
247.733	84.06
247.966	76.06
248.2	76.06
248.433	93.06
248.666	70.06
248.899	82.06
249.133	74.06
249.366	90.06
249.599	81.06
249.832	83.06
250.066	92.06
250.299	90.06
250.532	77.06
250.765	80.06
250.998	85.06
251.231	70.06
251.465	79.06
251.698	89.06
251.931	92.06
252.164	79.06
252.397	76.06
252.63	81.06
252.863	92.06
253.096	84.06
253.329	71.06
253.562	93.06
253.795	77.06
254.028	77.06
254.261	90.06
254.494	86.06
254.727	89.06
254.96	82.06
255.193	74.06
255.426	76.06
255.659	83.06
255.892	81.06
256.124	72.06
256.357	69.06
256.59	75.06
256.823	71.06
257.056	84.06
257.289	81.06
257.521	91.06
257.754	77.06
257.987	85.06
258.22	81.06
258.452	71.06
258.685	75.06
258.918	77.06
259.151	79.06
259.383	76.06
259.616	69.06
259.849	87.06
260.081	85.06
260.314	86.06
260.547	90.06
260.779	94.06
261.012	79.06
261.244	72.06
261.477	78.06
261.71	84.06
261.942	73.06
262.175	88.06
262.407	89.06
262.64	96.06
262.872	96.06
263.105	84.06
263.337	66.06
263.57	82.06
263.802	80.06
264.035	81.06
264.267	86.06
264.499	69.06
264.732	83.06
264.964	82.06
265.197	84.06
265.429	82.06
265.661	68.06
265.894	78.06
266.126	89.06
266.358	81.06
266.591	84.06
266.823	85.06
267.055	87.06
267.287	66.06
267.52	89.06
267.752	82.06
267.984	88.06
268.216	81.06
268.448	89.06
268.681	93.06
268.913	87.06
269.145	79.06
269.377	81.06
269.609	74.06
269.841	89.06
270.073	84.06
270.306	80.06
270.538	75.06
270.77	79.06
271.002	72.06
271.234	89.06
271.466	66.06
271.698	82.06
271.93	86.06
272.162	81.06
272.394	71.06
272.626	78.06
272.858	83.06
273.09	78.06
273.322	95.06
273.553	93.06
273.785	86.06
274.017	103.06
274.249	102.06
274.481	78.06
274.713	91.06
274.945	92.06
275.176	77.06
275.408	84.06
275.64	101.06
275.872	94.06
276.104	89.06
276.335	82.06
276.567	71.06
276.799	83.06
277.031	88.06
277.262	85.06
277.494	86.06
277.726	85.06
277.957	78.06
278.189	91.06
278.421	89.06
278.652	79.06
278.884	75.06
279.115	76.06
279.347	81.06
279.579	87.06
279.81	86.06
280.042	94.06
280.273	91.06
280.505	73.06
280.736	92.06
280.968	93.06
281.199	88.06
281.431	88.06
281.662	92.06
281.894	88.06
282.125	89.06
282.356	89.06
282.588	81.06
282.819	91.06
283.051	93.06
283.282	91.06
283.513	82.06
283.745	85.06
283.976	79.06
284.207	75.06
284.439	70.06
284.67	68.06
284.901	86.06
285.132	101.06
285.364	95.06
285.595	75.06
285.826	85.06
286.057	86.06
286.288	79.06
286.52	83.06
286.751	89.06
286.982	86.06
287.213	83.06
287.444	84.06
287.675	100.06
287.906	80.06
288.138	73.06
288.369	79.06
288.6	93.06
288.831	79.06
289.062	86.06
289.293	75.06
289.524	73.06
289.755	82.06
289.986	87.06
290.217	81.06
290.448	73.06
290.679	79.06
290.91	92.06
291.141	87.06
291.371	82.06
291.602	87.06
291.833	83.06
292.064	78.06
292.295	83.06
292.526	69.06
292.757	84.06
292.987	84.06
293.218	94.06
293.449	84.06
293.68	101.06
293.91	75.06
294.141	77.06
294.372	86.06
294.603	74.06
294.833	90.06
295.064	90.06
295.295	98.06
295.525	82.06
295.756	86.06
295.987	69.06
296.217	98.06
296.448	78.06
296.679	82.06
296.909	80.06
297.14	78.06
297.37	81.06
297.601	84.06
297.831	102.06
298.062	99.06
298.292	94.06
298.523	84.06
298.753	83.06
298.984	85.06
299.214	87.06
299.445	92.06
299.675	89.06
299.905	98.06
300.136	84.06
300.366	105.06
300.597	85.06
300.827	74.06
301.057	67.06
301.288	75.06
301.518	83.06
301.748	89.06
301.979	86.06
302.209	91.06
302.439	74.06
302.669	88.06
302.9	95.06
303.13	89.06
303.36	96.06
303.59	95.06
303.82	87.06
304.051	84.06
304.281	88.06
304.511	87.06
304.741	82.06
304.971	83.06
305.201	83.06
305.431	76.06
305.661	94.06
305.891	83.06
306.121	76.06
306.352	87.06
306.582	79.06
306.812	82.06
307.042	86.06
307.272	92.06
307.502	92.06
307.731	94.06
307.961	82.06
308.191	77.06
308.421	80.06
308.651	100.06
308.881	84.06
309.111	87.06
309.341	83.06
309.571	88.06
309.8	75.06
310.03	96.06
310.26	93.06
310.49	81.06
310.72	83.06
310.949	93.06
311.179	91.06
311.409	77.06
311.639	84.06
311.868	92.06
312.098	85.06
312.328	90.06
312.557	94.06
312.787	91.06
313.017	99.06
313.246	97.06
313.476	92.06
313.706	94.06
313.935	101.06
314.165	92.06
314.394	79.06
314.624	95.06
314.853	88.06
315.083	86.06
315.312	87.06
315.542	91.06
315.771	92.06
316.001	85.06
316.23	85.06
316.46	95.06
316.689	80.06
316.919	81.06
317.148	81.06
317.377	67.06
317.607	96.06
317.836	86.06
318.065	97.06
318.295	80.06
318.524	90.06
318.753	88.06
318.983	67.06
319.212	98.06
319.441	66.06
319.67	93.06
319.9	90.06
320.129	84.06
320.358	97.06
320.587	95.06
320.816	83.06
321.046	84.06
321.275	94.06
321.504	83.06
321.733	91.06
321.962	82.06
322.191	99.06
322.42	79.06
322.649	86.06
322.878	84.06
323.108	81.06
323.337	93.06
323.566	84.06
323.795	90.06
324.024	76.06
324.253	94.06
324.482	76.06
324.71	78.06
324.939	85.06
325.168	84.06
325.397	94.06
325.626	82.06
325.855	103.06
326.084	91.06
326.313	90.06
326.542	86.06
326.77	83.06
326.999	89.06
327.228	90.06
327.457	85.06
327.686	80.06
327.914	85.06
328.143	104.06
328.372	67.06
328.6	76.06
328.829	92.06
329.058	71.06
329.287	82.06
329.515	85.06
329.744	87.06
329.972	93.06
330.201	85.06
330.43	88.06
330.658	83.06
330.887	81.06
331.115	86.06
331.344	86.06
331.572	82.06
331.801	82.06
332.03	85.06
332.258	98.06
332.486	86.06
332.715	85.06
332.943	77.06
333.172	86.06
333.4	84.06
333.629	90.06
333.857	85.06
334.085	94.06
334.314	84.06
334.542	102.06
334.771	86.06
334.999	95.06
335.227	82.06
335.455	94.06
335.684	92.06
335.912	84.06
336.14	69.06
336.369	99.06
336.597	77.06
336.825	82.06
337.053	81.06
337.281	74.06
337.51	76.06
337.738	77.06
337.966	90.06
338.194	87.06
338.422	69.06
338.65	96.06
338.878	93.06
339.106	85.06
339.334	88.06
339.562	90.06
339.79	78.06
340.018	89.06
340.246	82.06
340.474	83.06
340.702	98.06
340.93	80.06
341.158	89.06
341.386	81.06
341.614	84.06
341.842	81.06
342.07	84.06
342.298	93.06
342.526	89.06
342.754	74.06
342.981	97.06
343.209	90.06
343.437	88.06
343.665	82.06
343.893	88.06
344.12	107.06
344.348	82.06
344.576	87.06
344.804	75.06
345.031	80.06
345.259	81.06
345.487	106.06
345.714	90.06
345.942	80.06
346.17	93.06
346.397	91.06
346.625	84.06
346.853	75.06
347.08	86.06
347.308	97.06
347.535	92.06
347.763	103.06
347.99	85.06
348.218	95.06
348.445	79.06
348.673	80.06
348.9	84.06
349.128	71.06
349.355	71.06
349.583	73.06
349.81	79.06
350.037	76.06
350.265	77.06
350.492	79.06
350.72	93.06
350.947	79.06
351.174	88.06
351.402	84.06
351.629	92.06
351.856	76.06
352.083	86.06
352.311	83.06
352.538	86.06
352.765	99.06
352.992	107.06
353.22	95.06
353.447	88.06
353.674	88.06
353.901	97.06
354.128	82.06
354.355	94.06
354.583	85.06
354.81	87.06
355.037	90.06
355.264	74.06
355.491	100.06
355.718	81.06
355.945	83.06
356.172	77.06
356.399	79.06
356.626	80.06
356.853	93.06
357.08	85.06
357.307	94.06
357.534	82.06
357.761	78.06
357.988	90.06
358.215	98.06
358.441	84.06
358.668	91.06
358.895	91.06
359.122	93.06
359.349	91.06
359.576	67.06
359.802	85.06
360.029	60.06
360.256	94.06
360.483	76.06
360.709	75.06
360.936	90.06
361.163	85.06
361.39	98.06
361.616	79.06
361.843	84.06
362.07	76.06
362.296	98.06
362.523	84.06
362.749	80.06
362.976	82.06
363.203	98.06
363.429	77.06
363.656	76.06
363.882	95.06
364.109	86.06
364.335	87.06
364.562	67.06
364.788	90.06
365.015	70.06
365.241	74.06
365.468	93.06
365.694	74.06
365.92	87.06
366.147	77.06
366.373	91.06
366.599	75.06
366.826	82.06
367.052	87.06
367.278	85.06
367.505	86.06
367.731	85.06
367.957	73.06
368.184	84.06
368.41	76.06
368.636	91.06
368.862	95.06
369.089	76.06
369.315	75.06
369.541	79.06
369.767	79.06
369.993	90.06
370.219	94.06
370.445	90.06
370.672	90.06
370.898	88.06
371.124	78.06
371.35	84.06
371.576	78.06
371.802	86.06
372.028	77.06
372.254	67.06
372.48	78.06
372.706	93.06
372.932	78.06
373.158	91.06
373.384	85.06
373.61	92.06
373.835	86.06
374.061	78.06
374.287	78.06
374.513	82.06
374.739	88.06
374.965	91.06
375.191	86.06
375.416	78.06
375.642	77.06
375.868	82.06
376.094	85.06
376.319	82.06
376.545	69.06
376.771	71.06
376.997	98.06
377.222	89.06
377.448	86.06
377.674	87.06
377.899	85.06
378.125	87.06
378.35	77.06
378.576	93.06
378.802	75.06
379.027	89.06
379.253	87.06
379.478	90.06
379.704	79.06
379.929	81.06
380.155	94.06
380.38	91.06
380.606	75.06
380.831	79.06
381.057	99.06
381.282	93.06
381.507	91.06
381.733	88.06
381.958	85.06
382.184	86.06
382.409	88.06
382.634	92.06
382.86	82.06
383.085	79.06
383.31	85.06
383.535	89.06
383.761	86.06
383.986	81.06
384.211	86.06
384.436	79.06
384.662	82.06
384.887	79.06
385.112	78.06
385.337	76.06
385.562	99.06
385.787	71.06
386.013	84.06
386.238	82.06
386.463	81.06
386.688	73.06
386.913	79.06
387.138	98.06
387.363	77.06
387.588	81.06
387.813	78.06
388.038	75.06
388.263	84.06
388.488	87.06
388.713	102.06
388.938	78.06
389.163	67.06
389.387	73.06
389.612	83.06
389.837	76.06
390.062	82.06
390.287	70.06
390.512	92.06
390.736	89.06
390.961	101.06
391.186	92.06
391.411	88.06
391.636	107.06
391.86	94.06
392.085	83.06
392.31	98.06
392.534	79.06
392.759	85.06
392.984	83.06
393.208	88.06
393.433	91.06
393.658	87.06
393.882	73.06
394.107	71.06
394.331	87.06
394.556	89.06
394.78	89.06
395.005	90.06
395.229	67.06
395.454	83.06
395.678	92.06
395.903	94.06
396.127	77.06
396.352	99.06
396.576	82.06
396.801	82.06
397.025	97.06
397.249	90.06
397.474	90.06
397.698	97.06
397.922	82.06
398.147	82.06
398.371	79.06
398.595	90.06
398.82	90.06
399.044	89.06
399.268	90.06
399.492	89.06
399.717	77.06
399.941	89.06
400.165	82.06
400.389	82.06
400.613	82.06
400.837	91.06
401.062	77.06
401.286	74.06
401.51	86.06
401.734	85.06
401.958	87.06
402.182	98.06
402.406	95.06
402.63	73.06
402.854	93.06
403.078	89.06
403.302	91.06
403.526	91.06
403.75	70.06
403.974	92.06
404.198	92.06
404.422	78.06
404.645	83.06
404.869	78.06
405.093	88.06
405.317	86.06
405.541	89.06
405.765	68.06
405.988	86.06
406.212	76.06
406.436	76.06
406.66	85.06
406.883	90.06
407.107	93.06
407.331	81.06
407.555	94.06
407.778	91.06
408.002	78.06
408.226	71.06
408.449	85.06
408.673	92.06
408.896	95.06
409.12	85.06
409.344	79.06
409.567	89.06
409.791	86.06
410.014	82.06
410.238	88.06
410.461	93.06
410.685	90.06
410.908	79.06
411.132	83.06
411.355	90.06
411.578	90.06
411.802	79.06
412.025	85.06
412.249	82.06
412.472	91.06
412.695	83.06
412.919	92.06
413.142	80.06
413.365	78.06
413.589	83.06
413.812	77.06
414.035	93.06
414.258	81.06
414.482	83.06
414.705	82.06
414.928	106.06
415.151	102.06
415.374	92.06
415.597	73.06
415.821	90.06
416.044	70.06
416.267	105.06
416.49	73.06
416.713	93.06
416.936	88.06
417.159	91.06
417.382	75.06
417.605	82.06
417.828	85.06
418.051	78.06
418.274	82.06
418.497	92.06
418.72	94.06
418.943	85.06
419.166	76.06
419.389	88.06
419.611	100.06
419.834	79.06
420.057	89.06
420.28	83.06
420.503	97.06
420.726	97.06
420.948	85.06
421.171	95.06
421.394	92.06
421.617	102.06
421.839	100.06
422.062	82.06
422.285	87.06
422.507	86.06
422.73	87.06
422.953	93.06
423.175	87.06
423.398	90.06
423.621	88.06
423.843	89.06
424.066	93.06
424.288	68.06
424.511	93.06
424.733	81.06
424.956	79.06
425.178	86.06
425.401	86.06
425.623	94.06
425.846	83.06
426.068	89.06
426.291	93.06
426.513	101.06
426.735	92.06
426.958	84.06
427.18	98.06
427.402	95.06
427.625	66.06
427.847	79.06
428.069	92.06
428.292	96.06
428.514	90.06
428.736	84.06
428.958	93.06
429.181	92.06
429.403	90.06
429.625	80.06
429.847	97.06
430.069	82.06
430.292	87.06
430.514	108.06
430.736	87.06
430.958	93.06
431.18	90.06
431.402	79.06
431.624	85.06
431.846	89.06
432.068	98.06
432.29	83.06
432.512	90.06
432.734	81.06
432.956	89.06
433.178	87.06
433.4	90.06
433.622	87.06
433.844	84.06
434.066	90.06
434.287	93.06
434.509	84.06
434.731	79.06
434.953	96.06
435.175	85.06
435.397	97.06
435.618	82.06
435.84	84.06
436.062	91.06
436.284	85.06
436.505	91.06
436.727	94.06
436.949	72.06
437.17	79.06
437.392	86.06
437.614	85.06
437.835	82.06
438.057	103.06
438.278	94.06
438.5	91.06
438.721	86.06
438.943	93.06
439.165	79.06
439.386	86.06
439.608	85.06
439.829	88.06
440.05	80.06
440.272	79.06
440.493	71.06
440.715	87.06
440.936	102.06
441.158	92.06
441.379	92.06
441.6	115.06
441.822	106.06
442.043	88.06
442.264	76.06
442.486	83.06
442.707	100.06
442.928	84.06
443.149	83.06
443.371	87.06
443.592	91.06
443.813	94.06
444.034	90.06
444.255	93.06
444.476	102.06
444.698	94.06
444.919	96.06
445.14	215.06
445.361	160.06
445.582	101.06
445.803	97.06
446.024	98.06
446.245	100.06
446.466	105.06
446.687	85.06
446.908	83.06
447.129	105.06
447.35	106.06
447.571	91.06
447.792	103.06
448.013	95.06
448.234	92.06
448.455	79.06
448.675	98.06
448.896	103.06
449.117	86.06
449.338	104.06
449.559	101.06
449.779	71.06
450	95.06
450.221	99.06
450.442	87.06
450.662	85.06
450.883	78.06
451.104	93.06
451.324	85.06
451.545	75.06
451.766	78.06
451.986	93.06
452.207	89.06
452.428	87.06
452.648	94.06
452.869	100.06
453.089	100.06
453.31	89.06
453.53	97.06
453.751	86.06
453.971	82.06
454.192	78.06
454.412	87.06
454.633	85.06
454.853	89.06
455.073	89.06
455.294	100.06
455.514	97.06
455.734	87.06
455.955	92.06
456.175	80.06
456.395	81.06
456.616	81.06
456.836	84.06
457.056	90.06
457.276	92.06
457.497	68.06
457.717	85.06
457.937	77.06
458.157	90.06
458.377	78.06
458.598	82.06
458.818	66.06
459.038	82.06
459.258	94.06
459.478	80.06
459.698	86.06
459.918	84.06
460.138	77.06
460.358	93.06
460.578	83.06
460.798	78.06
461.018	85.06
461.238	87.06
461.458	87.06
461.678	80.06
461.898	89.06
462.118	91.06
462.338	76.06
462.558	77.06
462.777	77.06
462.997	94.06
463.217	90.06
463.437	86.06
463.657	85.06
463.876	82.06
464.096	85.06
464.316	98.06
464.536	88.06
464.755	94.06
464.975	90.06
465.195	82.06
465.414	78.06
465.634	87.06
465.854	105.06
466.073	86.06
466.293	95.06
466.512	83.06
466.732	79.06
466.951	91.06
467.171	98.06
467.391	83.06
467.61	93.06
467.829	97.06
468.049	68.06
468.268	88.06
468.488	97.06
468.707	88.06
468.927	87.06
469.146	104.06
469.365	91.06
469.585	89.06
469.804	101.06
470.023	90.06
470.243	97.06
470.462	94.06
470.681	104.06
470.901	93.06
471.12	84.06
471.339	94.06
471.558	90.06
471.777	101.06
471.997	108.06
472.216	90.06
472.435	86.06
472.654	71.06
472.873	84.06
473.092	78.06
473.311	95.06
473.53	82.06
473.749	86.06
473.968	91.06
474.187	101.06
474.406	80.06
474.625	89.06
474.844	76.06
475.063	87.06
475.282	95.06
475.501	76.06
475.72	79.06
475.939	91.06
476.158	77.06
476.377	73.06
476.596	76.06
476.814	85.06
477.033	87.06
477.252	101.06
477.471	86.06
477.69	104.06
477.908	95.06
478.127	87.06
478.346	94.06
478.564	92.06
478.783	82.06
479.002	94.06
479.22	99.06
479.439	85.06
479.658	92.06
479.876	102.06
480.095	72.06
480.313	91.06
480.532	87.06
480.751	85.06
480.969	86.06
481.188	88.06
481.406	103.06
481.624	89.06
481.843	76.06
482.061	84.06
482.28	79.06
482.498	94.06
482.717	94.06
482.935	95.06
483.153	86.06
483.372	103.06
483.59	109.06
483.808	89.06
484.027	84.06
484.245	83.06
484.463	90.06
484.681	101.06
484.9	105.06
485.118	87.06
485.336	84.06
485.554	76.06
485.772	84.06
485.99	72.06
486.209	88.06
486.427	87.06
486.645	91.06
486.863	82.06
487.081	80.06
487.299	97.06
487.517	93.06
487.735	90.06
487.953	103.06
488.171	100.06
488.389	95.06
488.607	93.06
488.825	92.06
489.043	94.06
489.261	83.06
489.479	97.06
489.696	87.06
489.914	104.06
490.132	102.06
490.35	91.06
490.568	90.06
490.786	90.06
491.003	96.06
491.221	82.06
491.439	107.06
491.657	100.06
491.874	99.06
492.092	97.06
492.31	113.06
492.527	123.06
492.745	97.06
492.963	102.06
493.18	94.06
493.398	88.06
493.615	103.06
493.833	109.06
494.05	113.06
494.268	99.06
494.485	96.06
494.703	105.06
494.92	101.06
495.138	107.06
495.355	111.06
495.573	90.06
495.79	109.06
496.008	102.06
496.225	103.06
496.442	103.06
496.66	107.06
496.877	103.06
497.094	82.06
497.312	75.06
497.529	101.06
497.746	102.06
497.963	98.06
498.181	101.06
498.398	84.06
498.615	88.06
498.832	79.06
499.049	87.06
499.267	79.06
499.484	97.06
499.701	100.06
499.918	98.06
500.135	87.06
500.352	106.06
500.569	92.06
500.786	94.06
501.003	88.06
501.22	87.06
501.437	77.06
501.654	87.06
501.871	88.06
502.088	90.06
502.305	86.06
502.522	82.06
502.739	90.06
502.956	68.06
503.172	83.06
503.389	84.06
503.606	89.06
503.823	95.06
504.04	100.06
504.256	98.06
504.473	91.06
504.69	104.06
504.907	100.06
505.123	87.06
505.34	91.06
505.557	93.06
505.773	94.06
505.99	102.06
506.207	82.06
506.423	79.06
506.64	95.06
506.856	97.06
507.073	110.06
507.289	99.06
507.506	87.06
507.722	95.06
507.939	91.06
508.155	82.06
508.372	93.06
508.588	94.06
508.805	78.06
509.021	80.06
509.238	92.06
509.454	83.06
509.67	87.06
509.887	85.06
510.103	100.06
510.319	85.06
510.536	78.06
510.752	87.06
510.968	94.06
511.184	78.06
511.401	94.06
511.617	85.06
511.833	85.06
512.049	87.06
512.265	87.06
512.481	87.06
512.698	88.06
512.914	92.06
513.13	83.06
513.346	87.06
513.562	83.06
513.778	89.06
513.994	91.06
514.21	85.06
514.426	86.06
514.642	83.06
514.858	62.06
515.074	87.06
515.29	82.06
515.506	96.06
515.721	90.06
515.937	91.06
516.153	82.06
516.369	84.06
516.585	92.06
516.801	75.06
517.016	74.06
517.232	70.06
517.448	84.06
517.664	85.06
517.879	100.06
518.095	83.06
518.311	77.06
518.527	86.06
518.742	94.06
518.958	89.06
519.173	82.06
519.389	79.06
519.605	97.06
519.82	85.06
520.036	93.06
520.251	90.06
520.467	86.06
520.682	80.06
520.898	78.06
521.113	86.06
521.329	88.06
521.544	82.06
521.76	97.06
521.975	84.06
522.19	95.06
522.406	90.06
522.621	85.06
522.836	77.06
523.052	87.06
523.267	91.06
523.482	83.06
523.698	80.06
523.913	87.06
524.128	89.06
524.343	78.06
524.559	87.06
524.774	89.06
524.989	96.06
525.204	85.06
525.419	88.06
525.634	94.06
525.849	99.06
526.064	82.06
526.28	92.06
526.495	88.06
526.71	80.06
526.925	87.06
527.14	86.06
527.355	83.06
527.57	85.06
527.785	92.06
527.999	89.06
528.214	95.06
528.429	99.06
528.644	77.06
528.859	91.06
529.074	98.06
529.289	97.06
529.503	93.06
529.718	96.06
529.933	99.06
530.148	94.06
530.363	87.06
530.577	82.06
530.792	86.06
531.007	93.06
531.221	86.06
531.436	75.06
531.651	79.06
531.865	83.06
532.08	90.06
532.295	82.06
532.509	87.06
532.724	85.06
532.938	94.06
533.153	75.06
533.367	75.06
533.582	97.06
533.796	94.06
534.011	103.06
534.225	83.06
534.44	86.06
534.654	85.06
534.868	96.06
535.083	99.06
535.297	88.06
535.511	99.06
535.726	93.06
535.94	97.06
536.154	79.06
536.369	82.06
536.583	88.06
536.797	96.06
537.011	85.06
537.225	82.06
537.44	78.06
537.654	80.06
537.868	92.06
538.082	99.06
538.296	92.06
538.51	91.06
538.724	85.06
538.938	71.06
539.153	86.06
539.367	97.06
539.581	100.06
539.795	86.06
540.009	79.06
540.222	94.06
540.436	84.06
540.65	100.06
540.864	99.06
541.078	97.06
541.292	97.06
541.506	81.06
541.72	104.06
541.934	109.06
542.147	102.06
542.361	104.06
542.575	98.06
542.789	99.06
543.002	92.06
543.216	91.06
543.43	98.06
543.644	100.06
543.857	92.06
544.071	99.06
544.285	99.06
544.498	104.06
544.712	97.06
544.925	92.06
545.139	84.06
545.352	107.06
545.566	116.06
545.779	93.06
545.993	101.06
546.206	90.06
546.42	97.06
546.633	95.06
546.847	111.06
547.06	110.06
547.274	91.06
547.487	116.06
547.7	101.06
547.914	116.06
548.127	93.06
548.34	89.06
548.554	100.06
548.767	100.06
548.98	92.06
549.193	97.06
549.407	113.06
549.62	87.06
549.833	97.06
550.046	97.06
550.259	92.06
550.473	105.06
550.686	97.06
550.899	98.06
551.112	92.06
551.325	89.06
551.538	98.06
551.751	95.06
551.964	88.06
552.177	95.06
552.39	79.06
552.603	106.06
552.816	94.06
553.029	95.06
553.242	92.06
553.455	88.06
553.667	113.06
553.88	101.06
554.093	108.06
554.306	91.06
554.519	86.06
554.732	93.06
554.944	93.06
555.157	94.06
555.37	85.06
555.583	95.06
555.795	90.06
556.008	95.06
556.221	97.06
556.433	92.06
556.646	90.06
556.859	94.06
557.071	93.06
557.284	91.06
557.496	91.06
557.709	105.06
557.921	89.06
558.134	99.06
558.346	90.06
558.559	109.06
558.771	90.06
558.984	102.06
559.196	92.06
559.409	97.06
559.621	93.06
559.833	100.06
560.046	94.06
560.258	99.06
560.47	99.06
560.683	89.06
560.895	94.06
561.107	92.06
561.32	101.06
561.532	93.06
561.744	102.06
561.956	99.06
562.168	89.06
562.381	93.06
562.593	102.06
562.805	106.06
563.017	90.06
563.229	96.06
563.441	85.06
563.653	77.06
563.865	95.06
564.077	98.06
564.289	105.06
564.501	93.06
564.713	100.06
564.925	92.06
565.137	109.06
565.349	90.06
565.561	93.06
565.773	95.06
565.985	97.06
566.197	96.06
566.408	92.06
566.62	87.06
566.832	102.06
567.044	104.06
567.255	85.06
567.467	79.06
567.679	78.06
567.891	89.06
568.102	89.06
568.314	79.06
568.526	89.06
568.737	102.06
568.949	93.06
569.161	83.06
569.372	93.06
569.584	94.06
569.795	89.06
570.007	65.06
570.218	85.06
570.43	85.06
570.641	90.06
570.853	86.06
571.064	79.06
571.276	89.06
571.487	89.06
571.698	69.06
571.91	81.06
572.121	86.06
572.333	92.06
572.544	83.06
572.755	82.06
572.966	78.06
573.178	94.06
573.389	76.06
573.6	61.06
573.811	79.06
574.023	82.06
574.234	83.06
574.445	89.06
574.656	77.06
574.867	89.06
575.078	92.06
575.289	92.06
575.501	84.06
575.712	102.06
575.923	79.06
576.134	90.06
576.345	81.06
576.556	90.06
576.767	106.06
576.978	89.06
577.188	82.06
577.399	73.06
577.61	78.06
577.821	83.06
578.032	93.06
578.243	78.06
578.454	74.06
578.665	84.06
578.875	78.06
579.086	81.06
579.297	84.06
579.508	86.06
579.718	79.06
579.929	84.06
580.14	78.06
580.35	87.06
580.561	100.06
580.772	90.06
580.982	87.06
581.193	102.06
581.403	88.06
581.614	86.06
581.825	86.06
582.035	92.06
582.246	78.06
582.456	82.06
582.667	92.06
582.877	95.06
583.087	79.06
583.298	100.06
583.508	79.06
583.719	103.06
583.929	84.06
584.139	87.06
584.35	80.06
584.56	86.06
584.77	101.06
584.981	84.06
585.191	102.06
585.401	86.06
585.611	82.06
585.821	84.06
586.032	86.06
586.242	80.06
586.452	80.06
586.662	82.06
586.872	89.06
587.082	88.06
587.292	95.06
587.502	83.06
587.713	78.06
587.923	82.06
588.133	78.06
588.343	91.06
588.553	78.06
588.762	74.06
588.972	99.06
589.182	90.06
589.392	85.06
589.602	79.06
589.812	84.06
590.022	91.06
590.232	83.06
590.441	88.06
590.651	93.06
590.861	85.06
591.071	73.06
591.281	85.06
591.49	86.06
591.7	88.06
591.91	91.06
592.119	88.06
592.329	95.06
592.539	73.06
592.748	87.06
592.958	78.06
593.167	79.06
593.377	94.06
593.587	89.06
593.796	85.06
594.006	84.06
594.215	80.06
594.424	91.06
594.634	88.06
594.843	86.06
595.053	81.06
595.262	98.06
595.472	87.06
595.681	82.06
595.89	98.06
596.1	83.06
596.309	87.06
596.518	92.06
596.727	77.06
596.937	82.06
597.146	79.06
597.355	95.06
597.564	82.06
597.774	105.06
597.983	76.06
598.192	65.06
598.401	87.06
598.61	86.06
598.819	91.06
599.028	97.06
599.237	87.06
599.446	94.06
599.655	86.06
599.864	80.06
600.073	78.06
600.282	83.06
600.491	97.06
600.7	99.06
600.909	78.06
601.118	87.06
601.327	85.06
601.536	88.06
601.745	86.06
601.953	87.06
602.162	88.06
602.371	95.06
602.58	71.06
602.789	92.06
602.997	96.06
603.206	86.06
603.415	98.06
603.623	91.06
603.832	97.06
604.041	87.06
604.249	96.06
604.458	87.06
604.666	85.06
604.875	78.06
605.084	79.06
605.292	82.06
605.501	87.06
605.709	76.06
605.918	89.06
606.126	89.06
606.334	95.06
606.543	94.06
606.751	95.06
606.96	103.06
607.168	89.06
607.376	85.06
607.585	98.06
607.793	92.06
608.001	94.06
608.21	95.06
608.418	92.06
608.626	102.06
608.834	92.06
609.043	78.06
609.251	98.06
609.459	95.06
609.667	101.06
609.875	97.06
610.083	81.06
610.291	90.06
610.499	85.06
610.707	90.06
610.916	78.06
611.124	91.06
611.332	92.06
611.54	97.06
611.748	103.06
611.955	75.06
612.163	100.06
612.371	87.06
612.579	93.06
612.787	79.06
612.995	99.06
613.203	94.06
613.411	98.06
613.618	93.06
613.826	86.06
614.034	99.06
614.242	98.06
614.449	95.06
614.657	89.06
614.865	88.06
615.072	95.06
615.28	78.06
615.488	85.06
615.695	96.06
615.903	82.06
616.111	87.06
616.318	100.06
616.526	90.06
616.733	86.06
616.941	81.06
617.148	91.06
617.356	91.06
617.563	88.06
617.771	99.06
617.978	85.06
618.185	81.06
618.393	77.06
618.6	77.06
618.807	75.06
619.015	91.06
619.222	84.06
619.429	98.06
619.637	84.06
619.844	89.06
620.051	87.06
620.258	87.06
620.466	92.06
620.673	94.06
620.88	99.06
621.087	94.06
621.294	95.06
621.501	81.06
621.708	85.06
621.915	95.06
622.122	66.06
622.329	85.06
622.536	98.06
622.743	95.06
622.95	93.06
623.157	98.06
623.364	89.06
623.571	87.06
623.778	91.06
623.985	93.06
624.192	91.06
624.399	111.06
624.606	88.06
624.812	89.06
625.019	92.06
625.226	79.06
625.433	89.06
625.639	96.06
625.846	74.06
626.053	80.06
626.259	98.06
626.466	85.06
626.673	76.06
626.879	90.06
627.086	85.06
627.293	82.06
627.499	93.06
627.706	76.06
627.912	100.06
628.119	88.06
628.325	89.06
628.532	95.06
628.738	89.06
628.945	81.06
629.151	93.06
629.357	83.06
629.564	76.06
629.77	82.06
629.976	93.06
630.183	87.06
630.389	90.06
630.595	87.06
630.802	93.06
631.008	79.06
631.214	101.06
631.42	85.06
631.627	90.06
631.833	96.06
632.039	99.06
632.245	85.06
632.451	85.06
632.657	93.06
632.863	66.06
633.069	82.06
633.275	85.06
633.481	90.06
633.688	85.06
633.893	79.06
634.099	94.06
634.305	86.06
634.511	93.06
634.717	79.06
634.923	101.06
635.129	89.06
635.335	74.06
635.541	102.06
635.747	90.06
635.952	90.06
636.158	98.06
636.364	98.06
636.57	72.06
636.775	85.06
636.981	79.06
637.187	83.06
637.392	82.06
637.598	92.06
637.804	85.06
638.009	76.06
638.215	87.06
638.421	81.06
638.626	85.06
638.832	79.06
639.037	69.06
639.243	92.06
639.448	88.06
639.654	82.06
639.859	71.06
640.065	105.06
640.27	99.06
640.475	83.06
640.681	98.06
640.886	84.06
641.091	79.06
641.297	94.06
641.502	76.06
641.707	80.06
641.913	78.06
642.118	88.06
642.323	90.06
642.528	98.06
642.733	83.06
642.939	87.06
643.144	89.06
643.349	93.06
643.554	83.06
643.759	80.06
643.964	97.06
644.169	76.06
644.374	88.06
644.579	96.06
644.784	90.06
644.989	90.06
645.194	99.06
645.399	80.06
645.604	92.06
645.809	93.06
646.014	90.06
646.219	89.06
646.423	94.06
646.628	71.06
646.833	105.06
647.038	93.06
647.243	93.06
647.447	89.06
647.652	88.06
647.857	66.06
648.062	81.06
648.266	85.06
648.471	92.06
648.676	87.06
648.88	91.06
649.085	92.06
649.289	102.06
649.494	88.06
649.698	97.06
649.903	86.06
650.107	95.06
650.312	100.06
650.516	78.06
650.721	96.06
650.925	89.06
651.13	89.06
651.334	90.06
651.539	86.06
651.743	77.06
651.947	94.06
652.152	91.06
652.356	89.06
652.56	76.06
652.764	73.06
652.969	61.06
653.173	89.06
653.377	88.06
653.581	77.06
653.785	91.06
653.99	82.06
654.194	100.06
654.398	70.06
654.602	91.06
654.806	83.06
655.01	75.06
655.214	94.06
655.418	90.06
655.622	67.06
655.826	83.06
656.03	69.06
656.234	94.06
656.438	76.06
656.642	74.06
656.846	81.06
657.049	87.06
657.253	87.06
657.457	74.06
657.661	77.06
657.865	84.06
658.068	81.06
658.272	88.06
658.476	86.06
658.68	82.06
658.883	84.06
659.087	86.06
659.291	84.06
659.494	92.06
659.698	100.06
659.901	82.06
660.105	88.06
660.309	95.06
660.512	83.06
660.716	93.06
660.919	86.06
661.123	90.06
661.326	76.06
661.53	87.06
661.733	79.06
661.936	90.06
662.14	79.06
662.343	73.06
662.546	99.06
662.75	93.06
662.953	77.06
663.156	78.06
663.36	89.06
663.563	82.06
663.766	76.06
663.969	85.06
664.173	87.06
664.376	77.06
664.579	74.06
664.782	77.06
664.985	94.06
665.188	76.06
665.391	84.06
665.594	73.06
665.797	67.06
666	76.06
666.203	78.06
666.406	82.06
666.609	92.06
666.812	87.06
667.015	84.06
667.218	90.06
667.421	80.06
667.624	78.06
667.827	81.06
668.03	86.06
668.232	79.06
668.435	67.06
668.638	82.06
668.841	96.06
669.043	99.06
669.246	79.06
669.449	80.06
669.651	73.06
669.854	91.06
670.057	77.06
670.259	72.06
670.462	77.06
670.665	85.06
670.867	91.06
671.07	81.06
671.272	85.06
671.475	88.06
671.677	85.06
671.88	89.06
672.082	88.06
672.284	79.06
672.487	94.06
672.689	89.06
672.892	72.06
