Data from Zn(NO3)2Standard.Agarose3%.GreenCap.LampEnergy5.5.E.O_HRD10591_15-03-26-768.txt Node
Date: Mon Jul 22 15:03:26 EDT 2019
User: cochatt
Spectrometer: HR+D1059
Trigger mode: 1
Integration Time (sec): 1.000000E-1
Scans to average: 1
Electric dark correction enabled: true
Nonlinearity correction enabled: false
Boxcar width: 0
XAxis mode: Wavelengths
Number of Pixels in Spectrum: 2048
>>>>>Begin Spectral Data<<<<<
223.165	-12.06
223.4	-12.06
223.635	-12.06
223.869	-21.06
224.104	-19.06
224.338	-9.06
224.573	-5.06
224.808	-25.06
225.042	-15.06
225.277	-5.06
225.511	-1.06
225.746	-3.06
225.98	-7.06
226.215	30.94
226.449	12.94
226.683	24.94
226.918	22.94
227.152	30.94
227.387	34.94
227.621	48.94
227.856	37.94
228.09	53.94
228.324	41.94
228.559	49.94
228.793	43.94
229.027	54.94
229.262	68.94
229.496	70.94
229.73	67.94
229.964	67.94
230.199	62.94
230.433	88.94
230.667	84.94
230.901	78.94
231.136	78.94
231.37	93.94
231.604	78.94
231.838	89.94
232.072	70.94
232.306	73.94
232.541	70.94
232.775	79.94
233.009	80.94
233.243	78.94
233.477	87.94
233.711	81.94
233.945	82.94
234.179	73.94
234.413	83.94
234.647	83.94
234.881	92.94
235.115	88.94
235.349	95.94
235.583	91.94
235.817	80.94
236.051	64.94
236.285	68.94
236.519	75.94
236.753	75.94
236.987	72.94
237.221	77.94
237.455	70.94
237.689	78.94
237.922	78.94
238.156	69.94
238.39	75.94
238.624	78.94
238.858	72.94
239.091	81.94
239.325	84.94
239.559	82.94
239.793	80.94
240.027	73.94
240.26	75.94
240.494	86.94
240.728	83.94
240.961	86.94
241.195	80.94
241.429	73.94
241.662	78.94
241.896	94.94
242.13	80.94
242.363	83.94
242.597	83.94
242.83	74.94
243.064	79.94
243.298	72.94
243.531	90.94
243.765	88.94
243.998	64.94
244.232	88.94
244.465	82.94
244.699	81.94
244.932	72.94
245.166	78.94
245.399	77.94
245.633	89.94
245.866	80.94
246.099	78.94
246.333	89.94
246.566	79.94
246.8	82.94
247.033	77.94
247.266	73.94
247.5	71.94
247.733	81.94
247.966	90.94
248.2	72.94
248.433	83.94
248.666	87.94
248.899	79.94
249.133	88.94
249.366	66.94
249.599	76.94
249.832	73.94
250.066	84.94
250.299	77.94
250.532	82.94
250.765	76.94
250.998	84.94
251.231	71.94
251.465	77.94
251.698	84.94
251.931	72.94
252.164	77.94
252.397	70.94
252.63	89.94
252.863	82.94
253.096	93.94
253.329	92.94
253.562	76.94
253.795	88.94
254.028	91.94
254.261	79.94
254.494	94.94
254.727	78.94
254.96	80.94
255.193	72.94
255.426	78.94
255.659	81.94
255.892	85.94
256.124	74.94
256.357	87.94
256.59	76.94
256.823	74.94
257.056	84.94
257.289	84.94
257.521	77.94
257.754	76.94
257.987	87.94
258.22	87.94
258.452	86.94
258.685	72.94
258.918	79.94
259.151	83.94
259.383	67.94
259.616	74.94
259.849	70.94
260.081	89.94
260.314	83.94
260.547	82.94
260.779	87.94
261.012	79.94
261.244	76.94
261.477	81.94
261.71	84.94
261.942	84.94
262.175	81.94
262.407	87.94
262.64	80.94
262.872	84.94
263.105	76.94
263.337	84.94
263.57	91.94
263.802	75.94
264.035	84.94
264.267	84.94
264.499	83.94
264.732	74.94
264.964	72.94
265.197	82.94
265.429	75.94
265.661	66.94
265.894	84.94
266.126	74.94
266.358	81.94
266.591	81.94
266.823	84.94
267.055	86.94
267.287	79.94
267.52	86.94
267.752	82.94
267.984	73.94
268.216	96.94
268.448	93.94
268.681	76.94
268.913	85.94
269.145	74.94
269.377	91.94
269.609	77.94
269.841	83.94
270.073	85.94
270.306	82.94
270.538	91.94
270.77	93.94
271.002	84.94
271.234	79.94
271.466	75.94
271.698	84.94
271.93	77.94
272.162	83.94
272.394	78.94
272.626	77.94
272.858	75.94
273.09	72.94
273.322	77.94
273.553	73.94
273.785	101.94
274.017	84.94
274.249	75.94
274.481	81.94
274.713	83.94
274.945	84.94
275.176	84.94
275.408	85.94
275.64	78.94
275.872	84.94
276.104	88.94
276.335	84.94
276.567	87.94
276.799	74.94
277.031	70.94
277.262	85.94
277.494	87.94
277.726	77.94
277.957	89.94
278.189	93.94
278.421	92.94
278.652	90.94
278.884	84.94
279.115	88.94
279.347	76.94
279.579	84.94
279.81	90.94
280.042	81.94
280.273	84.94
280.505	78.94
280.736	81.94
280.968	85.94
281.199	76.94
281.431	76.94
281.662	85.94
281.894	93.94
282.125	76.94
282.356	78.94
282.588	84.94
282.819	91.94
283.051	86.94
283.282	92.94
283.513	88.94
283.745	89.94
283.976	82.94
284.207	81.94
284.439	87.94
284.67	84.94
284.901	90.94
285.132	94.94
285.364	85.94
285.595	94.94
285.826	98.94
286.057	73.94
286.288	78.94
286.52	78.94
286.751	69.94
286.982	87.94
287.213	77.94
287.444	84.94
287.675	83.94
287.906	79.94
288.138	71.94
288.369	92.94
288.6	93.94
288.831	105.94
289.062	93.94
289.293	89.94
289.524	74.94
289.755	83.94
289.986	80.94
290.217	81.94
290.448	79.94
290.679	92.94
290.91	88.94
291.141	78.94
291.371	81.94
291.602	83.94
291.833	77.94
292.064	86.94
292.295	80.94
292.526	97.94
292.757	71.94
292.987	89.94
293.218	89.94
293.449	84.94
293.68	82.94
293.91	73.94
294.141	84.94
294.372	74.94
294.603	100.94
294.833	106.94
295.064	86.94
295.295	83.94
295.525	85.94
295.756	79.94
295.987	72.94
296.217	90.94
296.448	71.94
296.679	74.94
296.909	93.94
297.14	86.94
297.37	92.94
297.601	91.94
297.831	68.94
298.062	76.94
298.292	83.94
298.523	93.94
298.753	97.94
298.984	96.94
299.214	83.94
299.445	75.94
299.675	94.94
299.905	69.94
300.136	65.94
300.366	83.94
300.597	84.94
300.827	82.94
301.057	80.94
301.288	65.94
301.518	82.94
301.748	85.94
301.979	87.94
302.209	81.94
302.439	67.94
302.669	75.94
302.9	78.94
303.13	99.94
303.36	77.94
303.59	84.94
303.82	94.94
304.051	77.94
304.281	79.94
304.511	88.94
304.741	85.94
304.971	93.94
305.201	97.94
305.431	96.94
305.661	83.94
305.891	81.94
306.121	85.94
306.352	98.94
306.582	86.94
306.812	88.94
307.042	74.94
307.272	85.94
307.502	80.94
307.731	82.94
307.961	77.94
308.191	71.94
308.421	76.94
308.651	72.94
308.881	81.94
309.111	77.94
309.341	85.94
309.571	85.94
309.8	98.94
310.03	82.94
310.26	81.94
310.49	88.94
310.72	85.94
310.949	100.94
311.179	81.94
311.409	80.94
311.639	75.94
311.868	76.94
312.098	72.94
312.328	75.94
312.557	88.94
312.787	81.94
313.017	83.94
313.246	92.94
313.476	88.94
313.706	82.94
313.935	97.94
314.165	90.94
314.394	77.94
314.624	84.94
314.853	89.94
315.083	80.94
315.312	80.94
315.542	84.94
315.771	100.94
316.001	85.94
316.23	76.94
316.46	90.94
316.689	70.94
316.919	77.94
317.148	100.94
317.377	90.94
317.607	101.94
317.836	77.94
318.065	94.94
318.295	98.94
318.524	84.94
318.753	86.94
318.983	98.94
319.212	89.94
319.441	73.94
319.67	81.94
319.9	96.94
320.129	84.94
320.358	81.94
320.587	83.94
320.816	97.94
321.046	86.94
321.275	82.94
321.504	92.94
321.733	70.94
321.962	75.94
322.191	78.94
322.42	83.94
322.649	80.94
322.878	78.94
323.108	89.94
323.337	83.94
323.566	81.94
323.795	71.94
324.024	83.94
324.253	78.94
324.482	87.94
324.71	74.94
324.939	92.94
325.168	90.94
325.397	78.94
325.626	78.94
325.855	101.94
326.084	96.94
326.313	83.94
326.542	83.94
326.77	88.94
326.999	84.94
327.228	75.94
327.457	76.94
327.686	85.94
327.914	98.94
328.143	97.94
328.372	88.94
328.6	82.94
328.829	85.94
329.058	89.94
329.287	81.94
329.515	88.94
329.744	98.94
329.972	99.94
330.201	82.94
330.43	83.94
330.658	74.94
330.887	88.94
331.115	72.94
331.344	83.94
331.572	71.94
331.801	84.94
332.03	76.94
332.258	93.94
332.486	96.94
332.715	88.94
332.943	83.94
333.172	88.94
333.4	86.94
333.629	93.94
333.857	93.94
334.085	88.94
334.314	82.94
334.542	76.94
334.771	88.94
334.999	91.94
335.227	80.94
335.455	80.94
335.684	82.94
335.912	93.94
336.14	81.94
336.369	78.94
336.597	92.94
336.825	83.94
337.053	77.94
337.281	77.94
337.51	60.94
337.738	92.94
337.966	75.94
338.194	83.94
338.422	92.94
338.65	74.94
338.878	88.94
339.106	84.94
339.334	78.94
339.562	92.94
339.79	90.94
340.018	78.94
340.246	77.94
340.474	84.94
340.702	88.94
340.93	67.94
341.158	73.94
341.386	88.94
341.614	81.94
341.842	70.94
342.07	82.94
342.298	84.94
342.526	84.94
342.754	82.94
342.981	93.94
343.209	81.94
343.437	86.94
343.665	86.94
343.893	81.94
344.12	85.94
344.348	82.94
344.576	104.94
344.804	83.94
345.031	70.94
345.259	94.94
345.487	77.94
345.714	85.94
345.942	80.94
346.17	97.94
346.397	77.94
346.625	69.94
346.853	89.94
347.08	82.94
347.308	83.94
347.535	83.94
347.763	80.94
347.99	77.94
348.218	85.94
348.445	89.94
348.673	86.94
348.9	73.94
349.128	74.94
349.355	64.94
349.583	87.94
349.81	77.94
350.037	72.94
350.265	98.94
350.492	73.94
350.72	74.94
350.947	88.94
351.174	100.94
351.402	82.94
351.629	93.94
351.856	74.94
352.083	84.94
352.311	74.94
352.538	80.94
352.765	79.94
352.992	77.94
353.22	85.94
353.447	82.94
353.674	91.94
353.901	81.94
354.128	83.94
354.355	90.94
354.583	95.94
354.81	92.94
355.037	81.94
355.264	94.94
355.491	88.94
355.718	80.94
355.945	89.94
356.172	92.94
356.399	88.94
356.626	84.94
356.853	81.94
357.08	74.94
357.307	83.94
357.534	83.94
357.761	74.94
357.988	93.94
358.215	70.94
358.441	70.94
358.668	80.94
358.895	88.94
359.122	91.94
359.349	92.94
359.576	73.94
359.802	76.94
360.029	92.94
360.256	98.94
360.483	81.94
360.709	65.94
360.936	89.94
361.163	81.94
361.39	89.94
361.616	78.94
361.843	89.94
362.07	80.94
362.296	90.94
362.523	76.94
362.749	69.94
362.976	80.94
363.203	89.94
363.429	79.94
363.656	78.94
363.882	96.94
364.109	94.94
364.335	85.94
364.562	94.94
364.788	71.94
365.015	78.94
365.241	83.94
365.468	83.94
365.694	77.94
365.92	83.94
366.147	83.94
366.373	83.94
366.599	67.94
366.826	87.94
367.052	79.94
367.278	71.94
367.505	74.94
367.731	86.94
367.957	80.94
368.184	76.94
368.41	86.94
368.636	87.94
368.862	70.94
369.089	85.94
369.315	95.94
369.541	72.94
369.767	87.94
369.993	82.94
370.219	74.94
370.445	90.94
370.672	77.94
370.898	66.94
371.124	95.94
371.35	75.94
371.576	81.94
371.802	77.94
372.028	84.94
372.254	91.94
372.48	95.94
372.706	88.94
372.932	77.94
373.158	84.94
373.384	68.94
373.61	85.94
373.835	82.94
374.061	92.94
374.287	89.94
374.513	84.94
374.739	76.94
374.965	69.94
375.191	88.94
375.416	86.94
375.642	86.94
375.868	90.94
376.094	75.94
376.319	80.94
376.545	75.94
376.771	84.94
376.997	79.94
377.222	76.94
377.448	85.94
377.674	75.94
377.899	78.94
378.125	78.94
378.35	93.94
378.576	71.94
378.802	77.94
379.027	83.94
379.253	81.94
379.478	76.94
379.704	90.94
379.929	74.94
380.155	79.94
380.38	84.94
380.606	91.94
380.831	87.94
381.057	83.94
381.282	87.94
381.507	79.94
381.733	88.94
381.958	76.94
382.184	80.94
382.409	84.94
382.634	82.94
382.86	77.94
383.085	72.94
383.31	72.94
383.535	79.94
383.761	76.94
383.986	89.94
384.211	77.94
384.436	84.94
384.662	71.94
384.887	75.94
385.112	92.94
385.337	74.94
385.562	85.94
385.787	72.94
386.013	80.94
386.238	90.94
386.463	84.94
386.688	83.94
386.913	97.94
387.138	78.94
387.363	97.94
387.588	99.94
387.813	102.94
388.038	84.94
388.263	83.94
388.488	83.94
388.713	91.94
388.938	71.94
389.163	82.94
389.387	84.94
389.612	88.94
389.837	92.94
390.062	91.94
390.287	83.94
390.512	83.94
390.736	73.94
390.961	74.94
391.186	86.94
391.411	83.94
391.636	92.94
391.86	88.94
392.085	79.94
392.31	81.94
392.534	92.94
392.759	83.94
392.984	87.94
393.208	87.94
393.433	82.94
393.658	92.94
393.882	81.94
394.107	89.94
394.331	84.94
394.556	68.94
394.78	76.94
395.005	81.94
395.229	84.94
395.454	90.94
395.678	93.94
395.903	91.94
396.127	84.94
396.352	73.94
396.576	85.94
396.801	73.94
397.025	80.94
397.249	73.94
397.474	80.94
397.698	85.94
397.922	89.94
398.147	93.94
398.371	76.94
398.595	84.94
398.82	72.94
399.044	91.94
399.268	82.94
399.492	94.94
399.717	95.94
399.941	93.94
400.165	77.94
400.389	84.94
400.613	96.94
400.837	78.94
401.062	90.94
401.286	89.94
401.51	80.94
401.734	90.94
401.958	73.94
402.182	81.94
402.406	84.94
402.63	93.94
402.854	61.94
403.078	83.94
403.302	81.94
403.526	76.94
403.75	67.94
403.974	92.94
404.198	95.94
404.422	89.94
404.645	88.94
404.869	80.94
405.093	78.94
405.317	82.94
405.541	94.94
405.765	83.94
405.988	85.94
406.212	89.94
406.436	85.94
406.66	97.94
406.883	82.94
407.107	93.94
407.331	91.94
407.555	90.94
407.778	88.94
408.002	81.94
408.226	77.94
408.449	86.94
408.673	101.94
408.896	93.94
409.12	91.94
409.344	75.94
409.567	82.94
409.791	84.94
410.014	96.94
410.238	81.94
410.461	98.94
410.685	81.94
410.908	100.94
411.132	93.94
411.355	76.94
411.578	96.94
411.802	88.94
412.025	76.94
412.249	73.94
412.472	82.94
412.695	78.94
412.919	89.94
413.142	98.94
413.365	76.94
413.589	84.94
413.812	84.94
414.035	105.94
414.258	83.94
414.482	78.94
414.705	85.94
414.928	89.94
415.151	73.94
415.374	89.94
415.597	85.94
415.821	81.94
416.044	86.94
416.267	83.94
416.49	98.94
416.713	86.94
416.936	78.94
417.159	80.94
417.382	79.94
417.605	76.94
417.828	101.94
418.051	82.94
418.274	89.94
418.497	91.94
418.72	73.94
418.943	82.94
419.166	85.94
419.389	87.94
419.611	94.94
419.834	96.94
420.057	93.94
420.28	88.94
420.503	87.94
420.726	95.94
420.948	84.94
421.171	85.94
421.394	94.94
421.617	80.94
421.839	82.94
422.062	90.94
422.285	86.94
422.507	99.94
422.73	75.94
422.953	87.94
423.175	94.94
423.398	84.94
423.621	91.94
423.843	84.94
424.066	87.94
424.288	88.94
424.511	87.94
424.733	92.94
424.956	96.94
425.178	92.94
425.401	77.94
425.623	90.94
425.846	90.94
426.068	98.94
426.291	87.94
426.513	101.94
426.735	96.94
426.958	88.94
427.18	92.94
427.402	86.94
427.625	102.94
427.847	93.94
428.069	77.94
428.292	84.94
428.514	81.94
428.736	97.94
428.958	83.94
429.181	89.94
429.403	91.94
429.625	94.94
429.847	97.94
430.069	91.94
430.292	89.94
430.514	88.94
430.736	88.94
430.958	93.94
431.18	87.94
431.402	85.94
431.624	81.94
431.846	98.94
432.068	78.94
432.29	80.94
432.512	83.94
432.734	82.94
432.956	91.94
433.178	98.94
433.4	96.94
433.622	92.94
433.844	81.94
434.066	81.94
434.287	79.94
434.509	87.94
434.731	96.94
434.953	86.94
435.175	77.94
435.397	83.94
435.618	77.94
435.84	94.94
436.062	92.94
436.284	90.94
436.505	89.94
436.727	89.94
436.949	78.94
437.17	83.94
437.392	85.94
437.614	89.94
437.835	69.94
438.057	79.94
438.278	78.94
438.5	81.94
438.721	101.94
438.943	97.94
439.165	80.94
439.386	80.94
439.608	92.94
439.829	94.94
440.05	83.94
440.272	91.94
440.493	78.94
440.715	88.94
440.936	102.94
441.158	84.94
441.379	98.94
441.6	101.94
441.822	92.94
442.043	87.94
442.264	96.94
442.486	88.94
442.707	73.94
442.928	97.94
443.149	77.94
443.371	77.94
443.592	94.94
443.813	73.94
444.034	106.94
444.255	90.94
444.476	88.94
444.698	91.94
444.919	93.94
445.14	230.94
445.361	153.94
445.582	77.94
445.803	91.94
446.024	83.94
446.245	95.94
446.466	84.94
446.687	99.94
446.908	85.94
447.129	81.94
447.35	85.94
447.571	95.94
447.792	90.94
448.013	96.94
448.234	86.94
448.455	84.94
448.675	82.94
448.896	97.94
449.117	86.94
449.338	87.94
449.559	86.94
449.779	96.94
450	82.94
450.221	89.94
450.442	88.94
450.662	88.94
450.883	88.94
451.104	96.94
451.324	87.94
451.545	85.94
451.766	77.94
451.986	92.94
452.207	90.94
452.428	74.94
452.648	77.94
452.869	84.94
453.089	97.94
453.31	93.94
453.53	96.94
453.751	87.94
453.971	89.94
454.192	75.94
454.412	88.94
454.633	79.94
454.853	76.94
455.073	89.94
455.294	86.94
455.514	102.94
455.734	98.94
455.955	102.94
456.175	83.94
456.395	81.94
456.616	81.94
456.836	82.94
457.056	78.94
457.276	73.94
457.497	103.94
457.717	78.94
457.937	70.94
458.157	91.94
458.377	82.94
458.598	78.94
458.818	104.94
459.038	73.94
459.258	85.94
459.478	94.94
459.698	69.94
459.918	94.94
460.138	90.94
460.358	93.94
460.578	94.94
460.798	83.94
461.018	71.94
461.238	85.94
461.458	89.94
461.678	89.94
461.898	84.94
462.118	93.94
462.338	83.94
462.558	80.94
462.777	77.94
462.997	73.94
463.217	96.94
463.437	83.94
463.657	89.94
463.876	97.94
464.096	94.94
464.316	82.94
464.536	76.94
464.755	98.94
464.975	82.94
465.195	84.94
465.414	88.94
465.634	88.94
465.854	53.94
466.073	80.94
466.293	83.94
466.512	86.94
466.732	84.94
466.951	84.94
467.171	76.94
467.391	81.94
467.61	103.94
467.829	90.94
468.049	93.94
468.268	98.94
468.488	88.94
468.707	88.94
468.927	88.94
469.146	96.94
469.365	100.94
469.585	77.94
469.804	78.94
470.023	93.94
470.243	87.94
470.462	84.94
470.681	94.94
470.901	94.94
471.12	91.94
471.339	104.94
471.558	88.94
471.777	83.94
471.997	90.94
472.216	92.94
472.435	97.94
472.654	66.94
472.873	82.94
473.092	94.94
473.311	76.94
473.53	88.94
473.749	90.94
473.968	96.94
474.187	88.94
474.406	85.94
474.625	88.94
474.844	90.94
475.063	78.94
475.282	70.94
475.501	73.94
475.72	88.94
475.939	93.94
476.158	87.94
476.377	83.94
476.596	84.94
476.814	96.94
477.033	84.94
477.252	109.94
477.471	91.94
477.69	99.94
477.908	94.94
478.127	109.94
478.346	91.94
478.564	99.94
478.783	104.94
479.002	78.94
479.22	88.94
479.439	100.94
479.658	84.94
479.876	91.94
480.095	78.94
480.313	100.94
480.532	93.94
480.751	99.94
480.969	90.94
481.188	83.94
481.406	79.94
481.624	75.94
481.843	82.94
482.061	83.94
482.28	87.94
482.498	103.94
482.717	90.94
482.935	80.94
483.153	84.94
483.372	98.94
483.59	88.94
483.808	78.94
484.027	82.94
484.245	89.94
484.463	86.94
484.681	118.94
484.9	86.94
485.118	93.94
485.336	94.94
485.554	84.94
485.772	77.94
485.99	76.94
486.209	86.94
486.427	81.94
486.645	96.94
486.863	92.94
487.081	89.94
487.299	94.94
487.517	90.94
487.735	98.94
487.953	109.94
488.171	98.94
488.389	103.94
488.607	92.94
488.825	84.94
489.043	101.94
489.261	88.94
489.479	105.94
489.696	96.94
489.914	85.94
490.132	95.94
490.35	84.94
490.568	88.94
490.786	103.94
491.003	104.94
491.221	92.94
491.439	106.94
491.657	98.94
491.874	101.94
492.092	97.94
492.31	103.94
492.527	97.94
492.745	100.94
492.963	98.94
493.18	99.94
493.398	103.94
493.615	92.94
493.833	106.94
494.05	112.94
494.268	100.94
494.485	100.94
494.703	96.94
494.92	100.94
495.138	90.94
495.355	94.94
495.573	85.94
495.79	91.94
496.008	105.94
496.225	92.94
496.442	83.94
496.66	95.94
496.877	82.94
497.094	96.94
497.312	96.94
497.529	101.94
497.746	106.94
497.963	82.94
498.181	85.94
498.398	92.94
498.615	98.94
498.832	86.94
499.049	104.94
499.267	100.94
499.484	87.94
499.701	93.94
499.918	92.94
500.135	85.94
500.352	87.94
500.569	100.94
500.786	105.94
501.003	87.94
501.22	96.94
501.437	84.94
501.654	89.94
501.871	96.94
502.088	93.94
502.305	91.94
502.522	91.94
502.739	76.94
502.956	91.94
503.172	93.94
503.389	83.94
503.606	87.94
503.823	92.94
504.04	97.94
504.256	76.94
504.473	77.94
504.69	84.94
504.907	102.94
505.123	95.94
505.34	86.94
505.557	95.94
505.773	81.94
505.99	98.94
506.207	92.94
506.423	76.94
506.64	77.94
506.856	86.94
507.073	88.94
507.289	95.94
507.506	93.94
507.722	92.94
507.939	93.94
508.155	102.94
508.372	94.94
508.588	83.94
508.805	87.94
509.021	80.94
509.238	78.94
509.454	94.94
509.67	85.94
509.887	84.94
510.103	75.94
510.319	88.94
510.536	83.94
510.752	86.94
510.968	78.94
511.184	78.94
511.401	89.94
511.617	86.94
511.833	76.94
512.049	90.94
512.265	88.94
512.481	85.94
512.698	89.94
512.914	87.94
513.13	82.94
513.346	77.94
513.562	80.94
513.778	96.94
513.994	76.94
514.21	73.94
514.426	90.94
514.642	93.94
514.858	78.94
515.074	90.94
515.29	77.94
515.506	69.94
515.721	81.94
515.937	69.94
516.153	77.94
516.369	74.94
516.585	73.94
516.801	91.94
517.016	92.94
517.232	83.94
517.448	84.94
517.664	80.94
517.879	78.94
518.095	89.94
518.311	82.94
518.527	88.94
518.742	86.94
518.958	77.94
519.173	88.94
519.389	70.94
519.605	91.94
519.82	86.94
520.036	84.94
520.251	75.94
520.467	88.94
520.682	86.94
520.898	90.94
521.113	98.94
521.329	83.94
521.544	71.94
521.76	90.94
521.975	87.94
522.19	90.94
522.406	86.94
522.621	85.94
522.836	87.94
523.052	98.94
523.267	97.94
523.482	91.94
523.698	88.94
523.913	72.94
524.128	86.94
524.343	87.94
524.559	92.94
524.774	93.94
524.989	80.94
525.204	83.94
525.419	88.94
525.634	79.94
525.849	76.94
526.064	88.94
526.28	80.94
526.495	95.94
526.71	87.94
526.925	96.94
527.14	89.94
527.355	79.94
527.57	90.94
527.785	83.94
527.999	79.94
528.214	87.94
528.429	95.94
528.644	87.94
528.859	99.94
529.074	86.94
529.289	85.94
529.503	87.94
529.718	91.94
529.933	90.94
530.148	89.94
530.363	86.94
530.577	83.94
530.792	84.94
531.007	99.94
531.221	88.94
531.436	86.94
531.651	71.94
531.865	66.94
532.08	83.94
532.295	82.94
532.509	92.94
532.724	84.94
532.938	82.94
533.153	91.94
533.367	73.94
533.582	82.94
533.796	99.94
534.011	95.94
534.225	86.94
534.44	91.94
534.654	86.94
534.868	78.94
535.083	73.94
535.297	77.94
535.511	82.94
535.726	75.94
535.94	88.94
536.154	71.94
536.369	74.94
536.583	89.94
536.797	84.94
537.011	79.94
537.225	86.94
537.44	86.94
537.654	85.94
537.868	69.94
538.082	103.94
538.296	88.94
538.51	99.94
538.724	100.94
538.938	101.94
539.153	91.94
539.367	90.94
539.581	96.94
539.795	86.94
540.009	92.94
540.222	88.94
540.436	87.94
540.65	87.94
540.864	98.94
541.078	89.94
541.292	92.94
541.506	109.94
541.72	96.94
541.934	101.94
542.147	126.94
542.361	105.94
542.575	90.94
542.789	96.94
543.002	94.94
543.216	94.94
543.43	89.94
543.644	92.94
543.857	104.94
544.071	99.94
544.285	108.94
544.498	93.94
544.712	100.94
544.925	98.94
545.139	102.94
545.352	105.94
545.566	107.94
545.779	92.94
545.993	100.94
546.206	92.94
546.42	92.94
546.633	88.94
546.847	87.94
547.06	88.94
547.274	93.94
547.487	102.94
547.7	97.94
547.914	98.94
548.127	96.94
548.34	107.94
548.554	107.94
548.767	104.94
548.98	97.94
549.193	86.94
549.407	94.94
549.62	84.94
549.833	112.94
550.046	92.94
550.259	91.94
550.473	108.94
550.686	93.94
550.899	86.94
551.112	92.94
551.325	114.94
551.538	84.94
551.751	94.94
551.964	96.94
552.177	78.94
552.39	101.94
552.603	81.94
552.816	104.94
553.029	102.94
553.242	105.94
553.455	96.94
553.667	89.94
553.88	98.94
554.093	96.94
554.306	88.94
554.519	93.94
554.732	83.94
554.944	99.94
555.157	100.94
555.37	86.94
555.583	107.94
555.795	90.94
556.008	92.94
556.221	95.94
556.433	90.94
556.646	93.94
556.859	89.94
557.071	94.94
557.284	96.94
557.496	95.94
557.709	91.94
557.921	80.94
558.134	105.94
558.346	104.94
558.559	87.94
558.771	94.94
558.984	90.94
559.196	97.94
559.409	70.94
559.621	88.94
559.833	86.94
560.046	89.94
560.258	113.94
560.47	101.94
560.683	90.94
560.895	81.94
561.107	92.94
561.32	104.94
561.532	69.94
561.744	88.94
561.956	85.94
562.168	91.94
562.381	80.94
562.593	90.94
562.805	89.94
563.017	98.94
563.229	92.94
563.441	89.94
563.653	91.94
563.865	85.94
564.077	97.94
564.289	94.94
564.501	97.94
564.713	88.94
564.925	84.94
565.137	80.94
565.349	83.94
565.561	88.94
565.773	104.94
565.985	100.94
566.197	82.94
566.408	84.94
566.62	78.94
566.832	99.94
567.044	100.94
567.255	82.94
567.467	87.94
567.679	91.94
567.891	92.94
568.102	92.94
568.314	79.94
568.526	86.94
568.737	91.94
568.949	81.94
569.161	72.94
569.372	80.94
569.584	91.94
569.795	92.94
570.007	81.94
570.218	87.94
570.43	87.94
570.641	89.94
570.853	89.94
571.064	93.94
571.276	87.94
571.487	93.94
571.698	91.94
571.91	89.94
572.121	86.94
572.333	94.94
572.544	96.94
572.755	93.94
572.966	82.94
573.178	85.94
573.389	80.94
573.6	86.94
573.811	74.94
574.023	83.94
574.234	82.94
574.445	80.94
574.656	84.94
574.867	95.94
575.078	73.94
575.289	94.94
575.501	96.94
575.712	78.94
575.923	90.94
576.134	101.94
576.345	96.94
576.556	90.94
576.767	99.94
576.978	76.94
577.188	88.94
577.399	85.94
577.61	81.94
577.821	77.94
578.032	94.94
578.243	83.94
578.454	78.94
578.665	89.94
578.875	86.94
579.086	92.94
579.297	101.94
579.508	80.94
579.718	87.94
579.929	79.94
580.14	92.94
580.35	68.94
580.561	84.94
580.772	83.94
580.982	82.94
581.193	88.94
581.403	98.94
581.614	90.94
581.825	89.94
582.035	84.94
582.246	83.94
582.456	91.94
582.667	92.94
582.877	73.94
583.087	90.94
583.298	92.94
583.508	90.94
583.719	85.94
583.929	99.94
584.139	68.94
584.35	92.94
584.56	91.94
584.77	88.94
584.981	94.94
585.191	90.94
585.401	77.94
585.611	84.94
585.821	98.94
586.032	69.94
586.242	78.94
586.452	90.94
586.662	76.94
586.872	87.94
587.082	77.94
587.292	92.94
587.502	93.94
587.713	92.94
587.923	78.94
588.133	85.94
588.343	95.94
588.553	74.94
588.762	83.94
588.972	90.94
589.182	104.94
589.392	82.94
589.602	98.94
589.812	94.94
590.022	76.94
590.232	79.94
590.441	76.94
590.651	83.94
590.861	69.94
591.071	88.94
591.281	86.94
591.49	98.94
591.7	71.94
591.91	93.94
592.119	88.94
592.329	83.94
592.539	77.94
592.748	97.94
592.958	89.94
593.167	86.94
593.377	100.94
593.587	77.94
593.796	78.94
594.006	89.94
594.215	77.94
594.424	93.94
594.634	105.94
594.843	88.94
595.053	87.94
595.262	73.94
595.472	84.94
595.681	78.94
595.89	86.94
596.1	86.94
596.309	89.94
596.518	82.94
596.727	71.94
596.937	78.94
597.146	89.94
597.355	92.94
597.564	83.94
597.774	69.94
597.983	81.94
598.192	93.94
598.401	78.94
598.61	78.94
598.819	88.94
599.028	102.94
599.237	101.94
599.446	96.94
599.655	81.94
599.864	82.94
600.073	82.94
600.282	99.94
600.491	77.94
600.7	87.94
600.909	86.94
601.118	79.94
601.327	81.94
601.536	86.94
601.745	88.94
601.953	86.94
602.162	102.94
602.371	86.94
602.58	81.94
602.789	86.94
602.997	88.94
603.206	78.94
603.415	90.94
603.623	94.94
603.832	88.94
604.041	86.94
604.249	86.94
604.458	98.94
604.666	97.94
604.875	79.94
605.084	87.94
605.292	87.94
605.501	93.94
605.709	80.94
605.918	92.94
606.126	90.94
606.334	81.94
606.543	82.94
606.751	90.94
606.96	96.94
607.168	101.94
607.376	94.94
607.585	87.94
607.793	85.94
608.001	90.94
608.21	97.94
608.418	98.94
608.626	77.94
608.834	93.94
609.043	92.94
609.251	101.94
609.459	76.94
609.667	87.94
609.875	84.94
610.083	73.94
610.291	93.94
610.499	93.94
610.707	96.94
610.916	86.94
611.124	65.94
611.332	85.94
611.54	83.94
611.748	94.94
611.955	80.94
612.163	86.94
612.371	105.94
612.579	80.94
612.787	83.94
612.995	94.94
613.203	91.94
613.411	91.94
613.618	91.94
613.826	95.94
614.034	88.94
614.242	84.94
614.449	85.94
614.657	86.94
614.865	86.94
615.072	91.94
615.28	97.94
615.488	83.94
615.695	84.94
615.903	92.94
616.111	62.94
616.318	93.94
616.526	89.94
616.733	75.94
616.941	96.94
617.148	89.94
617.356	81.94
617.563	89.94
617.771	87.94
617.978	89.94
618.185	92.94
618.393	99.94
618.6	77.94
618.807	96.94
619.015	93.94
619.222	88.94
619.429	97.94
619.637	84.94
619.844	84.94
620.051	101.94
620.258	92.94
620.466	98.94
620.673	89.94
620.88	94.94
621.087	82.94
621.294	89.94
621.501	86.94
621.708	83.94
621.915	82.94
622.122	88.94
622.329	88.94
622.536	85.94
622.743	76.94
622.95	88.94
623.157	96.94
623.364	78.94
623.571	88.94
623.778	83.94
623.985	91.94
624.192	77.94
624.399	86.94
624.606	90.94
624.812	89.94
625.019	99.94
625.226	89.94
625.433	85.94
625.639	84.94
625.846	84.94
626.053	80.94
626.259	88.94
626.466	91.94
626.673	87.94
626.879	79.94
627.086	86.94
627.293	86.94
627.499	87.94
627.706	96.94
627.912	85.94
628.119	82.94
628.325	96.94
628.532	80.94
628.738	100.94
628.945	78.94
629.151	84.94
629.357	85.94
629.564	91.94
629.77	85.94
629.976	85.94
630.183	75.94
630.389	87.94
630.595	89.94
630.802	78.94
631.008	105.94
631.214	100.94
631.42	87.94
631.627	88.94
631.833	104.94
632.039	102.94
632.245	84.94
632.451	88.94
632.657	97.94
632.863	78.94
633.069	88.94
633.275	75.94
633.481	88.94
633.688	77.94
633.893	85.94
634.099	89.94
634.305	85.94
634.511	81.94
634.717	95.94
634.923	85.94
635.129	96.94
635.335	89.94
635.541	91.94
635.747	87.94
635.952	85.94
636.158	89.94
636.364	68.94
636.57	100.94
636.775	78.94
636.981	101.94
637.187	75.94
637.392	93.94
637.598	88.94
637.804	86.94
638.009	89.94
638.215	88.94
638.421	83.94
638.626	85.94
638.832	78.94
639.037	86.94
639.243	94.94
639.448	99.94
639.654	97.94
639.859	93.94
640.065	89.94
640.27	96.94
640.475	94.94
640.681	92.94
640.886	77.94
641.091	85.94
641.297	72.94
641.502	75.94
641.707	74.94
641.913	81.94
642.118	82.94
642.323	91.94
642.528	99.94
642.733	96.94
642.939	82.94
643.144	82.94
643.349	92.94
643.554	84.94
643.759	90.94
643.964	93.94
644.169	84.94
644.374	72.94
644.579	85.94
644.784	91.94
644.989	82.94
645.194	78.94
645.399	87.94
645.604	72.94
645.809	86.94
646.014	84.94
646.219	79.94
646.423	91.94
646.628	91.94
646.833	65.94
647.038	95.94
647.243	91.94
647.447	93.94
647.652	77.94
647.857	65.94
648.062	91.94
648.266	79.94
648.471	77.94
648.676	89.94
648.88	81.94
649.085	84.94
649.289	100.94
649.494	71.94
649.698	98.94
649.903	89.94
650.107	86.94
650.312	84.94
650.516	70.94
650.721	74.94
650.925	81.94
651.13	86.94
651.334	76.94
651.539	74.94
651.743	76.94
651.947	86.94
652.152	84.94
652.356	77.94
652.56	88.94
652.764	89.94
652.969	64.94
653.173	84.94
653.377	90.94
653.581	76.94
653.785	75.94
653.99	92.94
654.194	90.94
654.398	84.94
654.602	81.94
654.806	69.94
655.01	93.94
655.214	87.94
655.418	78.94
655.622	93.94
655.826	93.94
656.03	84.94
656.234	80.94
656.438	93.94
656.642	106.94
656.846	95.94
657.049	75.94
657.253	81.94
657.457	80.94
657.661	91.94
657.865	77.94
658.068	74.94
658.272	65.94
658.476	85.94
658.68	79.94
658.883	78.94
659.087	86.94
659.291	65.94
659.494	66.94
659.698	85.94
659.901	84.94
660.105	93.94
660.309	76.94
660.512	86.94
660.716	82.94
660.919	78.94
661.123	95.94
661.326	81.94
661.53	77.94
661.733	70.94
661.936	98.94
662.14	85.94
662.343	66.94
662.546	80.94
662.75	87.94
662.953	78.94
663.156	79.94
663.36	71.94
663.563	77.94
663.766	83.94
663.969	94.94
664.173	72.94
664.376	91.94
664.579	88.94
664.782	71.94
664.985	79.94
665.188	88.94
665.391	91.94
665.594	86.94
665.797	82.94
666	82.94
666.203	88.94
666.406	85.94
666.609	75.94
666.812	84.94
667.015	80.94
667.218	74.94
667.421	92.94
667.624	82.94
667.827	91.94
668.03	67.94
668.232	84.94
668.435	78.94
668.638	86.94
668.841	78.94
669.043	78.94
669.246	82.94
669.449	73.94
669.651	77.94
669.854	77.94
670.057	68.94
670.259	77.94
670.462	84.94
670.665	87.94
670.867	93.94
671.07	81.94
671.272	98.94
671.475	77.94
671.677	79.94
671.88	86.94
672.082	86.94
672.284	89.94
672.487	103.94
672.689	85.94
672.892	87.94
