Data from Zn(NO3)2Standard.Agarose3%.GreenCap.LampEnergy5.5.E.O_HRD10591_15-03-28-767.txt Node
Date: Mon Jul 22 15:03:28 EDT 2019
User: cochatt
Spectrometer: HR+D1059
Trigger mode: 1
Integration Time (sec): 1.000000E-1
Scans to average: 1
Electric dark correction enabled: true
Nonlinearity correction enabled: false
Boxcar width: 0
XAxis mode: Wavelengths
Number of Pixels in Spectrum: 2048
>>>>>Begin Spectral Data<<<<<
223.165	-12.94
223.4	-12.94
223.635	-12.94
223.869	-21.94
224.104	-15.94
224.338	-8.94
224.573	-16.94
224.808	3.06
225.042	3.06
225.277	-11.94
225.511	3.06
225.746	-7.94
225.98	1.06
226.215	7.06
226.449	21.06
226.683	13.06
226.918	21.06
227.152	24.06
227.387	28.06
227.621	42.06
227.856	42.06
228.09	39.06
228.324	51.06
228.559	37.06
228.793	57.06
229.027	68.06
229.262	56.06
229.496	56.06
229.73	72.06
229.964	73.06
230.199	76.06
230.433	76.06
230.667	70.06
230.901	90.06
231.136	77.06
231.37	83.06
231.604	83.06
231.838	88.06
232.072	76.06
232.306	90.06
232.541	79.06
232.775	79.06
233.009	77.06
233.243	84.06
233.477	72.06
233.711	91.06
233.945	86.06
234.179	69.06
234.413	79.06
234.647	78.06
234.881	80.06
235.115	69.06
235.349	74.06
235.583	74.06
235.817	75.06
236.051	72.06
236.285	84.06
236.519	84.06
236.753	71.06
236.987	87.06
237.221	84.06
237.455	83.06
237.689	75.06
237.922	65.06
238.156	69.06
238.39	79.06
238.624	68.06
238.858	67.06
239.091	81.06
239.325	76.06
239.559	68.06
239.793	64.06
240.027	89.06
240.26	74.06
240.494	73.06
240.728	68.06
240.961	73.06
241.195	97.06
241.429	83.06
241.662	72.06
241.896	75.06
242.13	67.06
242.363	70.06
242.597	75.06
242.83	75.06
243.064	82.06
243.298	87.06
243.531	71.06
243.765	75.06
243.998	75.06
244.232	78.06
244.465	83.06
244.699	86.06
244.932	67.06
245.166	83.06
245.399	70.06
245.633	83.06
245.866	82.06
246.099	85.06
246.333	59.06
246.566	85.06
246.8	88.06
247.033	79.06
247.266	88.06
247.5	75.06
247.733	68.06
247.966	73.06
248.2	80.06
248.433	79.06
248.666	81.06
248.899	81.06
249.133	74.06
249.366	69.06
249.599	75.06
249.832	83.06
250.066	92.06
250.299	93.06
250.532	75.06
250.765	64.06
250.998	84.06
251.231	75.06
251.465	66.06
251.698	73.06
251.931	68.06
252.164	78.06
252.397	81.06
252.63	80.06
252.863	65.06
253.096	88.06
253.329	79.06
253.562	82.06
253.795	78.06
254.028	77.06
254.261	73.06
254.494	74.06
254.727	88.06
254.96	81.06
255.193	73.06
255.426	78.06
255.659	73.06
255.892	82.06
256.124	74.06
256.357	73.06
256.59	98.06
256.823	72.06
257.056	79.06
257.289	64.06
257.521	69.06
257.754	84.06
257.987	84.06
258.22	82.06
258.452	91.06
258.685	84.06
258.918	94.06
259.151	71.06
259.383	81.06
259.616	78.06
259.849	75.06
260.081	77.06
260.314	92.06
260.547	81.06
260.779	87.06
261.012	67.06
261.244	72.06
261.477	93.06
261.71	85.06
261.942	68.06
262.175	87.06
262.407	71.06
262.64	79.06
262.872	71.06
263.105	73.06
263.337	88.06
263.57	86.06
263.802	72.06
264.035	70.06
264.267	72.06
264.499	70.06
264.732	78.06
264.964	85.06
265.197	96.06
265.429	81.06
265.661	86.06
265.894	85.06
266.126	76.06
266.358	95.06
266.591	94.06
266.823	85.06
267.055	70.06
267.287	74.06
267.52	68.06
267.752	88.06
267.984	72.06
268.216	88.06
268.448	90.06
268.681	70.06
268.913	80.06
269.145	66.06
269.377	77.06
269.609	88.06
269.841	95.06
270.073	92.06
270.306	85.06
270.538	76.06
270.77	89.06
271.002	97.06
271.234	84.06
271.466	86.06
271.698	96.06
271.93	84.06
272.162	89.06
272.394	83.06
272.626	75.06
272.858	82.06
273.09	92.06
273.322	75.06
273.553	84.06
273.785	86.06
274.017	90.06
274.249	84.06
274.481	78.06
274.713	78.06
274.945	76.06
275.176	88.06
275.408	82.06
275.64	79.06
275.872	88.06
276.104	82.06
276.335	93.06
276.567	81.06
276.799	76.06
277.031	92.06
277.262	84.06
277.494	90.06
277.726	87.06
277.957	74.06
278.189	73.06
278.421	84.06
278.652	69.06
278.884	83.06
279.115	91.06
279.347	97.06
279.579	90.06
279.81	87.06
280.042	76.06
280.273	85.06
280.505	75.06
280.736	83.06
280.968	82.06
281.199	86.06
281.431	72.06
281.662	77.06
281.894	92.06
282.125	92.06
282.356	91.06
282.588	88.06
282.819	86.06
283.051	75.06
283.282	78.06
283.513	97.06
283.745	64.06
283.976	93.06
284.207	78.06
284.439	83.06
284.67	73.06
284.901	77.06
285.132	78.06
285.364	75.06
285.595	106.06
285.826	82.06
286.057	73.06
286.288	74.06
286.52	92.06
286.751	79.06
286.982	77.06
287.213	76.06
287.444	86.06
287.675	81.06
287.906	83.06
288.138	74.06
288.369	96.06
288.6	89.06
288.831	95.06
289.062	91.06
289.293	80.06
289.524	88.06
289.755	92.06
289.986	73.06
290.217	89.06
290.448	88.06
290.679	92.06
290.91	90.06
291.141	83.06
291.371	84.06
291.602	89.06
291.833	69.06
292.064	84.06
292.295	68.06
292.526	86.06
292.757	88.06
292.987	88.06
293.218	80.06
293.449	91.06
293.68	85.06
293.91	84.06
294.141	74.06
294.372	83.06
294.603	81.06
294.833	84.06
295.064	81.06
295.295	78.06
295.525	76.06
295.756	88.06
295.987	68.06
296.217	77.06
296.448	84.06
296.679	89.06
296.909	74.06
297.14	84.06
297.37	92.06
297.601	89.06
297.831	74.06
298.062	86.06
298.292	74.06
298.523	90.06
298.753	79.06
298.984	85.06
299.214	91.06
299.445	78.06
299.675	63.06
299.905	76.06
300.136	94.06
300.366	80.06
300.597	85.06
300.827	78.06
301.057	81.06
301.288	77.06
301.518	82.06
301.748	90.06
301.979	91.06
302.209	86.06
302.439	76.06
302.669	99.06
302.9	102.06
303.13	79.06
303.36	81.06
303.59	95.06
303.82	84.06
304.051	81.06
304.281	72.06
304.511	90.06
304.741	99.06
304.971	81.06
305.201	75.06
305.431	77.06
305.661	89.06
305.891	89.06
306.121	85.06
306.352	73.06
306.582	83.06
306.812	90.06
307.042	83.06
307.272	79.06
307.502	92.06
307.731	76.06
307.961	85.06
308.191	95.06
308.421	64.06
308.651	77.06
308.881	98.06
309.111	80.06
309.341	91.06
309.571	74.06
309.8	85.06
310.03	85.06
310.26	77.06
310.49	93.06
310.72	84.06
310.949	81.06
311.179	79.06
311.409	84.06
311.639	74.06
311.868	83.06
312.098	88.06
312.328	88.06
312.557	89.06
312.787	79.06
313.017	80.06
313.246	72.06
313.476	97.06
313.706	87.06
313.935	85.06
314.165	80.06
314.394	85.06
314.624	99.06
314.853	103.06
315.083	69.06
315.312	82.06
315.542	89.06
315.771	78.06
316.001	74.06
316.23	97.06
316.46	80.06
316.689	82.06
316.919	79.06
317.148	76.06
317.377	80.06
317.607	78.06
317.836	82.06
318.065	91.06
318.295	86.06
318.524	81.06
318.753	76.06
318.983	83.06
319.212	80.06
319.441	95.06
319.67	77.06
319.9	69.06
320.129	91.06
320.358	77.06
320.587	88.06
320.816	77.06
321.046	98.06
321.275	95.06
321.504	85.06
321.733	54.06
321.962	87.06
322.191	91.06
322.42	63.06
322.649	97.06
322.878	93.06
323.108	75.06
323.337	83.06
323.566	76.06
323.795	96.06
324.024	80.06
324.253	73.06
324.482	83.06
324.71	73.06
324.939	83.06
325.168	79.06
325.397	88.06
325.626	81.06
325.855	79.06
326.084	76.06
326.313	75.06
326.542	78.06
326.77	87.06
326.999	91.06
327.228	88.06
327.457	75.06
327.686	88.06
327.914	85.06
328.143	82.06
328.372	83.06
328.6	88.06
328.829	91.06
329.058	81.06
329.287	81.06
329.515	77.06
329.744	78.06
329.972	73.06
330.201	86.06
330.43	88.06
330.658	94.06
330.887	72.06
331.115	77.06
331.344	96.06
331.572	91.06
331.801	62.06
332.03	81.06
332.258	93.06
332.486	82.06
332.715	84.06
332.943	78.06
333.172	85.06
333.4	84.06
333.629	91.06
333.857	78.06
334.085	68.06
334.314	85.06
334.542	62.06
334.771	73.06
334.999	77.06
335.227	85.06
335.455	90.06
335.684	81.06
335.912	80.06
336.14	81.06
336.369	102.06
336.597	82.06
336.825	84.06
337.053	78.06
337.281	84.06
337.51	77.06
337.738	98.06
337.966	73.06
338.194	85.06
338.422	78.06
338.65	77.06
338.878	89.06
339.106	86.06
339.334	97.06
339.562	82.06
339.79	87.06
340.018	93.06
340.246	74.06
340.474	81.06
340.702	88.06
340.93	80.06
341.158	73.06
341.386	88.06
341.614	92.06
341.842	91.06
342.07	84.06
342.298	82.06
342.526	74.06
342.754	81.06
342.981	80.06
343.209	91.06
343.437	79.06
343.665	83.06
343.893	74.06
344.12	89.06
344.348	67.06
344.576	90.06
344.804	82.06
345.031	88.06
345.259	81.06
345.487	78.06
345.714	88.06
345.942	78.06
346.17	81.06
346.397	84.06
346.625	82.06
346.853	86.06
347.08	78.06
347.308	83.06
347.535	85.06
347.763	91.06
347.99	70.06
348.218	87.06
348.445	74.06
348.673	89.06
348.9	83.06
349.128	75.06
349.355	77.06
349.583	65.06
349.81	87.06
350.037	77.06
350.265	89.06
350.492	70.06
350.72	87.06
350.947	87.06
351.174	83.06
351.402	72.06
351.629	84.06
351.856	73.06
352.083	85.06
352.311	87.06
352.538	83.06
352.765	92.06
352.992	82.06
353.22	81.06
353.447	79.06
353.674	98.06
353.901	82.06
354.128	72.06
354.355	81.06
354.583	92.06
354.81	81.06
355.037	94.06
355.264	96.06
355.491	79.06
355.718	82.06
355.945	90.06
356.172	71.06
356.399	76.06
356.626	85.06
356.853	72.06
357.08	85.06
357.307	78.06
357.534	54.06
357.761	83.06
357.988	85.06
358.215	81.06
358.441	90.06
358.668	78.06
358.895	76.06
359.122	87.06
359.349	77.06
359.576	84.06
359.802	80.06
360.029	81.06
360.256	91.06
360.483	88.06
360.709	68.06
360.936	91.06
361.163	87.06
361.39	85.06
361.616	78.06
361.843	80.06
362.07	82.06
362.296	64.06
362.523	84.06
362.749	84.06
362.976	76.06
363.203	95.06
363.429	90.06
363.656	88.06
363.882	84.06
364.109	77.06
364.335	84.06
364.562	92.06
364.788	81.06
365.015	80.06
365.241	87.06
365.468	81.06
365.694	87.06
365.92	75.06
366.147	71.06
366.373	73.06
366.599	70.06
366.826	73.06
367.052	91.06
367.278	78.06
367.505	75.06
367.731	82.06
367.957	92.06
368.184	83.06
368.41	86.06
368.636	88.06
368.862	91.06
369.089	81.06
369.315	84.06
369.541	75.06
369.767	91.06
369.993	64.06
370.219	87.06
370.445	76.06
370.672	88.06
370.898	85.06
371.124	83.06
371.35	74.06
371.576	83.06
371.802	90.06
372.028	82.06
372.254	91.06
372.48	69.06
372.706	81.06
372.932	75.06
373.158	81.06
373.384	73.06
373.61	94.06
373.835	81.06
374.061	78.06
374.287	79.06
374.513	88.06
374.739	71.06
374.965	85.06
375.191	81.06
375.416	79.06
375.642	90.06
375.868	96.06
376.094	91.06
376.319	86.06
376.545	82.06
376.771	84.06
376.997	93.06
377.222	81.06
377.448	78.06
377.674	90.06
377.899	70.06
378.125	77.06
378.35	81.06
378.576	93.06
378.802	89.06
379.027	77.06
379.253	85.06
379.478	88.06
379.704	94.06
379.929	91.06
380.155	77.06
380.38	74.06
380.606	83.06
380.831	79.06
381.057	85.06
381.282	75.06
381.507	84.06
381.733	76.06
381.958	73.06
382.184	72.06
382.409	77.06
382.634	66.06
382.86	68.06
383.085	92.06
383.31	84.06
383.535	67.06
383.761	74.06
383.986	82.06
384.211	68.06
384.436	79.06
384.662	74.06
384.887	66.06
385.112	87.06
385.337	76.06
385.562	66.06
385.787	81.06
386.013	84.06
386.238	90.06
386.463	74.06
386.688	85.06
386.913	75.06
387.138	72.06
387.363	80.06
387.588	74.06
387.813	87.06
388.038	82.06
388.263	79.06
388.488	67.06
388.713	77.06
388.938	79.06
389.163	76.06
389.387	81.06
389.612	87.06
389.837	79.06
390.062	79.06
390.287	79.06
390.512	82.06
390.736	77.06
390.961	87.06
391.186	88.06
391.411	84.06
391.636	76.06
391.86	75.06
392.085	80.06
392.31	75.06
392.534	80.06
392.759	82.06
392.984	72.06
393.208	72.06
393.433	73.06
393.658	88.06
393.882	84.06
394.107	77.06
394.331	89.06
394.556	82.06
394.78	78.06
395.005	93.06
395.229	83.06
395.454	77.06
395.678	64.06
395.903	95.06
396.127	82.06
396.352	72.06
396.576	87.06
396.801	68.06
397.025	74.06
397.249	94.06
397.474	102.06
397.698	96.06
397.922	86.06
398.147	89.06
398.371	72.06
398.595	88.06
398.82	77.06
399.044	87.06
399.268	89.06
399.492	81.06
399.717	79.06
399.941	79.06
400.165	84.06
400.389	87.06
400.613	88.06
400.837	81.06
401.062	77.06
401.286	91.06
401.51	80.06
401.734	79.06
401.958	80.06
402.182	84.06
402.406	80.06
402.63	68.06
402.854	95.06
403.078	70.06
403.302	82.06
403.526	86.06
403.75	89.06
403.974	68.06
404.198	85.06
404.422	87.06
404.645	86.06
404.869	86.06
405.093	85.06
405.317	75.06
405.541	96.06
405.765	80.06
405.988	100.06
406.212	85.06
406.436	73.06
406.66	84.06
406.883	88.06
407.107	88.06
407.331	70.06
407.555	72.06
407.778	87.06
408.002	90.06
408.226	87.06
408.449	82.06
408.673	85.06
408.896	95.06
409.12	85.06
409.344	85.06
409.567	87.06
409.791	73.06
410.014	82.06
410.238	94.06
410.461	76.06
410.685	100.06
410.908	86.06
411.132	93.06
411.355	99.06
411.578	74.06
411.802	89.06
412.025	77.06
412.249	91.06
412.472	74.06
412.695	73.06
412.919	76.06
413.142	92.06
413.365	74.06
413.589	93.06
413.812	81.06
414.035	86.06
414.258	81.06
414.482	75.06
414.705	87.06
414.928	95.06
415.151	97.06
415.374	90.06
415.597	75.06
415.821	85.06
416.044	90.06
416.267	86.06
416.49	89.06
416.713	86.06
416.936	104.06
417.159	98.06
417.382	81.06
417.605	94.06
417.828	97.06
418.051	83.06
418.274	86.06
418.497	100.06
418.72	79.06
418.943	96.06
419.166	83.06
419.389	92.06
419.611	93.06
419.834	88.06
420.057	82.06
420.28	83.06
420.503	101.06
420.726	101.06
420.948	95.06
421.171	88.06
421.394	94.06
421.617	87.06
421.839	96.06
422.062	85.06
422.285	81.06
422.507	99.06
422.73	88.06
422.953	97.06
423.175	95.06
423.398	90.06
423.621	86.06
423.843	85.06
424.066	78.06
424.288	91.06
424.511	90.06
424.733	83.06
424.956	94.06
425.178	89.06
425.401	93.06
425.623	96.06
425.846	99.06
426.068	92.06
426.291	100.06
426.513	87.06
426.735	84.06
426.958	87.06
427.18	97.06
427.402	91.06
427.625	86.06
427.847	76.06
428.069	82.06
428.292	75.06
428.514	91.06
428.736	73.06
428.958	91.06
429.181	98.06
429.403	84.06
429.625	80.06
429.847	90.06
430.069	105.06
430.292	93.06
430.514	85.06
430.736	90.06
430.958	88.06
431.18	90.06
431.402	85.06
431.624	89.06
431.846	78.06
432.068	77.06
432.29	89.06
432.512	78.06
432.734	91.06
432.956	80.06
433.178	91.06
433.4	94.06
433.622	85.06
433.844	85.06
434.066	79.06
434.287	92.06
434.509	77.06
434.731	71.06
434.953	86.06
435.175	79.06
435.397	84.06
435.618	88.06
435.84	75.06
436.062	85.06
436.284	96.06
436.505	71.06
436.727	85.06
436.949	84.06
437.17	92.06
437.392	83.06
437.614	88.06
437.835	95.06
438.057	67.06
438.278	89.06
438.5	91.06
438.721	76.06
438.943	88.06
439.165	89.06
439.386	113.06
439.608	93.06
439.829	87.06
440.05	91.06
440.272	78.06
440.493	93.06
440.715	89.06
440.936	81.06
441.158	97.06
441.379	84.06
441.6	88.06
441.822	89.06
442.043	75.06
442.264	96.06
442.486	90.06
442.707	80.06
442.928	88.06
443.149	84.06
443.371	98.06
443.592	77.06
443.813	94.06
444.034	100.06
444.255	94.06
444.476	94.06
444.698	88.06
444.919	91.06
445.14	203.06
445.361	157.06
445.582	97.06
445.803	86.06
446.024	99.06
446.245	73.06
446.466	104.06
446.687	87.06
446.908	101.06
447.129	102.06
447.35	96.06
447.571	95.06
447.792	92.06
448.013	95.06
448.234	99.06
448.455	91.06
448.675	98.06
448.896	96.06
449.117	89.06
449.338	77.06
449.559	86.06
449.779	91.06
450	84.06
450.221	87.06
450.442	91.06
450.662	99.06
450.883	88.06
451.104	86.06
451.324	82.06
451.545	100.06
451.766	109.06
451.986	83.06
452.207	82.06
452.428	85.06
452.648	87.06
452.869	76.06
453.089	85.06
453.31	83.06
453.53	88.06
453.751	89.06
453.971	85.06
454.192	84.06
454.412	85.06
454.633	90.06
454.853	84.06
455.073	80.06
455.294	100.06
455.514	91.06
455.734	91.06
455.955	91.06
456.175	92.06
456.395	82.06
456.616	77.06
456.836	87.06
457.056	87.06
457.276	81.06
457.497	62.06
457.717	103.06
457.937	85.06
458.157	71.06
458.377	76.06
458.598	83.06
458.818	86.06
459.038	84.06
459.258	86.06
459.478	76.06
459.698	73.06
459.918	83.06
460.138	69.06
460.358	74.06
460.578	76.06
460.798	91.06
461.018	85.06
461.238	85.06
461.458	76.06
461.678	78.06
461.898	80.06
462.118	86.06
462.338	80.06
462.558	85.06
462.777	93.06
462.997	86.06
463.217	67.06
463.437	88.06
463.657	86.06
463.876	86.06
464.096	85.06
464.316	68.06
464.536	82.06
464.755	91.06
464.975	95.06
465.195	83.06
465.414	71.06
465.634	75.06
465.854	81.06
466.073	86.06
466.293	96.06
466.512	81.06
466.732	94.06
466.951	105.06
467.171	87.06
467.391	75.06
467.61	82.06
467.829	84.06
468.049	89.06
468.268	83.06
468.488	79.06
468.707	92.06
468.927	94.06
469.146	94.06
469.365	98.06
469.585	97.06
469.804	93.06
470.023	95.06
470.243	99.06
470.462	86.06
470.681	89.06
470.901	76.06
471.12	89.06
471.339	80.06
471.558	86.06
471.777	102.06
471.997	99.06
472.216	93.06
472.435	98.06
472.654	89.06
472.873	72.06
473.092	76.06
473.311	82.06
473.53	82.06
473.749	84.06
473.968	99.06
474.187	83.06
474.406	91.06
474.625	100.06
474.844	90.06
475.063	82.06
475.282	92.06
475.501	78.06
475.72	98.06
475.939	93.06
476.158	77.06
476.377	86.06
476.596	65.06
476.814	92.06
477.033	87.06
477.252	82.06
477.471	69.06
477.69	77.06
477.908	93.06
478.127	83.06
478.346	85.06
478.564	98.06
478.783	80.06
479.002	96.06
479.22	82.06
479.439	97.06
479.658	89.06
479.876	102.06
480.095	91.06
480.313	84.06
480.532	100.06
480.751	80.06
480.969	101.06
481.188	87.06
481.406	82.06
481.624	82.06
481.843	79.06
482.061	84.06
482.28	92.06
482.498	96.06
482.717	77.06
482.935	93.06
483.153	98.06
483.372	87.06
483.59	76.06
483.808	97.06
484.027	81.06
484.245	90.06
484.463	93.06
484.681	105.06
484.9	90.06
485.118	90.06
485.336	85.06
485.554	81.06
485.772	85.06
485.99	81.06
486.209	92.06
486.427	103.06
486.645	94.06
486.863	79.06
487.081	85.06
487.299	82.06
487.517	88.06
487.735	92.06
487.953	101.06
488.171	106.06
488.389	98.06
488.607	92.06
488.825	86.06
489.043	83.06
489.261	85.06
489.479	95.06
489.696	102.06
489.914	90.06
490.132	86.06
490.35	104.06
490.568	96.06
490.786	95.06
491.003	95.06
491.221	106.06
491.439	112.06
491.657	106.06
491.874	100.06
492.092	100.06
492.31	112.06
492.527	98.06
492.745	100.06
492.963	116.06
493.18	117.06
493.398	96.06
493.615	96.06
493.833	100.06
494.05	94.06
494.268	96.06
494.485	87.06
494.703	91.06
494.92	96.06
495.138	99.06
495.355	98.06
495.573	108.06
495.79	99.06
496.008	98.06
496.225	92.06
496.442	92.06
496.66	95.06
496.877	96.06
497.094	114.06
497.312	99.06
497.529	90.06
497.746	107.06
497.963	107.06
498.181	91.06
498.398	102.06
498.615	91.06
498.832	85.06
499.049	90.06
499.267	97.06
499.484	93.06
499.701	89.06
499.918	99.06
500.135	92.06
500.352	93.06
500.569	108.06
500.786	91.06
501.003	75.06
501.22	84.06
501.437	106.06
501.654	91.06
501.871	87.06
502.088	97.06
502.305	89.06
502.522	96.06
502.739	88.06
502.956	95.06
503.172	94.06
503.389	91.06
503.606	89.06
503.823	74.06
504.04	80.06
504.256	75.06
504.473	80.06
504.69	88.06
504.907	84.06
505.123	78.06
505.34	87.06
505.557	100.06
505.773	76.06
505.99	79.06
506.207	98.06
506.423	83.06
506.64	97.06
506.856	101.06
507.073	89.06
507.289	90.06
507.506	84.06
507.722	80.06
507.939	90.06
508.155	85.06
508.372	101.06
508.588	84.06
508.805	70.06
509.021	87.06
509.238	73.06
509.454	97.06
509.67	88.06
509.887	77.06
510.103	75.06
510.319	88.06
510.536	86.06
510.752	89.06
510.968	85.06
511.184	85.06
511.401	85.06
511.617	86.06
511.833	75.06
512.049	94.06
512.265	76.06
512.481	77.06
512.698	80.06
512.914	70.06
513.13	100.06
513.346	76.06
513.562	92.06
513.778	81.06
513.994	88.06
514.21	80.06
514.426	75.06
514.642	96.06
514.858	76.06
515.074	71.06
515.29	77.06
515.506	75.06
515.721	82.06
515.937	86.06
516.153	75.06
516.369	76.06
516.585	76.06
516.801	81.06
517.016	90.06
517.232	84.06
517.448	93.06
517.664	88.06
517.879	85.06
518.095	88.06
518.311	100.06
518.527	70.06
518.742	71.06
518.958	90.06
519.173	96.06
519.389	83.06
519.605	84.06
519.82	72.06
520.036	106.06
520.251	74.06
520.467	81.06
520.682	85.06
520.898	88.06
521.113	73.06
521.329	77.06
521.544	68.06
521.76	64.06
521.975	91.06
522.19	91.06
522.406	71.06
522.621	71.06
522.836	75.06
523.052	80.06
523.267	72.06
523.482	84.06
523.698	85.06
523.913	97.06
524.128	96.06
524.343	90.06
524.559	105.06
524.774	105.06
524.989	91.06
525.204	74.06
525.419	89.06
525.634	89.06
525.849	95.06
526.064	95.06
526.28	93.06
526.495	78.06
526.71	66.06
526.925	72.06
527.14	71.06
527.355	70.06
527.57	81.06
527.785	83.06
527.999	82.06
528.214	73.06
528.429	92.06
528.644	87.06
528.859	107.06
529.074	86.06
529.289	95.06
529.503	90.06
529.718	91.06
529.933	80.06
530.148	85.06
530.363	87.06
530.577	74.06
530.792	74.06
531.007	66.06
531.221	71.06
531.436	82.06
531.651	76.06
531.865	78.06
532.08	92.06
532.295	79.06
532.509	89.06
532.724	87.06
532.938	80.06
533.153	91.06
533.367	83.06
533.582	90.06
533.796	72.06
534.011	73.06
534.225	73.06
534.44	86.06
534.654	85.06
534.868	84.06
535.083	94.06
535.297	80.06
535.511	81.06
535.726	76.06
535.94	76.06
536.154	87.06
536.369	88.06
536.583	81.06
536.797	85.06
537.011	86.06
537.225	88.06
537.44	89.06
537.654	90.06
537.868	84.06
538.082	88.06
538.296	83.06
538.51	77.06
538.724	77.06
538.938	83.06
539.153	98.06
539.367	103.06
539.581	90.06
539.795	97.06
540.009	96.06
540.222	80.06
540.436	73.06
540.65	95.06
540.864	84.06
541.078	97.06
541.292	81.06
541.506	101.06
541.72	100.06
541.934	120.06
542.147	111.06
542.361	99.06
542.575	98.06
542.789	90.06
543.002	81.06
543.216	78.06
543.43	92.06
543.644	103.06
543.857	94.06
544.071	76.06
544.285	92.06
544.498	95.06
544.712	98.06
544.925	95.06
545.139	94.06
545.352	80.06
545.566	116.06
545.779	97.06
545.993	101.06
546.206	96.06
546.42	87.06
546.633	105.06
546.847	89.06
547.06	107.06
547.274	124.06
547.487	97.06
547.7	100.06
547.914	100.06
548.127	88.06
548.34	103.06
548.554	100.06
548.767	93.06
548.98	94.06
549.193	87.06
549.407	116.06
549.62	103.06
549.833	99.06
550.046	95.06
550.259	80.06
550.473	99.06
550.686	96.06
550.899	97.06
551.112	96.06
551.325	105.06
551.538	95.06
551.751	89.06
551.964	100.06
552.177	84.06
552.39	90.06
552.603	85.06
552.816	81.06
553.029	76.06
553.242	93.06
553.455	95.06
553.667	99.06
553.88	98.06
554.093	91.06
554.306	102.06
554.519	102.06
554.732	111.06
554.944	106.06
555.157	90.06
555.37	105.06
555.583	85.06
555.795	85.06
556.008	88.06
556.221	96.06
556.433	82.06
556.646	81.06
556.859	95.06
557.071	94.06
557.284	98.06
557.496	100.06
557.709	101.06
557.921	75.06
558.134	99.06
558.346	90.06
558.559	81.06
558.771	79.06
558.984	96.06
559.196	85.06
559.409	83.06
559.621	84.06
559.833	80.06
560.046	76.06
560.258	97.06
560.47	102.06
560.683	84.06
560.895	92.06
561.107	89.06
561.32	96.06
561.532	83.06
561.744	93.06
561.956	93.06
562.168	97.06
562.381	96.06
562.593	96.06
562.805	91.06
563.017	91.06
563.229	97.06
563.441	92.06
563.653	96.06
563.865	93.06
564.077	104.06
564.289	104.06
564.501	93.06
564.713	95.06
564.925	79.06
565.137	78.06
565.349	89.06
565.561	97.06
565.773	95.06
565.985	76.06
566.197	77.06
566.408	92.06
566.62	88.06
566.832	80.06
567.044	93.06
567.255	84.06
567.467	78.06
567.679	97.06
567.891	90.06
568.102	90.06
568.314	84.06
568.526	90.06
568.737	90.06
568.949	74.06
569.161	74.06
569.372	82.06
569.584	82.06
569.795	83.06
570.007	82.06
570.218	87.06
570.43	76.06
570.641	89.06
570.853	80.06
571.064	86.06
571.276	75.06
571.487	91.06
571.698	93.06
571.91	97.06
572.121	86.06
572.333	83.06
572.544	95.06
572.755	84.06
572.966	88.06
573.178	81.06
573.389	100.06
573.6	82.06
573.811	86.06
574.023	75.06
574.234	92.06
574.445	83.06
574.656	77.06
574.867	87.06
575.078	81.06
575.289	77.06
575.501	83.06
575.712	82.06
575.923	95.06
576.134	101.06
576.345	97.06
576.556	82.06
576.767	89.06
576.978	81.06
577.188	80.06
577.399	99.06
577.61	83.06
577.821	76.06
578.032	87.06
578.243	96.06
578.454	97.06
578.665	89.06
578.875	87.06
579.086	79.06
579.297	94.06
579.508	89.06
579.718	94.06
579.929	82.06
580.14	77.06
580.35	72.06
580.561	76.06
580.772	86.06
580.982	82.06
581.193	79.06
581.403	77.06
581.614	81.06
581.825	77.06
582.035	82.06
582.246	84.06
582.456	95.06
582.667	89.06
582.877	76.06
583.087	82.06
583.298	94.06
583.508	98.06
583.719	92.06
583.929	92.06
584.139	86.06
584.35	85.06
584.56	76.06
584.77	72.06
584.981	82.06
585.191	90.06
585.401	91.06
585.611	82.06
585.821	88.06
586.032	81.06
586.242	89.06
586.452	85.06
586.662	97.06
586.872	85.06
587.082	73.06
587.292	85.06
587.502	72.06
587.713	78.06
587.923	77.06
588.133	78.06
588.343	94.06
588.553	83.06
588.762	76.06
588.972	78.06
589.182	75.06
589.392	67.06
589.602	79.06
589.812	81.06
590.022	89.06
590.232	93.06
590.441	92.06
590.651	77.06
590.861	87.06
591.071	90.06
591.281	81.06
591.49	68.06
591.7	76.06
591.91	84.06
592.119	87.06
592.329	58.06
592.539	85.06
592.748	74.06
592.958	75.06
593.167	83.06
593.377	90.06
593.587	93.06
593.796	78.06
594.006	88.06
594.215	82.06
594.424	84.06
594.634	85.06
594.843	81.06
595.053	79.06
595.262	97.06
595.472	91.06
595.681	78.06
595.89	77.06
596.1	93.06
596.309	85.06
596.518	74.06
596.727	84.06
596.937	85.06
597.146	82.06
597.355	94.06
597.564	84.06
597.774	79.06
597.983	87.06
598.192	82.06
598.401	70.06
598.61	83.06
598.819	87.06
599.028	95.06
599.237	92.06
599.446	96.06
599.655	87.06
599.864	84.06
600.073	91.06
600.282	93.06
600.491	77.06
600.7	83.06
600.909	76.06
601.118	93.06
601.327	80.06
601.536	93.06
601.745	96.06
601.953	86.06
602.162	96.06
602.371	86.06
602.58	88.06
602.789	91.06
602.997	85.06
603.206	97.06
603.415	96.06
603.623	83.06
603.832	78.06
604.041	83.06
604.249	94.06
604.458	83.06
604.666	93.06
604.875	76.06
605.084	85.06
605.292	81.06
605.501	97.06
605.709	92.06
605.918	100.06
606.126	93.06
606.334	77.06
606.543	86.06
606.751	99.06
606.96	87.06
607.168	76.06
607.376	95.06
607.585	91.06
607.793	84.06
608.001	80.06
608.21	85.06
608.418	82.06
608.626	93.06
608.834	95.06
609.043	88.06
609.251	101.06
609.459	82.06
609.667	83.06
609.875	84.06
610.083	98.06
610.291	81.06
610.499	87.06
610.707	97.06
610.916	84.06
611.124	83.06
611.332	85.06
611.54	76.06
611.748	99.06
611.955	92.06
612.163	91.06
612.371	81.06
612.579	90.06
612.787	101.06
612.995	89.06
613.203	89.06
613.411	100.06
613.618	91.06
613.826	83.06
614.034	95.06
614.242	85.06
614.449	83.06
614.657	77.06
614.865	94.06
615.072	86.06
615.28	96.06
615.488	80.06
615.695	82.06
615.903	87.06
616.111	82.06
616.318	82.06
616.526	79.06
616.733	86.06
616.941	89.06
617.148	92.06
617.356	95.06
617.563	88.06
617.771	77.06
617.978	94.06
618.185	87.06
618.393	96.06
618.6	114.06
618.807	85.06
619.015	78.06
619.222	105.06
619.429	96.06
619.637	84.06
619.844	88.06
620.051	103.06
620.258	84.06
620.466	95.06
620.673	96.06
620.88	91.06
621.087	88.06
621.294	81.06
621.501	98.06
621.708	88.06
621.915	93.06
622.122	71.06
622.329	78.06
622.536	93.06
622.743	93.06
622.95	85.06
623.157	77.06
623.364	88.06
623.571	88.06
623.778	77.06
623.985	91.06
624.192	87.06
624.399	86.06
624.606	91.06
624.812	87.06
625.019	93.06
625.226	88.06
625.433	84.06
625.639	95.06
625.846	91.06
626.053	90.06
626.259	81.06
626.466	89.06
626.673	97.06
626.879	74.06
627.086	81.06
627.293	80.06
627.499	84.06
627.706	98.06
627.912	99.06
628.119	84.06
628.325	83.06
628.532	88.06
628.738	88.06
628.945	88.06
629.151	66.06
629.357	79.06
629.564	83.06
629.77	78.06
629.976	87.06
630.183	97.06
630.389	100.06
630.595	85.06
630.802	90.06
631.008	101.06
631.214	99.06
631.42	92.06
631.627	95.06
631.833	83.06
632.039	76.06
632.245	85.06
632.451	86.06
632.657	99.06
632.863	85.06
633.069	88.06
633.275	96.06
633.481	92.06
633.688	74.06
633.893	92.06
634.099	95.06
634.305	88.06
634.511	83.06
634.717	89.06
634.923	87.06
635.129	86.06
635.335	86.06
635.541	83.06
635.747	82.06
635.952	92.06
636.158	78.06
636.364	93.06
636.57	79.06
636.775	92.06
636.981	89.06
637.187	88.06
637.392	106.06
637.598	87.06
637.804	79.06
638.009	85.06
638.215	83.06
638.421	70.06
638.626	81.06
638.832	90.06
639.037	83.06
639.243	81.06
639.448	78.06
639.654	94.06
639.859	88.06
640.065	87.06
640.27	85.06
640.475	90.06
640.681	65.06
640.886	79.06
641.091	86.06
641.297	81.06
641.502	86.06
641.707	91.06
641.913	74.06
642.118	81.06
642.323	81.06
642.528	100.06
642.733	87.06
642.939	88.06
643.144	84.06
643.349	77.06
643.554	81.06
643.759	80.06
643.964	73.06
644.169	91.06
644.374	91.06
644.579	96.06
644.784	61.06
644.989	69.06
645.194	84.06
645.399	75.06
645.604	79.06
645.809	90.06
646.014	81.06
646.219	103.06
646.423	92.06
646.628	89.06
646.833	85.06
647.038	89.06
647.243	100.06
647.447	72.06
647.652	77.06
647.857	79.06
648.062	85.06
648.266	87.06
648.471	94.06
648.676	89.06
648.88	82.06
649.085	78.06
649.289	82.06
649.494	75.06
649.698	84.06
649.903	78.06
650.107	79.06
650.312	88.06
650.516	100.06
650.721	77.06
650.925	89.06
651.13	84.06
651.334	78.06
651.539	91.06
651.743	95.06
651.947	77.06
652.152	86.06
652.356	81.06
652.56	83.06
652.764	89.06
652.969	83.06
653.173	79.06
653.377	88.06
653.581	83.06
653.785	77.06
653.99	83.06
654.194	92.06
654.398	94.06
654.602	85.06
654.806	87.06
655.01	79.06
655.214	84.06
655.418	66.06
655.622	80.06
655.826	81.06
656.03	74.06
656.234	85.06
656.438	81.06
656.642	82.06
656.846	69.06
657.049	80.06
657.253	87.06
657.457	89.06
657.661	80.06
657.865	82.06
658.068	72.06
658.272	77.06
658.476	79.06
658.68	79.06
658.883	78.06
659.087	100.06
659.291	75.06
659.494	85.06
659.698	83.06
659.901	95.06
660.105	84.06
660.309	87.06
660.512	73.06
660.716	85.06
660.919	72.06
661.123	80.06
661.326	71.06
661.53	91.06
661.733	76.06
661.936	95.06
662.14	80.06
662.343	70.06
662.546	76.06
662.75	73.06
662.953	91.06
663.156	66.06
663.36	86.06
663.563	83.06
663.766	88.06
663.969	65.06
664.173	76.06
664.376	82.06
664.579	84.06
664.782	80.06
664.985	77.06
665.188	72.06
665.391	88.06
665.594	90.06
665.797	85.06
666	75.06
666.203	87.06
666.406	79.06
666.609	89.06
666.812	89.06
667.015	75.06
667.218	88.06
667.421	92.06
667.624	77.06
667.827	89.06
668.03	84.06
668.232	92.06
668.435	80.06
668.638	68.06
668.841	94.06
669.043	69.06
669.246	83.06
669.449	73.06
669.651	82.06
669.854	89.06
670.057	90.06
670.259	80.06
670.462	82.06
670.665	88.06
670.867	86.06
671.07	75.06
671.272	82.06
671.475	89.06
671.677	74.06
671.88	88.06
672.082	70.06
672.284	85.06
672.487	69.06
672.689	69.06
672.892	85.06
