Data from Zn(NO3)2Standard.Agarose3%.GreenCap.LampEnergy10E.O_HRD10591_15-07-28-944.txt Node
Date: Mon Jul 22 15:07:28 EDT 2019
User: cochatt
Spectrometer: HR+D1059
Trigger mode: 1
Integration Time (sec): 1.000000E-1
Scans to average: 1
Electric dark correction enabled: true
Nonlinearity correction enabled: false
Boxcar width: 0
XAxis mode: Wavelengths
Number of Pixels in Spectrum: 2048
>>>>>Begin Spectral Data<<<<<
223.165	-24.12
223.4	-24.12
223.635	-24.12
223.869	-10.12
224.104	-21.12
224.338	-18.12
224.573	-7.12
224.808	-9.12
225.042	1.88
225.277	1.88
225.511	2.88
225.746	7.88
225.98	14.88
226.215	7.88
226.449	10.88
226.683	18.88
226.918	9.88
227.152	12.88
227.387	35.88
227.621	31.88
227.856	44.88
228.09	35.88
228.324	50.88
228.559	60.88
228.793	53.88
229.027	69.88
229.262	71.88
229.496	48.88
229.73	65.88
229.964	60.88
230.199	67.88
230.433	84.88
230.667	81.88
230.901	58.88
231.136	82.88
231.37	79.88
231.604	85.88
231.838	87.88
232.072	85.88
232.306	69.88
232.541	79.88
232.775	80.88
233.009	94.88
233.243	78.88
233.477	83.88
233.711	75.88
233.945	85.88
234.179	79.88
234.413	73.88
234.647	78.88
234.881	74.88
235.115	88.88
235.349	86.88
235.583	78.88
235.817	74.88
236.051	74.88
236.285	76.88
236.519	80.88
236.753	81.88
236.987	69.88
237.221	83.88
237.455	73.88
237.689	94.88
237.922	65.88
238.156	72.88
238.39	70.88
238.624	76.88
238.858	72.88
239.091	71.88
239.325	80.88
239.559	98.88
239.793	71.88
240.027	74.88
240.26	74.88
240.494	92.88
240.728	75.88
240.961	74.88
241.195	75.88
241.429	72.88
241.662	67.88
241.896	74.88
242.13	74.88
242.363	86.88
242.597	77.88
242.83	73.88
243.064	81.88
243.298	83.88
243.531	80.88
243.765	71.88
243.998	76.88
244.232	82.88
244.465	64.88
244.699	83.88
244.932	72.88
245.166	81.88
245.399	73.88
245.633	94.88
245.866	74.88
246.099	78.88
246.333	79.88
246.566	69.88
246.8	72.88
247.033	71.88
247.266	83.88
247.5	78.88
247.733	67.88
247.966	86.88
248.2	75.88
248.433	80.88
248.666	69.88
248.899	85.88
249.133	59.88
249.366	77.88
249.599	63.88
249.832	73.88
250.066	81.88
250.299	83.88
250.532	77.88
250.765	81.88
250.998	69.88
251.231	70.88
251.465	79.88
251.698	87.88
251.931	73.88
252.164	71.88
252.397	97.88
252.63	85.88
252.863	80.88
253.096	77.88
253.329	79.88
253.562	75.88
253.795	75.88
254.028	71.88
254.261	85.88
254.494	87.88
254.727	76.88
254.96	72.88
255.193	77.88
255.426	80.88
255.659	97.88
255.892	79.88
256.124	78.88
256.357	60.88
256.59	92.88
256.823	77.88
257.056	76.88
257.289	65.88
257.521	73.88
257.754	76.88
257.987	71.88
258.22	77.88
258.452	77.88
258.685	72.88
258.918	85.88
259.151	89.88
259.383	76.88
259.616	81.88
259.849	78.88
260.081	82.88
260.314	86.88
260.547	83.88
260.779	83.88
261.012	77.88
261.244	81.88
261.477	91.88
261.71	72.88
261.942	82.88
262.175	79.88
262.407	78.88
262.64	66.88
262.872	82.88
263.105	85.88
263.337	92.88
263.57	82.88
263.802	90.88
264.035	90.88
264.267	83.88
264.499	81.88
264.732	81.88
264.964	83.88
265.197	88.88
265.429	65.88
265.661	87.88
265.894	91.88
266.126	69.88
266.358	76.88
266.591	82.88
266.823	86.88
267.055	75.88
267.287	80.88
267.52	71.88
267.752	85.88
267.984	84.88
268.216	69.88
268.448	87.88
268.681	66.88
268.913	82.88
269.145	70.88
269.377	76.88
269.609	93.88
269.841	87.88
270.073	72.88
270.306	89.88
270.538	83.88
270.77	84.88
271.002	88.88
271.234	76.88
271.466	83.88
271.698	77.88
271.93	76.88
272.162	87.88
272.394	91.88
272.626	92.88
272.858	97.88
273.09	73.88
273.322	92.88
273.553	93.88
273.785	90.88
274.017	87.88
274.249	82.88
274.481	90.88
274.713	74.88
274.945	95.88
275.176	88.88
275.408	75.88
275.64	81.88
275.872	87.88
276.104	72.88
276.335	75.88
276.567	78.88
276.799	97.88
277.031	83.88
277.262	94.88
277.494	84.88
277.726	77.88
277.957	83.88
278.189	79.88
278.421	84.88
278.652	90.88
278.884	91.88
279.115	91.88
279.347	80.88
279.579	92.88
279.81	78.88
280.042	79.88
280.273	88.88
280.505	92.88
280.736	90.88
280.968	83.88
281.199	88.88
281.431	76.88
281.662	71.88
281.894	75.88
282.125	73.88
282.356	85.88
282.588	75.88
282.819	78.88
283.051	97.88
283.282	100.88
283.513	80.88
283.745	93.88
283.976	82.88
284.207	63.88
284.439	88.88
284.67	83.88
284.901	89.88
285.132	81.88
285.364	76.88
285.595	77.88
285.826	75.88
286.057	91.88
286.288	92.88
286.52	82.88
286.751	78.88
286.982	85.88
287.213	89.88
287.444	101.88
287.675	83.88
287.906	97.88
288.138	86.88
288.369	77.88
288.6	79.88
288.831	86.88
289.062	90.88
289.293	81.88
289.524	84.88
289.755	67.88
289.986	87.88
290.217	85.88
290.448	78.88
290.679	87.88
290.91	89.88
291.141	83.88
291.371	94.88
291.602	87.88
291.833	86.88
292.064	86.88
292.295	80.88
292.526	84.88
292.757	80.88
292.987	87.88
293.218	83.88
293.449	93.88
293.68	73.88
293.91	76.88
294.141	87.88
294.372	95.88
294.603	89.88
294.833	86.88
295.064	75.88
295.295	83.88
295.525	85.88
295.756	90.88
295.987	79.88
296.217	88.88
296.448	97.88
296.679	86.88
296.909	101.88
297.14	96.88
297.37	95.88
297.601	97.88
297.831	94.88
298.062	84.88
298.292	90.88
298.523	61.88
298.753	66.88
298.984	80.88
299.214	88.88
299.445	87.88
299.675	81.88
299.905	89.88
300.136	92.88
300.366	75.88
300.597	91.88
300.827	82.88
301.057	84.88
301.288	91.88
301.518	99.88
301.748	82.88
301.979	94.88
302.209	94.88
302.439	84.88
302.669	80.88
302.9	79.88
303.13	85.88
303.36	89.88
303.59	83.88
303.82	75.88
304.051	93.88
304.281	76.88
304.511	77.88
304.741	89.88
304.971	100.88
305.201	81.88
305.431	77.88
305.661	88.88
305.891	84.88
306.121	92.88
306.352	91.88
306.582	74.88
306.812	78.88
307.042	85.88
307.272	90.88
307.502	86.88
307.731	94.88
307.961	86.88
308.191	87.88
308.421	82.88
308.651	72.88
308.881	91.88
309.111	91.88
309.341	92.88
309.571	94.88
309.8	80.88
310.03	81.88
310.26	83.88
310.49	88.88
310.72	72.88
310.949	82.88
311.179	79.88
311.409	88.88
311.639	83.88
311.868	70.88
312.098	78.88
312.328	91.88
312.557	81.88
312.787	68.88
313.017	81.88
313.246	80.88
313.476	86.88
313.706	91.88
313.935	86.88
314.165	85.88
314.394	90.88
314.624	82.88
314.853	65.88
315.083	74.88
315.312	65.88
315.542	100.88
315.771	83.88
316.001	80.88
316.23	72.88
316.46	81.88
316.689	84.88
316.919	81.88
317.148	84.88
317.377	79.88
317.607	89.88
317.836	78.88
318.065	85.88
318.295	87.88
318.524	88.88
318.753	84.88
318.983	82.88
319.212	89.88
319.441	83.88
319.67	82.88
319.9	84.88
320.129	74.88
320.358	77.88
320.587	84.88
320.816	74.88
321.046	78.88
321.275	87.88
321.504	83.88
321.733	84.88
321.962	84.88
322.191	90.88
322.42	67.88
322.649	92.88
322.878	78.88
323.108	76.88
323.337	91.88
323.566	81.88
323.795	78.88
324.024	90.88
324.253	89.88
324.482	77.88
324.71	71.88
324.939	87.88
325.168	77.88
325.397	83.88
325.626	81.88
325.855	82.88
326.084	89.88
326.313	92.88
326.542	87.88
326.77	79.88
326.999	83.88
327.228	72.88
327.457	81.88
327.686	84.88
327.914	91.88
328.143	84.88
328.372	82.88
328.6	83.88
328.829	72.88
329.058	85.88
329.287	79.88
329.515	90.88
329.744	89.88
329.972	77.88
330.201	83.88
330.43	87.88
330.658	94.88
330.887	84.88
331.115	79.88
331.344	73.88
331.572	86.88
331.801	78.88
332.03	86.88
332.258	81.88
332.486	108.88
332.715	99.88
332.943	83.88
333.172	84.88
333.4	87.88
333.629	94.88
333.857	80.88
334.085	94.88
334.314	81.88
334.542	86.88
334.771	85.88
334.999	74.88
335.227	83.88
335.455	97.88
335.684	86.88
335.912	83.88
336.14	71.88
336.369	85.88
336.597	83.88
336.825	74.88
337.053	74.88
337.281	88.88
337.51	84.88
337.738	82.88
337.966	74.88
338.194	77.88
338.422	73.88
338.65	92.88
338.878	80.88
339.106	76.88
339.334	86.88
339.562	67.88
339.79	90.88
340.018	94.88
340.246	91.88
340.474	89.88
340.702	79.88
340.93	85.88
341.158	75.88
341.386	74.88
341.614	87.88
341.842	87.88
342.07	88.88
342.298	86.88
342.526	82.88
342.754	74.88
342.981	82.88
343.209	85.88
343.437	88.88
343.665	88.88
343.893	87.88
344.12	99.88
344.348	87.88
344.576	83.88
344.804	81.88
345.031	79.88
345.259	89.88
345.487	73.88
345.714	80.88
345.942	85.88
346.17	80.88
346.397	87.88
346.625	83.88
346.853	75.88
347.08	85.88
347.308	97.88
347.535	80.88
347.763	81.88
347.99	84.88
348.218	87.88
348.445	91.88
348.673	73.88
348.9	85.88
349.128	89.88
349.355	77.88
349.583	83.88
349.81	72.88
350.037	85.88
350.265	88.88
350.492	89.88
350.72	98.88
350.947	93.88
351.174	92.88
351.402	76.88
351.629	89.88
351.856	83.88
352.083	79.88
352.311	87.88
352.538	91.88
352.765	90.88
352.992	95.88
353.22	83.88
353.447	76.88
353.674	83.88
353.901	106.88
354.128	76.88
354.355	86.88
354.583	83.88
354.81	80.88
355.037	79.88
355.264	73.88
355.491	68.88
355.718	87.88
355.945	76.88
356.172	81.88
356.399	86.88
356.626	88.88
356.853	82.88
357.08	90.88
357.307	81.88
357.534	80.88
357.761	83.88
357.988	68.88
358.215	81.88
358.441	95.88
358.668	92.88
358.895	80.88
359.122	71.88
359.349	86.88
359.576	78.88
359.802	89.88
360.029	89.88
360.256	87.88
360.483	75.88
360.709	87.88
360.936	90.88
361.163	94.88
361.39	83.88
361.616	70.88
361.843	86.88
362.07	71.88
362.296	92.88
362.523	80.88
362.749	93.88
362.976	96.88
363.203	66.88
363.429	84.88
363.656	89.88
363.882	75.88
364.109	85.88
364.335	86.88
364.562	82.88
364.788	80.88
365.015	84.88
365.241	68.88
365.468	85.88
365.694	80.88
365.92	96.88
366.147	84.88
366.373	81.88
366.599	87.88
366.826	78.88
367.052	96.88
367.278	87.88
367.505	77.88
367.731	81.88
367.957	78.88
368.184	88.88
368.41	87.88
368.636	84.88
368.862	80.88
369.089	73.88
369.315	83.88
369.541	77.88
369.767	77.88
369.993	82.88
370.219	93.88
370.445	102.88
370.672	85.88
370.898	91.88
371.124	71.88
371.35	70.88
371.576	88.88
371.802	88.88
372.028	81.88
372.254	70.88
372.48	85.88
372.706	87.88
372.932	86.88
373.158	89.88
373.384	96.88
373.61	100.88
373.835	90.88
374.061	71.88
374.287	84.88
374.513	87.88
374.739	83.88
374.965	92.88
375.191	79.88
375.416	92.88
375.642	83.88
375.868	82.88
376.094	75.88
376.319	86.88
376.545	85.88
376.771	88.88
376.997	89.88
377.222	87.88
377.448	92.88
377.674	103.88
377.899	90.88
378.125	84.88
378.35	82.88
378.576	87.88
378.802	97.88
379.027	88.88
379.253	80.88
379.478	79.88
379.704	88.88
379.929	89.88
380.155	86.88
380.38	87.88
380.606	88.88
380.831	105.88
381.057	98.88
381.282	88.88
381.507	96.88
381.733	91.88
381.958	95.88
382.184	91.88
382.409	99.88
382.634	75.88
382.86	99.88
383.085	70.88
383.31	87.88
383.535	76.88
383.761	93.88
383.986	100.88
384.211	94.88
384.436	91.88
384.662	87.88
384.887	93.88
385.112	87.88
385.337	104.88
385.562	89.88
385.787	81.88
386.013	92.88
386.238	100.88
386.463	89.88
386.688	84.88
386.913	91.88
387.138	90.88
387.363	89.88
387.588	104.88
387.813	87.88
388.038	88.88
388.263	105.88
388.488	103.88
388.713	95.88
388.938	69.88
389.163	105.88
389.387	104.88
389.612	83.88
389.837	84.88
390.062	96.88
390.287	70.88
390.512	77.88
390.736	89.88
390.961	95.88
391.186	89.88
391.411	105.88
391.636	91.88
391.86	87.88
392.085	93.88
392.31	82.88
392.534	87.88
392.759	92.88
392.984	96.88
393.208	104.88
393.433	83.88
393.658	82.88
393.882	90.88
394.107	93.88
394.331	100.88
394.556	91.88
394.78	72.88
395.005	97.88
395.229	93.88
395.454	95.88
395.678	94.88
395.903	96.88
396.127	98.88
396.352	92.88
396.576	83.88
396.801	96.88
397.025	86.88
397.249	86.88
397.474	96.88
397.698	92.88
397.922	86.88
398.147	102.88
398.371	81.88
398.595	84.88
398.82	89.88
399.044	77.88
399.268	88.88
399.492	88.88
399.717	88.88
399.941	106.88
400.165	104.88
400.389	98.88
400.613	88.88
400.837	95.88
401.062	85.88
401.286	84.88
401.51	89.88
401.734	90.88
401.958	86.88
402.182	93.88
402.406	95.88
402.63	89.88
402.854	98.88
403.078	85.88
403.302	111.88
403.526	104.88
403.75	92.88
403.974	80.88
404.198	98.88
404.422	104.88
404.645	105.88
404.869	89.88
405.093	96.88
405.317	92.88
405.541	103.88
405.765	102.88
405.988	98.88
406.212	104.88
406.436	92.88
406.66	105.88
406.883	94.88
407.107	93.88
407.331	95.88
407.555	97.88
407.778	90.88
408.002	96.88
408.226	95.88
408.449	94.88
408.673	88.88
408.896	87.88
409.12	99.88
409.344	99.88
409.567	104.88
409.791	85.88
410.014	102.88
410.238	109.88
410.461	95.88
410.685	87.88
410.908	96.88
411.132	97.88
411.355	91.88
411.578	95.88
411.802	98.88
412.025	88.88
412.249	103.88
412.472	109.88
412.695	106.88
412.919	104.88
413.142	95.88
413.365	85.88
413.589	106.88
413.812	102.88
414.035	102.88
414.258	114.88
414.482	88.88
414.705	99.88
414.928	106.88
415.151	105.88
415.374	95.88
415.597	107.88
415.821	89.88
416.044	94.88
416.267	107.88
416.49	113.88
416.713	108.88
416.936	103.88
417.159	116.88
417.382	95.88
417.605	103.88
417.828	102.88
418.051	99.88
418.274	108.88
418.497	108.88
418.72	96.88
418.943	105.88
419.166	118.88
419.389	115.88
419.611	102.88
419.834	103.88
420.057	103.88
420.28	105.88
420.503	102.88
420.726	92.88
420.948	98.88
421.171	101.88
421.394	80.88
421.617	100.88
421.839	117.88
422.062	104.88
422.285	100.88
422.507	118.88
422.73	101.88
422.953	102.88
423.175	111.88
423.398	96.88
423.621	107.88
423.843	92.88
424.066	102.88
424.288	108.88
424.511	115.88
424.733	108.88
424.956	108.88
425.178	124.88
425.401	113.88
425.623	100.88
425.846	102.88
426.068	92.88
426.291	104.88
426.513	101.88
426.735	111.88
426.958	83.88
427.18	94.88
427.402	112.88
427.625	102.88
427.847	101.88
428.069	116.88
428.292	101.88
428.514	111.88
428.736	109.88
428.958	101.88
429.181	98.88
429.403	94.88
429.625	97.88
429.847	111.88
430.069	113.88
430.292	113.88
430.514	108.88
430.736	95.88
430.958	102.88
431.18	108.88
431.402	83.88
431.624	100.88
431.846	102.88
432.068	87.88
432.29	100.88
432.512	88.88
432.734	90.88
432.956	110.88
433.178	111.88
433.4	106.88
433.622	111.88
433.844	110.88
434.066	82.88
434.287	93.88
434.509	99.88
434.731	86.88
434.953	84.88
435.175	105.88
435.397	103.88
435.618	96.88
435.84	87.88
436.062	97.88
436.284	92.88
436.505	118.88
436.727	124.88
436.949	97.88
437.17	105.88
437.392	96.88
437.614	99.88
437.835	102.88
438.057	94.88
438.278	89.88
438.5	96.88
438.721	117.88
438.943	90.88
439.165	120.88
439.386	101.88
439.608	129.88
439.829	119.88
440.05	114.88
440.272	100.88
440.493	103.88
440.715	114.88
440.936	96.88
441.158	105.88
441.379	118.88
441.6	107.88
441.822	104.88
442.043	119.88
442.264	111.88
442.486	121.88
442.707	107.88
442.928	99.88
443.149	103.88
443.371	117.88
443.592	113.88
443.813	114.88
444.034	114.88
444.255	118.88
444.476	113.88
444.698	116.88
444.919	108.88
445.14	209.88
445.361	160.88
445.582	107.88
445.803	117.88
446.024	108.88
446.245	127.88
446.466	103.88
446.687	117.88
446.908	121.88
447.129	103.88
447.35	110.88
447.571	120.88
447.792	106.88
448.013	98.88
448.234	102.88
448.455	108.88
448.675	121.88
448.896	108.88
449.117	118.88
449.338	122.88
449.559	95.88
449.779	111.88
450	111.88
450.221	114.88
450.442	114.88
450.662	117.88
450.883	106.88
451.104	107.88
451.324	104.88
451.545	108.88
451.766	108.88
451.986	110.88
452.207	104.88
452.428	93.88
452.648	107.88
452.869	99.88
453.089	101.88
453.31	107.88
453.53	83.88
453.751	81.88
453.971	96.88
454.192	83.88
454.412	87.88
454.633	104.88
454.853	88.88
455.073	92.88
455.294	93.88
455.514	81.88
455.734	89.88
455.955	103.88
456.175	99.88
456.395	89.88
456.616	114.88
456.836	80.88
457.056	91.88
457.276	88.88
457.497	83.88
457.717	116.88
457.937	103.88
458.157	105.88
458.377	91.88
458.598	93.88
458.818	81.88
459.038	77.88
459.258	76.88
459.478	73.88
459.698	78.88
459.918	83.88
460.138	98.88
460.358	99.88
460.578	96.88
460.798	92.88
461.018	97.88
461.238	107.88
461.458	104.88
461.678	95.88
461.898	96.88
462.118	90.88
462.338	98.88
462.558	109.88
462.777	97.88
462.997	89.88
463.217	98.88
463.437	107.88
463.657	101.88
463.876	107.88
464.096	89.88
464.316	93.88
464.536	90.88
464.755	86.88
464.975	104.88
465.195	116.88
465.414	92.88
465.634	95.88
465.854	100.88
466.073	107.88
466.293	98.88
466.512	109.88
466.732	108.88
466.951	115.88
467.171	103.88
467.391	113.88
467.61	102.88
467.829	106.88
468.049	107.88
468.268	107.88
468.488	106.88
468.707	100.88
468.927	117.88
469.146	113.88
469.365	106.88
469.585	119.88
469.804	117.88
470.023	106.88
470.243	104.88
470.462	109.88
470.681	102.88
470.901	111.88
471.12	100.88
471.339	123.88
471.558	107.88
471.777	111.88
471.997	100.88
472.216	103.88
472.435	106.88
472.654	108.88
472.873	101.88
473.092	101.88
473.311	96.88
473.53	104.88
473.749	105.88
473.968	103.88
474.187	99.88
474.406	101.88
474.625	109.88
474.844	101.88
475.063	104.88
475.282	108.88
475.501	98.88
475.72	103.88
475.939	106.88
476.158	118.88
476.377	95.88
476.596	108.88
476.814	108.88
477.033	103.88
477.252	77.88
477.471	103.88
477.69	109.88
477.908	114.88
478.127	117.88
478.346	100.88
478.564	102.88
478.783	105.88
479.002	125.88
479.22	107.88
479.439	109.88
479.658	101.88
479.876	93.88
480.095	92.88
480.313	100.88
480.532	101.88
480.751	93.88
480.969	95.88
481.188	90.88
481.406	100.88
481.624	90.88
481.843	81.88
482.061	100.88
482.28	106.88
482.498	109.88
482.717	103.88
482.935	109.88
483.153	111.88
483.372	107.88
483.59	111.88
483.808	109.88
484.027	100.88
484.245	106.88
484.463	121.88
484.681	125.88
484.9	109.88
485.118	122.88
485.336	106.88
485.554	86.88
485.772	91.88
485.99	89.88
486.209	83.88
486.427	92.88
486.645	96.88
486.863	104.88
487.081	114.88
487.299	119.88
487.517	106.88
487.735	130.88
487.953	123.88
488.171	131.88
488.389	120.88
488.607	124.88
488.825	117.88
489.043	106.88
489.261	112.88
489.479	109.88
489.696	113.88
489.914	118.88
490.132	116.88
490.35	135.88
490.568	115.88
490.786	125.88
491.003	132.88
491.221	123.88
491.439	129.88
491.657	139.88
491.874	125.88
492.092	138.88
492.31	167.88
492.527	148.88
492.745	139.88
492.963	151.88
493.18	124.88
493.398	137.88
493.615	120.88
493.833	139.88
494.05	132.88
494.268	134.88
494.485	130.88
494.703	135.88
494.92	127.88
495.138	130.88
495.355	136.88
495.573	121.88
495.79	131.88
496.008	124.88
496.225	131.88
496.442	116.88
496.66	119.88
496.877	127.88
497.094	127.88
497.312	125.88
497.529	134.88
497.746	121.88
497.963	115.88
498.181	98.88
498.398	108.88
498.615	98.88
498.832	93.88
499.049	101.88
499.267	103.88
499.484	119.88
499.701	95.88
499.918	108.88
500.135	92.88
500.352	115.88
500.569	117.88
500.786	106.88
501.003	104.88
501.22	115.88
501.437	119.88
501.654	109.88
501.871	108.88
502.088	121.88
502.305	111.88
502.522	98.88
502.739	111.88
502.956	122.88
503.172	111.88
503.389	95.88
503.606	123.88
503.823	100.88
504.04	97.88
504.256	105.88
504.473	101.88
504.69	116.88
504.907	102.88
505.123	108.88
505.34	105.88
505.557	104.88
505.773	101.88
505.99	93.88
506.207	96.88
506.423	104.88
506.64	107.88
506.856	111.88
507.073	90.88
507.289	113.88
507.506	106.88
507.722	96.88
507.939	108.88
508.155	99.88
508.372	96.88
508.588	93.88
508.805	105.88
509.021	91.88
509.238	96.88
509.454	79.88
509.67	82.88
509.887	83.88
510.103	81.88
510.319	77.88
510.536	84.88
510.752	79.88
510.968	80.88
511.184	82.88
511.401	92.88
511.617	86.88
511.833	100.88
512.049	90.88
512.265	84.88
512.481	95.88
512.698	94.88
512.914	85.88
513.13	95.88
513.346	92.88
513.562	80.88
513.778	92.88
513.994	99.88
514.21	91.88
514.426	85.88
514.642	85.88
514.858	93.88
515.074	77.88
515.29	93.88
515.506	85.88
515.721	78.88
515.937	85.88
516.153	88.88
516.369	104.88
516.585	84.88
516.801	81.88
517.016	86.88
517.232	88.88
517.448	100.88
517.664	95.88
517.879	85.88
518.095	101.88
518.311	100.88
518.527	107.88
518.742	81.88
518.958	85.88
519.173	92.88
519.389	99.88
519.605	99.88
519.82	92.88
520.036	103.88
520.251	101.88
520.467	100.88
520.682	84.88
520.898	90.88
521.113	98.88
521.329	103.88
521.544	83.88
521.76	101.88
521.975	78.88
522.19	76.88
522.406	97.88
522.621	91.88
522.836	92.88
523.052	90.88
523.267	87.88
523.482	98.88
523.698	107.88
523.913	101.88
524.128	96.88
524.343	93.88
524.559	105.88
524.774	88.88
524.989	99.88
525.204	101.88
525.419	105.88
525.634	87.88
525.849	90.88
526.064	95.88
526.28	100.88
526.495	87.88
526.71	90.88
526.925	80.88
527.14	75.88
527.355	83.88
527.57	82.88
527.785	95.88
527.999	83.88
528.214	100.88
528.429	90.88
528.644	92.88
528.859	104.88
529.074	106.88
529.289	116.88
529.503	118.88
529.718	111.88
529.933	89.88
530.148	85.88
530.363	97.88
530.577	82.88
530.792	92.88
531.007	81.88
531.221	82.88
531.436	75.88
531.651	87.88
531.865	86.88
532.08	85.88
532.295	99.88
532.509	90.88
532.724	77.88
532.938	85.88
533.153	89.88
533.367	107.88
533.582	86.88
533.796	95.88
534.011	94.88
534.225	101.88
534.44	88.88
534.654	99.88
534.868	91.88
535.083	84.88
535.297	100.88
535.511	102.88
535.726	104.88
535.94	89.88
536.154	90.88
536.369	84.88
536.583	85.88
536.797	96.88
537.011	87.88
537.225	87.88
537.44	95.88
537.654	86.88
537.868	90.88
538.082	80.88
538.296	101.88
538.51	97.88
538.724	107.88
538.938	112.88
539.153	116.88
539.367	112.88
539.581	96.88
539.795	82.88
540.009	95.88
540.222	83.88
540.436	99.88
540.65	109.88
540.864	108.88
541.078	108.88
541.292	109.88
541.506	108.88
541.72	145.88
541.934	122.88
542.147	129.88
542.361	147.88
542.575	120.88
542.789	122.88
543.002	116.88
543.216	103.88
543.43	106.88
543.644	120.88
543.857	110.88
544.071	125.88
544.285	135.88
544.498	123.88
544.712	112.88
544.925	119.88
545.139	137.88
545.352	120.88
545.566	117.88
545.779	114.88
545.993	129.88
546.206	122.88
546.42	131.88
546.633	117.88
546.847	132.88
547.06	127.88
547.274	128.88
547.487	137.88
547.7	132.88
547.914	127.88
548.127	113.88
548.34	113.88
548.554	121.88
548.767	107.88
548.98	117.88
549.193	118.88
549.407	102.88
549.62	105.88
549.833	129.88
550.046	136.88
550.259	117.88
550.473	119.88
550.686	106.88
550.899	126.88
551.112	112.88
551.325	116.88
551.538	117.88
551.751	114.88
551.964	98.88
552.177	110.88
552.39	112.88
552.603	107.88
552.816	108.88
553.029	107.88
553.242	126.88
553.455	121.88
553.667	126.88
553.88	106.88
554.093	115.88
554.306	103.88
554.519	113.88
554.732	127.88
554.944	107.88
555.157	101.88
555.37	119.88
555.583	100.88
555.795	113.88
556.008	117.88
556.221	118.88
556.433	111.88
556.646	106.88
556.859	127.88
557.071	101.88
557.284	124.88
557.496	116.88
557.709	125.88
557.921	117.88
558.134	116.88
558.346	107.88
558.559	113.88
558.771	104.88
558.984	108.88
559.196	105.88
559.409	98.88
559.621	104.88
559.833	107.88
560.046	109.88
560.258	96.88
560.47	130.88
560.683	113.88
560.895	114.88
561.107	116.88
561.32	108.88
561.532	118.88
561.744	111.88
561.956	109.88
562.168	105.88
562.381	102.88
562.593	107.88
562.805	112.88
563.017	117.88
563.229	112.88
563.441	88.88
563.653	117.88
563.865	106.88
564.077	112.88
564.289	98.88
564.501	81.88
564.713	110.88
564.925	102.88
565.137	94.88
565.349	107.88
565.561	111.88
565.773	98.88
565.985	91.88
566.197	96.88
566.408	96.88
566.62	104.88
566.832	111.88
567.044	108.88
567.255	107.88
567.467	119.88
567.679	79.88
567.891	105.88
568.102	100.88
568.314	93.88
568.526	75.88
568.737	99.88
568.949	87.88
569.161	74.88
569.372	84.88
569.584	91.88
569.795	92.88
570.007	84.88
570.218	93.88
570.43	96.88
570.641	80.88
570.853	94.88
571.064	87.88
571.276	99.88
571.487	83.88
571.698	92.88
571.91	98.88
572.121	100.88
572.333	81.88
572.544	95.88
572.755	92.88
572.966	89.88
573.178	65.88
573.389	85.88
573.6	83.88
573.811	78.88
574.023	90.88
574.234	85.88
574.445	89.88
574.656	89.88
574.867	97.88
575.078	97.88
575.289	89.88
575.501	79.88
575.712	84.88
575.923	96.88
576.134	91.88
576.345	102.88
576.556	97.88
576.767	90.88
576.978	91.88
577.188	90.88
577.399	92.88
577.61	86.88
577.821	63.88
578.032	91.88
578.243	83.88
578.454	83.88
578.665	72.88
578.875	90.88
579.086	96.88
579.297	71.88
579.508	94.88
579.718	91.88
579.929	87.88
580.14	89.88
580.35	92.88
580.561	80.88
580.772	90.88
580.982	76.88
581.193	88.88
581.403	86.88
581.614	95.88
581.825	98.88
582.035	95.88
582.246	101.88
582.456	100.88
582.667	95.88
582.877	84.88
583.087	85.88
583.298	76.88
583.508	91.88
583.719	75.88
583.929	94.88
584.139	92.88
584.35	83.88
584.56	81.88
584.77	80.88
584.981	84.88
585.191	75.88
585.401	83.88
585.611	100.88
585.821	88.88
586.032	88.88
586.242	82.88
586.452	72.88
586.662	77.88
586.872	80.88
587.082	72.88
587.292	83.88
587.502	97.88
587.713	85.88
587.923	77.88
588.133	92.88
588.343	83.88
588.553	91.88
588.762	84.88
588.972	71.88
589.182	83.88
589.392	89.88
589.602	90.88
589.812	74.88
590.022	75.88
590.232	85.88
590.441	86.88
590.651	89.88
590.861	91.88
591.071	83.88
591.281	97.88
591.49	82.88
591.7	82.88
591.91	95.88
592.119	78.88
592.329	78.88
592.539	87.88
592.748	96.88
592.958	97.88
593.167	73.88
593.377	88.88
593.587	87.88
593.796	84.88
594.006	88.88
594.215	87.88
594.424	92.88
594.634	83.88
594.843	102.88
595.053	82.88
595.262	77.88
595.472	80.88
595.681	98.88
595.89	88.88
596.1	92.88
596.309	91.88
596.518	93.88
596.727	103.88
596.937	86.88
597.146	91.88
597.355	103.88
597.564	87.88
597.774	75.88
597.983	87.88
598.192	86.88
598.401	88.88
598.61	75.88
598.819	94.88
599.028	87.88
599.237	91.88
599.446	95.88
599.655	89.88
599.864	93.88
600.073	99.88
600.282	84.88
600.491	88.88
600.7	94.88
600.909	89.88
601.118	99.88
601.327	85.88
601.536	96.88
601.745	90.88
601.953	99.88
602.162	81.88
602.371	108.88
602.58	95.88
602.789	95.88
602.997	91.88
603.206	103.88
603.415	96.88
603.623	88.88
603.832	98.88
604.041	98.88
604.249	92.88
604.458	82.88
604.666	90.88
604.875	95.88
605.084	91.88
605.292	97.88
605.501	103.88
605.709	85.88
605.918	105.88
606.126	99.88
606.334	99.88
606.543	86.88
606.751	97.88
606.96	91.88
607.168	114.88
607.376	93.88
607.585	102.88
607.793	102.88
608.001	108.88
608.21	87.88
608.418	93.88
608.626	99.88
608.834	81.88
609.043	92.88
609.251	99.88
609.459	90.88
609.667	101.88
609.875	97.88
610.083	107.88
610.291	84.88
610.499	94.88
610.707	107.88
610.916	107.88
611.124	92.88
611.332	99.88
611.54	95.88
611.748	101.88
611.955	100.88
612.163	89.88
612.371	97.88
612.579	106.88
612.787	117.88
612.995	99.88
613.203	96.88
613.411	98.88
613.618	107.88
613.826	88.88
614.034	85.88
614.242	106.88
614.449	102.88
614.657	91.88
614.865	76.88
615.072	87.88
615.28	89.88
615.488	98.88
615.695	89.88
615.903	93.88
616.111	96.88
616.318	96.88
616.526	88.88
616.733	113.88
616.941	102.88
617.148	102.88
617.356	99.88
617.563	102.88
617.771	95.88
617.978	90.88
618.185	97.88
618.393	107.88
618.6	97.88
618.807	115.88
619.015	103.88
619.222	92.88
619.429	82.88
619.637	97.88
619.844	99.88
620.051	92.88
620.258	84.88
620.466	84.88
620.673	92.88
620.88	88.88
621.087	92.88
621.294	101.88
621.501	96.88
621.708	83.88
621.915	95.88
622.122	80.88
622.329	91.88
622.536	107.88
622.743	87.88
622.95	84.88
623.157	92.88
623.364	109.88
623.571	103.88
623.778	103.88
623.985	85.88
624.192	98.88
624.399	101.88
624.606	103.88
624.812	103.88
625.019	90.88
625.226	85.88
625.433	94.88
625.639	87.88
625.846	88.88
626.053	74.88
626.259	88.88
626.466	79.88
626.673	76.88
626.879	95.88
627.086	94.88
627.293	83.88
627.499	88.88
627.706	111.88
627.912	81.88
628.119	98.88
628.325	95.88
628.532	86.88
628.738	97.88
628.945	89.88
629.151	97.88
629.357	83.88
629.564	95.88
629.77	103.88
629.976	96.88
630.183	92.88
630.389	82.88
630.595	81.88
630.802	103.88
631.008	94.88
631.214	86.88
631.42	92.88
631.627	97.88
631.833	95.88
632.039	99.88
632.245	96.88
632.451	87.88
632.657	105.88
632.863	87.88
633.069	81.88
633.275	81.88
633.481	76.88
633.688	90.88
633.893	87.88
634.099	72.88
634.305	74.88
634.511	84.88
634.717	88.88
634.923	86.88
635.129	80.88
635.335	79.88
635.541	85.88
635.747	106.88
635.952	104.88
636.158	94.88
636.364	87.88
636.57	91.88
636.775	88.88
636.981	91.88
637.187	89.88
637.392	94.88
637.598	91.88
637.804	77.88
638.009	97.88
638.215	102.88
638.421	95.88
638.626	96.88
638.832	95.88
639.037	96.88
639.243	87.88
639.448	95.88
639.654	98.88
639.859	86.88
640.065	95.88
640.27	85.88
640.475	88.88
640.681	90.88
640.886	77.88
641.091	109.88
641.297	110.88
641.502	88.88
641.707	93.88
641.913	85.88
642.118	89.88
642.323	104.88
642.528	94.88
642.733	92.88
642.939	91.88
643.144	98.88
643.349	95.88
643.554	91.88
643.759	88.88
643.964	87.88
644.169	93.88
644.374	83.88
644.579	97.88
644.784	96.88
644.989	80.88
645.194	103.88
645.399	89.88
645.604	104.88
645.809	83.88
646.014	96.88
646.219	94.88
646.423	103.88
646.628	89.88
646.833	98.88
647.038	98.88
647.243	99.88
647.447	80.88
647.652	82.88
647.857	94.88
648.062	96.88
648.266	87.88
648.471	93.88
648.676	85.88
648.88	97.88
649.085	82.88
649.289	88.88
649.494	77.88
649.698	80.88
649.903	98.88
650.107	84.88
650.312	89.88
650.516	83.88
650.721	76.88
650.925	85.88
651.13	85.88
651.334	94.88
651.539	97.88
651.743	96.88
651.947	95.88
652.152	91.88
652.356	74.88
652.56	87.88
652.764	93.88
652.969	92.88
653.173	88.88
653.377	73.88
653.581	76.88
653.785	85.88
653.99	82.88
654.194	89.88
654.398	84.88
654.602	87.88
654.806	83.88
655.01	98.88
655.214	100.88
655.418	91.88
655.622	91.88
655.826	89.88
656.03	92.88
656.234	80.88
656.438	72.88
656.642	97.88
656.846	88.88
657.049	97.88
657.253	84.88
657.457	95.88
657.661	78.88
657.865	69.88
658.068	89.88
658.272	75.88
658.476	86.88
658.68	75.88
658.883	86.88
659.087	82.88
659.291	98.88
659.494	87.88
659.698	78.88
659.901	69.88
660.105	93.88
660.309	80.88
660.512	81.88
660.716	77.88
660.919	74.88
661.123	89.88
661.326	75.88
661.53	80.88
661.733	97.88
661.936	78.88
662.14	89.88
662.343	85.88
662.546	62.88
662.75	80.88
662.953	87.88
663.156	64.88
663.36	84.88
663.563	74.88
663.766	79.88
663.969	84.88
664.173	72.88
664.376	81.88
664.579	79.88
664.782	76.88
664.985	70.88
665.188	81.88
665.391	93.88
665.594	72.88
665.797	76.88
666	87.88
666.203	77.88
666.406	71.88
666.609	76.88
666.812	75.88
667.015	79.88
667.218	87.88
667.421	77.88
667.624	72.88
667.827	79.88
668.03	80.88
668.232	73.88
668.435	63.88
668.638	70.88
668.841	74.88
669.043	79.88
669.246	90.88
669.449	95.88
669.651	82.88
669.854	70.88
670.057	84.88
670.259	71.88
670.462	76.88
670.665	71.88
670.867	74.88
671.07	77.88
671.272	74.88
671.475	84.88
671.677	81.88
671.88	81.88
672.082	79.88
672.284	79.88
672.487	83.88
672.689	81.88
672.892	71.88
