Data from Zn(NO3)2Standard.Agarose3%.GreenCap.LampEnergy10E.O_HRD10591_15-08-54-952.txt Node
Date: Mon Jul 22 15:08:54 EDT 2019
User: cochatt
Spectrometer: HR+D1059
Trigger mode: 1
Integration Time (sec): 1.000000E-1
Scans to average: 1
Electric dark correction enabled: true
Nonlinearity correction enabled: false
Boxcar width: 0
XAxis mode: Wavelengths
Number of Pixels in Spectrum: 2048
>>>>>Begin Spectral Data<<<<<
223.165	-9.31
223.4	-9.31
223.635	-9.31
223.869	-7.31
224.104	-15.31
224.338	-10.31
224.573	-18.31
224.808	-18.31
225.042	-11.31
225.277	-16.31
225.511	-3.31
225.746	3.69
225.98	15.69
226.215	10.69
226.449	3.69
226.683	15.69
226.918	18.69
227.152	41.69
227.387	37.69
227.621	40.69
227.856	35.69
228.09	51.69
228.324	42.69
228.559	50.69
228.793	64.69
229.027	51.69
229.262	44.69
229.496	64.69
229.73	65.69
229.964	66.69
230.199	85.69
230.433	70.69
230.667	63.69
230.901	69.69
231.136	72.69
231.37	68.69
231.604	79.69
231.838	74.69
232.072	61.69
232.306	86.69
232.541	78.69
232.775	81.69
233.009	76.69
233.243	73.69
233.477	75.69
233.711	87.69
233.945	91.69
234.179	87.69
234.413	86.69
234.647	88.69
234.881	70.69
235.115	73.69
235.349	83.69
235.583	75.69
235.817	89.69
236.051	75.69
236.285	74.69
236.519	77.69
236.753	83.69
236.987	75.69
237.221	72.69
237.455	80.69
237.689	70.69
237.922	77.69
238.156	70.69
238.39	78.69
238.624	73.69
238.858	75.69
239.091	81.69
239.325	82.69
239.559	82.69
239.793	68.69
240.027	66.69
240.26	61.69
240.494	65.69
240.728	76.69
240.961	81.69
241.195	87.69
241.429	87.69
241.662	76.69
241.896	75.69
242.13	75.69
242.363	76.69
242.597	88.69
242.83	86.69
243.064	88.69
243.298	62.69
243.531	79.69
243.765	78.69
243.998	88.69
244.232	73.69
244.465	66.69
244.699	76.69
244.932	87.69
245.166	75.69
245.399	77.69
245.633	75.69
245.866	65.69
246.099	79.69
246.333	78.69
246.566	64.69
246.8	75.69
247.033	71.69
247.266	72.69
247.5	78.69
247.733	75.69
247.966	90.69
248.2	81.69
248.433	73.69
248.666	75.69
248.899	67.69
249.133	64.69
249.366	70.69
249.599	76.69
249.832	88.69
250.066	71.69
250.299	82.69
250.532	64.69
250.765	78.69
250.998	81.69
251.231	82.69
251.465	69.69
251.698	66.69
251.931	73.69
252.164	70.69
252.397	71.69
252.63	67.69
252.863	71.69
253.096	84.69
253.329	83.69
253.562	73.69
253.795	67.69
254.028	88.69
254.261	91.69
254.494	77.69
254.727	90.69
254.96	79.69
255.193	81.69
255.426	82.69
255.659	77.69
255.892	82.69
256.124	68.69
256.357	82.69
256.59	76.69
256.823	82.69
257.056	79.69
257.289	68.69
257.521	68.69
257.754	81.69
257.987	80.69
258.22	80.69
258.452	79.69
258.685	70.69
258.918	84.69
259.151	91.69
259.383	83.69
259.616	87.69
259.849	90.69
260.081	78.69
260.314	91.69
260.547	82.69
260.779	76.69
261.012	73.69
261.244	80.69
261.477	68.69
261.71	75.69
261.942	79.69
262.175	72.69
262.407	81.69
262.64	82.69
262.872	92.69
263.105	67.69
263.337	95.69
263.57	85.69
263.802	86.69
264.035	88.69
264.267	77.69
264.499	67.69
264.732	75.69
264.964	86.69
265.197	81.69
265.429	91.69
265.661	79.69
265.894	84.69
266.126	69.69
266.358	88.69
266.591	89.69
266.823	87.69
267.055	93.69
267.287	83.69
267.52	80.69
267.752	89.69
267.984	88.69
268.216	85.69
268.448	92.69
268.681	95.69
268.913	83.69
269.145	86.69
269.377	80.69
269.609	98.69
269.841	75.69
270.073	86.69
270.306	76.69
270.538	86.69
270.77	76.69
271.002	81.69
271.234	85.69
271.466	78.69
271.698	82.69
271.93	69.69
272.162	69.69
272.394	86.69
272.626	85.69
272.858	82.69
273.09	96.69
273.322	85.69
273.553	86.69
273.785	79.69
274.017	82.69
274.249	88.69
274.481	93.69
274.713	80.69
274.945	78.69
275.176	85.69
275.408	80.69
275.64	84.69
275.872	75.69
276.104	83.69
276.335	67.69
276.567	92.69
276.799	83.69
277.031	92.69
277.262	103.69
277.494	81.69
277.726	78.69
277.957	72.69
278.189	80.69
278.421	69.69
278.652	83.69
278.884	83.69
279.115	67.69
279.347	91.69
279.579	85.69
279.81	73.69
280.042	80.69
280.273	88.69
280.505	75.69
280.736	91.69
280.968	78.69
281.199	83.69
281.431	83.69
281.662	86.69
281.894	97.69
282.125	75.69
282.356	76.69
282.588	55.69
282.819	85.69
283.051	84.69
283.282	73.69
283.513	81.69
283.745	80.69
283.976	79.69
284.207	78.69
284.439	83.69
284.67	88.69
284.901	78.69
285.132	76.69
285.364	96.69
285.595	83.69
285.826	81.69
286.057	81.69
286.288	76.69
286.52	86.69
286.751	68.69
286.982	91.69
287.213	73.69
287.444	87.69
287.675	73.69
287.906	85.69
288.138	69.69
288.369	72.69
288.6	77.69
288.831	83.69
289.062	88.69
289.293	83.69
289.524	79.69
289.755	79.69
289.986	81.69
290.217	80.69
290.448	87.69
290.679	75.69
290.91	86.69
291.141	85.69
291.371	70.69
291.602	83.69
291.833	78.69
292.064	92.69
292.295	66.69
292.526	87.69
292.757	83.69
292.987	79.69
293.218	89.69
293.449	78.69
293.68	75.69
293.91	83.69
294.141	83.69
294.372	87.69
294.603	94.69
294.833	83.69
295.064	83.69
295.295	80.69
295.525	83.69
295.756	82.69
295.987	89.69
296.217	92.69
296.448	75.69
296.679	88.69
296.909	83.69
297.14	74.69
297.37	85.69
297.601	88.69
297.831	70.69
298.062	80.69
298.292	86.69
298.523	84.69
298.753	86.69
298.984	80.69
299.214	83.69
299.445	83.69
299.675	81.69
299.905	80.69
300.136	84.69
300.366	72.69
300.597	74.69
300.827	80.69
301.057	78.69
301.288	83.69
301.518	80.69
301.748	83.69
301.979	77.69
302.209	73.69
302.439	91.69
302.669	88.69
302.9	75.69
303.13	76.69
303.36	70.69
303.59	76.69
303.82	96.69
304.051	82.69
304.281	85.69
304.511	79.69
304.741	96.69
304.971	68.69
305.201	76.69
305.431	72.69
305.661	86.69
305.891	91.69
306.121	73.69
306.352	92.69
306.582	91.69
306.812	96.69
307.042	69.69
307.272	78.69
307.502	87.69
307.731	92.69
307.961	99.69
308.191	91.69
308.421	83.69
308.651	103.69
308.881	79.69
309.111	83.69
309.341	95.69
309.571	83.69
309.8	91.69
310.03	85.69
310.26	77.69
310.49	82.69
310.72	94.69
310.949	84.69
311.179	87.69
311.409	84.69
311.639	85.69
311.868	68.69
312.098	92.69
312.328	83.69
312.557	71.69
312.787	87.69
313.017	70.69
313.246	77.69
313.476	81.69
313.706	81.69
313.935	80.69
314.165	71.69
314.394	81.69
314.624	92.69
314.853	79.69
315.083	81.69
315.312	71.69
315.542	77.69
315.771	88.69
316.001	81.69
316.23	76.69
316.46	83.69
316.689	79.69
316.919	85.69
317.148	74.69
317.377	83.69
317.607	76.69
317.836	80.69
318.065	84.69
318.295	88.69
318.524	79.69
318.753	67.69
318.983	74.69
319.212	91.69
319.441	90.69
319.67	82.69
319.9	87.69
320.129	80.69
320.358	80.69
320.587	80.69
320.816	85.69
321.046	83.69
321.275	77.69
321.504	67.69
321.733	81.69
321.962	84.69
322.191	76.69
322.42	81.69
322.649	97.69
322.878	87.69
323.108	85.69
323.337	76.69
323.566	90.69
323.795	94.69
324.024	76.69
324.253	91.69
324.482	77.69
324.71	89.69
324.939	102.69
325.168	85.69
325.397	82.69
325.626	88.69
325.855	67.69
326.084	70.69
326.313	80.69
326.542	76.69
326.77	106.69
326.999	75.69
327.228	81.69
327.457	80.69
327.686	83.69
327.914	79.69
328.143	89.69
328.372	71.69
328.6	76.69
328.829	90.69
329.058	82.69
329.287	67.69
329.515	73.69
329.744	83.69
329.972	79.69
330.201	92.69
330.43	95.69
330.658	76.69
330.887	90.69
331.115	77.69
331.344	67.69
331.572	83.69
331.801	82.69
332.03	90.69
332.258	83.69
332.486	88.69
332.715	66.69
332.943	78.69
333.172	87.69
333.4	96.69
333.629	81.69
333.857	76.69
334.085	74.69
334.314	75.69
334.542	96.69
334.771	90.69
334.999	85.69
335.227	84.69
335.455	77.69
335.684	90.69
335.912	80.69
336.14	77.69
336.369	76.69
336.597	85.69
336.825	76.69
337.053	76.69
337.281	84.69
337.51	96.69
337.738	96.69
337.966	75.69
338.194	89.69
338.422	76.69
338.65	81.69
338.878	77.69
339.106	82.69
339.334	75.69
339.562	81.69
339.79	93.69
340.018	76.69
340.246	90.69
340.474	81.69
340.702	84.69
340.93	88.69
341.158	89.69
341.386	85.69
341.614	86.69
341.842	94.69
342.07	70.69
342.298	88.69
342.526	76.69
342.754	82.69
342.981	90.69
343.209	78.69
343.437	90.69
343.665	88.69
343.893	90.69
344.12	81.69
344.348	75.69
344.576	73.69
344.804	85.69
345.031	73.69
345.259	88.69
345.487	92.69
345.714	84.69
345.942	77.69
346.17	89.69
346.397	79.69
346.625	83.69
346.853	94.69
347.08	87.69
347.308	92.69
347.535	87.69
347.763	73.69
347.99	90.69
348.218	85.69
348.445	80.69
348.673	81.69
348.9	96.69
349.128	89.69
349.355	76.69
349.583	84.69
349.81	86.69
350.037	81.69
350.265	81.69
350.492	70.69
350.72	80.69
350.947	73.69
351.174	76.69
351.402	74.69
351.629	80.69
351.856	79.69
352.083	81.69
352.311	83.69
352.538	84.69
352.765	87.69
352.992	84.69
353.22	87.69
353.447	76.69
353.674	85.69
353.901	81.69
354.128	82.69
354.355	96.69
354.583	89.69
354.81	77.69
355.037	80.69
355.264	92.69
355.491	81.69
355.718	87.69
355.945	72.69
356.172	77.69
356.399	72.69
356.626	71.69
356.853	85.69
357.08	84.69
357.307	81.69
357.534	69.69
357.761	70.69
357.988	92.69
358.215	84.69
358.441	66.69
358.668	86.69
358.895	77.69
359.122	91.69
359.349	85.69
359.576	78.69
359.802	63.69
360.029	82.69
360.256	86.69
360.483	77.69
360.709	73.69
360.936	80.69
361.163	92.69
361.39	79.69
361.616	74.69
361.843	90.69
362.07	76.69
362.296	93.69
362.523	78.69
362.749	71.69
362.976	94.69
363.203	81.69
363.429	84.69
363.656	84.69
363.882	86.69
364.109	94.69
364.335	78.69
364.562	79.69
364.788	83.69
365.015	82.69
365.241	90.69
365.468	66.69
365.694	82.69
365.92	88.69
366.147	84.69
366.373	81.69
366.599	90.69
366.826	84.69
367.052	86.69
367.278	82.69
367.505	91.69
367.731	80.69
367.957	74.69
368.184	67.69
368.41	72.69
368.636	85.69
368.862	84.69
369.089	80.69
369.315	74.69
369.541	88.69
369.767	89.69
369.993	77.69
370.219	88.69
370.445	85.69
370.672	81.69
370.898	84.69
371.124	76.69
371.35	107.69
371.576	68.69
371.802	86.69
372.028	94.69
372.254	81.69
372.48	88.69
372.706	87.69
372.932	90.69
373.158	99.69
373.384	90.69
373.61	76.69
373.835	79.69
374.061	83.69
374.287	81.69
374.513	81.69
374.739	83.69
374.965	85.69
375.191	90.69
375.416	89.69
375.642	86.69
375.868	103.69
376.094	87.69
376.319	89.69
376.545	80.69
376.771	99.69
376.997	84.69
377.222	90.69
377.448	92.69
377.674	83.69
377.899	74.69
378.125	95.69
378.35	87.69
378.576	93.69
378.802	86.69
379.027	71.69
379.253	84.69
379.478	95.69
379.704	74.69
379.929	83.69
380.155	83.69
380.38	82.69
380.606	88.69
380.831	94.69
381.057	92.69
381.282	93.69
381.507	87.69
381.733	86.69
381.958	88.69
382.184	84.69
382.409	89.69
382.634	89.69
382.86	96.69
383.085	93.69
383.31	90.69
383.535	97.69
383.761	88.69
383.986	68.69
384.211	68.69
384.436	87.69
384.662	82.69
384.887	60.69
385.112	88.69
385.337	83.69
385.562	80.69
385.787	69.69
386.013	85.69
386.238	87.69
386.463	100.69
386.688	91.69
386.913	84.69
387.138	87.69
387.363	63.69
387.588	95.69
387.813	89.69
388.038	100.69
388.263	91.69
388.488	84.69
388.713	99.69
388.938	84.69
389.163	93.69
389.387	81.69
389.612	85.69
389.837	81.69
390.062	69.69
390.287	88.69
390.512	83.69
390.736	99.69
390.961	91.69
391.186	97.69
391.411	90.69
391.636	94.69
391.86	90.69
392.085	88.69
392.31	87.69
392.534	80.69
392.759	95.69
392.984	71.69
393.208	104.69
393.433	100.69
393.658	93.69
393.882	92.69
394.107	86.69
394.331	84.69
394.556	95.69
394.78	104.69
395.005	84.69
395.229	82.69
395.454	88.69
395.678	70.69
395.903	99.69
396.127	95.69
396.352	97.69
396.576	83.69
396.801	99.69
397.025	90.69
397.249	82.69
397.474	92.69
397.698	88.69
397.922	85.69
398.147	83.69
398.371	87.69
398.595	82.69
398.82	93.69
399.044	99.69
399.268	73.69
399.492	97.69
399.717	77.69
399.941	89.69
400.165	97.69
400.389	99.69
400.613	87.69
400.837	91.69
401.062	88.69
401.286	95.69
401.51	108.69
401.734	104.69
401.958	84.69
402.182	79.69
402.406	97.69
402.63	83.69
402.854	89.69
403.078	96.69
403.302	84.69
403.526	83.69
403.75	100.69
403.974	95.69
404.198	88.69
404.422	91.69
404.645	97.69
404.869	107.69
405.093	101.69
405.317	97.69
405.541	88.69
405.765	93.69
405.988	106.69
406.212	102.69
406.436	90.69
406.66	102.69
406.883	103.69
407.107	100.69
407.331	97.69
407.555	90.69
407.778	105.69
408.002	103.69
408.226	102.69
408.449	108.69
408.673	109.69
408.896	112.69
409.12	90.69
409.344	88.69
409.567	102.69
409.791	95.69
410.014	97.69
410.238	105.69
410.461	98.69
410.685	97.69
410.908	99.69
411.132	93.69
411.355	103.69
411.578	103.69
411.802	93.69
412.025	102.69
412.249	101.69
412.472	109.69
412.695	92.69
412.919	88.69
413.142	104.69
413.365	105.69
413.589	85.69
413.812	72.69
414.035	106.69
414.258	100.69
414.482	95.69
414.705	95.69
414.928	95.69
415.151	107.69
415.374	105.69
415.597	92.69
415.821	94.69
416.044	99.69
416.267	107.69
416.49	105.69
416.713	81.69
416.936	92.69
417.159	95.69
417.382	106.69
417.605	93.69
417.828	88.69
418.051	113.69
418.274	112.69
418.497	99.69
418.72	102.69
418.943	80.69
419.166	118.69
419.389	106.69
419.611	102.69
419.834	106.69
420.057	108.69
420.28	105.69
420.503	90.69
420.726	104.69
420.948	114.69
421.171	99.69
421.394	92.69
421.617	93.69
421.839	101.69
422.062	112.69
422.285	89.69
422.507	90.69
422.73	93.69
422.953	100.69
423.175	105.69
423.398	100.69
423.621	107.69
423.843	88.69
424.066	110.69
424.288	100.69
424.511	117.69
424.733	114.69
424.956	114.69
425.178	112.69
425.401	105.69
425.623	111.69
425.846	101.69
426.068	105.69
426.291	104.69
426.513	102.69
426.735	97.69
426.958	111.69
427.18	105.69
427.402	109.69
427.625	102.69
427.847	117.69
428.069	116.69
428.292	97.69
428.514	94.69
428.736	109.69
428.958	96.69
429.181	115.69
429.403	106.69
429.625	115.69
429.847	106.69
430.069	103.69
430.292	110.69
430.514	104.69
430.736	109.69
430.958	104.69
431.18	110.69
431.402	108.69
431.624	94.69
431.846	97.69
432.068	94.69
432.29	95.69
432.512	96.69
432.734	104.69
432.956	113.69
433.178	108.69
433.4	108.69
433.622	116.69
433.844	100.69
434.066	94.69
434.287	88.69
434.509	85.69
434.731	86.69
434.953	89.69
435.175	93.69
435.397	99.69
435.618	116.69
435.84	86.69
436.062	82.69
436.284	104.69
436.505	116.69
436.727	117.69
436.949	114.69
437.17	106.69
437.392	96.69
437.614	103.69
437.835	83.69
438.057	100.69
438.278	99.69
438.5	93.69
438.721	105.69
438.943	105.69
439.165	105.69
439.386	104.69
439.608	107.69
439.829	104.69
440.05	109.69
440.272	113.69
440.493	111.69
440.715	116.69
440.936	97.69
441.158	95.69
441.379	99.69
441.6	111.69
441.822	106.69
442.043	108.69
442.264	114.69
442.486	101.69
442.707	88.69
442.928	116.69
443.149	101.69
443.371	130.69
443.592	113.69
443.813	99.69
444.034	91.69
444.255	115.69
444.476	104.69
444.698	99.69
444.919	119.69
445.14	255.69
445.361	169.69
445.582	109.69
445.803	102.69
446.024	116.69
446.245	121.69
446.466	133.69
446.687	117.69
446.908	117.69
447.129	120.69
447.35	111.69
447.571	118.69
447.792	113.69
448.013	108.69
448.234	107.69
448.455	111.69
448.675	106.69
448.896	95.69
449.117	107.69
449.338	88.69
449.559	109.69
449.779	114.69
450	112.69
450.221	116.69
450.442	108.69
450.662	95.69
450.883	107.69
451.104	107.69
451.324	91.69
451.545	95.69
451.766	111.69
451.986	114.69
452.207	107.69
452.428	96.69
452.648	83.69
452.869	105.69
453.089	104.69
453.31	99.69
453.53	94.69
453.751	89.69
453.971	81.69
454.192	90.69
454.412	95.69
454.633	91.69
454.853	97.69
455.073	96.69
455.294	100.69
455.514	107.69
455.734	96.69
455.955	93.69
456.175	99.69
456.395	111.69
456.616	93.69
456.836	97.69
457.056	90.69
457.276	83.69
457.497	84.69
457.717	100.69
457.937	89.69
458.157	93.69
458.377	99.69
458.598	85.69
458.818	92.69
459.038	89.69
459.258	77.69
459.478	87.69
459.698	97.69
459.918	92.69
460.138	94.69
460.358	91.69
460.578	97.69
460.798	105.69
461.018	103.69
461.238	93.69
461.458	99.69
461.678	96.69
461.898	99.69
462.118	95.69
462.338	103.69
462.558	99.69
462.777	91.69
462.997	89.69
463.217	101.69
463.437	84.69
463.657	93.69
463.876	93.69
464.096	85.69
464.316	89.69
464.536	108.69
464.755	101.69
464.975	101.69
465.195	105.69
465.414	91.69
465.634	92.69
465.854	92.69
466.073	102.69
466.293	105.69
466.512	89.69
466.732	91.69
466.951	107.69
467.171	96.69
467.391	77.69
467.61	117.69
467.829	115.69
468.049	107.69
468.268	107.69
468.488	100.69
468.707	101.69
468.927	118.69
469.146	95.69
469.365	111.69
469.585	123.69
469.804	97.69
470.023	127.69
470.243	124.69
470.462	125.69
470.681	114.69
470.901	98.69
471.12	117.69
471.339	121.69
471.558	106.69
471.777	118.69
471.997	101.69
472.216	121.69
472.435	92.69
472.654	96.69
472.873	95.69
473.092	94.69
473.311	107.69
473.53	113.69
473.749	116.69
473.968	104.69
474.187	99.69
474.406	106.69
474.625	94.69
474.844	111.69
475.063	95.69
475.282	112.69
475.501	109.69
475.72	111.69
475.939	110.69
476.158	99.69
476.377	103.69
476.596	100.69
476.814	116.69
477.033	89.69
477.252	96.69
477.471	111.69
477.69	128.69
477.908	118.69
478.127	99.69
478.346	98.69
478.564	86.69
478.783	102.69
479.002	114.69
479.22	113.69
479.439	118.69
479.658	109.69
479.876	86.69
480.095	99.69
480.313	114.69
480.532	95.69
480.751	102.69
480.969	94.69
481.188	89.69
481.406	91.69
481.624	92.69
481.843	91.69
482.061	98.69
482.28	103.69
482.498	75.69
482.717	76.69
482.935	113.69
483.153	112.69
483.372	125.69
483.59	118.69
483.808	119.69
484.027	109.69
484.245	88.69
484.463	97.69
484.681	124.69
484.9	98.69
485.118	108.69
485.336	96.69
485.554	94.69
485.772	88.69
485.99	99.69
486.209	93.69
486.427	93.69
486.645	106.69
486.863	100.69
487.081	108.69
487.299	100.69
487.517	114.69
487.735	105.69
487.953	129.69
488.171	121.69
488.389	117.69
488.607	108.69
488.825	125.69
489.043	101.69
489.261	100.69
489.479	94.69
489.696	119.69
489.914	102.69
490.132	112.69
490.35	121.69
490.568	120.69
490.786	123.69
491.003	107.69
491.221	116.69
491.439	127.69
491.657	133.69
491.874	151.69
492.092	148.69
492.31	150.69
492.527	158.69
492.745	132.69
492.963	135.69
493.18	124.69
493.398	137.69
493.615	127.69
493.833	115.69
494.05	125.69
494.268	126.69
494.485	113.69
494.703	136.69
494.92	136.69
495.138	125.69
495.355	127.69
495.573	127.69
495.79	133.69
496.008	122.69
496.225	125.69
496.442	125.69
496.66	120.69
496.877	143.69
497.094	135.69
497.312	121.69
497.529	131.69
497.746	112.69
497.963	113.69
498.181	102.69
498.398	107.69
498.615	99.69
498.832	78.69
499.049	97.69
499.267	113.69
499.484	105.69
499.701	102.69
499.918	106.69
500.135	100.69
500.352	116.69
500.569	113.69
500.786	114.69
501.003	105.69
501.22	113.69
501.437	99.69
501.654	113.69
501.871	98.69
502.088	98.69
502.305	112.69
502.522	113.69
502.739	112.69
502.956	121.69
503.172	117.69
503.389	102.69
503.606	89.69
503.823	91.69
504.04	96.69
504.256	105.69
504.473	113.69
504.69	115.69
504.907	104.69
505.123	113.69
505.34	104.69
505.557	104.69
505.773	96.69
505.99	89.69
506.207	104.69
506.423	114.69
506.64	114.69
506.856	94.69
507.073	94.69
507.289	103.69
507.506	81.69
507.722	108.69
507.939	102.69
508.155	91.69
508.372	100.69
508.588	108.69
508.805	88.69
509.021	85.69
509.238	104.69
509.454	102.69
509.67	97.69
509.887	95.69
510.103	108.69
510.319	99.69
510.536	86.69
510.752	87.69
510.968	96.69
511.184	87.69
511.401	82.69
511.617	88.69
511.833	74.69
512.049	82.69
512.265	80.69
512.481	96.69
512.698	91.69
512.914	90.69
513.13	93.69
513.346	94.69
513.562	84.69
513.778	94.69
513.994	75.69
514.21	89.69
514.426	100.69
514.642	91.69
514.858	78.69
515.074	82.69
515.29	96.69
515.506	80.69
515.721	79.69
515.937	97.69
516.153	89.69
516.369	80.69
516.585	79.69
516.801	74.69
517.016	79.69
517.232	69.69
517.448	97.69
517.664	99.69
517.879	81.69
518.095	82.69
518.311	87.69
518.527	88.69
518.742	91.69
518.958	88.69
519.173	98.69
519.389	91.69
519.605	98.69
519.82	86.69
520.036	92.69
520.251	97.69
520.467	96.69
520.682	83.69
520.898	68.69
521.113	99.69
521.329	92.69
521.544	86.69
521.76	86.69
521.975	83.69
522.19	87.69
522.406	93.69
522.621	95.69
522.836	76.69
523.052	95.69
523.267	93.69
523.482	90.69
523.698	102.69
523.913	102.69
524.128	102.69
524.343	105.69
524.559	108.69
524.774	84.69
524.989	104.69
525.204	108.69
525.419	89.69
525.634	106.69
525.849	92.69
526.064	97.69
526.28	81.69
526.495	89.69
526.71	88.69
526.925	75.69
527.14	77.69
527.355	88.69
527.57	82.69
527.785	83.69
527.999	99.69
528.214	88.69
528.429	104.69
528.644	94.69
528.859	107.69
529.074	125.69
529.289	114.69
529.503	108.69
529.718	109.69
529.933	99.69
530.148	94.69
530.363	97.69
530.577	98.69
530.792	95.69
531.007	80.69
531.221	84.69
531.436	83.69
531.651	89.69
531.865	69.69
532.08	79.69
532.295	95.69
532.509	77.69
532.724	76.69
532.938	79.69
533.153	91.69
533.367	102.69
533.582	93.69
533.796	92.69
534.011	102.69
534.225	104.69
534.44	76.69
534.654	91.69
534.868	89.69
535.083	91.69
535.297	83.69
535.511	99.69
535.726	82.69
535.94	95.69
536.154	71.69
536.369	76.69
536.583	80.69
536.797	86.69
537.011	84.69
537.225	87.69
537.44	84.69
537.654	94.69
537.868	83.69
538.082	83.69
538.296	81.69
538.51	80.69
538.724	108.69
538.938	112.69
539.153	117.69
539.367	115.69
539.581	95.69
539.795	109.69
540.009	83.69
540.222	94.69
540.436	87.69
540.65	96.69
540.864	105.69
541.078	115.69
541.292	111.69
541.506	132.69
541.72	126.69
541.934	126.69
542.147	146.69
542.361	123.69
542.575	106.69
542.789	111.69
543.002	107.69
543.216	114.69
543.43	98.69
543.644	109.69
543.857	106.69
544.071	108.69
544.285	142.69
544.498	117.69
544.712	118.69
544.925	119.69
545.139	124.69
545.352	121.69
545.566	122.69
545.779	125.69
545.993	138.69
546.206	133.69
546.42	121.69
546.633	131.69
546.847	111.69
547.06	115.69
547.274	126.69
547.487	117.69
547.7	124.69
547.914	137.69
548.127	122.69
548.34	129.69
548.554	128.69
548.767	125.69
548.98	120.69
549.193	119.69
549.407	121.69
549.62	113.69
549.833	101.69
550.046	123.69
550.259	123.69
550.473	114.69
550.686	128.69
550.899	123.69
551.112	132.69
551.325	123.69
551.538	103.69
551.751	96.69
551.964	96.69
552.177	105.69
552.39	99.69
552.603	111.69
552.816	111.69
553.029	120.69
553.242	130.69
553.455	122.69
553.667	129.69
553.88	122.69
554.093	105.69
554.306	106.69
554.519	121.69
554.732	104.69
554.944	116.69
555.157	103.69
555.37	103.69
555.583	101.69
555.795	113.69
556.008	112.69
556.221	100.69
556.433	115.69
556.646	113.69
556.859	106.69
557.071	111.69
557.284	115.69
557.496	112.69
557.709	126.69
557.921	127.69
558.134	116.69
558.346	104.69
558.559	119.69
558.771	116.69
558.984	111.69
559.196	102.69
559.409	108.69
559.621	107.69
559.833	93.69
560.046	113.69
560.258	115.69
560.47	100.69
560.683	113.69
560.895	107.69
561.107	104.69
561.32	122.69
561.532	112.69
561.744	102.69
561.956	96.69
562.168	111.69
562.381	107.69
562.593	106.69
562.805	107.69
563.017	114.69
563.229	97.69
563.441	109.69
563.653	123.69
563.865	118.69
564.077	88.69
564.289	98.69
564.501	99.69
564.713	111.69
564.925	99.69
565.137	94.69
565.349	107.69
565.561	102.69
565.773	107.69
565.985	108.69
566.197	114.69
566.408	103.69
566.62	107.69
566.832	97.69
567.044	89.69
567.255	96.69
567.467	90.69
567.679	105.69
567.891	93.69
568.102	98.69
568.314	88.69
568.526	80.69
568.737	72.69
568.949	78.69
569.161	70.69
569.372	72.69
569.584	77.69
569.795	91.69
570.007	94.69
570.218	77.69
570.43	87.69
570.641	81.69
570.853	80.69
571.064	88.69
571.276	84.69
571.487	90.69
571.698	94.69
571.91	84.69
572.121	87.69
572.333	86.69
572.544	95.69
572.755	91.69
572.966	81.69
573.178	88.69
573.389	81.69
573.6	86.69
573.811	99.69
574.023	81.69
574.234	77.69
574.445	89.69
574.656	95.69
574.867	90.69
575.078	90.69
575.289	90.69
575.501	94.69
575.712	83.69
575.923	88.69
576.134	74.69
576.345	90.69
576.556	93.69
576.767	89.69
576.978	91.69
577.188	85.69
577.399	95.69
577.61	86.69
577.821	83.69
578.032	97.69
578.243	91.69
578.454	95.69
578.665	96.69
578.875	83.69
579.086	86.69
579.297	83.69
579.508	98.69
579.718	77.69
579.929	81.69
580.14	88.69
580.35	81.69
580.561	98.69
580.772	87.69
580.982	90.69
581.193	89.69
581.403	93.69
581.614	82.69
581.825	88.69
582.035	87.69
582.246	83.69
582.456	93.69
582.667	95.69
582.877	90.69
583.087	89.69
583.298	91.69
583.508	78.69
583.719	75.69
583.929	81.69
584.139	76.69
584.35	83.69
584.56	79.69
584.77	105.69
584.981	93.69
585.191	83.69
585.401	82.69
585.611	72.69
585.821	87.69
586.032	92.69
586.242	81.69
586.452	84.69
586.662	78.69
586.872	74.69
587.082	91.69
587.292	87.69
587.502	90.69
587.713	78.69
587.923	104.69
588.133	77.69
588.343	81.69
588.553	90.69
588.762	81.69
588.972	93.69
589.182	86.69
589.392	95.69
589.602	97.69
589.812	93.69
590.022	91.69
590.232	88.69
590.441	83.69
590.651	70.69
590.861	74.69
591.071	65.69
591.281	90.69
591.49	83.69
591.7	84.69
591.91	91.69
592.119	92.69
592.329	72.69
592.539	80.69
592.748	81.69
592.958	80.69
593.167	84.69
593.377	83.69
593.587	88.69
593.796	82.69
594.006	83.69
594.215	88.69
594.424	71.69
594.634	82.69
594.843	86.69
595.053	87.69
595.262	76.69
595.472	89.69
595.681	101.69
595.89	93.69
596.1	85.69
596.309	86.69
596.518	89.69
596.727	79.69
596.937	96.69
597.146	77.69
597.355	77.69
597.564	96.69
597.774	87.69
597.983	83.69
598.192	80.69
598.401	75.69
598.61	88.69
598.819	87.69
599.028	82.69
599.237	87.69
599.446	83.69
599.655	83.69
599.864	82.69
600.073	81.69
600.282	93.69
600.491	73.69
600.7	86.69
600.909	83.69
601.118	87.69
601.327	92.69
601.536	112.69
601.745	93.69
601.953	95.69
602.162	97.69
602.371	99.69
602.58	95.69
602.789	100.69
602.997	91.69
603.206	102.69
603.415	95.69
603.623	99.69
603.832	89.69
604.041	92.69
604.249	96.69
604.458	102.69
604.666	93.69
604.875	84.69
605.084	92.69
605.292	98.69
605.501	95.69
605.709	86.69
605.918	89.69
606.126	88.69
606.334	98.69
606.543	113.69
606.751	111.69
606.96	104.69
607.168	96.69
607.376	97.69
607.585	88.69
607.793	100.69
608.001	88.69
608.21	104.69
608.418	109.69
608.626	92.69
608.834	106.69
609.043	95.69
609.251	100.69
609.459	91.69
609.667	105.69
609.875	101.69
610.083	91.69
610.291	99.69
610.499	97.69
610.707	112.69
610.916	103.69
611.124	93.69
611.332	90.69
611.54	106.69
611.748	98.69
611.955	99.69
612.163	100.69
612.371	109.69
612.579	77.69
612.787	88.69
612.995	99.69
613.203	102.69
613.411	108.69
613.618	86.69
613.826	102.69
614.034	108.69
614.242	108.69
614.449	101.69
614.657	90.69
614.865	86.69
615.072	91.69
615.28	104.69
615.488	101.69
615.695	95.69
615.903	126.69
616.111	111.69
616.318	91.69
616.526	90.69
616.733	96.69
616.941	101.69
617.148	80.69
617.356	108.69
617.563	97.69
617.771	101.69
617.978	88.69
618.185	103.69
618.393	99.69
618.6	91.69
618.807	99.69
619.015	107.69
619.222	95.69
619.429	100.69
619.637	93.69
619.844	97.69
620.051	92.69
620.258	79.69
620.466	95.69
620.673	92.69
620.88	95.69
621.087	90.69
621.294	83.69
621.501	67.69
621.708	95.69
621.915	83.69
622.122	89.69
622.329	89.69
622.536	81.69
622.743	93.69
622.95	99.69
623.157	89.69
623.364	87.69
623.571	86.69
623.778	97.69
623.985	100.69
624.192	90.69
624.399	86.69
624.606	101.69
624.812	87.69
625.019	93.69
625.226	90.69
625.433	108.69
625.639	93.69
625.846	81.69
626.053	76.69
626.259	91.69
626.466	90.69
626.673	89.69
626.879	90.69
627.086	94.69
627.293	83.69
627.499	77.69
627.706	83.69
627.912	79.69
628.119	78.69
628.325	97.69
628.532	93.69
628.738	93.69
628.945	95.69
629.151	86.69
629.357	84.69
629.564	108.69
629.77	101.69
629.976	101.69
630.183	80.69
630.389	78.69
630.595	85.69
630.802	87.69
631.008	104.69
631.214	83.69
631.42	85.69
631.627	89.69
631.833	98.69
632.039	87.69
632.245	88.69
632.451	95.69
632.657	99.69
632.863	89.69
633.069	92.69
633.275	82.69
633.481	90.69
633.688	88.69
633.893	79.69
634.099	76.69
634.305	94.69
634.511	66.69
634.717	84.69
634.923	77.69
635.129	91.69
635.335	83.69
635.541	75.69
635.747	80.69
635.952	85.69
636.158	93.69
636.364	87.69
636.57	86.69
636.775	84.69
636.981	78.69
637.187	87.69
637.392	106.69
637.598	98.69
637.804	104.69
638.009	103.69
638.215	94.69
638.421	99.69
638.626	99.69
638.832	88.69
639.037	89.69
639.243	72.69
639.448	96.69
639.654	84.69
639.859	98.69
640.065	76.69
640.27	108.69
640.475	102.69
640.681	73.69
640.886	89.69
641.091	104.69
641.297	92.69
641.502	92.69
641.707	99.69
641.913	75.69
642.118	95.69
642.323	91.69
642.528	96.69
642.733	93.69
642.939	82.69
643.144	94.69
643.349	98.69
643.554	99.69
643.759	98.69
643.964	92.69
644.169	92.69
644.374	92.69
644.579	86.69
644.784	88.69
644.989	84.69
645.194	88.69
645.399	85.69
645.604	87.69
645.809	97.69
646.014	102.69
646.219	82.69
646.423	77.69
646.628	91.69
646.833	95.69
647.038	89.69
647.243	103.69
647.447	74.69
647.652	99.69
647.857	101.69
648.062	92.69
648.266	88.69
648.471	85.69
648.676	94.69
648.88	74.69
649.085	88.69
649.289	93.69
649.494	81.69
649.698	91.69
649.903	76.69
650.107	93.69
650.312	96.69
650.516	90.69
650.721	87.69
650.925	96.69
651.13	87.69
651.334	85.69
651.539	101.69
651.743	90.69
651.947	84.69
652.152	91.69
652.356	86.69
652.56	89.69
652.764	98.69
652.969	77.69
653.173	58.69
653.377	92.69
653.581	93.69
653.785	69.69
653.99	80.69
654.194	93.69
654.398	76.69
654.602	89.69
654.806	87.69
655.01	83.69
655.214	88.69
655.418	83.69
655.622	87.69
655.826	92.69
656.03	86.69
656.234	84.69
656.438	89.69
656.642	97.69
656.846	84.69
657.049	80.69
657.253	85.69
657.457	95.69
657.661	75.69
657.865	95.69
658.068	85.69
658.272	69.69
658.476	83.69
658.68	67.69
658.883	84.69
659.087	70.69
659.291	88.69
659.494	80.69
659.698	96.69
659.901	87.69
660.105	96.69
660.309	87.69
660.512	83.69
660.716	88.69
660.919	68.69
661.123	82.69
661.326	83.69
661.53	73.69
661.733	97.69
661.936	84.69
662.14	82.69
662.343	75.69
662.546	72.69
662.75	79.69
662.953	87.69
663.156	89.69
663.36	80.69
663.563	74.69
663.766	71.69
663.969	84.69
664.173	91.69
664.376	90.69
664.579	90.69
664.782	86.69
664.985	80.69
665.188	83.69
665.391	72.69
665.594	76.69
665.797	96.69
666	66.69
666.203	76.69
666.406	80.69
666.609	84.69
666.812	79.69
667.015	92.69
667.218	72.69
667.421	81.69
667.624	92.69
667.827	90.69
668.03	92.69
668.232	74.69
668.435	74.69
668.638	77.69
668.841	83.69
669.043	77.69
669.246	78.69
669.449	94.69
669.651	74.69
669.854	79.69
670.057	70.69
670.259	71.69
670.462	86.69
670.665	83.69
670.867	76.69
671.07	86.69
671.272	78.69
671.475	91.69
671.677	80.69
671.88	87.69
672.082	75.69
672.284	91.69
672.487	82.69
672.689	80.69
672.892	85.69
