Data from Zn(NO3)2Standard.Agarose3%.GreenCap.LampEnergy5.5.E.O_HRD10591_15-03-23-768.txt Node
Date: Mon Jul 22 15:03:23 EDT 2019
User: cochatt
Spectrometer: HR+D1059
Trigger mode: 1
Integration Time (sec): 1.000000E-1
Scans to average: 1
Electric dark correction enabled: true
Nonlinearity correction enabled: false
Boxcar width: 0
XAxis mode: Wavelengths
Number of Pixels in Spectrum: 2048
>>>>>Begin Spectral Data<<<<<
223.165	-15.12
223.4	-15.12
223.635	-15.12
223.869	-17.12
224.104	-4.12
224.338	-36.12
224.573	-23.12
224.808	-13.12
225.042	-7.12
225.277	16.88
225.511	5.88
225.746	1.88
225.98	15.88
226.215	12.88
226.449	5.88
226.683	18.88
226.918	24.88
227.152	12.88
227.387	25.88
227.621	39.88
227.856	57.88
228.09	49.88
228.324	41.88
228.559	48.88
228.793	57.88
229.027	66.88
229.262	54.88
229.496	65.88
229.73	67.88
229.964	73.88
230.199	64.88
230.433	71.88
230.667	73.88
230.901	72.88
231.136	82.88
231.37	69.88
231.604	74.88
231.838	73.88
232.072	75.88
232.306	81.88
232.541	90.88
232.775	86.88
233.009	85.88
233.243	74.88
233.477	72.88
233.711	79.88
233.945	79.88
234.179	65.88
234.413	81.88
234.647	86.88
234.881	89.88
235.115	93.88
235.349	70.88
235.583	58.88
235.817	88.88
236.051	82.88
236.285	79.88
236.519	79.88
236.753	86.88
236.987	68.88
237.221	87.88
237.455	75.88
237.689	71.88
237.922	78.88
238.156	73.88
238.39	69.88
238.624	63.88
238.858	71.88
239.091	82.88
239.325	77.88
239.559	60.88
239.793	72.88
240.027	80.88
240.26	88.88
240.494	83.88
240.728	80.88
240.961	85.88
241.195	75.88
241.429	81.88
241.662	60.88
241.896	71.88
242.13	76.88
242.363	79.88
242.597	68.88
242.83	82.88
243.064	76.88
243.298	73.88
243.531	75.88
243.765	73.88
243.998	79.88
244.232	83.88
244.465	71.88
244.699	72.88
244.932	83.88
245.166	83.88
245.399	87.88
245.633	72.88
245.866	77.88
246.099	83.88
246.333	87.88
246.566	67.88
246.8	76.88
247.033	79.88
247.266	77.88
247.5	82.88
247.733	84.88
247.966	90.88
248.2	68.88
248.433	82.88
248.666	67.88
248.899	84.88
249.133	71.88
249.366	87.88
249.599	77.88
249.832	76.88
250.066	69.88
250.299	70.88
250.532	77.88
250.765	75.88
250.998	69.88
251.231	79.88
251.465	81.88
251.698	74.88
251.931	93.88
252.164	79.88
252.397	79.88
252.63	86.88
252.863	65.88
253.096	86.88
253.329	78.88
253.562	72.88
253.795	82.88
254.028	75.88
254.261	71.88
254.494	85.88
254.727	74.88
254.96	77.88
255.193	69.88
255.426	65.88
255.659	86.88
255.892	84.88
256.124	72.88
256.357	85.88
256.59	79.88
256.823	73.88
257.056	73.88
257.289	66.88
257.521	87.88
257.754	95.88
257.987	66.88
258.22	70.88
258.452	78.88
258.685	92.88
258.918	78.88
259.151	79.88
259.383	79.88
259.616	78.88
259.849	74.88
260.081	85.88
260.314	83.88
260.547	71.88
260.779	87.88
261.012	79.88
261.244	69.88
261.477	64.88
261.71	73.88
261.942	69.88
262.175	74.88
262.407	61.88
262.64	69.88
262.872	73.88
263.105	74.88
263.337	75.88
263.57	85.88
263.802	89.88
264.035	86.88
264.267	75.88
264.499	77.88
264.732	67.88
264.964	96.88
265.197	93.88
265.429	84.88
265.661	86.88
265.894	87.88
266.126	101.88
266.358	94.88
266.591	79.88
266.823	72.88
267.055	75.88
267.287	74.88
267.52	81.88
267.752	77.88
267.984	85.88
268.216	79.88
268.448	80.88
268.681	81.88
268.913	88.88
269.145	86.88
269.377	68.88
269.609	62.88
269.841	86.88
270.073	73.88
270.306	78.88
270.538	70.88
270.77	79.88
271.002	73.88
271.234	75.88
271.466	81.88
271.698	79.88
271.93	73.88
272.162	69.88
272.394	85.88
272.626	73.88
272.858	67.88
273.09	89.88
273.322	86.88
273.553	82.88
273.785	73.88
274.017	85.88
274.249	77.88
274.481	80.88
274.713	80.88
274.945	81.88
275.176	71.88
275.408	74.88
275.64	79.88
275.872	79.88
276.104	83.88
276.335	73.88
276.567	73.88
276.799	77.88
277.031	66.88
277.262	79.88
277.494	79.88
277.726	79.88
277.957	82.88
278.189	89.88
278.421	75.88
278.652	68.88
278.884	73.88
279.115	75.88
279.347	69.88
279.579	70.88
279.81	88.88
280.042	74.88
280.273	82.88
280.505	81.88
280.736	81.88
280.968	78.88
281.199	74.88
281.431	80.88
281.662	92.88
281.894	77.88
282.125	88.88
282.356	75.88
282.588	75.88
282.819	82.88
283.051	84.88
283.282	64.88
283.513	73.88
283.745	97.88
283.976	81.88
284.207	82.88
284.439	82.88
284.67	82.88
284.901	82.88
285.132	74.88
285.364	88.88
285.595	91.88
285.826	103.88
286.057	76.88
286.288	80.88
286.52	81.88
286.751	87.88
286.982	79.88
287.213	83.88
287.444	80.88
287.675	78.88
287.906	86.88
288.138	85.88
288.369	79.88
288.6	88.88
288.831	76.88
289.062	80.88
289.293	83.88
289.524	62.88
289.755	72.88
289.986	70.88
290.217	68.88
290.448	65.88
290.679	77.88
290.91	76.88
291.141	74.88
291.371	88.88
291.602	93.88
291.833	76.88
292.064	82.88
292.295	89.88
292.526	76.88
292.757	76.88
292.987	75.88
293.218	63.88
293.449	78.88
293.68	82.88
293.91	90.88
294.141	84.88
294.372	91.88
294.603	75.88
294.833	83.88
295.064	72.88
295.295	83.88
295.525	90.88
295.756	78.88
295.987	68.88
296.217	83.88
296.448	80.88
296.679	87.88
296.909	64.88
297.14	86.88
297.37	85.88
297.601	69.88
297.831	71.88
298.062	94.88
298.292	102.88
298.523	74.88
298.753	68.88
298.984	73.88
299.214	79.88
299.445	86.88
299.675	83.88
299.905	71.88
300.136	64.88
300.366	78.88
300.597	80.88
300.827	77.88
301.057	92.88
301.288	85.88
301.518	98.88
301.748	90.88
301.979	96.88
302.209	86.88
302.439	83.88
302.669	82.88
302.9	89.88
303.13	99.88
303.36	86.88
303.59	73.88
303.82	87.88
304.051	81.88
304.281	87.88
304.511	78.88
304.741	80.88
304.971	82.88
305.201	73.88
305.431	86.88
305.661	69.88
305.891	82.88
306.121	79.88
306.352	79.88
306.582	76.88
306.812	87.88
307.042	80.88
307.272	85.88
307.502	73.88
307.731	73.88
307.961	80.88
308.191	78.88
308.421	85.88
308.651	86.88
308.881	79.88
309.111	79.88
309.341	87.88
309.571	84.88
309.8	80.88
310.03	75.88
310.26	79.88
310.49	94.88
310.72	74.88
310.949	87.88
311.179	74.88
311.409	78.88
311.639	88.88
311.868	74.88
312.098	77.88
312.328	75.88
312.557	97.88
312.787	90.88
313.017	86.88
313.246	87.88
313.476	95.88
313.706	88.88
313.935	81.88
314.165	72.88
314.394	88.88
314.624	70.88
314.853	80.88
315.083	88.88
315.312	76.88
315.542	72.88
315.771	90.88
316.001	77.88
316.23	88.88
316.46	82.88
316.689	75.88
316.919	80.88
317.148	90.88
317.377	74.88
317.607	83.88
317.836	77.88
318.065	83.88
318.295	72.88
318.524	83.88
318.753	77.88
318.983	88.88
319.212	76.88
319.441	67.88
319.67	75.88
319.9	73.88
320.129	87.88
320.358	64.88
320.587	72.88
320.816	83.88
321.046	73.88
321.275	85.88
321.504	91.88
321.733	79.88
321.962	83.88
322.191	81.88
322.42	74.88
322.649	91.88
322.878	83.88
323.108	88.88
323.337	74.88
323.566	73.88
323.795	67.88
324.024	80.88
324.253	74.88
324.482	79.88
324.71	81.88
324.939	83.88
325.168	78.88
325.397	84.88
325.626	83.88
325.855	89.88
326.084	84.88
326.313	78.88
326.542	76.88
326.77	83.88
326.999	81.88
327.228	94.88
327.457	77.88
327.686	83.88
327.914	71.88
328.143	75.88
328.372	83.88
328.6	76.88
328.829	80.88
329.058	84.88
329.287	81.88
329.515	74.88
329.744	73.88
329.972	72.88
330.201	78.88
330.43	76.88
330.658	73.88
330.887	75.88
331.115	85.88
331.344	94.88
331.572	88.88
331.801	81.88
332.03	87.88
332.258	81.88
332.486	82.88
332.715	84.88
332.943	89.88
333.172	75.88
333.4	72.88
333.629	82.88
333.857	82.88
334.085	65.88
334.314	80.88
334.542	74.88
334.771	81.88
334.999	80.88
335.227	80.88
335.455	75.88
335.684	99.88
335.912	75.88
336.14	94.88
336.369	81.88
336.597	87.88
336.825	81.88
337.053	85.88
337.281	85.88
337.51	81.88
337.738	88.88
337.966	77.88
338.194	81.88
338.422	90.88
338.65	90.88
338.878	82.88
339.106	78.88
339.334	81.88
339.562	88.88
339.79	81.88
340.018	67.88
340.246	83.88
340.474	74.88
340.702	77.88
340.93	73.88
341.158	86.88
341.386	85.88
341.614	62.88
341.842	83.88
342.07	91.88
342.298	82.88
342.526	68.88
342.754	75.88
342.981	83.88
343.209	79.88
343.437	86.88
343.665	75.88
343.893	93.88
344.12	70.88
344.348	97.88
344.576	82.88
344.804	90.88
345.031	80.88
345.259	83.88
345.487	75.88
345.714	85.88
345.942	79.88
346.17	87.88
346.397	80.88
346.625	80.88
346.853	87.88
347.08	79.88
347.308	88.88
347.535	81.88
347.763	76.88
347.99	74.88
348.218	98.88
348.445	86.88
348.673	86.88
348.9	73.88
349.128	82.88
349.355	79.88
349.583	95.88
349.81	68.88
350.037	89.88
350.265	74.88
350.492	92.88
350.72	79.88
350.947	69.88
351.174	74.88
351.402	79.88
351.629	75.88
351.856	90.88
352.083	95.88
352.311	93.88
352.538	75.88
352.765	84.88
352.992	79.88
353.22	87.88
353.447	86.88
353.674	81.88
353.901	70.88
354.128	70.88
354.355	89.88
354.583	65.88
354.81	81.88
355.037	78.88
355.264	79.88
355.491	85.88
355.718	66.88
355.945	84.88
356.172	80.88
356.399	74.88
356.626	79.88
356.853	65.88
357.08	81.88
357.307	88.88
357.534	83.88
357.761	89.88
357.988	76.88
358.215	69.88
358.441	78.88
358.668	68.88
358.895	86.88
359.122	73.88
359.349	90.88
359.576	86.88
359.802	85.88
360.029	86.88
360.256	82.88
360.483	82.88
360.709	83.88
360.936	75.88
361.163	84.88
361.39	88.88
361.616	80.88
361.843	73.88
362.07	95.88
362.296	82.88
362.523	78.88
362.749	70.88
362.976	75.88
363.203	98.88
363.429	100.88
363.656	69.88
363.882	80.88
364.109	94.88
364.335	80.88
364.562	79.88
364.788	87.88
365.015	71.88
365.241	73.88
365.468	91.88
365.694	81.88
365.92	72.88
366.147	81.88
366.373	70.88
366.599	78.88
366.826	89.88
367.052	73.88
367.278	75.88
367.505	89.88
367.731	86.88
367.957	91.88
368.184	75.88
368.41	82.88
368.636	82.88
368.862	69.88
369.089	79.88
369.315	78.88
369.541	74.88
369.767	75.88
369.993	85.88
370.219	97.88
370.445	81.88
370.672	82.88
370.898	90.88
371.124	68.88
371.35	77.88
371.576	73.88
371.802	74.88
372.028	68.88
372.254	95.88
372.48	72.88
372.706	79.88
372.932	72.88
373.158	77.88
373.384	81.88
373.61	77.88
373.835	69.88
374.061	83.88
374.287	83.88
374.513	78.88
374.739	71.88
374.965	86.88
375.191	88.88
375.416	79.88
375.642	62.88
375.868	86.88
376.094	77.88
376.319	71.88
376.545	82.88
376.771	82.88
376.997	81.88
377.222	75.88
377.448	71.88
377.674	82.88
377.899	81.88
378.125	73.88
378.35	95.88
378.576	67.88
378.802	70.88
379.027	87.88
379.253	86.88
379.478	81.88
379.704	83.88
379.929	88.88
380.155	78.88
380.38	66.88
380.606	86.88
380.831	72.88
381.057	94.88
381.282	83.88
381.507	66.88
381.733	82.88
381.958	85.88
382.184	69.88
382.409	81.88
382.634	89.88
382.86	76.88
383.085	72.88
383.31	72.88
383.535	74.88
383.761	75.88
383.986	80.88
384.211	76.88
384.436	80.88
384.662	90.88
384.887	90.88
385.112	76.88
385.337	72.88
385.562	88.88
385.787	79.88
386.013	80.88
386.238	84.88
386.463	90.88
386.688	70.88
386.913	89.88
387.138	111.88
387.363	92.88
387.588	81.88
387.813	72.88
388.038	74.88
388.263	78.88
388.488	73.88
388.713	71.88
388.938	83.88
389.163	78.88
389.387	86.88
389.612	84.88
389.837	75.88
390.062	86.88
390.287	79.88
390.512	66.88
390.736	81.88
390.961	77.88
391.186	93.88
391.411	74.88
391.636	59.88
391.86	86.88
392.085	79.88
392.31	69.88
392.534	90.88
392.759	64.88
392.984	86.88
393.208	81.88
393.433	76.88
393.658	79.88
393.882	85.88
394.107	81.88
394.331	77.88
394.556	81.88
394.78	72.88
395.005	84.88
395.229	82.88
395.454	82.88
395.678	84.88
395.903	78.88
396.127	97.88
396.352	86.88
396.576	75.88
396.801	73.88
397.025	75.88
397.249	72.88
397.474	79.88
397.698	63.88
397.922	88.88
398.147	71.88
398.371	81.88
398.595	79.88
398.82	91.88
399.044	77.88
399.268	67.88
399.492	77.88
399.717	87.88
399.941	79.88
400.165	91.88
400.389	90.88
400.613	82.88
400.837	94.88
401.062	78.88
401.286	88.88
401.51	88.88
401.734	91.88
401.958	74.88
402.182	73.88
402.406	90.88
402.63	78.88
402.854	81.88
403.078	80.88
403.302	89.88
403.526	83.88
403.75	74.88
403.974	72.88
404.198	81.88
404.422	72.88
404.645	89.88
404.869	79.88
405.093	78.88
405.317	84.88
405.541	86.88
405.765	73.88
405.988	81.88
406.212	82.88
406.436	74.88
406.66	74.88
406.883	80.88
407.107	86.88
407.331	66.88
407.555	84.88
407.778	69.88
408.002	76.88
408.226	87.88
408.449	88.88
408.673	75.88
408.896	80.88
409.12	91.88
409.344	81.88
409.567	81.88
409.791	70.88
410.014	84.88
410.238	81.88
410.461	83.88
410.685	86.88
410.908	88.88
411.132	86.88
411.355	91.88
411.578	86.88
411.802	85.88
412.025	80.88
412.249	85.88
412.472	70.88
412.695	76.88
412.919	77.88
413.142	86.88
413.365	85.88
413.589	87.88
413.812	76.88
414.035	70.88
414.258	86.88
414.482	79.88
414.705	86.88
414.928	79.88
415.151	81.88
415.374	99.88
415.597	86.88
415.821	85.88
416.044	95.88
416.267	94.88
416.49	90.88
416.713	77.88
416.936	83.88
417.159	85.88
417.382	73.88
417.605	88.88
417.828	81.88
418.051	81.88
418.274	94.88
418.497	73.88
418.72	77.88
418.943	80.88
419.166	96.88
419.389	73.88
419.611	88.88
419.834	75.88
420.057	90.88
420.28	84.88
420.503	88.88
420.726	80.88
420.948	81.88
421.171	97.88
421.394	90.88
421.617	80.88
421.839	89.88
422.062	87.88
422.285	96.88
422.507	89.88
422.73	80.88
422.953	74.88
423.175	79.88
423.398	87.88
423.621	103.88
423.843	92.88
424.066	88.88
424.288	101.88
424.511	93.88
424.733	76.88
424.956	78.88
425.178	88.88
425.401	77.88
425.623	90.88
425.846	79.88
426.068	80.88
426.291	80.88
426.513	80.88
426.735	93.88
426.958	78.88
427.18	95.88
427.402	83.88
427.625	70.88
427.847	65.88
428.069	75.88
428.292	90.88
428.514	105.88
428.736	88.88
428.958	85.88
429.181	87.88
429.403	94.88
429.625	97.88
429.847	92.88
430.069	82.88
430.292	88.88
430.514	73.88
430.736	78.88
430.958	87.88
431.18	86.88
431.402	81.88
431.624	83.88
431.846	76.88
432.068	90.88
432.29	90.88
432.512	73.88
432.734	79.88
432.956	95.88
433.178	87.88
433.4	77.88
433.622	86.88
433.844	90.88
434.066	83.88
434.287	74.88
434.509	72.88
434.731	89.88
434.953	88.88
435.175	115.88
435.397	101.88
435.618	89.88
435.84	81.88
436.062	80.88
436.284	75.88
436.505	71.88
436.727	90.88
436.949	59.88
437.17	94.88
437.392	94.88
437.614	88.88
437.835	94.88
438.057	74.88
438.278	75.88
438.5	79.88
438.721	80.88
438.943	97.88
439.165	78.88
439.386	87.88
439.608	73.88
439.829	74.88
440.05	79.88
440.272	83.88
440.493	91.88
440.715	93.88
440.936	80.88
441.158	86.88
441.379	85.88
441.6	92.88
441.822	92.88
442.043	80.88
442.264	96.88
442.486	93.88
442.707	96.88
442.928	85.88
443.149	86.88
443.371	89.88
443.592	73.88
443.813	82.88
444.034	73.88
444.255	98.88
444.476	97.88
444.698	76.88
444.919	92.88
445.14	216.88
445.361	147.88
445.582	94.88
445.803	93.88
446.024	95.88
446.245	97.88
446.466	96.88
446.687	86.88
446.908	108.88
447.129	89.88
447.35	88.88
447.571	81.88
447.792	90.88
448.013	72.88
448.234	94.88
448.455	95.88
448.675	90.88
448.896	81.88
449.117	93.88
449.338	90.88
449.559	97.88
449.779	90.88
450	87.88
450.221	86.88
450.442	98.88
450.662	94.88
450.883	84.88
451.104	99.88
451.324	90.88
451.545	68.88
451.766	84.88
451.986	78.88
452.207	85.88
452.428	89.88
452.648	80.88
452.869	83.88
453.089	83.88
453.31	87.88
453.53	89.88
453.751	82.88
453.971	71.88
454.192	71.88
454.412	85.88
454.633	76.88
454.853	99.88
455.073	87.88
455.294	82.88
455.514	71.88
455.734	87.88
455.955	85.88
456.175	87.88
456.395	85.88
456.616	74.88
456.836	83.88
457.056	98.88
457.276	71.88
457.497	73.88
457.717	84.88
457.937	94.88
458.157	86.88
458.377	72.88
458.598	86.88
458.818	91.88
459.038	77.88
459.258	74.88
459.478	70.88
459.698	73.88
459.918	92.88
460.138	83.88
460.358	90.88
460.578	73.88
460.798	80.88
461.018	78.88
461.238	85.88
461.458	81.88
461.678	78.88
461.898	75.88
462.118	89.88
462.338	79.88
462.558	82.88
462.777	89.88
462.997	85.88
463.217	75.88
463.437	69.88
463.657	80.88
463.876	79.88
464.096	74.88
464.316	84.88
464.536	80.88
464.755	78.88
464.975	71.88
465.195	86.88
465.414	83.88
465.634	86.88
465.854	104.88
466.073	81.88
466.293	82.88
466.512	92.88
466.732	89.88
466.951	81.88
467.171	83.88
467.391	78.88
467.61	100.88
467.829	86.88
468.049	92.88
468.268	81.88
468.488	85.88
468.707	92.88
468.927	90.88
469.146	101.88
469.365	98.88
469.585	91.88
469.804	88.88
470.023	102.88
470.243	84.88
470.462	82.88
470.681	90.88
470.901	88.88
471.12	93.88
471.339	101.88
471.558	81.88
471.777	91.88
471.997	93.88
472.216	91.88
472.435	89.88
472.654	91.88
472.873	81.88
473.092	97.88
473.311	85.88
473.53	106.88
473.749	94.88
473.968	91.88
474.187	89.88
474.406	95.88
474.625	85.88
474.844	101.88
475.063	94.88
475.282	87.88
475.501	87.88
475.72	89.88
475.939	90.88
476.158	78.88
476.377	97.88
476.596	79.88
476.814	89.88
477.033	86.88
477.252	77.88
477.471	95.88
477.69	91.88
477.908	84.88
478.127	82.88
478.346	94.88
478.564	92.88
478.783	71.88
479.002	81.88
479.22	77.88
479.439	76.88
479.658	82.88
479.876	82.88
480.095	84.88
480.313	74.88
480.532	80.88
480.751	72.88
480.969	83.88
481.188	84.88
481.406	82.88
481.624	73.88
481.843	72.88
482.061	73.88
482.28	80.88
482.498	91.88
482.717	86.88
482.935	93.88
483.153	99.88
483.372	101.88
483.59	89.88
483.808	90.88
484.027	96.88
484.245	80.88
484.463	89.88
484.681	97.88
484.9	81.88
485.118	96.88
485.336	92.88
485.554	80.88
485.772	70.88
485.99	88.88
486.209	83.88
486.427	89.88
486.645	76.88
486.863	86.88
487.081	98.88
487.299	89.88
487.517	88.88
487.735	95.88
487.953	99.88
488.171	109.88
488.389	106.88
488.607	88.88
488.825	86.88
489.043	68.88
489.261	102.88
489.479	94.88
489.696	83.88
489.914	81.88
490.132	85.88
490.35	93.88
490.568	95.88
490.786	102.88
491.003	83.88
491.221	87.88
491.439	101.88
491.657	103.88
491.874	95.88
492.092	99.88
492.31	98.88
492.527	90.88
492.745	105.88
492.963	85.88
493.18	109.88
493.398	104.88
493.615	95.88
493.833	107.88
494.05	96.88
494.268	103.88
494.485	98.88
494.703	107.88
494.92	106.88
495.138	96.88
495.355	94.88
495.573	94.88
495.79	94.88
496.008	94.88
496.225	97.88
496.442	97.88
496.66	97.88
496.877	95.88
497.094	100.88
497.312	103.88
497.529	90.88
497.746	91.88
497.963	89.88
498.181	73.88
498.398	73.88
498.615	82.88
498.832	98.88
499.049	92.88
499.267	92.88
499.484	93.88
499.701	89.88
499.918	85.88
500.135	78.88
500.352	87.88
500.569	96.88
500.786	94.88
501.003	95.88
501.22	87.88
501.437	84.88
501.654	82.88
501.871	86.88
502.088	90.88
502.305	87.88
502.522	106.88
502.739	97.88
502.956	81.88
503.172	81.88
503.389	82.88
503.606	80.88
503.823	91.88
504.04	88.88
504.256	99.88
504.473	87.88
504.69	78.88
504.907	97.88
505.123	87.88
505.34	75.88
505.557	101.88
505.773	89.88
505.99	87.88
506.207	97.88
506.423	83.88
506.64	71.88
506.856	89.88
507.073	83.88
507.289	86.88
507.506	94.88
507.722	95.88
507.939	78.88
508.155	83.88
508.372	67.88
508.588	100.88
508.805	93.88
509.021	92.88
509.238	81.88
509.454	83.88
509.67	78.88
509.887	79.88
510.103	91.88
510.319	75.88
510.536	73.88
510.752	74.88
510.968	87.88
511.184	77.88
511.401	77.88
511.617	88.88
511.833	94.88
512.049	76.88
512.265	96.88
512.481	88.88
512.698	96.88
512.914	66.88
513.13	88.88
513.346	75.88
513.562	73.88
513.778	76.88
513.994	83.88
514.21	85.88
514.426	81.88
514.642	87.88
514.858	87.88
515.074	79.88
515.29	86.88
515.506	78.88
515.721	76.88
515.937	79.88
516.153	90.88
516.369	101.88
516.585	78.88
516.801	76.88
517.016	97.88
517.232	77.88
517.448	79.88
517.664	88.88
517.879	99.88
518.095	90.88
518.311	73.88
518.527	101.88
518.742	81.88
518.958	85.88
519.173	83.88
519.389	92.88
519.605	97.88
519.82	82.88
520.036	88.88
520.251	100.88
520.467	94.88
520.682	89.88
520.898	83.88
521.113	87.88
521.329	73.88
521.544	77.88
521.76	86.88
521.975	82.88
522.19	76.88
522.406	86.88
522.621	91.88
522.836	87.88
523.052	93.88
523.267	89.88
523.482	93.88
523.698	89.88
523.913	96.88
524.128	85.88
524.343	82.88
524.559	92.88
524.774	90.88
524.989	74.88
525.204	74.88
525.419	91.88
525.634	76.88
525.849	83.88
526.064	87.88
526.28	79.88
526.495	88.88
526.71	75.88
526.925	73.88
527.14	90.88
527.355	83.88
527.57	81.88
527.785	83.88
527.999	80.88
528.214	77.88
528.429	88.88
528.644	89.88
528.859	85.88
529.074	96.88
529.289	82.88
529.503	95.88
529.718	91.88
529.933	94.88
530.148	91.88
530.363	78.88
530.577	80.88
530.792	82.88
531.007	87.88
531.221	97.88
531.436	84.88
531.651	83.88
531.865	72.88
532.08	73.88
532.295	79.88
532.509	92.88
532.724	67.88
532.938	91.88
533.153	82.88
533.367	73.88
533.582	88.88
533.796	89.88
534.011	97.88
534.225	77.88
534.44	101.88
534.654	83.88
534.868	71.88
535.083	81.88
535.297	88.88
535.511	89.88
535.726	96.88
535.94	81.88
536.154	74.88
536.369	89.88
536.583	84.88
536.797	81.88
537.011	79.88
537.225	82.88
537.44	78.88
537.654	75.88
537.868	74.88
538.082	100.88
538.296	84.88
538.51	90.88
538.724	83.88
538.938	80.88
539.153	88.88
539.367	90.88
539.581	93.88
539.795	91.88
540.009	67.88
540.222	70.88
540.436	78.88
540.65	90.88
540.864	100.88
541.078	89.88
541.292	89.88
541.506	92.88
541.72	88.88
541.934	93.88
542.147	102.88
542.361	102.88
542.575	87.88
542.789	90.88
543.002	92.88
543.216	88.88
543.43	97.88
543.644	101.88
543.857	95.88
544.071	87.88
544.285	93.88
544.498	93.88
544.712	89.88
544.925	91.88
545.139	96.88
545.352	110.88
545.566	113.88
545.779	89.88
545.993	94.88
546.206	98.88
546.42	91.88
546.633	111.88
546.847	109.88
547.06	105.88
547.274	93.88
547.487	98.88
547.7	100.88
547.914	94.88
548.127	86.88
548.34	82.88
548.554	94.88
548.767	95.88
548.98	105.88
549.193	97.88
549.407	87.88
549.62	94.88
549.833	105.88
550.046	95.88
550.259	99.88
550.473	92.88
550.686	103.88
550.899	86.88
551.112	83.88
551.325	105.88
551.538	84.88
551.751	80.88
551.964	91.88
552.177	93.88
552.39	77.88
552.603	85.88
552.816	85.88
553.029	87.88
553.242	98.88
553.455	95.88
553.667	91.88
553.88	105.88
554.093	86.88
554.306	95.88
554.519	101.88
554.732	96.88
554.944	106.88
555.157	94.88
555.37	95.88
555.583	89.88
555.795	81.88
556.008	108.88
556.221	90.88
556.433	83.88
556.646	94.88
556.859	91.88
557.071	87.88
557.284	95.88
557.496	81.88
557.709	88.88
557.921	100.88
558.134	92.88
558.346	104.88
558.559	81.88
558.771	76.88
558.984	79.88
559.196	98.88
559.409	89.88
559.621	90.88
559.833	94.88
560.046	76.88
560.258	83.88
560.47	88.88
560.683	87.88
560.895	90.88
561.107	93.88
561.32	73.88
561.532	75.88
561.744	94.88
561.956	103.88
562.168	90.88
562.381	93.88
562.593	75.88
562.805	88.88
563.017	97.88
563.229	97.88
563.441	90.88
563.653	99.88
563.865	85.88
564.077	82.88
564.289	93.88
564.501	102.88
564.713	88.88
564.925	85.88
565.137	97.88
565.349	90.88
565.561	98.88
565.773	95.88
565.985	94.88
566.197	80.88
566.408	93.88
566.62	81.88
566.832	72.88
567.044	86.88
567.255	83.88
567.467	92.88
567.679	67.88
567.891	77.88
568.102	79.88
568.314	82.88
568.526	92.88
568.737	80.88
568.949	102.88
569.161	91.88
569.372	77.88
569.584	86.88
569.795	81.88
570.007	83.88
570.218	66.88
570.43	82.88
570.641	90.88
570.853	90.88
571.064	78.88
571.276	84.88
571.487	79.88
571.698	87.88
571.91	98.88
572.121	90.88
572.333	86.88
572.544	86.88
572.755	76.88
572.966	81.88
573.178	81.88
573.389	87.88
573.6	80.88
573.811	90.88
574.023	84.88
574.234	82.88
574.445	91.88
574.656	65.88
574.867	81.88
575.078	80.88
575.289	80.88
575.501	90.88
575.712	78.88
575.923	98.88
576.134	80.88
576.345	89.88
576.556	96.88
576.767	96.88
576.978	79.88
577.188	91.88
577.399	99.88
577.61	90.88
577.821	84.88
578.032	84.88
578.243	87.88
578.454	78.88
578.665	86.88
578.875	70.88
579.086	74.88
579.297	80.88
579.508	85.88
579.718	82.88
579.929	83.88
580.14	82.88
580.35	72.88
580.561	80.88
580.772	83.88
580.982	90.88
581.193	63.88
581.403	83.88
581.614	78.88
581.825	73.88
582.035	71.88
582.246	79.88
582.456	68.88
582.667	85.88
582.877	78.88
583.087	68.88
583.298	75.88
583.508	88.88
583.719	79.88
583.929	82.88
584.139	75.88
584.35	88.88
584.56	85.88
584.77	82.88
584.981	87.88
585.191	96.88
585.401	79.88
585.611	77.88
585.821	73.88
586.032	73.88
586.242	84.88
586.452	77.88
586.662	86.88
586.872	87.88
587.082	76.88
587.292	74.88
587.502	85.88
587.713	81.88
587.923	74.88
588.133	82.88
588.343	85.88
588.553	86.88
588.762	89.88
588.972	85.88
589.182	81.88
589.392	87.88
589.602	84.88
589.812	85.88
590.022	88.88
590.232	80.88
590.441	96.88
590.651	78.88
590.861	84.88
591.071	71.88
591.281	88.88
591.49	91.88
591.7	89.88
591.91	78.88
592.119	71.88
592.329	80.88
592.539	85.88
592.748	79.88
592.958	81.88
593.167	74.88
593.377	75.88
593.587	81.88
593.796	70.88
594.006	74.88
594.215	87.88
594.424	76.88
594.634	73.88
594.843	84.88
595.053	81.88
595.262	80.88
595.472	79.88
595.681	79.88
595.89	75.88
596.1	79.88
596.309	81.88
596.518	86.88
596.727	77.88
596.937	81.88
597.146	88.88
597.355	73.88
597.564	73.88
597.774	74.88
597.983	93.88
598.192	82.88
598.401	80.88
598.61	87.88
598.819	85.88
599.028	76.88
599.237	78.88
599.446	82.88
599.655	87.88
599.864	83.88
600.073	65.88
600.282	82.88
600.491	88.88
600.7	77.88
600.909	71.88
601.118	90.88
601.327	87.88
601.536	85.88
601.745	88.88
601.953	73.88
602.162	66.88
602.371	89.88
602.58	73.88
602.789	74.88
602.997	91.88
603.206	89.88
603.415	85.88
603.623	80.88
603.832	71.88
604.041	75.88
604.249	86.88
604.458	85.88
604.666	68.88
604.875	90.88
605.084	82.88
605.292	83.88
605.501	85.88
605.709	89.88
605.918	77.88
606.126	78.88
606.334	82.88
606.543	86.88
606.751	99.88
606.96	98.88
607.168	81.88
607.376	78.88
607.585	89.88
607.793	87.88
608.001	99.88
608.21	78.88
608.418	83.88
608.626	88.88
608.834	72.88
609.043	87.88
609.251	93.88
609.459	95.88
609.667	97.88
609.875	85.88
610.083	87.88
610.291	86.88
610.499	85.88
610.707	82.88
610.916	71.88
611.124	104.88
611.332	79.88
611.54	81.88
611.748	81.88
611.955	82.88
612.163	79.88
612.371	99.88
612.579	93.88
612.787	81.88
612.995	86.88
613.203	90.88
613.411	87.88
613.618	94.88
613.826	81.88
614.034	65.88
614.242	90.88
614.449	78.88
614.657	69.88
614.865	90.88
615.072	95.88
615.28	91.88
615.488	79.88
615.695	90.88
615.903	81.88
616.111	70.88
616.318	99.88
616.526	90.88
616.733	99.88
616.941	87.88
617.148	96.88
617.356	80.88
617.563	82.88
617.771	88.88
617.978	83.88
618.185	81.88
618.393	88.88
618.6	86.88
618.807	80.88
619.015	79.88
619.222	80.88
619.429	74.88
619.637	74.88
619.844	75.88
620.051	85.88
620.258	75.88
620.466	83.88
620.673	97.88
620.88	73.88
621.087	84.88
621.294	87.88
621.501	74.88
621.708	87.88
621.915	73.88
622.122	91.88
622.329	83.88
622.536	86.88
622.743	78.88
622.95	79.88
623.157	96.88
623.364	79.88
623.571	76.88
623.778	76.88
623.985	83.88
624.192	77.88
624.399	74.88
624.606	81.88
624.812	87.88
625.019	74.88
625.226	87.88
625.433	85.88
625.639	101.88
625.846	87.88
626.053	73.88
626.259	101.88
626.466	85.88
626.673	78.88
626.879	82.88
627.086	84.88
627.293	79.88
627.499	99.88
627.706	87.88
627.912	73.88
628.119	87.88
628.325	80.88
628.532	97.88
628.738	90.88
628.945	97.88
629.151	94.88
629.357	86.88
629.564	80.88
629.77	78.88
629.976	77.88
630.183	79.88
630.389	75.88
630.595	85.88
630.802	81.88
631.008	88.88
631.214	87.88
631.42	90.88
631.627	89.88
631.833	88.88
632.039	77.88
632.245	80.88
632.451	92.88
632.657	84.88
632.863	83.88
633.069	90.88
633.275	77.88
633.481	85.88
633.688	85.88
633.893	89.88
634.099	84.88
634.305	81.88
634.511	94.88
634.717	88.88
634.923	73.88
635.129	74.88
635.335	85.88
635.541	86.88
635.747	69.88
635.952	80.88
636.158	78.88
636.364	73.88
636.57	93.88
636.775	82.88
636.981	73.88
637.187	74.88
637.392	82.88
637.598	93.88
637.804	75.88
638.009	86.88
638.215	88.88
638.421	74.88
638.626	78.88
638.832	86.88
639.037	71.88
639.243	90.88
639.448	81.88
639.654	73.88
639.859	84.88
640.065	90.88
640.27	85.88
640.475	76.88
640.681	84.88
640.886	88.88
641.091	83.88
641.297	86.88
641.502	82.88
641.707	85.88
641.913	81.88
642.118	78.88
642.323	69.88
642.528	93.88
642.733	82.88
642.939	84.88
643.144	79.88
643.349	76.88
643.554	96.88
643.759	88.88
643.964	91.88
644.169	87.88
644.374	83.88
644.579	87.88
644.784	88.88
644.989	67.88
645.194	80.88
645.399	96.88
645.604	71.88
645.809	77.88
646.014	79.88
646.219	91.88
646.423	82.88
646.628	75.88
646.833	86.88
647.038	84.88
647.243	82.88
647.447	82.88
647.652	82.88
647.857	90.88
648.062	85.88
648.266	82.88
648.471	87.88
648.676	71.88
648.88	82.88
649.085	83.88
649.289	86.88
649.494	71.88
649.698	70.88
649.903	68.88
650.107	83.88
650.312	88.88
650.516	91.88
650.721	83.88
650.925	83.88
651.13	74.88
651.334	73.88
651.539	89.88
651.743	88.88
651.947	80.88
652.152	90.88
652.356	69.88
652.56	73.88
652.764	78.88
652.969	88.88
653.173	82.88
653.377	74.88
653.581	85.88
653.785	81.88
653.99	90.88
654.194	85.88
654.398	82.88
654.602	72.88
654.806	96.88
655.01	88.88
655.214	73.88
655.418	78.88
655.622	76.88
655.826	78.88
656.03	84.88
656.234	77.88
656.438	86.88
656.642	84.88
656.846	87.88
657.049	80.88
657.253	83.88
657.457	90.88
657.661	70.88
657.865	73.88
658.068	74.88
658.272	71.88
658.476	75.88
658.68	73.88
658.883	102.88
659.087	92.88
659.291	70.88
659.494	83.88
659.698	69.88
659.901	81.88
660.105	90.88
660.309	74.88
660.512	77.88
660.716	63.88
660.919	80.88
661.123	72.88
661.326	81.88
661.53	85.88
661.733	65.88
661.936	75.88
662.14	85.88
662.343	69.88
662.546	81.88
662.75	80.88
662.953	72.88
663.156	72.88
663.36	78.88
663.563	81.88
663.766	80.88
663.969	87.88
664.173	84.88
664.376	84.88
664.579	76.88
664.782	96.88
664.985	88.88
665.188	75.88
665.391	75.88
665.594	84.88
665.797	95.88
666	77.88
666.203	75.88
666.406	78.88
666.609	88.88
666.812	72.88
667.015	79.88
667.218	94.88
667.421	73.88
667.624	92.88
667.827	72.88
668.03	71.88
668.232	79.88
668.435	81.88
668.638	74.88
668.841	78.88
669.043	70.88
669.246	73.88
669.449	77.88
669.651	87.88
669.854	89.88
670.057	93.88
670.259	65.88
670.462	77.88
670.665	77.88
670.867	79.88
671.07	81.88
671.272	75.88
671.475	85.88
671.677	90.88
671.88	73.88
672.082	79.88
672.284	84.88
672.487	77.88
672.689	82.88
672.892	80.88
