Data from Zn(NO3)2Standard.Agarose3%.GreenCap.LampEnergy5.5.E.O_HRD10591_15-02-53-767.txt Node
Date: Mon Jul 22 15:02:53 EDT 2019
User: cochatt
Spectrometer: HR+D1059
Trigger mode: 1
Integration Time (sec): 1.000000E-1
Scans to average: 1
Electric dark correction enabled: true
Nonlinearity correction enabled: false
Boxcar width: 0
XAxis mode: Wavelengths
Number of Pixels in Spectrum: 2048
>>>>>Begin Spectral Data<<<<<
223.165	-19.62
223.4	-19.62
223.635	-19.62
223.869	-12.62
224.104	-27.62
224.338	-8.62
224.573	-11.62
224.808	-13.62
225.042	-4.62
225.277	-0.62
225.511	-8.62
225.746	2.38
225.98	10.38
226.215	10.38
226.449	9.38
226.683	24.38
226.918	28.38
227.152	22.38
227.387	25.38
227.621	21.38
227.856	40.38
228.09	39.38
228.324	49.38
228.559	57.38
228.793	47.38
229.027	58.38
229.262	66.38
229.496	76.38
229.73	63.38
229.964	72.38
230.199	70.38
230.433	69.38
230.667	72.38
230.901	84.38
231.136	75.38
231.37	70.38
231.604	64.38
231.838	75.38
232.072	83.38
232.306	72.38
232.541	67.38
232.775	80.38
233.009	83.38
233.243	76.38
233.477	82.38
233.711	79.38
233.945	78.38
234.179	71.38
234.413	84.38
234.647	71.38
234.881	80.38
235.115	68.38
235.349	79.38
235.583	66.38
235.817	80.38
236.051	95.38
236.285	80.38
236.519	71.38
236.753	49.38
236.987	64.38
237.221	76.38
237.455	85.38
237.689	76.38
237.922	82.38
238.156	70.38
238.39	76.38
238.624	76.38
238.858	79.38
239.091	66.38
239.325	73.38
239.559	67.38
239.793	76.38
240.027	81.38
240.26	62.38
240.494	71.38
240.728	81.38
240.961	66.38
241.195	58.38
241.429	66.38
241.662	76.38
241.896	83.38
242.13	71.38
242.363	75.38
242.597	67.38
242.83	71.38
243.064	77.38
243.298	79.38
243.531	76.38
243.765	61.38
243.998	72.38
244.232	71.38
244.465	95.38
244.699	82.38
244.932	82.38
245.166	65.38
245.399	81.38
245.633	63.38
245.866	73.38
246.099	79.38
246.333	73.38
246.566	62.38
246.8	72.38
247.033	70.38
247.266	74.38
247.5	66.38
247.733	69.38
247.966	63.38
248.2	78.38
248.433	77.38
248.666	84.38
248.899	91.38
249.133	85.38
249.366	87.38
249.599	77.38
249.832	83.38
250.066	81.38
250.299	69.38
250.532	71.38
250.765	79.38
250.998	79.38
251.231	72.38
251.465	67.38
251.698	75.38
251.931	65.38
252.164	76.38
252.397	72.38
252.63	83.38
252.863	82.38
253.096	74.38
253.329	91.38
253.562	88.38
253.795	67.38
254.028	85.38
254.261	80.38
254.494	78.38
254.727	75.38
254.96	79.38
255.193	63.38
255.426	80.38
255.659	74.38
255.892	70.38
256.124	79.38
256.357	81.38
256.59	79.38
256.823	84.38
257.056	77.38
257.289	89.38
257.521	91.38
257.754	63.38
257.987	74.38
258.22	77.38
258.452	76.38
258.685	84.38
258.918	80.38
259.151	61.38
259.383	75.38
259.616	69.38
259.849	74.38
260.081	72.38
260.314	83.38
260.547	68.38
260.779	56.38
261.012	76.38
261.244	88.38
261.477	72.38
261.71	75.38
261.942	83.38
262.175	74.38
262.407	73.38
262.64	80.38
262.872	101.38
263.105	80.38
263.337	79.38
263.57	81.38
263.802	72.38
264.035	76.38
264.267	74.38
264.499	73.38
264.732	90.38
264.964	90.38
265.197	86.38
265.429	86.38
265.661	83.38
265.894	82.38
266.126	96.38
266.358	80.38
266.591	72.38
266.823	91.38
267.055	78.38
267.287	83.38
267.52	92.38
267.752	73.38
267.984	87.38
268.216	77.38
268.448	76.38
268.681	93.38
268.913	86.38
269.145	85.38
269.377	82.38
269.609	84.38
269.841	83.38
270.073	87.38
270.306	84.38
270.538	81.38
270.77	84.38
271.002	93.38
271.234	77.38
271.466	72.38
271.698	74.38
271.93	69.38
272.162	71.38
272.394	84.38
272.626	89.38
272.858	82.38
273.09	92.38
273.322	75.38
273.553	76.38
273.785	71.38
274.017	88.38
274.249	86.38
274.481	73.38
274.713	90.38
274.945	83.38
275.176	77.38
275.408	66.38
275.64	80.38
275.872	91.38
276.104	67.38
276.335	71.38
276.567	83.38
276.799	86.38
277.031	84.38
277.262	72.38
277.494	83.38
277.726	81.38
277.957	98.38
278.189	82.38
278.421	79.38
278.652	96.38
278.884	87.38
279.115	78.38
279.347	71.38
279.579	89.38
279.81	81.38
280.042	64.38
280.273	79.38
280.505	92.38
280.736	83.38
280.968	82.38
281.199	83.38
281.431	90.38
281.662	86.38
281.894	66.38
282.125	75.38
282.356	78.38
282.588	75.38
282.819	81.38
283.051	72.38
283.282	84.38
283.513	82.38
283.745	86.38
283.976	82.38
284.207	70.38
284.439	83.38
284.67	85.38
284.901	74.38
285.132	91.38
285.364	74.38
285.595	79.38
285.826	75.38
286.057	84.38
286.288	81.38
286.52	73.38
286.751	67.38
286.982	82.38
287.213	87.38
287.444	71.38
287.675	87.38
287.906	74.38
288.138	82.38
288.369	90.38
288.6	75.38
288.831	79.38
289.062	90.38
289.293	89.38
289.524	68.38
289.755	81.38
289.986	71.38
290.217	71.38
290.448	75.38
290.679	87.38
290.91	94.38
291.141	67.38
291.371	86.38
291.602	74.38
291.833	78.38
292.064	81.38
292.295	79.38
292.526	79.38
292.757	73.38
292.987	85.38
293.218	90.38
293.449	77.38
293.68	68.38
293.91	76.38
294.141	85.38
294.372	67.38
294.603	82.38
294.833	84.38
295.064	87.38
295.295	80.38
295.525	91.38
295.756	80.38
295.987	81.38
296.217	81.38
296.448	77.38
296.679	77.38
296.909	81.38
297.14	82.38
297.37	86.38
297.601	69.38
297.831	74.38
298.062	92.38
298.292	82.38
298.523	77.38
298.753	82.38
298.984	86.38
299.214	95.38
299.445	76.38
299.675	83.38
299.905	76.38
300.136	81.38
300.366	93.38
300.597	72.38
300.827	79.38
301.057	84.38
301.288	69.38
301.518	87.38
301.748	88.38
301.979	83.38
302.209	97.38
302.439	78.38
302.669	83.38
302.9	91.38
303.13	81.38
303.36	80.38
303.59	79.38
303.82	77.38
304.051	88.38
304.281	99.38
304.511	89.38
304.741	73.38
304.971	77.38
305.201	90.38
305.431	89.38
305.661	100.38
305.891	90.38
306.121	83.38
306.352	82.38
306.582	86.38
306.812	75.38
307.042	84.38
307.272	76.38
307.502	83.38
307.731	90.38
307.961	80.38
308.191	94.38
308.421	72.38
308.651	82.38
308.881	73.38
309.111	79.38
309.341	69.38
309.571	82.38
309.8	76.38
310.03	78.38
310.26	99.38
310.49	81.38
310.72	95.38
310.949	77.38
311.179	83.38
311.409	86.38
311.639	78.38
311.868	84.38
312.098	86.38
312.328	71.38
312.557	60.38
312.787	72.38
313.017	89.38
313.246	82.38
313.476	79.38
313.706	73.38
313.935	82.38
314.165	85.38
314.394	97.38
314.624	85.38
314.853	87.38
315.083	83.38
315.312	74.38
315.542	91.38
315.771	80.38
316.001	96.38
316.23	83.38
316.46	87.38
316.689	77.38
316.919	97.38
317.148	82.38
317.377	85.38
317.607	99.38
317.836	95.38
318.065	71.38
318.295	83.38
318.524	79.38
318.753	84.38
318.983	86.38
319.212	74.38
319.441	66.38
319.67	69.38
319.9	76.38
320.129	88.38
320.358	87.38
320.587	87.38
320.816	77.38
321.046	83.38
321.275	89.38
321.504	79.38
321.733	84.38
321.962	82.38
322.191	92.38
322.42	93.38
322.649	70.38
322.878	98.38
323.108	80.38
323.337	84.38
323.566	86.38
323.795	79.38
324.024	75.38
324.253	89.38
324.482	85.38
324.71	74.38
324.939	94.38
325.168	83.38
325.397	97.38
325.626	88.38
325.855	92.38
326.084	83.38
326.313	57.38
326.542	85.38
326.77	84.38
326.999	81.38
327.228	83.38
327.457	82.38
327.686	74.38
327.914	76.38
328.143	83.38
328.372	88.38
328.6	87.38
328.829	85.38
329.058	90.38
329.287	86.38
329.515	69.38
329.744	71.38
329.972	97.38
330.201	85.38
330.43	86.38
330.658	80.38
330.887	92.38
331.115	86.38
331.344	84.38
331.572	80.38
331.801	80.38
332.03	85.38
332.258	86.38
332.486	78.38
332.715	75.38
332.943	84.38
333.172	96.38
333.4	74.38
333.629	71.38
333.857	74.38
334.085	93.38
334.314	90.38
334.542	72.38
334.771	95.38
334.999	76.38
335.227	84.38
335.455	83.38
335.684	81.38
335.912	84.38
336.14	73.38
336.369	85.38
336.597	74.38
336.825	85.38
337.053	75.38
337.281	81.38
337.51	88.38
337.738	85.38
337.966	101.38
338.194	80.38
338.422	87.38
338.65	80.38
338.878	79.38
339.106	99.38
339.334	88.38
339.562	87.38
339.79	79.38
340.018	80.38
340.246	79.38
340.474	86.38
340.702	92.38
340.93	71.38
341.158	87.38
341.386	72.38
341.614	80.38
341.842	61.38
342.07	77.38
342.298	90.38
342.526	73.38
342.754	89.38
342.981	83.38
343.209	79.38
343.437	90.38
343.665	81.38
343.893	77.38
344.12	87.38
344.348	80.38
344.576	79.38
344.804	84.38
345.031	90.38
345.259	82.38
345.487	63.38
345.714	69.38
345.942	80.38
346.17	90.38
346.397	73.38
346.625	72.38
346.853	80.38
347.08	74.38
347.308	81.38
347.535	88.38
347.763	68.38
347.99	80.38
348.218	78.38
348.445	83.38
348.673	84.38
348.9	86.38
349.128	91.38
349.355	88.38
349.583	78.38
349.81	73.38
350.037	78.38
350.265	82.38
350.492	86.38
350.72	85.38
350.947	72.38
351.174	78.38
351.402	83.38
351.629	88.38
351.856	73.38
352.083	73.38
352.311	71.38
352.538	71.38
352.765	84.38
352.992	80.38
353.22	92.38
353.447	72.38
353.674	84.38
353.901	73.38
354.128	85.38
354.355	93.38
354.583	70.38
354.81	70.38
355.037	75.38
355.264	89.38
355.491	76.38
355.718	81.38
355.945	84.38
356.172	79.38
356.399	87.38
356.626	84.38
356.853	92.38
357.08	84.38
357.307	87.38
357.534	109.38
357.761	85.38
357.988	87.38
358.215	74.38
358.441	75.38
358.668	97.38
358.895	91.38
359.122	81.38
359.349	75.38
359.576	80.38
359.802	73.38
360.029	72.38
360.256	86.38
360.483	86.38
360.709	87.38
360.936	86.38
361.163	79.38
361.39	81.38
361.616	82.38
361.843	77.38
362.07	84.38
362.296	85.38
362.523	88.38
362.749	92.38
362.976	76.38
363.203	79.38
363.429	78.38
363.656	65.38
363.882	72.38
364.109	84.38
364.335	90.38
364.562	78.38
364.788	82.38
365.015	72.38
365.241	87.38
365.468	81.38
365.694	74.38
365.92	86.38
366.147	74.38
366.373	77.38
366.599	80.38
366.826	71.38
367.052	95.38
367.278	65.38
367.505	64.38
367.731	78.38
367.957	80.38
368.184	77.38
368.41	74.38
368.636	82.38
368.862	70.38
369.089	74.38
369.315	77.38
369.541	99.38
369.767	75.38
369.993	66.38
370.219	76.38
370.445	86.38
370.672	76.38
370.898	79.38
371.124	96.38
371.35	93.38
371.576	76.38
371.802	82.38
372.028	70.38
372.254	80.38
372.48	70.38
372.706	68.38
372.932	73.38
373.158	89.38
373.384	76.38
373.61	77.38
373.835	78.38
374.061	88.38
374.287	86.38
374.513	80.38
374.739	73.38
374.965	77.38
375.191	85.38
375.416	82.38
375.642	77.38
375.868	90.38
376.094	78.38
376.319	76.38
376.545	83.38
376.771	81.38
376.997	77.38
377.222	73.38
377.448	85.38
377.674	81.38
377.899	90.38
378.125	73.38
378.35	72.38
378.576	73.38
378.802	98.38
379.027	90.38
379.253	85.38
379.478	86.38
379.704	74.38
379.929	85.38
380.155	76.38
380.38	86.38
380.606	89.38
380.831	85.38
381.057	91.38
381.282	91.38
381.507	83.38
381.733	75.38
381.958	67.38
382.184	75.38
382.409	78.38
382.634	89.38
382.86	76.38
383.085	86.38
383.31	81.38
383.535	92.38
383.761	83.38
383.986	91.38
384.211	82.38
384.436	77.38
384.662	89.38
384.887	69.38
385.112	89.38
385.337	84.38
385.562	98.38
385.787	94.38
386.013	75.38
386.238	79.38
386.463	93.38
386.688	87.38
386.913	81.38
387.138	76.38
387.363	81.38
387.588	74.38
387.813	75.38
388.038	76.38
388.263	87.38
388.488	82.38
388.713	88.38
388.938	68.38
389.163	90.38
389.387	87.38
389.612	83.38
389.837	81.38
390.062	75.38
390.287	93.38
390.512	83.38
390.736	75.38
390.961	80.38
391.186	74.38
391.411	72.38
391.636	83.38
391.86	73.38
392.085	82.38
392.31	75.38
392.534	70.38
392.759	62.38
392.984	81.38
393.208	82.38
393.433	70.38
393.658	72.38
393.882	83.38
394.107	81.38
394.331	90.38
394.556	80.38
394.78	74.38
395.005	88.38
395.229	82.38
395.454	82.38
395.678	80.38
395.903	89.38
396.127	71.38
396.352	83.38
396.576	77.38
396.801	81.38
397.025	98.38
397.249	87.38
397.474	80.38
397.698	81.38
397.922	84.38
398.147	66.38
398.371	88.38
398.595	95.38
398.82	73.38
399.044	84.38
399.268	86.38
399.492	85.38
399.717	82.38
399.941	83.38
400.165	86.38
400.389	86.38
400.613	82.38
400.837	74.38
401.062	63.38
401.286	74.38
401.51	79.38
401.734	74.38
401.958	70.38
402.182	85.38
402.406	77.38
402.63	86.38
402.854	86.38
403.078	77.38
403.302	82.38
403.526	86.38
403.75	90.38
403.974	80.38
404.198	91.38
404.422	83.38
404.645	82.38
404.869	79.38
405.093	78.38
405.317	81.38
405.541	87.38
405.765	80.38
405.988	71.38
406.212	80.38
406.436	81.38
406.66	87.38
406.883	100.38
407.107	83.38
407.331	101.38
407.555	85.38
407.778	82.38
408.002	94.38
408.226	79.38
408.449	87.38
408.673	75.38
408.896	85.38
409.12	88.38
409.344	89.38
409.567	78.38
409.791	83.38
410.014	85.38
410.238	79.38
410.461	102.38
410.685	86.38
410.908	83.38
411.132	91.38
411.355	77.38
411.578	77.38
411.802	87.38
412.025	86.38
412.249	90.38
412.472	92.38
412.695	96.38
412.919	83.38
413.142	80.38
413.365	79.38
413.589	74.38
413.812	83.38
414.035	86.38
414.258	79.38
414.482	85.38
414.705	87.38
414.928	88.38
415.151	103.38
415.374	87.38
415.597	78.38
415.821	85.38
416.044	92.38
416.267	66.38
416.49	88.38
416.713	90.38
416.936	69.38
417.159	85.38
417.382	82.38
417.605	76.38
417.828	84.38
418.051	74.38
418.274	81.38
418.497	85.38
418.72	85.38
418.943	81.38
419.166	81.38
419.389	98.38
419.611	82.38
419.834	80.38
420.057	89.38
420.28	79.38
420.503	100.38
420.726	90.38
420.948	84.38
421.171	61.38
421.394	83.38
421.617	86.38
421.839	83.38
422.062	82.38
422.285	89.38
422.507	81.38
422.73	91.38
422.953	72.38
423.175	96.38
423.398	72.38
423.621	97.38
423.843	86.38
424.066	86.38
424.288	84.38
424.511	84.38
424.733	86.38
424.956	82.38
425.178	78.38
425.401	80.38
425.623	78.38
425.846	90.38
426.068	68.38
426.291	89.38
426.513	90.38
426.735	87.38
426.958	99.38
427.18	87.38
427.402	90.38
427.625	83.38
427.847	87.38
428.069	91.38
428.292	90.38
428.514	86.38
428.736	96.38
428.958	90.38
429.181	86.38
429.403	83.38
429.625	95.38
429.847	92.38
430.069	83.38
430.292	76.38
430.514	79.38
430.736	84.38
430.958	89.38
431.18	89.38
431.402	89.38
431.624	86.38
431.846	75.38
432.068	77.38
432.29	75.38
432.512	107.38
432.734	90.38
432.956	94.38
433.178	77.38
433.4	74.38
433.622	88.38
433.844	86.38
434.066	88.38
434.287	78.38
434.509	68.38
434.731	87.38
434.953	92.38
435.175	83.38
435.397	87.38
435.618	87.38
435.84	75.38
436.062	94.38
436.284	91.38
436.505	82.38
436.727	89.38
436.949	88.38
437.17	88.38
437.392	83.38
437.614	90.38
437.835	76.38
438.057	73.38
438.278	93.38
438.5	80.38
438.721	79.38
438.943	91.38
439.165	93.38
439.386	96.38
439.608	90.38
439.829	96.38
440.05	96.38
440.272	81.38
440.493	82.38
440.715	80.38
440.936	82.38
441.158	84.38
441.379	99.38
441.6	102.38
441.822	96.38
442.043	99.38
442.264	82.38
442.486	98.38
442.707	98.38
442.928	80.38
443.149	97.38
443.371	91.38
443.592	77.38
443.813	100.38
444.034	97.38
444.255	96.38
444.476	79.38
444.698	92.38
444.919	108.38
445.14	194.38
445.361	137.38
445.582	102.38
445.803	94.38
446.024	88.38
446.245	83.38
446.466	87.38
446.687	82.38
446.908	83.38
447.129	80.38
447.35	96.38
447.571	98.38
447.792	93.38
448.013	79.38
448.234	84.38
448.455	87.38
448.675	89.38
448.896	89.38
449.117	83.38
449.338	90.38
449.559	97.38
449.779	92.38
450	89.38
450.221	91.38
450.442	89.38
450.662	94.38
450.883	104.38
451.104	87.38
451.324	81.38
451.545	86.38
451.766	90.38
451.986	91.38
452.207	101.38
452.428	90.38
452.648	87.38
452.869	95.38
453.089	86.38
453.31	87.38
453.53	87.38
453.751	87.38
453.971	65.38
454.192	88.38
454.412	87.38
454.633	85.38
454.853	82.38
455.073	93.38
455.294	85.38
455.514	106.38
455.734	86.38
455.955	83.38
456.175	76.38
456.395	65.38
456.616	84.38
456.836	91.38
457.056	101.38
457.276	74.38
457.497	90.38
457.717	74.38
457.937	81.38
458.157	75.38
458.377	83.38
458.598	83.38
458.818	75.38
459.038	90.38
459.258	71.38
459.478	86.38
459.698	70.38
459.918	80.38
460.138	87.38
460.358	89.38
460.578	83.38
460.798	94.38
461.018	78.38
461.238	91.38
461.458	85.38
461.678	78.38
461.898	91.38
462.118	88.38
462.338	89.38
462.558	82.38
462.777	77.38
462.997	96.38
463.217	80.38
463.437	76.38
463.657	75.38
463.876	83.38
464.096	87.38
464.316	92.38
464.536	70.38
464.755	74.38
464.975	80.38
465.195	75.38
465.414	77.38
465.634	74.38
465.854	83.38
466.073	96.38
466.293	79.38
466.512	87.38
466.732	87.38
466.951	98.38
467.171	73.38
467.391	73.38
467.61	80.38
467.829	94.38
468.049	76.38
468.268	83.38
468.488	81.38
468.707	80.38
468.927	75.38
469.146	80.38
469.365	86.38
469.585	101.38
469.804	80.38
470.023	75.38
470.243	93.38
470.462	87.38
470.681	71.38
470.901	83.38
471.12	80.38
471.339	88.38
471.558	84.38
471.777	91.38
471.997	86.38
472.216	87.38
472.435	76.38
472.654	70.38
472.873	73.38
473.092	86.38
473.311	97.38
473.53	82.38
473.749	82.38
473.968	86.38
474.187	87.38
474.406	71.38
474.625	91.38
474.844	102.38
475.063	80.38
475.282	81.38
475.501	86.38
475.72	99.38
475.939	84.38
476.158	86.38
476.377	83.38
476.596	88.38
476.814	88.38
477.033	91.38
477.252	86.38
477.471	81.38
477.69	83.38
477.908	73.38
478.127	84.38
478.346	83.38
478.564	98.38
478.783	101.38
479.002	98.38
479.22	85.38
479.439	82.38
479.658	97.38
479.876	75.38
480.095	78.38
480.313	75.38
480.532	79.38
480.751	87.38
480.969	100.38
481.188	86.38
481.406	91.38
481.624	74.38
481.843	82.38
482.061	74.38
482.28	80.38
482.498	79.38
482.717	81.38
482.935	94.38
483.153	94.38
483.372	97.38
483.59	90.38
483.808	100.38
484.027	94.38
484.245	77.38
484.463	85.38
484.681	94.38
484.9	90.38
485.118	87.38
485.336	83.38
485.554	84.38
485.772	85.38
485.99	79.38
486.209	78.38
486.427	92.38
486.645	78.38
486.863	94.38
487.081	86.38
487.299	81.38
487.517	89.38
487.735	85.38
487.953	84.38
488.171	91.38
488.389	83.38
488.607	92.38
488.825	89.38
489.043	96.38
489.261	91.38
489.479	85.38
489.696	85.38
489.914	99.38
490.132	94.38
490.35	89.38
490.568	87.38
490.786	76.38
491.003	99.38
491.221	93.38
491.439	99.38
491.657	97.38
491.874	87.38
492.092	103.38
492.31	106.38
492.527	95.38
492.745	98.38
492.963	102.38
493.18	98.38
493.398	98.38
493.615	100.38
493.833	102.38
494.05	108.38
494.268	95.38
494.485	98.38
494.703	102.38
494.92	96.38
495.138	106.38
495.355	104.38
495.573	97.38
495.79	92.38
496.008	90.38
496.225	82.38
496.442	96.38
496.66	98.38
496.877	79.38
497.094	103.38
497.312	83.38
497.529	96.38
497.746	88.38
497.963	91.38
498.181	81.38
498.398	82.38
498.615	89.38
498.832	67.38
499.049	78.38
499.267	88.38
499.484	95.38
499.701	90.38
499.918	97.38
500.135	86.38
500.352	92.38
500.569	85.38
500.786	91.38
501.003	92.38
501.22	93.38
501.437	80.38
501.654	88.38
501.871	83.38
502.088	75.38
502.305	86.38
502.522	98.38
502.739	87.38
502.956	84.38
503.172	89.38
503.389	81.38
503.606	89.38
503.823	103.38
504.04	85.38
504.256	104.38
504.473	83.38
504.69	85.38
504.907	85.38
505.123	87.38
505.34	73.38
505.557	88.38
505.773	100.38
505.99	76.38
506.207	78.38
506.423	82.38
506.64	79.38
506.856	82.38
507.073	84.38
507.289	85.38
507.506	86.38
507.722	90.38
507.939	73.38
508.155	84.38
508.372	75.38
508.588	83.38
508.805	97.38
509.021	87.38
509.238	96.38
509.454	83.38
509.67	91.38
509.887	83.38
510.103	86.38
510.319	70.38
510.536	85.38
510.752	79.38
510.968	74.38
511.184	73.38
511.401	74.38
511.617	79.38
511.833	80.38
512.049	77.38
512.265	81.38
512.481	82.38
512.698	77.38
512.914	72.38
513.13	69.38
513.346	86.38
513.562	93.38
513.778	82.38
513.994	92.38
514.21	83.38
514.426	75.38
514.642	70.38
514.858	79.38
515.074	73.38
515.29	77.38
515.506	64.38
515.721	65.38
515.937	82.38
516.153	87.38
516.369	81.38
516.585	94.38
516.801	85.38
517.016	75.38
517.232	71.38
517.448	83.38
517.664	74.38
517.879	82.38
518.095	80.38
518.311	86.38
518.527	86.38
518.742	91.38
518.958	80.38
519.173	87.38
519.389	90.38
519.605	74.38
519.82	79.38
520.036	93.38
520.251	83.38
520.467	71.38
520.682	74.38
520.898	81.38
521.113	69.38
521.329	77.38
521.544	78.38
521.76	88.38
521.975	83.38
522.19	77.38
522.406	66.38
522.621	79.38
522.836	85.38
523.052	89.38
523.267	75.38
523.482	88.38
523.698	76.38
523.913	100.38
524.128	73.38
524.343	86.38
524.559	91.38
524.774	83.38
524.989	87.38
525.204	86.38
525.419	82.38
525.634	84.38
525.849	88.38
526.064	83.38
526.28	93.38
526.495	82.38
526.71	79.38
526.925	78.38
527.14	90.38
527.355	74.38
527.57	83.38
527.785	85.38
527.999	84.38
528.214	86.38
528.429	93.38
528.644	86.38
528.859	86.38
529.074	87.38
529.289	95.38
529.503	89.38
529.718	91.38
529.933	81.38
530.148	85.38
530.363	85.38
530.577	90.38
530.792	79.38
531.007	84.38
531.221	79.38
531.436	72.38
531.651	83.38
531.865	74.38
532.08	63.38
532.295	87.38
532.509	77.38
532.724	75.38
532.938	78.38
533.153	86.38
533.367	95.38
533.582	92.38
533.796	82.38
534.011	72.38
534.225	70.38
534.44	75.38
534.654	83.38
534.868	82.38
535.083	87.38
535.297	89.38
535.511	91.38
535.726	96.38
535.94	95.38
536.154	93.38
536.369	73.38
536.583	77.38
536.797	89.38
537.011	74.38
537.225	94.38
537.44	83.38
537.654	92.38
537.868	95.38
538.082	78.38
538.296	87.38
538.51	94.38
538.724	94.38
538.938	97.38
539.153	103.38
539.367	89.38
539.581	82.38
539.795	86.38
540.009	85.38
540.222	89.38
540.436	74.38
540.65	101.38
540.864	83.38
541.078	82.38
541.292	100.38
541.506	107.38
541.72	91.38
541.934	99.38
542.147	100.38
542.361	114.38
542.575	101.38
542.789	99.38
543.002	79.38
543.216	83.38
543.43	87.38
543.644	89.38
543.857	98.38
544.071	89.38
544.285	103.38
544.498	99.38
544.712	92.38
544.925	96.38
545.139	100.38
545.352	102.38
545.566	98.38
545.779	92.38
545.993	104.38
546.206	93.38
546.42	88.38
546.633	101.38
546.847	91.38
547.06	92.38
547.274	86.38
547.487	98.38
547.7	96.38
547.914	109.38
548.127	99.38
548.34	80.38
548.554	84.38
548.767	102.38
548.98	102.38
549.193	91.38
549.407	86.38
549.62	87.38
549.833	79.38
550.046	94.38
550.259	94.38
550.473	89.38
550.686	85.38
550.899	82.38
551.112	100.38
551.325	95.38
551.538	97.38
551.751	86.38
551.964	96.38
552.177	88.38
552.39	84.38
552.603	84.38
552.816	91.38
553.029	92.38
553.242	97.38
553.455	95.38
553.667	91.38
553.88	86.38
554.093	104.38
554.306	107.38
554.519	96.38
554.732	80.38
554.944	91.38
555.157	99.38
555.37	88.38
555.583	103.38
555.795	97.38
556.008	95.38
556.221	95.38
556.433	99.38
556.646	101.38
556.859	88.38
557.071	91.38
557.284	89.38
557.496	101.38
557.709	74.38
557.921	88.38
558.134	89.38
558.346	89.38
558.559	88.38
558.771	100.38
558.984	88.38
559.196	86.38
559.409	102.38
559.621	77.38
559.833	87.38
560.046	86.38
560.258	93.38
560.47	90.38
560.683	102.38
560.895	90.38
561.107	92.38
561.32	97.38
561.532	84.38
561.744	87.38
561.956	103.38
562.168	89.38
562.381	92.38
562.593	76.38
562.805	80.38
563.017	82.38
563.229	86.38
563.441	83.38
563.653	87.38
563.865	90.38
564.077	77.38
564.289	91.38
564.501	91.38
564.713	87.38
564.925	83.38
565.137	83.38
565.349	100.38
565.561	94.38
565.773	98.38
565.985	92.38
566.197	87.38
566.408	98.38
566.62	99.38
566.832	97.38
567.044	79.38
567.255	95.38
567.467	84.38
567.679	76.38
567.891	80.38
568.102	74.38
568.314	74.38
568.526	83.38
568.737	85.38
568.949	88.38
569.161	75.38
569.372	76.38
569.584	79.38
569.795	90.38
570.007	76.38
570.218	94.38
570.43	63.38
570.641	89.38
570.853	88.38
571.064	86.38
571.276	92.38
571.487	94.38
571.698	92.38
571.91	91.38
572.121	92.38
572.333	82.38
572.544	64.38
572.755	96.38
572.966	92.38
573.178	90.38
573.389	98.38
573.6	76.38
573.811	55.38
574.023	71.38
574.234	76.38
574.445	88.38
574.656	82.38
574.867	92.38
575.078	89.38
575.289	81.38
575.501	95.38
575.712	94.38
575.923	84.38
576.134	87.38
576.345	92.38
576.556	76.38
576.767	94.38
576.978	82.38
577.188	84.38
577.399	85.38
577.61	80.38
577.821	89.38
578.032	92.38
578.243	99.38
578.454	80.38
578.665	77.38
578.875	69.38
579.086	88.38
579.297	81.38
579.508	69.38
579.718	88.38
579.929	77.38
580.14	77.38
580.35	84.38
580.561	95.38
580.772	76.38
580.982	87.38
581.193	87.38
581.403	76.38
581.614	68.38
581.825	83.38
582.035	70.38
582.246	103.38
582.456	74.38
582.667	78.38
582.877	84.38
583.087	79.38
583.298	83.38
583.508	89.38
583.719	88.38
583.929	79.38
584.139	68.38
584.35	83.38
584.56	71.38
584.77	88.38
584.981	75.38
585.191	80.38
585.401	83.38
585.611	82.38
585.821	83.38
586.032	93.38
586.242	80.38
586.452	86.38
586.662	90.38
586.872	85.38
587.082	84.38
587.292	78.38
587.502	89.38
587.713	81.38
587.923	72.38
588.133	81.38
588.343	71.38
588.553	85.38
588.762	89.38
588.972	76.38
589.182	80.38
589.392	83.38
589.602	80.38
589.812	81.38
590.022	83.38
590.232	86.38
590.441	88.38
590.651	81.38
590.861	87.38
591.071	87.38
591.281	74.38
591.49	80.38
591.7	67.38
591.91	82.38
592.119	76.38
592.329	80.38
592.539	81.38
592.748	71.38
592.958	74.38
593.167	83.38
593.377	79.38
593.587	103.38
593.796	81.38
594.006	84.38
594.215	92.38
594.424	71.38
594.634	84.38
594.843	76.38
595.053	82.38
595.262	70.38
595.472	84.38
595.681	91.38
595.89	93.38
596.1	80.38
596.309	75.38
596.518	88.38
596.727	89.38
596.937	86.38
597.146	73.38
597.355	81.38
597.564	87.38
597.774	95.38
597.983	79.38
598.192	71.38
598.401	86.38
598.61	68.38
598.819	93.38
599.028	75.38
599.237	72.38
599.446	82.38
599.655	92.38
599.864	78.38
600.073	80.38
600.282	81.38
600.491	77.38
600.7	97.38
600.909	86.38
601.118	76.38
601.327	83.38
601.536	84.38
601.745	87.38
601.953	92.38
602.162	76.38
602.371	80.38
602.58	102.38
602.789	81.38
602.997	75.38
603.206	87.38
603.415	88.38
603.623	100.38
603.832	86.38
604.041	92.38
604.249	83.38
604.458	93.38
604.666	89.38
604.875	85.38
605.084	71.38
605.292	90.38
605.501	76.38
605.709	108.38
605.918	84.38
606.126	95.38
606.334	80.38
606.543	80.38
606.751	84.38
606.96	94.38
607.168	86.38
607.376	101.38
607.585	77.38
607.793	97.38
608.001	83.38
608.21	75.38
608.418	95.38
608.626	80.38
608.834	91.38
609.043	86.38
609.251	80.38
609.459	89.38
609.667	92.38
609.875	79.38
610.083	87.38
610.291	80.38
610.499	80.38
610.707	91.38
610.916	81.38
611.124	75.38
611.332	85.38
611.54	98.38
611.748	79.38
611.955	94.38
612.163	103.38
612.371	94.38
612.579	82.38
612.787	87.38
612.995	81.38
613.203	98.38
613.411	95.38
613.618	89.38
613.826	84.38
614.034	81.38
614.242	101.38
614.449	91.38
614.657	82.38
614.865	92.38
615.072	84.38
615.28	87.38
615.488	89.38
615.695	93.38
615.903	113.38
616.111	83.38
616.318	90.38
616.526	87.38
616.733	78.38
616.941	83.38
617.148	75.38
617.356	100.38
617.563	98.38
617.771	98.38
617.978	68.38
618.185	89.38
618.393	81.38
618.6	80.38
618.807	72.38
619.015	87.38
619.222	87.38
619.429	70.38
619.637	86.38
619.844	80.38
620.051	74.38
620.258	81.38
620.466	85.38
620.673	82.38
620.88	78.38
621.087	88.38
621.294	77.38
621.501	89.38
621.708	87.38
621.915	80.38
622.122	86.38
622.329	76.38
622.536	71.38
622.743	82.38
622.95	88.38
623.157	80.38
623.364	83.38
623.571	83.38
623.778	75.38
623.985	92.38
624.192	82.38
624.399	90.38
624.606	89.38
624.812	74.38
625.019	89.38
625.226	88.38
625.433	76.38
625.639	76.38
625.846	86.38
626.053	84.38
626.259	84.38
626.466	89.38
626.673	66.38
626.879	76.38
627.086	85.38
627.293	98.38
627.499	89.38
627.706	95.38
627.912	86.38
628.119	81.38
628.325	100.38
628.532	83.38
628.738	90.38
628.945	88.38
629.151	95.38
629.357	98.38
629.564	70.38
629.77	81.38
629.976	75.38
630.183	71.38
630.389	82.38
630.595	74.38
630.802	84.38
631.008	75.38
631.214	77.38
631.42	93.38
631.627	85.38
631.833	95.38
632.039	81.38
632.245	90.38
632.451	101.38
632.657	87.38
632.863	77.38
633.069	87.38
633.275	72.38
633.481	79.38
633.688	85.38
633.893	91.38
634.099	84.38
634.305	87.38
634.511	80.38
634.717	88.38
634.923	84.38
635.129	84.38
635.335	79.38
635.541	78.38
635.747	71.38
635.952	83.38
636.158	85.38
636.364	78.38
636.57	86.38
636.775	79.38
636.981	80.38
637.187	82.38
637.392	92.38
637.598	97.38
637.804	91.38
638.009	86.38
638.215	90.38
638.421	96.38
638.626	69.38
638.832	86.38
639.037	91.38
639.243	69.38
639.448	74.38
639.654	74.38
639.859	79.38
640.065	80.38
640.27	98.38
640.475	82.38
640.681	82.38
640.886	76.38
641.091	82.38
641.297	82.38
641.502	91.38
641.707	87.38
641.913	78.38
642.118	84.38
642.323	85.38
642.528	94.38
642.733	100.38
642.939	84.38
643.144	78.38
643.349	74.38
643.554	90.38
643.759	82.38
643.964	82.38
644.169	80.38
644.374	77.38
644.579	73.38
644.784	90.38
644.989	73.38
645.194	90.38
645.399	82.38
645.604	76.38
645.809	82.38
646.014	74.38
646.219	84.38
646.423	70.38
646.628	88.38
646.833	75.38
647.038	76.38
647.243	76.38
647.447	82.38
647.652	75.38
647.857	79.38
648.062	80.38
648.266	91.38
648.471	83.38
648.676	89.38
648.88	92.38
649.085	83.38
649.289	79.38
649.494	84.38
649.698	88.38
649.903	75.38
650.107	91.38
650.312	87.38
650.516	68.38
650.721	90.38
650.925	80.38
651.13	81.38
651.334	81.38
651.539	84.38
651.743	83.38
651.947	79.38
652.152	88.38
652.356	86.38
652.56	66.38
652.764	86.38
652.969	86.38
653.173	98.38
653.377	91.38
653.581	77.38
653.785	93.38
653.99	86.38
654.194	75.38
654.398	90.38
654.602	84.38
654.806	78.38
655.01	81.38
655.214	68.38
655.418	85.38
655.622	78.38
655.826	76.38
656.03	87.38
656.234	78.38
656.438	99.38
656.642	88.38
656.846	85.38
657.049	83.38
657.253	85.38
657.457	67.38
657.661	80.38
657.865	98.38
658.068	86.38
658.272	91.38
658.476	88.38
658.68	76.38
658.883	73.38
659.087	92.38
659.291	86.38
659.494	86.38
659.698	80.38
659.901	106.38
660.105	81.38
660.309	87.38
660.512	82.38
660.716	77.38
660.919	80.38
661.123	82.38
661.326	70.38
661.53	76.38
661.733	81.38
661.936	96.38
662.14	71.38
662.343	88.38
662.546	89.38
662.75	85.38
662.953	81.38
663.156	70.38
663.36	64.38
663.563	78.38
663.766	74.38
663.969	74.38
664.173	76.38
664.376	74.38
664.579	89.38
664.782	76.38
664.985	90.38
665.188	70.38
665.391	73.38
665.594	82.38
665.797	75.38
666	81.38
666.203	78.38
666.406	97.38
666.609	78.38
666.812	77.38
667.015	75.38
667.218	84.38
667.421	73.38
667.624	69.38
667.827	73.38
668.03	87.38
668.232	76.38
668.435	82.38
668.638	95.38
668.841	93.38
669.043	74.38
669.246	87.38
669.449	73.38
669.651	84.38
669.854	74.38
670.057	81.38
670.259	79.38
670.462	82.38
670.665	79.38
670.867	81.38
671.07	81.38
671.272	73.38
671.475	63.38
671.677	90.38
671.88	69.38
672.082	70.38
672.284	102.38
672.487	86.38
672.689	82.38
672.892	66.38
