Data from Zn(NO3)2Standard.Agarose3%.GreenCap.LampEnergy5.5.E.O_HRD10591_15-01-20-767.txt Node
Date: Mon Jul 22 15:01:20 EDT 2019
User: cochatt
Spectrometer: HR+D1059
Trigger mode: 1
Integration Time (sec): 1.000000E-1
Scans to average: 1
Electric dark correction enabled: true
Nonlinearity correction enabled: false
Boxcar width: 0
XAxis mode: Wavelengths
Number of Pixels in Spectrum: 2048
>>>>>Begin Spectral Data<<<<<
223.165	-8.31
223.4	-8.31
223.635	-8.31
223.869	-19.31
224.104	-22.31
224.338	-13.31
224.573	-12.31
224.808	-14.31
225.042	-7.31
225.277	-14.31
225.511	2.69
225.746	7.69
225.98	1.69
226.215	19.69
226.449	13.69
226.683	7.69
226.918	34.69
227.152	23.69
227.387	32.69
227.621	37.69
227.856	36.69
228.09	41.69
228.324	53.69
228.559	51.69
228.793	54.69
229.027	65.69
229.262	53.69
229.496	61.69
229.73	55.69
229.964	80.69
230.199	77.69
230.433	72.69
230.667	76.69
230.901	82.69
231.136	77.69
231.37	74.69
231.604	63.69
231.838	72.69
232.072	72.69
232.306	80.69
232.541	71.69
232.775	84.69
233.009	83.69
233.243	80.69
233.477	81.69
233.711	77.69
233.945	82.69
234.179	76.69
234.413	84.69
234.647	74.69
234.881	73.69
235.115	74.69
235.349	84.69
235.583	76.69
235.817	64.69
236.051	75.69
236.285	70.69
236.519	90.69
236.753	83.69
236.987	71.69
237.221	79.69
237.455	95.69
237.689	71.69
237.922	73.69
238.156	75.69
238.39	73.69
238.624	71.69
238.858	68.69
239.091	69.69
239.325	78.69
239.559	73.69
239.793	84.69
240.027	76.69
240.26	80.69
240.494	77.69
240.728	72.69
240.961	71.69
241.195	82.69
241.429	89.69
241.662	79.69
241.896	73.69
242.13	73.69
242.363	81.69
242.597	77.69
242.83	81.69
243.064	70.69
243.298	63.69
243.531	64.69
243.765	76.69
243.998	86.69
244.232	94.69
244.465	73.69
244.699	71.69
244.932	78.69
245.166	66.69
245.399	62.69
245.633	67.69
245.866	77.69
246.099	58.69
246.333	69.69
246.566	74.69
246.8	64.69
247.033	73.69
247.266	76.69
247.5	86.69
247.733	77.69
247.966	75.69
248.2	83.69
248.433	60.69
248.666	80.69
248.899	73.69
249.133	69.69
249.366	83.69
249.599	84.69
249.832	69.69
250.066	72.69
250.299	81.69
250.532	79.69
250.765	77.69
250.998	67.69
251.231	73.69
251.465	92.69
251.698	81.69
251.931	54.69
252.164	74.69
252.397	90.69
252.63	68.69
252.863	83.69
253.096	81.69
253.329	83.69
253.562	86.69
253.795	93.69
254.028	84.69
254.261	62.69
254.494	86.69
254.727	87.69
254.96	76.69
255.193	67.69
255.426	83.69
255.659	84.69
255.892	81.69
256.124	83.69
256.357	81.69
256.59	73.69
256.823	88.69
257.056	100.69
257.289	89.69
257.521	79.69
257.754	77.69
257.987	89.69
258.22	86.69
258.452	61.69
258.685	70.69
258.918	65.69
259.151	83.69
259.383	92.69
259.616	87.69
259.849	83.69
260.081	81.69
260.314	92.69
260.547	91.69
260.779	84.69
261.012	73.69
261.244	90.69
261.477	89.69
261.71	67.69
261.942	76.69
262.175	84.69
262.407	90.69
262.64	95.69
262.872	87.69
263.105	70.69
263.337	75.69
263.57	82.69
263.802	71.69
264.035	80.69
264.267	84.69
264.499	67.69
264.732	86.69
264.964	73.69
265.197	92.69
265.429	71.69
265.661	85.69
265.894	81.69
266.126	71.69
266.358	98.69
266.591	79.69
266.823	80.69
267.055	93.69
267.287	68.69
267.52	79.69
267.752	88.69
267.984	81.69
268.216	82.69
268.448	74.69
268.681	77.69
268.913	81.69
269.145	91.69
269.377	73.69
269.609	92.69
269.841	103.69
270.073	82.69
270.306	91.69
270.538	89.69
270.77	84.69
271.002	81.69
271.234	87.69
271.466	76.69
271.698	78.69
271.93	84.69
272.162	82.69
272.394	86.69
272.626	84.69
272.858	78.69
273.09	63.69
273.322	88.69
273.553	77.69
273.785	87.69
274.017	81.69
274.249	90.69
274.481	80.69
274.713	81.69
274.945	78.69
275.176	90.69
275.408	85.69
275.64	82.69
275.872	77.69
276.104	102.69
276.335	89.69
276.567	78.69
276.799	81.69
277.031	86.69
277.262	64.69
277.494	87.69
277.726	81.69
277.957	69.69
278.189	65.69
278.421	69.69
278.652	83.69
278.884	81.69
279.115	72.69
279.347	76.69
279.579	75.69
279.81	79.69
280.042	80.69
280.273	80.69
280.505	73.69
280.736	76.69
280.968	94.69
281.199	90.69
281.431	75.69
281.662	76.69
281.894	80.69
282.125	69.69
282.356	79.69
282.588	77.69
282.819	75.69
283.051	73.69
283.282	87.69
283.513	79.69
283.745	78.69
283.976	80.69
284.207	90.69
284.439	94.69
284.67	83.69
284.901	92.69
285.132	90.69
285.364	89.69
285.595	87.69
285.826	96.69
286.057	81.69
286.288	76.69
286.52	89.69
286.751	86.69
286.982	86.69
287.213	85.69
287.444	81.69
287.675	89.69
287.906	67.69
288.138	84.69
288.369	68.69
288.6	82.69
288.831	86.69
289.062	88.69
289.293	73.69
289.524	81.69
289.755	82.69
289.986	90.69
290.217	89.69
290.448	84.69
290.679	88.69
290.91	82.69
291.141	79.69
291.371	94.69
291.602	87.69
291.833	74.69
292.064	84.69
292.295	96.69
292.526	83.69
292.757	91.69
292.987	85.69
293.218	88.69
293.449	77.69
293.68	69.69
293.91	88.69
294.141	79.69
294.372	83.69
294.603	78.69
294.833	86.69
295.064	75.69
295.295	81.69
295.525	81.69
295.756	87.69
295.987	84.69
296.217	79.69
296.448	73.69
296.679	90.69
296.909	87.69
297.14	76.69
297.37	87.69
297.601	84.69
297.831	84.69
298.062	74.69
298.292	84.69
298.523	99.69
298.753	84.69
298.984	85.69
299.214	81.69
299.445	91.69
299.675	87.69
299.905	70.69
300.136	77.69
300.366	89.69
300.597	82.69
300.827	85.69
301.057	78.69
301.288	86.69
301.518	91.69
301.748	94.69
301.979	87.69
302.209	68.69
302.439	73.69
302.669	90.69
302.9	76.69
303.13	76.69
303.36	79.69
303.59	89.69
303.82	77.69
304.051	88.69
304.281	74.69
304.511	90.69
304.741	68.69
304.971	75.69
305.201	77.69
305.431	86.69
305.661	87.69
305.891	90.69
306.121	80.69
306.352	70.69
306.582	73.69
306.812	80.69
307.042	84.69
307.272	84.69
307.502	81.69
307.731	86.69
307.961	91.69
308.191	89.69
308.421	62.69
308.651	87.69
308.881	92.69
309.111	76.69
309.341	82.69
309.571	85.69
309.8	75.69
310.03	87.69
310.26	79.69
310.49	96.69
310.72	67.69
310.949	82.69
311.179	96.69
311.409	90.69
311.639	92.69
311.868	87.69
312.098	83.69
312.328	103.69
312.557	86.69
312.787	83.69
313.017	87.69
313.246	88.69
313.476	84.69
313.706	72.69
313.935	78.69
314.165	65.69
314.394	82.69
314.624	82.69
314.853	82.69
315.083	93.69
315.312	88.69
315.542	87.69
315.771	87.69
316.001	82.69
316.23	90.69
316.46	81.69
316.689	94.69
316.919	83.69
317.148	76.69
317.377	85.69
317.607	87.69
317.836	85.69
318.065	98.69
318.295	82.69
318.524	73.69
318.753	101.69
318.983	80.69
319.212	89.69
319.441	85.69
319.67	78.69
319.9	77.69
320.129	74.69
320.358	53.69
320.587	90.69
320.816	82.69
321.046	87.69
321.275	85.69
321.504	84.69
321.733	74.69
321.962	82.69
322.191	85.69
322.42	86.69
322.649	90.69
322.878	77.69
323.108	93.69
323.337	85.69
323.566	86.69
323.795	74.69
324.024	75.69
324.253	99.69
324.482	79.69
324.71	87.69
324.939	68.69
325.168	72.69
325.397	98.69
325.626	71.69
325.855	80.69
326.084	88.69
326.313	85.69
326.542	85.69
326.77	88.69
326.999	77.69
327.228	90.69
327.457	90.69
327.686	85.69
327.914	88.69
328.143	85.69
328.372	73.69
328.6	75.69
328.829	82.69
329.058	79.69
329.287	91.69
329.515	85.69
329.744	100.69
329.972	86.69
330.201	76.69
330.43	85.69
330.658	82.69
330.887	90.69
331.115	89.69
331.344	92.69
331.572	89.69
331.801	82.69
332.03	83.69
332.258	92.69
332.486	91.69
332.715	76.69
332.943	75.69
333.172	84.69
333.4	88.69
333.629	96.69
333.857	89.69
334.085	73.69
334.314	80.69
334.542	85.69
334.771	81.69
334.999	92.69
335.227	99.69
335.455	75.69
335.684	79.69
335.912	84.69
336.14	88.69
336.369	86.69
336.597	83.69
336.825	94.69
337.053	76.69
337.281	66.69
337.51	94.69
337.738	74.69
337.966	87.69
338.194	90.69
338.422	84.69
338.65	79.69
338.878	83.69
339.106	76.69
339.334	79.69
339.562	92.69
339.79	80.69
340.018	84.69
340.246	74.69
340.474	75.69
340.702	94.69
340.93	73.69
341.158	75.69
341.386	73.69
341.614	88.69
341.842	79.69
342.07	91.69
342.298	96.69
342.526	87.69
342.754	83.69
342.981	82.69
343.209	89.69
343.437	90.69
343.665	82.69
343.893	83.69
344.12	95.69
344.348	90.69
344.576	73.69
344.804	90.69
345.031	91.69
345.259	84.69
345.487	78.69
345.714	80.69
345.942	84.69
346.17	81.69
346.397	88.69
346.625	73.69
346.853	81.69
347.08	74.69
347.308	94.69
347.535	93.69
347.763	88.69
347.99	92.69
348.218	72.69
348.445	81.69
348.673	91.69
348.9	80.69
349.128	87.69
349.355	81.69
349.583	80.69
349.81	84.69
350.037	91.69
350.265	85.69
350.492	93.69
350.72	83.69
350.947	75.69
351.174	88.69
351.402	65.69
351.629	87.69
351.856	97.69
352.083	89.69
352.311	86.69
352.538	80.69
352.765	87.69
352.992	84.69
353.22	87.69
353.447	90.69
353.674	77.69
353.901	82.69
354.128	84.69
354.355	84.69
354.583	92.69
354.81	78.69
355.037	80.69
355.264	81.69
355.491	71.69
355.718	94.69
355.945	107.69
356.172	85.69
356.399	74.69
356.626	79.69
356.853	69.69
357.08	83.69
357.307	72.69
357.534	79.69
357.761	84.69
357.988	85.69
358.215	73.69
358.441	84.69
358.668	86.69
358.895	78.69
359.122	78.69
359.349	83.69
359.576	77.69
359.802	85.69
360.029	82.69
360.256	87.69
360.483	88.69
360.709	71.69
360.936	75.69
361.163	85.69
361.39	72.69
361.616	92.69
361.843	75.69
362.07	89.69
362.296	85.69
362.523	80.69
362.749	82.69
362.976	83.69
363.203	91.69
363.429	82.69
363.656	74.69
363.882	87.69
364.109	88.69
364.335	93.69
364.562	83.69
364.788	89.69
365.015	86.69
365.241	77.69
365.468	84.69
365.694	73.69
365.92	103.69
366.147	76.69
366.373	89.69
366.599	77.69
366.826	83.69
367.052	79.69
367.278	87.69
367.505	84.69
367.731	75.69
367.957	80.69
368.184	76.69
368.41	87.69
368.636	86.69
368.862	80.69
369.089	67.69
369.315	83.69
369.541	89.69
369.767	87.69
369.993	75.69
370.219	83.69
370.445	84.69
370.672	96.69
370.898	78.69
371.124	75.69
371.35	89.69
371.576	102.69
371.802	77.69
372.028	83.69
372.254	92.69
372.48	81.69
372.706	77.69
372.932	75.69
373.158	77.69
373.384	95.69
373.61	83.69
373.835	76.69
374.061	87.69
374.287	103.69
374.513	84.69
374.739	91.69
374.965	87.69
375.191	79.69
375.416	83.69
375.642	80.69
375.868	84.69
376.094	80.69
376.319	93.69
376.545	81.69
376.771	85.69
376.997	73.69
377.222	78.69
377.448	79.69
377.674	86.69
377.899	89.69
378.125	77.69
378.35	84.69
378.576	87.69
378.802	82.69
379.027	79.69
379.253	82.69
379.478	79.69
379.704	91.69
379.929	88.69
380.155	85.69
380.38	80.69
380.606	87.69
380.831	77.69
381.057	83.69
381.282	87.69
381.507	93.69
381.733	91.69
381.958	71.69
382.184	92.69
382.409	86.69
382.634	79.69
382.86	79.69
383.085	89.69
383.31	88.69
383.535	73.69
383.761	65.69
383.986	91.69
384.211	83.69
384.436	76.69
384.662	82.69
384.887	79.69
385.112	91.69
385.337	82.69
385.562	74.69
385.787	75.69
386.013	79.69
386.238	72.69
386.463	100.69
386.688	83.69
386.913	79.69
387.138	94.69
387.363	91.69
387.588	91.69
387.813	77.69
388.038	83.69
388.263	79.69
388.488	85.69
388.713	82.69
388.938	77.69
389.163	96.69
389.387	84.69
389.612	83.69
389.837	90.69
390.062	88.69
390.287	89.69
390.512	92.69
390.736	83.69
390.961	64.69
391.186	81.69
391.411	83.69
391.636	91.69
391.86	61.69
392.085	81.69
392.31	85.69
392.534	84.69
392.759	82.69
392.984	74.69
393.208	82.69
393.433	76.69
393.658	86.69
393.882	101.69
394.107	84.69
394.331	89.69
394.556	80.69
394.78	77.69
395.005	74.69
395.229	77.69
395.454	98.69
395.678	77.69
395.903	62.69
396.127	83.69
396.352	81.69
396.576	80.69
396.801	103.69
397.025	79.69
397.249	88.69
397.474	78.69
397.698	71.69
397.922	85.69
398.147	87.69
398.371	92.69
398.595	75.69
398.82	81.69
399.044	96.69
399.268	81.69
399.492	95.69
399.717	93.69
399.941	66.69
400.165	82.69
400.389	69.69
400.613	90.69
400.837	71.69
401.062	87.69
401.286	83.69
401.51	77.69
401.734	94.69
401.958	78.69
402.182	84.69
402.406	87.69
402.63	71.69
402.854	87.69
403.078	82.69
403.302	78.69
403.526	92.69
403.75	81.69
403.974	91.69
404.198	80.69
404.422	90.69
404.645	92.69
404.869	84.69
405.093	90.69
405.317	80.69
405.541	87.69
405.765	71.69
405.988	77.69
406.212	100.69
406.436	79.69
406.66	81.69
406.883	96.69
407.107	89.69
407.331	78.69
407.555	89.69
407.778	85.69
408.002	93.69
408.226	91.69
408.449	99.69
408.673	77.69
408.896	76.69
409.12	96.69
409.344	92.69
409.567	93.69
409.791	91.69
410.014	83.69
410.238	79.69
410.461	79.69
410.685	72.69
410.908	86.69
411.132	87.69
411.355	74.69
411.578	94.69
411.802	82.69
412.025	87.69
412.249	89.69
412.472	77.69
412.695	96.69
412.919	76.69
413.142	93.69
413.365	77.69
413.589	85.69
413.812	86.69
414.035	90.69
414.258	91.69
414.482	80.69
414.705	71.69
414.928	88.69
415.151	96.69
415.374	96.69
415.597	91.69
415.821	78.69
416.044	85.69
416.267	82.69
416.49	83.69
416.713	81.69
416.936	71.69
417.159	90.69
417.382	85.69
417.605	70.69
417.828	98.69
418.051	96.69
418.274	83.69
418.497	99.69
418.72	69.69
418.943	75.69
419.166	70.69
419.389	84.69
419.611	82.69
419.834	93.69
420.057	85.69
420.28	104.69
420.503	95.69
420.726	88.69
420.948	99.69
421.171	75.69
421.394	81.69
421.617	81.69
421.839	81.69
422.062	91.69
422.285	96.69
422.507	93.69
422.73	74.69
422.953	89.69
423.175	92.69
423.398	90.69
423.621	76.69
423.843	82.69
424.066	86.69
424.288	80.69
424.511	99.69
424.733	76.69
424.956	91.69
425.178	82.69
425.401	88.69
425.623	86.69
425.846	76.69
426.068	89.69
426.291	77.69
426.513	86.69
426.735	94.69
426.958	80.69
427.18	95.69
427.402	94.69
427.625	90.69
427.847	89.69
428.069	87.69
428.292	90.69
428.514	80.69
428.736	88.69
428.958	96.69
429.181	87.69
429.403	87.69
429.625	82.69
429.847	92.69
430.069	81.69
430.292	75.69
430.514	90.69
430.736	84.69
430.958	87.69
431.18	89.69
431.402	83.69
431.624	102.69
431.846	77.69
432.068	85.69
432.29	82.69
432.512	91.69
432.734	79.69
432.956	80.69
433.178	88.69
433.4	106.69
433.622	95.69
433.844	79.69
434.066	82.69
434.287	86.69
434.509	78.69
434.731	78.69
434.953	85.69
435.175	95.69
435.397	89.69
435.618	76.69
435.84	77.69
436.062	89.69
436.284	73.69
436.505	83.69
436.727	76.69
436.949	100.69
437.17	87.69
437.392	88.69
437.614	93.69
437.835	77.69
438.057	79.69
438.278	79.69
438.5	92.69
438.721	84.69
438.943	86.69
439.165	84.69
439.386	82.69
439.608	81.69
439.829	87.69
440.05	83.69
440.272	73.69
440.493	96.69
440.715	87.69
440.936	95.69
441.158	86.69
441.379	76.69
441.6	81.69
441.822	83.69
442.043	83.69
442.264	89.69
442.486	99.69
442.707	85.69
442.928	79.69
443.149	86.69
443.371	81.69
443.592	92.69
443.813	77.69
444.034	83.69
444.255	77.69
444.476	79.69
444.698	88.69
444.919	106.69
445.14	194.69
445.361	121.69
445.582	85.69
445.803	71.69
446.024	98.69
446.245	81.69
446.466	98.69
446.687	88.69
446.908	87.69
447.129	96.69
447.35	83.69
447.571	84.69
447.792	92.69
448.013	76.69
448.234	86.69
448.455	86.69
448.675	92.69
448.896	94.69
449.117	87.69
449.338	94.69
449.559	88.69
449.779	88.69
450	85.69
450.221	88.69
450.442	94.69
450.662	87.69
450.883	76.69
451.104	83.69
451.324	88.69
451.545	70.69
451.766	78.69
451.986	91.69
452.207	85.69
452.428	82.69
452.648	91.69
452.869	88.69
453.089	87.69
453.31	84.69
453.53	75.69
453.751	84.69
453.971	73.69
454.192	72.69
454.412	94.69
454.633	86.69
454.853	80.69
455.073	85.69
455.294	69.69
455.514	92.69
455.734	84.69
455.955	84.69
456.175	88.69
456.395	76.69
456.616	87.69
456.836	91.69
457.056	92.69
457.276	79.69
457.497	85.69
457.717	75.69
457.937	89.69
458.157	75.69
458.377	74.69
458.598	91.69
458.818	78.69
459.038	80.69
459.258	92.69
459.478	82.69
459.698	90.69
459.918	86.69
460.138	96.69
460.358	87.69
460.578	80.69
460.798	70.69
461.018	86.69
461.238	80.69
461.458	92.69
461.678	95.69
461.898	92.69
462.118	82.69
462.338	74.69
462.558	84.69
462.777	88.69
462.997	80.69
463.217	92.69
463.437	82.69
463.657	71.69
463.876	82.69
464.096	83.69
464.316	79.69
464.536	81.69
464.755	93.69
464.975	86.69
465.195	81.69
465.414	84.69
465.634	82.69
465.854	86.69
466.073	75.69
466.293	86.69
466.512	75.69
466.732	75.69
466.951	87.69
467.171	104.69
467.391	90.69
467.61	77.69
467.829	99.69
468.049	91.69
468.268	88.69
468.488	85.69
468.707	91.69
468.927	87.69
469.146	91.69
469.365	87.69
469.585	96.69
469.804	86.69
470.023	95.69
470.243	116.69
470.462	100.69
470.681	88.69
470.901	75.69
471.12	83.69
471.339	83.69
471.558	81.69
471.777	88.69
471.997	75.69
472.216	85.69
472.435	95.69
472.654	78.69
472.873	85.69
473.092	89.69
473.311	97.69
473.53	76.69
473.749	80.69
473.968	99.69
474.187	85.69
474.406	95.69
474.625	84.69
474.844	91.69
475.063	78.69
475.282	95.69
475.501	81.69
475.72	83.69
475.939	78.69
476.158	87.69
476.377	95.69
476.596	93.69
476.814	98.69
477.033	85.69
477.252	77.69
477.471	85.69
477.69	84.69
477.908	99.69
478.127	81.69
478.346	98.69
478.564	98.69
478.783	83.69
479.002	84.69
479.22	77.69
479.439	102.69
479.658	91.69
479.876	92.69
480.095	88.69
480.313	90.69
480.532	82.69
480.751	83.69
480.969	81.69
481.188	101.69
481.406	81.69
481.624	83.69
481.843	88.69
482.061	77.69
482.28	102.69
482.498	90.69
482.717	74.69
482.935	88.69
483.153	98.69
483.372	96.69
483.59	100.69
483.808	95.69
484.027	92.69
484.245	78.69
484.463	87.69
484.681	98.69
484.9	99.69
485.118	89.69
485.336	93.69
485.554	78.69
485.772	83.69
485.99	87.69
486.209	72.69
486.427	100.69
486.645	90.69
486.863	96.69
487.081	106.69
487.299	98.69
487.517	96.69
487.735	95.69
487.953	95.69
488.171	99.69
488.389	96.69
488.607	91.69
488.825	86.69
489.043	91.69
489.261	85.69
489.479	91.69
489.696	88.69
489.914	91.69
490.132	98.69
490.35	98.69
490.568	85.69
490.786	108.69
491.003	94.69
491.221	90.69
491.439	103.69
491.657	108.69
491.874	117.69
492.092	109.69
492.31	106.69
492.527	106.69
492.745	96.69
492.963	101.69
493.18	85.69
493.398	90.69
493.615	99.69
493.833	102.69
494.05	100.69
494.268	107.69
494.485	101.69
494.703	89.69
494.92	95.69
495.138	100.69
495.355	106.69
495.573	85.69
495.79	99.69
496.008	87.69
496.225	104.69
496.442	87.69
496.66	102.69
496.877	99.69
497.094	112.69
497.312	96.69
497.529	100.69
497.746	101.69
497.963	93.69
498.181	79.69
498.398	92.69
498.615	84.69
498.832	88.69
499.049	81.69
499.267	103.69
499.484	82.69
499.701	100.69
499.918	88.69
500.135	92.69
500.352	102.69
500.569	87.69
500.786	97.69
501.003	76.69
501.22	92.69
501.437	100.69
501.654	93.69
501.871	90.69
502.088	87.69
502.305	98.69
502.522	80.69
502.739	84.69
502.956	85.69
503.172	90.69
503.389	80.69
503.606	89.69
503.823	83.69
504.04	99.69
504.256	85.69
504.473	85.69
504.69	86.69
504.907	103.69
505.123	94.69
505.34	94.69
505.557	87.69
505.773	99.69
505.99	84.69
506.207	89.69
506.423	97.69
506.64	80.69
506.856	95.69
507.073	88.69
507.289	82.69
507.506	97.69
507.722	90.69
507.939	83.69
508.155	98.69
508.372	89.69
508.588	91.69
508.805	81.69
509.021	89.69
509.238	86.69
509.454	80.69
509.67	80.69
509.887	84.69
510.103	86.69
510.319	75.69
510.536	84.69
510.752	95.69
510.968	85.69
511.184	89.69
511.401	87.69
511.617	92.69
511.833	95.69
512.049	77.69
512.265	79.69
512.481	82.69
512.698	93.69
512.914	85.69
513.13	86.69
513.346	94.69
513.562	92.69
513.778	77.69
513.994	98.69
514.21	75.69
514.426	98.69
514.642	88.69
514.858	87.69
515.074	91.69
515.29	90.69
515.506	89.69
515.721	76.69
515.937	91.69
516.153	82.69
516.369	89.69
516.585	80.69
516.801	92.69
517.016	75.69
517.232	91.69
517.448	85.69
517.664	80.69
517.879	88.69
518.095	87.69
518.311	85.69
518.527	90.69
518.742	73.69
518.958	82.69
519.173	81.69
519.389	100.69
519.605	83.69
519.82	97.69
520.036	87.69
520.251	73.69
520.467	76.69
520.682	72.69
520.898	94.69
521.113	80.69
521.329	91.69
521.544	83.69
521.76	78.69
521.975	93.69
522.19	83.69
522.406	81.69
522.621	92.69
522.836	79.69
523.052	92.69
523.267	88.69
523.482	82.69
523.698	82.69
523.913	95.69
524.128	86.69
524.343	101.69
524.559	104.69
524.774	96.69
524.989	97.69
525.204	94.69
525.419	88.69
525.634	82.69
525.849	90.69
526.064	78.69
526.28	100.69
526.495	91.69
526.71	86.69
526.925	75.69
527.14	84.69
527.355	89.69
527.57	77.69
527.785	96.69
527.999	82.69
528.214	78.69
528.429	87.69
528.644	86.69
528.859	84.69
529.074	81.69
529.289	80.69
529.503	91.69
529.718	83.69
529.933	80.69
530.148	88.69
530.363	75.69
530.577	83.69
530.792	83.69
531.007	89.69
531.221	86.69
531.436	85.69
531.651	76.69
531.865	69.69
532.08	86.69
532.295	86.69
532.509	69.69
532.724	97.69
532.938	94.69
533.153	71.69
533.367	77.69
533.582	91.69
533.796	92.69
534.011	95.69
534.225	85.69
534.44	79.69
534.654	89.69
534.868	91.69
535.083	87.69
535.297	78.69
535.511	79.69
535.726	82.69
535.94	86.69
536.154	90.69
536.369	81.69
536.583	77.69
536.797	74.69
537.011	85.69
537.225	97.69
537.44	87.69
537.654	75.69
537.868	84.69
538.082	80.69
538.296	88.69
538.51	74.69
538.724	80.69
538.938	100.69
539.153	95.69
539.367	90.69
539.581	88.69
539.795	87.69
540.009	81.69
540.222	88.69
540.436	96.69
540.65	83.69
540.864	95.69
541.078	89.69
541.292	100.69
541.506	101.69
541.72	113.69
541.934	107.69
542.147	87.69
542.361	94.69
542.575	97.69
542.789	87.69
543.002	92.69
543.216	95.69
543.43	87.69
543.644	81.69
543.857	78.69
544.071	93.69
544.285	98.69
544.498	103.69
544.712	105.69
544.925	100.69
545.139	105.69
545.352	92.69
545.566	93.69
545.779	88.69
545.993	120.69
546.206	101.69
546.42	81.69
546.633	104.69
546.847	104.69
547.06	98.69
547.274	104.69
547.487	105.69
547.7	97.69
547.914	96.69
548.127	113.69
548.34	118.69
548.554	103.69
548.767	107.69
548.98	89.69
549.193	97.69
549.407	103.69
549.62	92.69
549.833	98.69
550.046	103.69
550.259	88.69
550.473	87.69
550.686	98.69
550.899	92.69
551.112	93.69
551.325	106.69
551.538	103.69
551.751	85.69
551.964	79.69
552.177	99.69
552.39	97.69
552.603	96.69
552.816	94.69
553.029	82.69
553.242	97.69
553.455	90.69
553.667	110.69
553.88	96.69
554.093	99.69
554.306	104.69
554.519	97.69
554.732	87.69
554.944	101.69
555.157	95.69
555.37	93.69
555.583	103.69
555.795	93.69
556.008	97.69
556.221	80.69
556.433	93.69
556.646	103.69
556.859	96.69
557.071	93.69
557.284	89.69
557.496	97.69
557.709	89.69
557.921	99.69
558.134	94.69
558.346	96.69
558.559	88.69
558.771	99.69
558.984	111.69
559.196	95.69
559.409	84.69
559.621	83.69
559.833	87.69
560.046	90.69
560.258	89.69
560.47	92.69
560.683	72.69
560.895	83.69
561.107	98.69
561.32	90.69
561.532	90.69
561.744	94.69
561.956	92.69
562.168	83.69
562.381	106.69
562.593	97.69
562.805	91.69
563.017	89.69
563.229	91.69
563.441	69.69
563.653	90.69
563.865	82.69
564.077	72.69
564.289	91.69
564.501	80.69
564.713	83.69
564.925	103.69
565.137	85.69
565.349	84.69
565.561	102.69
565.773	93.69
565.985	85.69
566.197	89.69
566.408	86.69
566.62	76.69
566.832	76.69
567.044	91.69
567.255	82.69
567.467	82.69
567.679	77.69
567.891	80.69
568.102	88.69
568.314	82.69
568.526	90.69
568.737	85.69
568.949	85.69
569.161	86.69
569.372	98.69
569.584	81.69
569.795	82.69
570.007	76.69
570.218	99.69
570.43	102.69
570.641	84.69
570.853	79.69
571.064	84.69
571.276	82.69
571.487	79.69
571.698	84.69
571.91	94.69
572.121	88.69
572.333	88.69
572.544	94.69
572.755	97.69
572.966	91.69
573.178	77.69
573.389	81.69
573.6	79.69
573.811	90.69
574.023	92.69
574.234	89.69
574.445	84.69
574.656	90.69
574.867	85.69
575.078	83.69
575.289	75.69
575.501	91.69
575.712	82.69
575.923	77.69
576.134	91.69
576.345	73.69
576.556	87.69
576.767	91.69
576.978	82.69
577.188	79.69
577.399	73.69
577.61	90.69
577.821	79.69
578.032	83.69
578.243	78.69
578.454	88.69
578.665	82.69
578.875	87.69
579.086	107.69
579.297	69.69
579.508	89.69
579.718	92.69
579.929	85.69
580.14	92.69
580.35	82.69
580.561	90.69
580.772	82.69
580.982	97.69
581.193	81.69
581.403	76.69
581.614	82.69
581.825	89.69
582.035	81.69
582.246	76.69
582.456	79.69
582.667	98.69
582.877	96.69
583.087	88.69
583.298	88.69
583.508	85.69
583.719	87.69
583.929	82.69
584.139	64.69
584.35	81.69
584.56	91.69
584.77	76.69
584.981	81.69
585.191	96.69
585.401	89.69
585.611	79.69
585.821	79.69
586.032	95.69
586.242	85.69
586.452	84.69
586.662	89.69
586.872	72.69
587.082	73.69
587.292	72.69
587.502	73.69
587.713	73.69
587.923	84.69
588.133	77.69
588.343	91.69
588.553	85.69
588.762	85.69
588.972	102.69
589.182	95.69
589.392	92.69
589.602	78.69
589.812	80.69
590.022	77.69
590.232	93.69
590.441	86.69
590.651	89.69
590.861	88.69
591.071	85.69
591.281	89.69
591.49	82.69
591.7	86.69
591.91	76.69
592.119	86.69
592.329	96.69
592.539	99.69
592.748	99.69
592.958	81.69
593.167	92.69
593.377	86.69
593.587	86.69
593.796	77.69
594.006	82.69
594.215	98.69
594.424	87.69
594.634	80.69
594.843	92.69
595.053	88.69
595.262	85.69
595.472	99.69
595.681	87.69
595.89	90.69
596.1	88.69
596.309	75.69
596.518	101.69
596.727	82.69
596.937	89.69
597.146	67.69
597.355	68.69
597.564	88.69
597.774	93.69
597.983	80.69
598.192	78.69
598.401	92.69
598.61	84.69
598.819	87.69
599.028	82.69
599.237	92.69
599.446	84.69
599.655	84.69
599.864	88.69
600.073	89.69
600.282	81.69
600.491	84.69
600.7	91.69
600.909	74.69
601.118	74.69
601.327	80.69
601.536	83.69
601.745	81.69
601.953	97.69
602.162	86.69
602.371	93.69
602.58	87.69
602.789	91.69
602.997	89.69
603.206	88.69
603.415	89.69
603.623	92.69
603.832	82.69
604.041	82.69
604.249	93.69
604.458	87.69
604.666	94.69
604.875	87.69
605.084	92.69
605.292	85.69
605.501	84.69
605.709	72.69
605.918	98.69
606.126	87.69
606.334	78.69
606.543	88.69
606.751	92.69
606.96	87.69
607.168	100.69
607.376	103.69
607.585	95.69
607.793	81.69
608.001	80.69
608.21	90.69
608.418	80.69
608.626	91.69
608.834	108.69
609.043	87.69
609.251	88.69
609.459	81.69
609.667	88.69
609.875	84.69
610.083	86.69
610.291	83.69
610.499	83.69
610.707	91.69
610.916	85.69
611.124	86.69
611.332	95.69
611.54	84.69
611.748	99.69
611.955	87.69
612.163	87.69
612.371	93.69
612.579	86.69
612.787	100.69
612.995	89.69
613.203	104.69
613.411	104.69
613.618	87.69
613.826	101.69
614.034	95.69
614.242	93.69
614.449	76.69
614.657	99.69
614.865	93.69
615.072	89.69
615.28	87.69
615.488	87.69
615.695	76.69
615.903	95.69
616.111	99.69
616.318	101.69
616.526	102.69
616.733	83.69
616.941	90.69
617.148	80.69
617.356	71.69
617.563	79.69
617.771	91.69
617.978	100.69
618.185	91.69
618.393	89.69
618.6	87.69
618.807	97.69
619.015	99.69
619.222	81.69
619.429	82.69
619.637	84.69
619.844	81.69
620.051	75.69
620.258	84.69
620.466	81.69
620.673	95.69
620.88	88.69
621.087	78.69
621.294	101.69
621.501	97.69
621.708	84.69
621.915	101.69
622.122	92.69
622.329	87.69
622.536	81.69
622.743	86.69
622.95	71.69
623.157	102.69
623.364	84.69
623.571	80.69
623.778	96.69
623.985	105.69
624.192	97.69
624.399	78.69
624.606	86.69
624.812	87.69
625.019	85.69
625.226	86.69
625.433	100.69
625.639	81.69
625.846	77.69
626.053	81.69
626.259	92.69
626.466	81.69
626.673	79.69
626.879	89.69
627.086	88.69
627.293	83.69
627.499	76.69
627.706	78.69
627.912	78.69
628.119	99.69
628.325	82.69
628.532	85.69
628.738	75.69
628.945	80.69
629.151	93.69
629.357	91.69
629.564	87.69
629.77	84.69
629.976	81.69
630.183	84.69
630.389	68.69
630.595	72.69
630.802	86.69
631.008	83.69
631.214	87.69
631.42	91.69
631.627	91.69
631.833	88.69
632.039	84.69
632.245	76.69
632.451	73.69
632.657	91.69
632.863	85.69
633.069	93.69
633.275	77.69
633.481	75.69
633.688	82.69
633.893	95.69
634.099	101.69
634.305	80.69
634.511	89.69
634.717	85.69
634.923	80.69
635.129	82.69
635.335	77.69
635.541	85.69
635.747	77.69
635.952	67.69
636.158	91.69
636.364	87.69
636.57	89.69
636.775	87.69
636.981	84.69
637.187	84.69
637.392	85.69
637.598	80.69
637.804	80.69
638.009	92.69
638.215	82.69
638.421	75.69
638.626	98.69
638.832	94.69
639.037	83.69
639.243	73.69
639.448	88.69
639.654	97.69
639.859	104.69
640.065	85.69
640.27	90.69
640.475	77.69
640.681	77.69
640.886	73.69
641.091	87.69
641.297	84.69
641.502	77.69
641.707	88.69
641.913	99.69
642.118	88.69
642.323	79.69
642.528	93.69
642.733	80.69
642.939	92.69
643.144	86.69
643.349	70.69
643.554	92.69
643.759	95.69
643.964	89.69
644.169	97.69
644.374	90.69
644.579	97.69
644.784	88.69
644.989	81.69
645.194	94.69
645.399	87.69
645.604	91.69
645.809	82.69
646.014	87.69
646.219	93.69
646.423	79.69
646.628	76.69
646.833	84.69
647.038	81.69
647.243	91.69
647.447	84.69
647.652	80.69
647.857	73.69
648.062	93.69
648.266	82.69
648.471	101.69
648.676	77.69
648.88	84.69
649.085	73.69
649.289	107.69
649.494	84.69
649.698	88.69
649.903	90.69
650.107	94.69
650.312	83.69
650.516	91.69
650.721	97.69
650.925	101.69
651.13	82.69
651.334	73.69
651.539	84.69
651.743	85.69
651.947	78.69
652.152	87.69
652.356	72.69
652.56	76.69
652.764	72.69
652.969	87.69
653.173	85.69
653.377	84.69
653.581	91.69
653.785	88.69
653.99	88.69
654.194	85.69
654.398	91.69
654.602	76.69
654.806	71.69
655.01	77.69
655.214	87.69
655.418	82.69
655.622	82.69
655.826	87.69
656.03	73.69
656.234	88.69
656.438	81.69
656.642	84.69
656.846	84.69
657.049	77.69
657.253	74.69
657.457	70.69
657.661	72.69
657.865	83.69
658.068	91.69
658.272	86.69
658.476	78.69
658.68	79.69
658.883	77.69
659.087	82.69
659.291	77.69
659.494	76.69
659.698	81.69
659.901	85.69
660.105	89.69
660.309	87.69
660.512	74.69
660.716	81.69
660.919	89.69
661.123	80.69
661.326	90.69
661.53	83.69
661.733	92.69
661.936	80.69
662.14	88.69
662.343	78.69
662.546	76.69
662.75	81.69
662.953	83.69
663.156	75.69
663.36	83.69
663.563	83.69
663.766	84.69
663.969	75.69
664.173	78.69
664.376	77.69
664.579	75.69
664.782	85.69
664.985	84.69
665.188	91.69
665.391	91.69
665.594	88.69
665.797	83.69
666	85.69
666.203	92.69
666.406	86.69
666.609	80.69
666.812	86.69
667.015	81.69
667.218	75.69
667.421	74.69
667.624	75.69
667.827	82.69
668.03	76.69
668.232	76.69
668.435	74.69
668.638	75.69
668.841	83.69
669.043	74.69
669.246	75.69
669.449	94.69
669.651	80.69
669.854	85.69
670.057	80.69
670.259	86.69
670.462	80.69
670.665	86.69
670.867	95.69
671.07	65.69
671.272	80.69
671.475	85.69
671.677	89.69
671.88	80.69
672.082	79.69
672.284	91.69
672.487	81.69
672.689	102.69
672.892	87.69
