Data from Zn(NO3)2Standard.Agarose3%.GreenCap.LampEnergy10E.O_HRD10591_15-06-03-942.txt Node
Date: Mon Jul 22 15:06:03 EDT 2019
User: cochatt
Spectrometer: HR+D1059
Trigger mode: 1
Integration Time (sec): 1.000000E-1
Scans to average: 1
Electric dark correction enabled: true
Nonlinearity correction enabled: false
Boxcar width: 0
XAxis mode: Wavelengths
Number of Pixels in Spectrum: 2048
>>>>>Begin Spectral Data<<<<<
223.165	-22.31
223.4	-22.31
223.635	-22.31
223.869	-20.31
224.104	-18.31
224.338	-17.31
224.573	-18.31
224.808	-2.31
225.042	4.69
225.277	-9.31
225.511	7.69
225.746	6.69
225.98	11.69
226.215	2.69
226.449	19.69
226.683	30.69
226.918	17.69
227.152	6.69
227.387	27.69
227.621	27.69
227.856	31.69
228.09	34.69
228.324	53.69
228.559	60.69
228.793	66.69
229.027	79.69
229.262	77.69
229.496	59.69
229.73	73.69
229.964	77.69
230.199	77.69
230.433	79.69
230.667	73.69
230.901	81.69
231.136	76.69
231.37	70.69
231.604	77.69
231.838	76.69
232.072	85.69
232.306	90.69
232.541	79.69
232.775	83.69
233.009	83.69
233.243	88.69
233.477	79.69
233.711	83.69
233.945	84.69
234.179	75.69
234.413	77.69
234.647	75.69
234.881	76.69
235.115	74.69
235.349	72.69
235.583	72.69
235.817	70.69
236.051	78.69
236.285	69.69
236.519	82.69
236.753	69.69
236.987	68.69
237.221	84.69
237.455	84.69
237.689	86.69
237.922	79.69
238.156	84.69
238.39	76.69
238.624	92.69
238.858	82.69
239.091	78.69
239.325	71.69
239.559	72.69
239.793	78.69
240.027	71.69
240.26	72.69
240.494	82.69
240.728	75.69
240.961	65.69
241.195	61.69
241.429	83.69
241.662	79.69
241.896	76.69
242.13	73.69
242.363	78.69
242.597	79.69
242.83	94.69
243.064	74.69
243.298	86.69
243.531	61.69
243.765	78.69
243.998	74.69
244.232	87.69
244.465	77.69
244.699	72.69
244.932	75.69
245.166	67.69
245.399	72.69
245.633	65.69
245.866	89.69
246.099	69.69
246.333	77.69
246.566	89.69
246.8	76.69
247.033	66.69
247.266	61.69
247.5	71.69
247.733	79.69
247.966	88.69
248.2	82.69
248.433	84.69
248.666	62.69
248.899	69.69
249.133	72.69
249.366	97.69
249.599	88.69
249.832	92.69
250.066	85.69
250.299	87.69
250.532	94.69
250.765	80.69
250.998	69.69
251.231	80.69
251.465	76.69
251.698	83.69
251.931	77.69
252.164	67.69
252.397	77.69
252.63	83.69
252.863	88.69
253.096	86.69
253.329	70.69
253.562	87.69
253.795	85.69
254.028	81.69
254.261	80.69
254.494	76.69
254.727	77.69
254.96	85.69
255.193	69.69
255.426	76.69
255.659	79.69
255.892	94.69
256.124	84.69
256.357	95.69
256.59	65.69
256.823	76.69
257.056	91.69
257.289	80.69
257.521	77.69
257.754	89.69
257.987	88.69
258.22	78.69
258.452	86.69
258.685	72.69
258.918	91.69
259.151	81.69
259.383	85.69
259.616	77.69
259.849	90.69
260.081	77.69
260.314	74.69
260.547	78.69
260.779	95.69
261.012	86.69
261.244	86.69
261.477	97.69
261.71	89.69
261.942	78.69
262.175	82.69
262.407	73.69
262.64	79.69
262.872	74.69
263.105	94.69
263.337	86.69
263.57	79.69
263.802	76.69
264.035	94.69
264.267	88.69
264.499	85.69
264.732	88.69
264.964	88.69
265.197	71.69
265.429	87.69
265.661	79.69
265.894	83.69
266.126	94.69
266.358	76.69
266.591	82.69
266.823	76.69
267.055	89.69
267.287	88.69
267.52	86.69
267.752	82.69
267.984	71.69
268.216	85.69
268.448	86.69
268.681	70.69
268.913	85.69
269.145	89.69
269.377	82.69
269.609	81.69
269.841	79.69
270.073	81.69
270.306	87.69
270.538	76.69
270.77	87.69
271.002	81.69
271.234	91.69
271.466	79.69
271.698	75.69
271.93	82.69
272.162	75.69
272.394	90.69
272.626	95.69
272.858	98.69
273.09	92.69
273.322	90.69
273.553	95.69
273.785	79.69
274.017	77.69
274.249	83.69
274.481	95.69
274.713	79.69
274.945	94.69
275.176	83.69
275.408	80.69
275.64	82.69
275.872	86.69
276.104	86.69
276.335	92.69
276.567	83.69
276.799	79.69
277.031	78.69
277.262	90.69
277.494	86.69
277.726	78.69
277.957	76.69
278.189	93.69
278.421	78.69
278.652	98.69
278.884	103.69
279.115	99.69
279.347	86.69
279.579	80.69
279.81	94.69
280.042	85.69
280.273	94.69
280.505	84.69
280.736	88.69
280.968	77.69
281.199	88.69
281.431	86.69
281.662	73.69
281.894	76.69
282.125	70.69
282.356	86.69
282.588	87.69
282.819	94.69
283.051	82.69
283.282	78.69
283.513	100.69
283.745	89.69
283.976	85.69
284.207	97.69
284.439	88.69
284.67	90.69
284.901	85.69
285.132	74.69
285.364	80.69
285.595	83.69
285.826	75.69
286.057	85.69
286.288	85.69
286.52	77.69
286.751	82.69
286.982	82.69
287.213	95.69
287.444	83.69
287.675	84.69
287.906	87.69
288.138	81.69
288.369	82.69
288.6	83.69
288.831	83.69
289.062	86.69
289.293	85.69
289.524	83.69
289.755	84.69
289.986	79.69
290.217	86.69
290.448	90.69
290.679	73.69
290.91	79.69
291.141	79.69
291.371	69.69
291.602	79.69
291.833	79.69
292.064	85.69
292.295	85.69
292.526	83.69
292.757	99.69
292.987	75.69
293.218	90.69
293.449	92.69
293.68	86.69
293.91	76.69
294.141	90.69
294.372	78.69
294.603	82.69
294.833	81.69
295.064	75.69
295.295	79.69
295.525	85.69
295.756	74.69
295.987	81.69
296.217	93.69
296.448	100.69
296.679	86.69
296.909	81.69
297.14	91.69
297.37	75.69
297.601	88.69
297.831	96.69
298.062	82.69
298.292	83.69
298.523	89.69
298.753	98.69
298.984	85.69
299.214	85.69
299.445	101.69
299.675	85.69
299.905	85.69
300.136	91.69
300.366	79.69
300.597	81.69
300.827	86.69
301.057	81.69
301.288	86.69
301.518	71.69
301.748	86.69
301.979	84.69
302.209	100.69
302.439	99.69
302.669	86.69
302.9	87.69
303.13	78.69
303.36	77.69
303.59	79.69
303.82	73.69
304.051	91.69
304.281	79.69
304.511	85.69
304.741	73.69
304.971	74.69
305.201	86.69
305.431	87.69
305.661	74.69
305.891	100.69
306.121	88.69
306.352	75.69
306.582	95.69
306.812	89.69
307.042	74.69
307.272	79.69
307.502	75.69
307.731	77.69
307.961	82.69
308.191	85.69
308.421	97.69
308.651	85.69
308.881	83.69
309.111	86.69
309.341	77.69
309.571	63.69
309.8	87.69
310.03	89.69
310.26	76.69
310.49	79.69
310.72	90.69
310.949	85.69
311.179	89.69
311.409	93.69
311.639	93.69
311.868	93.69
312.098	93.69
312.328	94.69
312.557	81.69
312.787	86.69
313.017	94.69
313.246	94.69
313.476	91.69
313.706	79.69
313.935	82.69
314.165	78.69
314.394	81.69
314.624	78.69
314.853	85.69
315.083	72.69
315.312	93.69
315.542	88.69
315.771	86.69
316.001	103.69
316.23	72.69
316.46	89.69
316.689	84.69
316.919	91.69
317.148	81.69
317.377	91.69
317.607	96.69
317.836	94.69
318.065	82.69
318.295	80.69
318.524	82.69
318.753	78.69
318.983	94.69
319.212	87.69
319.441	77.69
319.67	95.69
319.9	77.69
320.129	75.69
320.358	91.69
320.587	104.69
320.816	86.69
321.046	84.69
321.275	91.69
321.504	74.69
321.733	88.69
321.962	76.69
322.191	87.69
322.42	79.69
322.649	82.69
322.878	98.69
323.108	80.69
323.337	85.69
323.566	100.69
323.795	96.69
324.024	82.69
324.253	92.69
324.482	78.69
324.71	83.69
324.939	74.69
325.168	75.69
325.397	89.69
325.626	95.69
325.855	82.69
326.084	82.69
326.313	74.69
326.542	84.69
326.77	88.69
326.999	77.69
327.228	77.69
327.457	85.69
327.686	81.69
327.914	94.69
328.143	84.69
328.372	88.69
328.6	78.69
328.829	94.69
329.058	86.69
329.287	87.69
329.515	88.69
329.744	99.69
329.972	85.69
330.201	89.69
330.43	92.69
330.658	97.69
330.887	77.69
331.115	93.69
331.344	86.69
331.572	106.69
331.801	72.69
332.03	93.69
332.258	75.69
332.486	94.69
332.715	100.69
332.943	77.69
333.172	67.69
333.4	68.69
333.629	85.69
333.857	92.69
334.085	94.69
334.314	85.69
334.542	82.69
334.771	81.69
334.999	88.69
335.227	83.69
335.455	90.69
335.684	82.69
335.912	81.69
336.14	83.69
336.369	80.69
336.597	71.69
336.825	78.69
337.053	81.69
337.281	77.69
337.51	84.69
337.738	75.69
337.966	83.69
338.194	90.69
338.422	115.69
338.65	81.69
338.878	83.69
339.106	86.69
339.334	83.69
339.562	89.69
339.79	86.69
340.018	84.69
340.246	72.69
340.474	78.69
340.702	78.69
340.93	81.69
341.158	78.69
341.386	84.69
341.614	86.69
341.842	101.69
342.07	89.69
342.298	77.69
342.526	91.69
342.754	93.69
342.981	78.69
343.209	71.69
343.437	85.69
343.665	87.69
343.893	86.69
344.12	91.69
344.348	81.69
344.576	88.69
344.804	95.69
345.031	67.69
345.259	89.69
345.487	77.69
345.714	89.69
345.942	92.69
346.17	79.69
346.397	86.69
346.625	83.69
346.853	70.69
347.08	88.69
347.308	80.69
347.535	85.69
347.763	82.69
347.99	104.69
348.218	70.69
348.445	96.69
348.673	75.69
348.9	80.69
349.128	87.69
349.355	85.69
349.583	91.69
349.81	78.69
350.037	84.69
350.265	77.69
350.492	94.69
350.72	85.69
350.947	84.69
351.174	105.69
351.402	79.69
351.629	87.69
351.856	74.69
352.083	80.69
352.311	77.69
352.538	80.69
352.765	94.69
352.992	86.69
353.22	85.69
353.447	76.69
353.674	79.69
353.901	92.69
354.128	102.69
354.355	87.69
354.583	101.69
354.81	100.69
355.037	86.69
355.264	86.69
355.491	89.69
355.718	75.69
355.945	86.69
356.172	65.69
356.399	76.69
356.626	77.69
356.853	87.69
357.08	83.69
357.307	89.69
357.534	108.69
357.761	86.69
357.988	85.69
358.215	73.69
358.441	89.69
358.668	89.69
358.895	79.69
359.122	81.69
359.349	81.69
359.576	78.69
359.802	71.69
360.029	97.69
360.256	89.69
360.483	83.69
360.709	72.69
360.936	97.69
361.163	94.69
361.39	92.69
361.616	89.69
361.843	70.69
362.07	85.69
362.296	85.69
362.523	77.69
362.749	91.69
362.976	82.69
363.203	89.69
363.429	77.69
363.656	92.69
363.882	89.69
364.109	84.69
364.335	75.69
364.562	92.69
364.788	78.69
365.015	84.69
365.241	85.69
365.468	85.69
365.694	87.69
365.92	86.69
366.147	83.69
366.373	105.69
366.599	89.69
366.826	77.69
367.052	91.69
367.278	76.69
367.505	95.69
367.731	78.69
367.957	70.69
368.184	87.69
368.41	102.69
368.636	99.69
368.862	84.69
369.089	82.69
369.315	108.69
369.541	84.69
369.767	85.69
369.993	82.69
370.219	84.69
370.445	86.69
370.672	78.69
370.898	99.69
371.124	78.69
371.35	77.69
371.576	74.69
371.802	72.69
372.028	85.69
372.254	81.69
372.48	81.69
372.706	102.69
372.932	89.69
373.158	71.69
373.384	84.69
373.61	75.69
373.835	76.69
374.061	85.69
374.287	88.69
374.513	91.69
374.739	98.69
374.965	93.69
375.191	98.69
375.416	74.69
375.642	94.69
375.868	78.69
376.094	79.69
376.319	75.69
376.545	79.69
376.771	89.69
376.997	87.69
377.222	87.69
377.448	94.69
377.674	78.69
377.899	77.69
378.125	98.69
378.35	76.69
378.576	93.69
378.802	90.69
379.027	93.69
379.253	103.69
379.478	98.69
379.704	85.69
379.929	92.69
380.155	96.69
380.38	86.69
380.606	81.69
380.831	84.69
381.057	97.69
381.282	108.69
381.507	90.69
381.733	94.69
381.958	87.69
382.184	83.69
382.409	101.69
382.634	92.69
382.86	97.69
383.085	97.69
383.31	86.69
383.535	98.69
383.761	79.69
383.986	86.69
384.211	93.69
384.436	96.69
384.662	89.69
384.887	104.69
385.112	87.69
385.337	83.69
385.562	98.69
385.787	88.69
386.013	89.69
386.238	92.69
386.463	93.69
386.688	90.69
386.913	75.69
387.138	88.69
387.363	95.69
387.588	94.69
387.813	92.69
388.038	95.69
388.263	85.69
388.488	102.69
388.713	93.69
388.938	97.69
389.163	94.69
389.387	91.69
389.612	98.69
389.837	91.69
390.062	88.69
390.287	95.69
390.512	103.69
390.736	103.69
390.961	102.69
391.186	92.69
391.411	83.69
391.636	97.69
391.86	87.69
392.085	94.69
392.31	92.69
392.534	98.69
392.759	95.69
392.984	111.69
393.208	76.69
393.433	91.69
393.658	94.69
393.882	89.69
394.107	87.69
394.331	100.69
394.556	84.69
394.78	78.69
395.005	91.69
395.229	97.69
395.454	98.69
395.678	102.69
395.903	92.69
396.127	83.69
396.352	95.69
396.576	93.69
396.801	89.69
397.025	83.69
397.249	91.69
397.474	87.69
397.698	97.69
397.922	91.69
398.147	80.69
398.371	93.69
398.595	97.69
398.82	81.69
399.044	95.69
399.268	92.69
399.492	103.69
399.717	85.69
399.941	98.69
400.165	103.69
400.389	92.69
400.613	105.69
400.837	99.69
401.062	97.69
401.286	90.69
401.51	80.69
401.734	85.69
401.958	93.69
402.182	89.69
402.406	105.69
402.63	99.69
402.854	99.69
403.078	100.69
403.302	104.69
403.526	104.69
403.75	101.69
403.974	90.69
404.198	113.69
404.422	95.69
404.645	97.69
404.869	115.69
405.093	107.69
405.317	104.69
405.541	96.69
405.765	94.69
405.988	84.69
406.212	88.69
406.436	108.69
406.66	105.69
406.883	98.69
407.107	123.69
407.331	99.69
407.555	102.69
407.778	95.69
408.002	103.69
408.226	96.69
408.449	84.69
408.673	103.69
408.896	105.69
409.12	99.69
409.344	92.69
409.567	86.69
409.791	93.69
410.014	103.69
410.238	92.69
410.461	104.69
410.685	98.69
410.908	106.69
411.132	106.69
411.355	113.69
411.578	89.69
411.802	86.69
412.025	97.69
412.249	100.69
412.472	99.69
412.695	99.69
412.919	100.69
413.142	99.69
413.365	111.69
413.589	87.69
413.812	91.69
414.035	111.69
414.258	99.69
414.482	94.69
414.705	101.69
414.928	107.69
415.151	90.69
415.374	107.69
415.597	100.69
415.821	99.69
416.044	99.69
416.267	103.69
416.49	102.69
416.713	104.69
416.936	108.69
417.159	98.69
417.382	103.69
417.605	115.69
417.828	93.69
418.051	83.69
418.274	93.69
418.497	88.69
418.72	102.69
418.943	105.69
419.166	104.69
419.389	109.69
419.611	108.69
419.834	113.69
420.057	108.69
420.28	108.69
420.503	106.69
420.726	113.69
420.948	97.69
421.171	96.69
421.394	101.69
421.617	91.69
421.839	103.69
422.062	92.69
422.285	101.69
422.507	105.69
422.73	109.69
422.953	107.69
423.175	103.69
423.398	107.69
423.621	99.69
423.843	92.69
424.066	103.69
424.288	116.69
424.511	102.69
424.733	113.69
424.956	103.69
425.178	121.69
425.401	107.69
425.623	124.69
425.846	109.69
426.068	103.69
426.291	111.69
426.513	95.69
426.735	101.69
426.958	115.69
427.18	102.69
427.402	105.69
427.625	121.69
427.847	107.69
428.069	102.69
428.292	97.69
428.514	95.69
428.736	95.69
428.958	101.69
429.181	101.69
429.403	104.69
429.625	104.69
429.847	106.69
430.069	113.69
430.292	115.69
430.514	113.69
430.736	100.69
430.958	100.69
431.18	100.69
431.402	104.69
431.624	101.69
431.846	93.69
432.068	98.69
432.29	79.69
432.512	99.69
432.734	110.69
432.956	118.69
433.178	89.69
433.4	104.69
433.622	109.69
433.844	105.69
434.066	103.69
434.287	95.69
434.509	80.69
434.731	92.69
434.953	89.69
435.175	91.69
435.397	104.69
435.618	103.69
435.84	109.69
436.062	93.69
436.284	100.69
436.505	105.69
436.727	125.69
436.949	122.69
437.17	100.69
437.392	102.69
437.614	99.69
437.835	98.69
438.057	79.69
438.278	108.69
438.5	109.69
438.721	106.69
438.943	111.69
439.165	90.69
439.386	110.69
439.608	101.69
439.829	94.69
440.05	120.69
440.272	123.69
440.493	122.69
440.715	114.69
440.936	105.69
441.158	119.69
441.379	118.69
441.6	96.69
441.822	105.69
442.043	108.69
442.264	117.69
442.486	113.69
442.707	104.69
442.928	106.69
443.149	112.69
443.371	103.69
443.592	109.69
443.813	108.69
444.034	106.69
444.255	106.69
444.476	100.69
444.698	123.69
444.919	113.69
445.14	228.69
445.361	168.69
445.582	105.69
445.803	93.69
446.024	114.69
446.245	123.69
446.466	126.69
446.687	121.69
446.908	124.69
447.129	121.69
447.35	112.69
447.571	122.69
447.792	112.69
448.013	114.69
448.234	106.69
448.455	109.69
448.675	114.69
448.896	97.69
449.117	99.69
449.338	114.69
449.559	115.69
449.779	106.69
450	96.69
450.221	119.69
450.442	93.69
450.662	105.69
450.883	103.69
451.104	103.69
451.324	94.69
451.545	110.69
451.766	102.69
451.986	108.69
452.207	113.69
452.428	115.69
452.648	101.69
452.869	90.69
453.089	97.69
453.31	90.69
453.53	96.69
453.751	94.69
453.971	95.69
454.192	98.69
454.412	99.69
454.633	102.69
454.853	93.69
455.073	100.69
455.294	96.69
455.514	100.69
455.734	102.69
455.955	84.69
456.175	92.69
456.395	100.69
456.616	86.69
456.836	93.69
457.056	84.69
457.276	96.69
457.497	92.69
457.717	93.69
457.937	91.69
458.157	93.69
458.377	81.69
458.598	95.69
458.818	83.69
459.038	84.69
459.258	86.69
459.478	104.69
459.698	103.69
459.918	101.69
460.138	94.69
460.358	109.69
460.578	91.69
460.798	99.69
461.018	87.69
461.238	95.69
461.458	96.69
461.678	95.69
461.898	94.69
462.118	89.69
462.338	99.69
462.558	103.69
462.777	106.69
462.997	81.69
463.217	104.69
463.437	96.69
463.657	106.69
463.876	83.69
464.096	98.69
464.316	87.69
464.536	98.69
464.755	89.69
464.975	98.69
465.195	87.69
465.414	105.69
465.634	103.69
465.854	97.69
466.073	96.69
466.293	99.69
466.512	95.69
466.732	115.69
466.951	117.69
467.171	100.69
467.391	113.69
467.61	116.69
467.829	102.69
468.049	110.69
468.268	107.69
468.488	97.69
468.707	107.69
468.927	102.69
469.146	113.69
469.365	108.69
469.585	104.69
469.804	108.69
470.023	107.69
470.243	113.69
470.462	112.69
470.681	109.69
470.901	117.69
471.12	115.69
471.339	123.69
471.558	108.69
471.777	101.69
471.997	103.69
472.216	118.69
472.435	93.69
472.654	89.69
472.873	97.69
473.092	92.69
473.311	100.69
473.53	103.69
473.749	106.69
473.968	104.69
474.187	101.69
474.406	98.69
474.625	96.69
474.844	127.69
475.063	100.69
475.282	111.69
475.501	102.69
475.72	113.69
475.939	121.69
476.158	112.69
476.377	88.69
476.596	85.69
476.814	86.69
477.033	86.69
477.252	102.69
477.471	103.69
477.69	96.69
477.908	119.69
478.127	110.69
478.346	114.69
478.564	117.69
478.783	114.69
479.002	113.69
479.22	117.69
479.439	108.69
479.658	101.69
479.876	100.69
480.095	91.69
480.313	101.69
480.532	102.69
480.751	83.69
480.969	84.69
481.188	91.69
481.406	91.69
481.624	78.69
481.843	85.69
482.061	95.69
482.28	91.69
482.498	98.69
482.717	99.69
482.935	109.69
483.153	123.69
483.372	136.69
483.59	127.69
483.808	110.69
484.027	110.69
484.245	106.69
484.463	98.69
484.681	119.69
484.9	100.69
485.118	124.69
485.336	108.69
485.554	110.69
485.772	98.69
485.99	85.69
486.209	88.69
486.427	85.69
486.645	95.69
486.863	111.69
487.081	109.69
487.299	100.69
487.517	119.69
487.735	123.69
487.953	139.69
488.171	126.69
488.389	115.69
488.607	107.69
488.825	112.69
489.043	108.69
489.261	98.69
489.479	108.69
489.696	107.69
489.914	119.69
490.132	111.69
490.35	108.69
490.568	126.69
490.786	144.69
491.003	123.69
491.221	141.69
491.439	133.69
491.657	130.69
491.874	137.69
492.092	158.69
492.31	158.69
492.527	148.69
492.745	156.69
492.963	144.69
493.18	133.69
493.398	120.69
493.615	125.69
493.833	122.69
494.05	124.69
494.268	130.69
494.485	131.69
494.703	124.69
494.92	120.69
495.138	131.69
495.355	136.69
495.573	125.69
495.79	115.69
496.008	123.69
496.225	121.69
496.442	127.69
496.66	133.69
496.877	131.69
497.094	131.69
497.312	123.69
497.529	108.69
497.746	125.69
497.963	98.69
498.181	102.69
498.398	110.69
498.615	103.69
498.832	102.69
499.049	106.69
499.267	106.69
499.484	105.69
499.701	94.69
499.918	102.69
500.135	123.69
500.352	125.69
500.569	111.69
500.786	121.69
501.003	117.69
501.22	109.69
501.437	90.69
501.654	115.69
501.871	96.69
502.088	113.69
502.305	112.69
502.522	114.69
502.739	115.69
502.956	105.69
503.172	106.69
503.389	104.69
503.606	107.69
503.823	101.69
504.04	111.69
504.256	117.69
504.473	89.69
504.69	106.69
504.907	98.69
505.123	95.69
505.34	80.69
505.557	103.69
505.773	94.69
505.99	93.69
506.207	106.69
506.423	102.69
506.64	92.69
506.856	106.69
507.073	108.69
507.289	97.69
507.506	106.69
507.722	93.69
507.939	115.69
508.155	97.69
508.372	87.69
508.588	105.69
508.805	105.69
509.021	94.69
509.238	78.69
509.454	98.69
509.67	93.69
509.887	95.69
510.103	100.69
510.319	99.69
510.536	97.69
510.752	87.69
510.968	78.69
511.184	102.69
511.401	91.69
511.617	79.69
511.833	89.69
512.049	87.69
512.265	94.69
512.481	98.69
512.698	95.69
512.914	98.69
513.13	90.69
513.346	107.69
513.562	94.69
513.778	89.69
513.994	100.69
514.21	91.69
514.426	90.69
514.642	102.69
514.858	80.69
515.074	87.69
515.29	88.69
515.506	88.69
515.721	76.69
515.937	79.69
516.153	88.69
516.369	109.69
516.585	67.69
516.801	85.69
517.016	99.69
517.232	91.69
517.448	96.69
517.664	80.69
517.879	91.69
518.095	96.69
518.311	88.69
518.527	95.69
518.742	93.69
518.958	92.69
519.173	109.69
519.389	96.69
519.605	104.69
519.82	96.69
520.036	121.69
520.251	91.69
520.467	90.69
520.682	101.69
520.898	84.69
521.113	95.69
521.329	105.69
521.544	89.69
521.76	87.69
521.975	80.69
522.19	87.69
522.406	96.69
522.621	93.69
522.836	83.69
523.052	101.69
523.267	115.69
523.482	93.69
523.698	107.69
523.913	88.69
524.128	111.69
524.343	113.69
524.559	108.69
524.774	117.69
524.989	117.69
525.204	99.69
525.419	99.69
525.634	89.69
525.849	106.69
526.064	100.69
526.28	103.69
526.495	83.69
526.71	89.69
526.925	75.69
527.14	83.69
527.355	89.69
527.57	88.69
527.785	88.69
527.999	88.69
528.214	92.69
528.429	97.69
528.644	108.69
528.859	116.69
529.074	110.69
529.289	113.69
529.503	105.69
529.718	102.69
529.933	99.69
530.148	94.69
530.363	87.69
530.577	97.69
530.792	80.69
531.007	89.69
531.221	91.69
531.436	88.69
531.651	86.69
531.865	75.69
532.08	80.69
532.295	86.69
532.509	83.69
532.724	77.69
532.938	75.69
533.153	98.69
533.367	98.69
533.582	98.69
533.796	95.69
534.011	95.69
534.225	104.69
534.44	87.69
534.654	89.69
534.868	86.69
535.083	88.69
535.297	82.69
535.511	94.69
535.726	114.69
535.94	98.69
536.154	97.69
536.369	92.69
536.583	89.69
536.797	73.69
537.011	88.69
537.225	98.69
537.44	98.69
537.654	102.69
537.868	82.69
538.082	76.69
538.296	99.69
538.51	100.69
538.724	87.69
538.938	94.69
539.153	109.69
539.367	100.69
539.581	104.69
539.795	100.69
540.009	98.69
540.222	83.69
540.436	92.69
540.65	108.69
540.864	105.69
541.078	118.69
541.292	108.69
541.506	122.69
541.72	127.69
541.934	140.69
542.147	148.69
542.361	129.69
542.575	116.69
542.789	129.69
543.002	119.69
543.216	94.69
543.43	107.69
543.644	115.69
543.857	116.69
544.071	125.69
544.285	123.69
544.498	122.69
544.712	118.69
544.925	121.69
545.139	129.69
545.352	120.69
545.566	113.69
545.779	116.69
545.993	125.69
546.206	134.69
546.42	128.69
546.633	121.69
546.847	124.69
547.06	121.69
547.274	121.69
547.487	127.69
547.7	123.69
547.914	113.69
548.127	114.69
548.34	112.69
548.554	118.69
548.767	116.69
548.98	123.69
549.193	113.69
549.407	120.69
549.62	123.69
549.833	126.69
550.046	104.69
550.259	115.69
550.473	122.69
550.686	126.69
550.899	117.69
551.112	114.69
551.325	98.69
551.538	108.69
551.751	94.69
551.964	109.69
552.177	107.69
552.39	114.69
552.603	113.69
552.816	119.69
553.029	110.69
553.242	137.69
553.455	123.69
553.667	124.69
553.88	110.69
554.093	125.69
554.306	109.69
554.519	125.69
554.732	109.69
554.944	113.69
555.157	107.69
555.37	121.69
555.583	116.69
555.795	120.69
556.008	119.69
556.221	114.69
556.433	100.69
556.646	96.69
556.859	122.69
557.071	117.69
557.284	98.69
557.496	119.69
557.709	113.69
557.921	125.69
558.134	130.69
558.346	102.69
558.559	104.69
558.771	103.69
558.984	119.69
559.196	109.69
559.409	106.69
559.621	87.69
559.833	105.69
560.046	113.69
560.258	107.69
560.47	103.69
560.683	98.69
560.895	108.69
561.107	123.69
561.32	102.69
561.532	105.69
561.744	114.69
561.956	105.69
562.168	108.69
562.381	108.69
562.593	114.69
562.805	111.69
563.017	113.69
563.229	105.69
563.441	113.69
563.653	113.69
563.865	111.69
564.077	99.69
564.289	94.69
564.501	110.69
564.713	93.69
564.925	98.69
565.137	99.69
565.349	91.69
565.561	101.69
565.773	129.69
565.985	98.69
566.197	95.69
566.408	89.69
566.62	91.69
566.832	87.69
567.044	107.69
567.255	108.69
567.467	94.69
567.679	100.69
567.891	95.69
568.102	79.69
568.314	78.69
568.526	85.69
568.737	101.69
568.949	100.69
569.161	84.69
569.372	87.69
569.584	87.69
569.795	92.69
570.007	89.69
570.218	83.69
570.43	91.69
570.641	90.69
570.853	97.69
571.064	100.69
571.276	97.69
571.487	101.69
571.698	107.69
571.91	103.69
572.121	94.69
572.333	102.69
572.544	94.69
572.755	101.69
572.966	80.69
573.178	79.69
573.389	78.69
573.6	82.69
573.811	85.69
574.023	87.69
574.234	74.69
574.445	87.69
574.656	90.69
574.867	95.69
575.078	90.69
575.289	97.69
575.501	84.69
575.712	94.69
575.923	79.69
576.134	98.69
576.345	96.69
576.556	101.69
576.767	95.69
576.978	96.69
577.188	105.69
577.399	98.69
577.61	98.69
577.821	108.69
578.032	82.69
578.243	86.69
578.454	95.69
578.665	74.69
578.875	76.69
579.086	102.69
579.297	87.69
579.508	84.69
579.718	85.69
579.929	98.69
580.14	91.69
580.35	89.69
580.561	94.69
580.772	89.69
580.982	85.69
581.193	96.69
581.403	86.69
581.614	96.69
581.825	101.69
582.035	89.69
582.246	100.69
582.456	97.69
582.667	100.69
582.877	83.69
583.087	104.69
583.298	80.69
583.508	85.69
583.719	87.69
583.929	88.69
584.139	95.69
584.35	92.69
584.56	88.69
584.77	86.69
584.981	81.69
585.191	94.69
585.401	89.69
585.611	97.69
585.821	96.69
586.032	85.69
586.242	90.69
586.452	91.69
586.662	85.69
586.872	84.69
587.082	99.69
587.292	92.69
587.502	83.69
587.713	98.69
587.923	81.69
588.133	70.69
588.343	87.69
588.553	95.69
588.762	88.69
588.972	101.69
589.182	91.69
589.392	77.69
589.602	102.69
589.812	76.69
590.022	85.69
590.232	77.69
590.441	83.69
590.651	81.69
590.861	98.69
591.071	73.69
591.281	89.69
591.49	83.69
591.7	74.69
591.91	92.69
592.119	85.69
592.329	86.69
592.539	85.69
592.748	91.69
592.958	90.69
593.167	67.69
593.377	94.69
593.587	85.69
593.796	107.69
594.006	80.69
594.215	89.69
594.424	100.69
594.634	94.69
594.843	80.69
595.053	84.69
595.262	85.69
595.472	94.69
595.681	98.69
595.89	80.69
596.1	77.69
596.309	84.69
596.518	90.69
596.727	79.69
596.937	105.69
597.146	91.69
597.355	86.69
597.564	91.69
597.774	69.69
597.983	87.69
598.192	101.69
598.401	77.69
598.61	88.69
598.819	94.69
599.028	91.69
599.237	92.69
599.446	93.69
599.655	97.69
599.864	89.69
600.073	90.69
600.282	98.69
600.491	83.69
600.7	100.69
600.909	113.69
601.118	79.69
601.327	98.69
601.536	91.69
601.745	99.69
601.953	95.69
602.162	103.69
602.371	93.69
602.58	98.69
602.789	99.69
602.997	98.69
603.206	107.69
603.415	92.69
603.623	94.69
603.832	89.69
604.041	99.69
604.249	86.69
604.458	105.69
604.666	69.69
604.875	91.69
605.084	91.69
605.292	92.69
605.501	86.69
605.709	96.69
605.918	94.69
606.126	112.69
606.334	107.69
606.543	109.69
606.751	99.69
606.96	89.69
607.168	118.69
607.376	105.69
607.585	76.69
607.793	89.69
608.001	92.69
608.21	98.69
608.418	87.69
608.626	93.69
608.834	99.69
609.043	106.69
609.251	90.69
609.459	90.69
609.667	111.69
609.875	118.69
610.083	91.69
610.291	94.69
610.499	91.69
610.707	92.69
610.916	97.69
611.124	89.69
611.332	100.69
611.54	88.69
611.748	100.69
611.955	97.69
612.163	106.69
612.371	101.69
612.579	85.69
612.787	95.69
612.995	78.69
613.203	94.69
613.411	111.69
613.618	87.69
613.826	101.69
614.034	98.69
614.242	88.69
614.449	94.69
614.657	92.69
614.865	109.69
615.072	81.69
615.28	93.69
615.488	93.69
615.695	92.69
615.903	93.69
616.111	99.69
616.318	108.69
616.526	113.69
616.733	97.69
616.941	98.69
617.148	106.69
617.356	98.69
617.563	90.69
617.771	90.69
617.978	95.69
618.185	95.69
618.393	95.69
618.6	94.69
618.807	104.69
619.015	84.69
619.222	78.69
619.429	92.69
619.637	99.69
619.844	101.69
620.051	113.69
620.258	98.69
620.466	93.69
620.673	90.69
620.88	82.69
621.087	95.69
621.294	94.69
621.501	82.69
621.708	95.69
621.915	99.69
622.122	87.69
622.329	97.69
622.536	98.69
622.743	87.69
622.95	96.69
623.157	91.69
623.364	106.69
623.571	90.69
623.778	92.69
623.985	90.69
624.192	95.69
624.399	96.69
624.606	98.69
624.812	81.69
625.019	81.69
625.226	107.69
625.433	94.69
625.639	78.69
625.846	93.69
626.053	97.69
626.259	94.69
626.466	94.69
626.673	82.69
626.879	73.69
627.086	80.69
627.293	81.69
627.499	85.69
627.706	86.69
627.912	100.69
628.119	88.69
628.325	110.69
628.532	92.69
628.738	109.69
628.945	101.69
629.151	91.69
629.357	90.69
629.564	91.69
629.77	86.69
629.976	94.69
630.183	86.69
630.389	92.69
630.595	90.69
630.802	95.69
631.008	102.69
631.214	84.69
631.42	95.69
631.627	118.69
631.833	98.69
632.039	100.69
632.245	101.69
632.451	88.69
632.657	102.69
632.863	106.69
633.069	98.69
633.275	95.69
633.481	89.69
633.688	93.69
633.893	88.69
634.099	86.69
634.305	99.69
634.511	97.69
634.717	102.69
634.923	83.69
635.129	84.69
635.335	88.69
635.541	88.69
635.747	101.69
635.952	110.69
636.158	87.69
636.364	98.69
636.57	86.69
636.775	93.69
636.981	109.69
637.187	103.69
637.392	88.69
637.598	94.69
637.804	103.69
638.009	103.69
638.215	97.69
638.421	79.69
638.626	93.69
638.832	103.69
639.037	87.69
639.243	95.69
639.448	94.69
639.654	99.69
639.859	85.69
640.065	96.69
640.27	89.69
640.475	89.69
640.681	91.69
640.886	86.69
641.091	81.69
641.297	79.69
641.502	103.69
641.707	87.69
641.913	79.69
642.118	93.69
642.323	88.69
642.528	93.69
642.733	99.69
642.939	94.69
643.144	101.69
643.349	78.69
643.554	84.69
643.759	83.69
643.964	90.69
644.169	84.69
644.374	82.69
644.579	112.69
644.784	86.69
644.989	101.69
645.194	101.69
645.399	98.69
645.604	92.69
645.809	85.69
646.014	92.69
646.219	91.69
646.423	90.69
646.628	102.69
646.833	106.69
647.038	102.69
647.243	92.69
647.447	72.69
647.652	89.69
647.857	93.69
648.062	99.69
648.266	95.69
648.471	90.69
648.676	98.69
648.88	84.69
649.085	97.69
649.289	90.69
649.494	91.69
649.698	78.69
649.903	90.69
650.107	96.69
650.312	90.69
650.516	89.69
650.721	88.69
650.925	79.69
651.13	76.69
651.334	91.69
651.539	89.69
651.743	83.69
651.947	88.69
652.152	98.69
652.356	80.69
652.56	95.69
652.764	84.69
652.969	80.69
653.173	86.69
653.377	74.69
653.581	89.69
653.785	99.69
653.99	118.69
654.194	86.69
654.398	94.69
654.602	90.69
654.806	87.69
655.01	97.69
655.214	86.69
655.418	87.69
655.622	73.69
655.826	91.69
656.03	83.69
656.234	84.69
656.438	84.69
656.642	83.69
656.846	87.69
657.049	84.69
657.253	88.69
657.457	78.69
657.661	73.69
657.865	83.69
658.068	90.69
658.272	82.69
658.476	89.69
658.68	97.69
658.883	90.69
659.087	73.69
659.291	85.69
659.494	80.69
659.698	73.69
659.901	97.69
660.105	89.69
660.309	75.69
660.512	79.69
660.716	65.69
660.919	78.69
661.123	84.69
661.326	82.69
661.53	81.69
661.733	91.69
661.936	90.69
662.14	77.69
662.343	57.69
662.546	76.69
662.75	74.69
662.953	78.69
663.156	95.69
663.36	87.69
663.563	93.69
663.766	82.69
663.969	79.69
664.173	76.69
664.376	79.69
664.579	85.69
664.782	97.69
664.985	85.69
665.188	81.69
665.391	85.69
665.594	72.69
665.797	81.69
666	87.69
666.203	71.69
666.406	73.69
666.609	75.69
666.812	94.69
667.015	66.69
667.218	91.69
667.421	73.69
667.624	68.69
667.827	90.69
668.03	77.69
668.232	74.69
668.435	76.69
668.638	90.69
668.841	92.69
669.043	89.69
669.246	98.69
669.449	91.69
669.651	77.69
669.854	87.69
670.057	76.69
670.259	82.69
670.462	75.69
670.665	83.69
670.867	88.69
671.07	89.69
671.272	79.69
671.475	71.69
671.677	75.69
671.88	76.69
672.082	80.69
672.284	86.69
672.487	79.69
672.689	66.69
672.892	92.69
