Data from Zn(NO3)2Standard.Agarose3%.GreenCap.LampEnergy5.5.E.O_HRD10591_15-03-42-767.txt Node
Date: Mon Jul 22 15:03:42 EDT 2019
User: cochatt
Spectrometer: HR+D1059
Trigger mode: 1
Integration Time (sec): 1.000000E-1
Scans to average: 1
Electric dark correction enabled: true
Nonlinearity correction enabled: false
Boxcar width: 0
XAxis mode: Wavelengths
Number of Pixels in Spectrum: 2048
>>>>>Begin Spectral Data<<<<<
223.165	-20.75
223.4	-20.75
223.635	-20.75
223.869	-20.75
224.104	-8.75
224.338	0.25
224.573	-32.75
224.808	-13.75
225.042	-13.75
225.277	-14.75
225.511	1.25
225.746	-1.75
225.98	9.25
226.215	26.25
226.449	17.25
226.683	22.25
226.918	25.25
227.152	25.25
227.387	24.25
227.621	31.25
227.856	49.25
228.09	38.25
228.324	38.25
228.559	53.25
228.793	58.25
229.027	62.25
229.262	63.25
229.496	56.25
229.73	66.25
229.964	58.25
230.199	68.25
230.433	80.25
230.667	72.25
230.901	87.25
231.136	82.25
231.37	79.25
231.604	72.25
231.838	92.25
232.072	70.25
232.306	67.25
232.541	84.25
232.775	87.25
233.009	70.25
233.243	71.25
233.477	88.25
233.711	69.25
233.945	68.25
234.179	93.25
234.413	88.25
234.647	78.25
234.881	82.25
235.115	73.25
235.349	76.25
235.583	72.25
235.817	73.25
236.051	76.25
236.285	84.25
236.519	81.25
236.753	75.25
236.987	83.25
237.221	81.25
237.455	76.25
237.689	88.25
237.922	76.25
238.156	68.25
238.39	81.25
238.624	72.25
238.858	68.25
239.091	66.25
239.325	67.25
239.559	64.25
239.793	84.25
240.027	82.25
240.26	71.25
240.494	80.25
240.728	74.25
240.961	80.25
241.195	72.25
241.429	78.25
241.662	84.25
241.896	69.25
242.13	79.25
242.363	66.25
242.597	66.25
242.83	74.25
243.064	83.25
243.298	80.25
243.531	85.25
243.765	55.25
243.998	85.25
244.232	82.25
244.465	83.25
244.699	66.25
244.932	87.25
245.166	76.25
245.399	69.25
245.633	80.25
245.866	81.25
246.099	71.25
246.333	72.25
246.566	69.25
246.8	81.25
247.033	82.25
247.266	69.25
247.5	84.25
247.733	74.25
247.966	73.25
248.2	75.25
248.433	82.25
248.666	84.25
248.899	72.25
249.133	68.25
249.366	76.25
249.599	69.25
249.832	76.25
250.066	88.25
250.299	75.25
250.532	76.25
250.765	64.25
250.998	77.25
251.231	77.25
251.465	75.25
251.698	70.25
251.931	78.25
252.164	66.25
252.397	77.25
252.63	73.25
252.863	84.25
253.096	74.25
253.329	76.25
253.562	83.25
253.795	73.25
254.028	81.25
254.261	79.25
254.494	65.25
254.727	71.25
254.96	79.25
255.193	73.25
255.426	78.25
255.659	80.25
255.892	96.25
256.124	86.25
256.357	90.25
256.59	75.25
256.823	79.25
257.056	80.25
257.289	66.25
257.521	74.25
257.754	72.25
257.987	78.25
258.22	81.25
258.452	70.25
258.685	88.25
258.918	76.25
259.151	71.25
259.383	72.25
259.616	72.25
259.849	80.25
260.081	76.25
260.314	82.25
260.547	68.25
260.779	76.25
261.012	79.25
261.244	71.25
261.477	69.25
261.71	88.25
261.942	76.25
262.175	73.25
262.407	85.25
262.64	70.25
262.872	73.25
263.105	81.25
263.337	84.25
263.57	61.25
263.802	88.25
264.035	68.25
264.267	85.25
264.499	86.25
264.732	72.25
264.964	71.25
265.197	83.25
265.429	73.25
265.661	71.25
265.894	95.25
266.126	91.25
266.358	65.25
266.591	81.25
266.823	58.25
267.055	75.25
267.287	82.25
267.52	84.25
267.752	85.25
267.984	91.25
268.216	74.25
268.448	80.25
268.681	77.25
268.913	86.25
269.145	88.25
269.377	89.25
269.609	62.25
269.841	67.25
270.073	73.25
270.306	76.25
270.538	74.25
270.77	86.25
271.002	80.25
271.234	74.25
271.466	83.25
271.698	80.25
271.93	72.25
272.162	83.25
272.394	76.25
272.626	65.25
272.858	75.25
273.09	84.25
273.322	92.25
273.553	85.25
273.785	82.25
274.017	85.25
274.249	102.25
274.481	87.25
274.713	76.25
274.945	68.25
275.176	80.25
275.408	78.25
275.64	74.25
275.872	71.25
276.104	75.25
276.335	70.25
276.567	89.25
276.799	79.25
277.031	90.25
277.262	81.25
277.494	86.25
277.726	80.25
277.957	84.25
278.189	70.25
278.421	92.25
278.652	82.25
278.884	84.25
279.115	77.25
279.347	66.25
279.579	83.25
279.81	91.25
280.042	83.25
280.273	84.25
280.505	80.25
280.736	69.25
280.968	86.25
281.199	84.25
281.431	84.25
281.662	76.25
281.894	78.25
282.125	80.25
282.356	84.25
282.588	81.25
282.819	89.25
283.051	84.25
283.282	79.25
283.513	84.25
283.745	81.25
283.976	90.25
284.207	78.25
284.439	86.25
284.67	72.25
284.901	71.25
285.132	74.25
285.364	73.25
285.595	76.25
285.826	83.25
286.057	89.25
286.288	83.25
286.52	82.25
286.751	76.25
286.982	73.25
287.213	71.25
287.444	79.25
287.675	88.25
287.906	87.25
288.138	73.25
288.369	84.25
288.6	86.25
288.831	80.25
289.062	82.25
289.293	77.25
289.524	96.25
289.755	79.25
289.986	81.25
290.217	80.25
290.448	78.25
290.679	90.25
290.91	79.25
291.141	82.25
291.371	67.25
291.602	86.25
291.833	64.25
292.064	92.25
292.295	89.25
292.526	73.25
292.757	76.25
292.987	95.25
293.218	66.25
293.449	75.25
293.68	98.25
293.91	76.25
294.141	81.25
294.372	69.25
294.603	83.25
294.833	76.25
295.064	84.25
295.295	72.25
295.525	74.25
295.756	78.25
295.987	71.25
296.217	89.25
296.448	82.25
296.679	80.25
296.909	87.25
297.14	100.25
297.37	92.25
297.601	74.25
297.831	76.25
298.062	72.25
298.292	84.25
298.523	99.25
298.753	76.25
298.984	85.25
299.214	79.25
299.445	83.25
299.675	90.25
299.905	92.25
300.136	84.25
300.366	86.25
300.597	76.25
300.827	81.25
301.057	88.25
301.288	81.25
301.518	87.25
301.748	80.25
301.979	69.25
302.209	89.25
302.439	72.25
302.669	84.25
302.9	85.25
303.13	79.25
303.36	73.25
303.59	86.25
303.82	91.25
304.051	78.25
304.281	89.25
304.511	88.25
304.741	74.25
304.971	95.25
305.201	80.25
305.431	80.25
305.661	82.25
305.891	72.25
306.121	72.25
306.352	95.25
306.582	81.25
306.812	84.25
307.042	68.25
307.272	80.25
307.502	70.25
307.731	80.25
307.961	91.25
308.191	86.25
308.421	67.25
308.651	71.25
308.881	77.25
309.111	79.25
309.341	67.25
309.571	82.25
309.8	76.25
310.03	89.25
310.26	72.25
310.49	80.25
310.72	89.25
310.949	80.25
311.179	97.25
311.409	66.25
311.639	88.25
311.868	64.25
312.098	84.25
312.328	86.25
312.557	85.25
312.787	90.25
313.017	83.25
313.246	89.25
313.476	82.25
313.706	78.25
313.935	63.25
314.165	76.25
314.394	86.25
314.624	81.25
314.853	97.25
315.083	80.25
315.312	69.25
315.542	97.25
315.771	69.25
316.001	76.25
316.23	86.25
316.46	83.25
316.689	79.25
316.919	90.25
317.148	86.25
317.377	73.25
317.607	82.25
317.836	73.25
318.065	85.25
318.295	76.25
318.524	75.25
318.753	83.25
318.983	86.25
319.212	73.25
319.441	77.25
319.67	79.25
319.9	82.25
320.129	75.25
320.358	79.25
320.587	75.25
320.816	83.25
321.046	96.25
321.275	81.25
321.504	81.25
321.733	69.25
321.962	67.25
322.191	82.25
322.42	83.25
322.649	85.25
322.878	76.25
323.108	67.25
323.337	82.25
323.566	83.25
323.795	81.25
324.024	74.25
324.253	83.25
324.482	101.25
324.71	88.25
324.939	82.25
325.168	84.25
325.397	75.25
325.626	82.25
325.855	78.25
326.084	80.25
326.313	86.25
326.542	88.25
326.77	81.25
326.999	69.25
327.228	80.25
327.457	83.25
327.686	97.25
327.914	98.25
328.143	83.25
328.372	80.25
328.6	68.25
328.829	73.25
329.058	80.25
329.287	81.25
329.515	79.25
329.744	79.25
329.972	81.25
330.201	87.25
330.43	67.25
330.658	75.25
330.887	95.25
331.115	91.25
331.344	81.25
331.572	82.25
331.801	71.25
332.03	73.25
332.258	86.25
332.486	56.25
332.715	78.25
332.943	88.25
333.172	80.25
333.4	86.25
333.629	76.25
333.857	84.25
334.085	89.25
334.314	85.25
334.542	70.25
334.771	75.25
334.999	71.25
335.227	91.25
335.455	78.25
335.684	86.25
335.912	90.25
336.14	79.25
336.369	73.25
336.597	82.25
336.825	92.25
337.053	90.25
337.281	65.25
337.51	91.25
337.738	81.25
337.966	82.25
338.194	76.25
338.422	79.25
338.65	78.25
338.878	83.25
339.106	80.25
339.334	82.25
339.562	83.25
339.79	76.25
340.018	80.25
340.246	95.25
340.474	75.25
340.702	86.25
340.93	98.25
341.158	76.25
341.386	73.25
341.614	74.25
341.842	87.25
342.07	84.25
342.298	86.25
342.526	73.25
342.754	76.25
342.981	82.25
343.209	85.25
343.437	76.25
343.665	69.25
343.893	83.25
344.12	80.25
344.348	86.25
344.576	89.25
344.804	88.25
345.031	86.25
345.259	86.25
345.487	75.25
345.714	87.25
345.942	69.25
346.17	75.25
346.397	91.25
346.625	76.25
346.853	84.25
347.08	80.25
347.308	83.25
347.535	81.25
347.763	69.25
347.99	88.25
348.218	85.25
348.445	72.25
348.673	79.25
348.9	86.25
349.128	79.25
349.355	79.25
349.583	71.25
349.81	70.25
350.037	70.25
350.265	69.25
350.492	94.25
350.72	80.25
350.947	95.25
351.174	77.25
351.402	86.25
351.629	76.25
351.856	90.25
352.083	88.25
352.311	89.25
352.538	82.25
352.765	76.25
352.992	77.25
353.22	76.25
353.447	81.25
353.674	91.25
353.901	92.25
354.128	85.25
354.355	91.25
354.583	88.25
354.81	87.25
355.037	83.25
355.264	88.25
355.491	71.25
355.718	97.25
355.945	85.25
356.172	85.25
356.399	83.25
356.626	68.25
356.853	84.25
357.08	68.25
357.307	71.25
357.534	94.25
357.761	84.25
357.988	77.25
358.215	72.25
358.441	81.25
358.668	95.25
358.895	72.25
359.122	82.25
359.349	76.25
359.576	74.25
359.802	75.25
360.029	67.25
360.256	76.25
360.483	74.25
360.709	79.25
360.936	88.25
361.163	97.25
361.39	73.25
361.616	80.25
361.843	73.25
362.07	96.25
362.296	84.25
362.523	84.25
362.749	81.25
362.976	71.25
363.203	83.25
363.429	92.25
363.656	85.25
363.882	79.25
364.109	78.25
364.335	87.25
364.562	75.25
364.788	73.25
365.015	75.25
365.241	90.25
365.468	95.25
365.694	75.25
365.92	70.25
366.147	86.25
366.373	77.25
366.599	84.25
366.826	87.25
367.052	84.25
367.278	82.25
367.505	84.25
367.731	82.25
367.957	71.25
368.184	82.25
368.41	68.25
368.636	72.25
368.862	94.25
369.089	88.25
369.315	93.25
369.541	81.25
369.767	80.25
369.993	87.25
370.219	90.25
370.445	86.25
370.672	79.25
370.898	76.25
371.124	76.25
371.35	76.25
371.576	76.25
371.802	78.25
372.028	68.25
372.254	78.25
372.48	76.25
372.706	92.25
372.932	84.25
373.158	80.25
373.384	88.25
373.61	87.25
373.835	88.25
374.061	80.25
374.287	76.25
374.513	83.25
374.739	80.25
374.965	96.25
375.191	98.25
375.416	95.25
375.642	78.25
375.868	72.25
376.094	83.25
376.319	80.25
376.545	80.25
376.771	74.25
376.997	71.25
377.222	79.25
377.448	75.25
377.674	84.25
377.899	82.25
378.125	85.25
378.35	76.25
378.576	75.25
378.802	85.25
379.027	76.25
379.253	94.25
379.478	78.25
379.704	62.25
379.929	75.25
380.155	80.25
380.38	86.25
380.606	71.25
380.831	89.25
381.057	90.25
381.282	87.25
381.507	69.25
381.733	71.25
381.958	92.25
382.184	86.25
382.409	71.25
382.634	79.25
382.86	75.25
383.085	75.25
383.31	93.25
383.535	86.25
383.761	86.25
383.986	82.25
384.211	81.25
384.436	82.25
384.662	76.25
384.887	82.25
385.112	72.25
385.337	88.25
385.562	84.25
385.787	83.25
386.013	89.25
386.238	87.25
386.463	82.25
386.688	87.25
386.913	74.25
387.138	80.25
387.363	82.25
387.588	93.25
387.813	74.25
388.038	79.25
388.263	84.25
388.488	83.25
388.713	84.25
388.938	81.25
389.163	86.25
389.387	87.25
389.612	81.25
389.837	86.25
390.062	89.25
390.287	87.25
390.512	68.25
390.736	83.25
390.961	84.25
391.186	74.25
391.411	76.25
391.636	82.25
391.86	82.25
392.085	86.25
392.31	79.25
392.534	83.25
392.759	92.25
392.984	84.25
393.208	83.25
393.433	79.25
393.658	79.25
393.882	76.25
394.107	81.25
394.331	77.25
394.556	71.25
394.78	83.25
395.005	66.25
395.229	66.25
395.454	92.25
395.678	76.25
395.903	74.25
396.127	76.25
396.352	91.25
396.576	82.25
396.801	77.25
397.025	72.25
397.249	73.25
397.474	86.25
397.698	95.25
397.922	74.25
398.147	76.25
398.371	87.25
398.595	98.25
398.82	90.25
399.044	80.25
399.268	85.25
399.492	79.25
399.717	83.25
399.941	69.25
400.165	98.25
400.389	91.25
400.613	81.25
400.837	89.25
401.062	71.25
401.286	71.25
401.51	86.25
401.734	82.25
401.958	72.25
402.182	69.25
402.406	71.25
402.63	76.25
402.854	74.25
403.078	73.25
403.302	64.25
403.526	88.25
403.75	84.25
403.974	86.25
404.198	76.25
404.422	83.25
404.645	81.25
404.869	85.25
405.093	72.25
405.317	85.25
405.541	79.25
405.765	79.25
405.988	87.25
406.212	88.25
406.436	93.25
406.66	86.25
406.883	76.25
407.107	85.25
407.331	82.25
407.555	71.25
407.778	75.25
408.002	83.25
408.226	90.25
408.449	79.25
408.673	74.25
408.896	88.25
409.12	94.25
409.344	85.25
409.567	80.25
409.791	80.25
410.014	86.25
410.238	83.25
410.461	88.25
410.685	86.25
410.908	74.25
411.132	84.25
411.355	76.25
411.578	75.25
411.802	81.25
412.025	83.25
412.249	84.25
412.472	71.25
412.695	77.25
412.919	83.25
413.142	80.25
413.365	89.25
413.589	81.25
413.812	84.25
414.035	90.25
414.258	85.25
414.482	74.25
414.705	89.25
414.928	95.25
415.151	82.25
415.374	90.25
415.597	89.25
415.821	79.25
416.044	82.25
416.267	85.25
416.49	92.25
416.713	95.25
416.936	97.25
417.159	84.25
417.382	84.25
417.605	74.25
417.828	89.25
418.051	92.25
418.274	76.25
418.497	80.25
418.72	82.25
418.943	83.25
419.166	104.25
419.389	91.25
419.611	79.25
419.834	82.25
420.057	85.25
420.28	91.25
420.503	80.25
420.726	91.25
420.948	87.25
421.171	75.25
421.394	81.25
421.617	76.25
421.839	92.25
422.062	87.25
422.285	98.25
422.507	90.25
422.73	77.25
422.953	84.25
423.175	93.25
423.398	76.25
423.621	88.25
423.843	91.25
424.066	91.25
424.288	87.25
424.511	88.25
424.733	95.25
424.956	75.25
425.178	79.25
425.401	82.25
425.623	91.25
425.846	103.25
426.068	95.25
426.291	85.25
426.513	97.25
426.735	82.25
426.958	76.25
427.18	99.25
427.402	95.25
427.625	106.25
427.847	91.25
428.069	79.25
428.292	66.25
428.514	83.25
428.736	88.25
428.958	84.25
429.181	87.25
429.403	80.25
429.625	89.25
429.847	79.25
430.069	93.25
430.292	90.25
430.514	89.25
430.736	99.25
430.958	78.25
431.18	85.25
431.402	94.25
431.624	84.25
431.846	88.25
432.068	70.25
432.29	77.25
432.512	81.25
432.734	79.25
432.956	81.25
433.178	79.25
433.4	88.25
433.622	91.25
433.844	84.25
434.066	74.25
434.287	81.25
434.509	90.25
434.731	77.25
434.953	76.25
435.175	98.25
435.397	92.25
435.618	96.25
435.84	88.25
436.062	93.25
436.284	70.25
436.505	97.25
436.727	89.25
436.949	91.25
437.17	88.25
437.392	91.25
437.614	75.25
437.835	84.25
438.057	95.25
438.278	76.25
438.5	74.25
438.721	77.25
438.943	86.25
439.165	80.25
439.386	84.25
439.608	89.25
439.829	72.25
440.05	86.25
440.272	97.25
440.493	81.25
440.715	96.25
440.936	88.25
441.158	87.25
441.379	86.25
441.6	84.25
441.822	88.25
442.043	82.25
442.264	89.25
442.486	88.25
442.707	85.25
442.928	100.25
443.149	88.25
443.371	85.25
443.592	75.25
443.813	83.25
444.034	84.25
444.255	83.25
444.476	75.25
444.698	83.25
444.919	94.25
445.14	217.25
445.361	148.25
445.582	86.25
445.803	82.25
446.024	85.25
446.245	95.25
446.466	74.25
446.687	77.25
446.908	95.25
447.129	98.25
447.35	87.25
447.571	73.25
447.792	89.25
448.013	87.25
448.234	100.25
448.455	78.25
448.675	90.25
448.896	89.25
449.117	71.25
449.338	93.25
449.559	82.25
449.779	89.25
450	90.25
450.221	97.25
450.442	94.25
450.662	103.25
450.883	85.25
451.104	87.25
451.324	89.25
451.545	93.25
451.766	87.25
451.986	79.25
452.207	94.25
452.428	85.25
452.648	91.25
452.869	86.25
453.089	97.25
453.31	97.25
453.53	85.25
453.751	77.25
453.971	90.25
454.192	80.25
454.412	79.25
454.633	88.25
454.853	79.25
455.073	75.25
455.294	75.25
455.514	86.25
455.734	85.25
455.955	91.25
456.175	78.25
456.395	81.25
456.616	91.25
456.836	80.25
457.056	74.25
457.276	89.25
457.497	82.25
457.717	84.25
457.937	71.25
458.157	78.25
458.377	96.25
458.598	83.25
458.818	73.25
459.038	74.25
459.258	88.25
459.478	93.25
459.698	92.25
459.918	82.25
460.138	80.25
460.358	79.25
460.578	80.25
460.798	83.25
461.018	83.25
461.238	89.25
461.458	87.25
461.678	81.25
461.898	92.25
462.118	80.25
462.338	74.25
462.558	86.25
462.777	86.25
462.997	82.25
463.217	91.25
463.437	88.25
463.657	96.25
463.876	81.25
464.096	91.25
464.316	84.25
464.536	69.25
464.755	80.25
464.975	79.25
465.195	95.25
465.414	105.25
465.634	85.25
465.854	80.25
466.073	84.25
466.293	81.25
466.512	70.25
466.732	76.25
466.951	84.25
467.171	86.25
467.391	79.25
467.61	81.25
467.829	86.25
468.049	82.25
468.268	82.25
468.488	86.25
468.707	100.25
468.927	74.25
469.146	68.25
469.365	102.25
469.585	95.25
469.804	79.25
470.023	75.25
470.243	86.25
470.462	92.25
470.681	91.25
470.901	90.25
471.12	82.25
471.339	96.25
471.558	90.25
471.777	108.25
471.997	92.25
472.216	91.25
472.435	76.25
472.654	91.25
472.873	76.25
473.092	85.25
473.311	74.25
473.53	83.25
473.749	81.25
473.968	89.25
474.187	81.25
474.406	82.25
474.625	91.25
474.844	81.25
475.063	76.25
475.282	93.25
475.501	86.25
475.72	97.25
475.939	81.25
476.158	90.25
476.377	88.25
476.596	83.25
476.814	86.25
477.033	88.25
477.252	97.25
477.471	88.25
477.69	104.25
477.908	95.25
478.127	104.25
478.346	93.25
478.564	82.25
478.783	83.25
479.002	91.25
479.22	90.25
479.439	104.25
479.658	91.25
479.876	88.25
480.095	84.25
480.313	73.25
480.532	82.25
480.751	85.25
480.969	80.25
481.188	80.25
481.406	80.25
481.624	90.25
481.843	82.25
482.061	78.25
482.28	76.25
482.498	78.25
482.717	82.25
482.935	79.25
483.153	85.25
483.372	83.25
483.59	75.25
483.808	94.25
484.027	92.25
484.245	80.25
484.463	94.25
484.681	99.25
484.9	83.25
485.118	82.25
485.336	70.25
485.554	83.25
485.772	75.25
485.99	75.25
486.209	95.25
486.427	82.25
486.645	96.25
486.863	81.25
487.081	80.25
487.299	84.25
487.517	73.25
487.735	76.25
487.953	71.25
488.171	96.25
488.389	91.25
488.607	90.25
488.825	81.25
489.043	75.25
489.261	94.25
489.479	88.25
489.696	109.25
489.914	97.25
490.132	101.25
490.35	94.25
490.568	95.25
490.786	97.25
491.003	83.25
491.221	92.25
491.439	100.25
491.657	101.25
491.874	99.25
492.092	87.25
492.31	106.25
492.527	103.25
492.745	106.25
492.963	95.25
493.18	96.25
493.398	104.25
493.615	91.25
493.833	90.25
494.05	88.25
494.268	89.25
494.485	90.25
494.703	99.25
494.92	81.25
495.138	95.25
495.355	89.25
495.573	94.25
495.79	96.25
496.008	102.25
496.225	94.25
496.442	99.25
496.66	86.25
496.877	94.25
497.094	100.25
497.312	104.25
497.529	87.25
497.746	97.25
497.963	99.25
498.181	75.25
498.398	77.25
498.615	70.25
498.832	83.25
499.049	93.25
499.267	91.25
499.484	90.25
499.701	97.25
499.918	94.25
500.135	85.25
500.352	86.25
500.569	86.25
500.786	84.25
501.003	88.25
501.22	87.25
501.437	98.25
501.654	88.25
501.871	89.25
502.088	89.25
502.305	85.25
502.522	96.25
502.739	85.25
502.956	99.25
503.172	81.25
503.389	83.25
503.606	82.25
503.823	69.25
504.04	77.25
504.256	94.25
504.473	82.25
504.69	95.25
504.907	87.25
505.123	89.25
505.34	83.25
505.557	81.25
505.773	80.25
505.99	94.25
506.207	77.25
506.423	93.25
506.64	78.25
506.856	86.25
507.073	82.25
507.289	91.25
507.506	82.25
507.722	76.25
507.939	86.25
508.155	92.25
508.372	82.25
508.588	78.25
508.805	88.25
509.021	78.25
509.238	83.25
509.454	74.25
509.67	82.25
509.887	75.25
510.103	78.25
510.319	73.25
510.536	92.25
510.752	87.25
510.968	78.25
511.184	86.25
511.401	87.25
511.617	86.25
511.833	79.25
512.049	79.25
512.265	75.25
512.481	75.25
512.698	87.25
512.914	88.25
513.13	91.25
513.346	81.25
513.562	83.25
513.778	80.25
513.994	84.25
514.21	86.25
514.426	86.25
514.642	85.25
514.858	100.25
515.074	79.25
515.29	92.25
515.506	79.25
515.721	60.25
515.937	77.25
516.153	82.25
516.369	80.25
516.585	90.25
516.801	75.25
517.016	74.25
517.232	89.25
517.448	74.25
517.664	97.25
517.879	86.25
518.095	87.25
518.311	80.25
518.527	69.25
518.742	82.25
518.958	85.25
519.173	82.25
519.389	78.25
519.605	88.25
519.82	78.25
520.036	67.25
520.251	88.25
520.467	87.25
520.682	81.25
520.898	67.25
521.113	87.25
521.329	87.25
521.544	80.25
521.76	78.25
521.975	70.25
522.19	81.25
522.406	74.25
522.621	76.25
522.836	79.25
523.052	85.25
523.267	79.25
523.482	81.25
523.698	84.25
523.913	81.25
524.128	74.25
524.343	86.25
524.559	67.25
524.774	87.25
524.989	84.25
525.204	87.25
525.419	92.25
525.634	78.25
525.849	82.25
526.064	93.25
526.28	89.25
526.495	87.25
526.71	81.25
526.925	76.25
527.14	82.25
527.355	75.25
527.57	71.25
527.785	88.25
527.999	75.25
528.214	89.25
528.429	78.25
528.644	73.25
528.859	82.25
529.074	80.25
529.289	82.25
529.503	98.25
529.718	85.25
529.933	85.25
530.148	77.25
530.363	80.25
530.577	79.25
530.792	86.25
531.007	88.25
531.221	76.25
531.436	83.25
531.651	80.25
531.865	90.25
532.08	89.25
532.295	87.25
532.509	87.25
532.724	71.25
532.938	74.25
533.153	82.25
533.367	84.25
533.582	74.25
533.796	98.25
534.011	70.25
534.225	87.25
534.44	84.25
534.654	77.25
534.868	81.25
535.083	86.25
535.297	87.25
535.511	81.25
535.726	87.25
535.94	101.25
536.154	95.25
536.369	73.25
536.583	75.25
536.797	80.25
537.011	75.25
537.225	75.25
537.44	91.25
537.654	74.25
537.868	82.25
538.082	69.25
538.296	79.25
538.51	74.25
538.724	93.25
538.938	91.25
539.153	76.25
539.367	88.25
539.581	91.25
539.795	90.25
540.009	84.25
540.222	97.25
540.436	79.25
540.65	89.25
540.864	94.25
541.078	97.25
541.292	93.25
541.506	83.25
541.72	90.25
541.934	91.25
542.147	103.25
542.361	98.25
542.575	92.25
542.789	92.25
543.002	84.25
543.216	95.25
543.43	78.25
543.644	106.25
543.857	97.25
544.071	92.25
544.285	95.25
544.498	105.25
544.712	101.25
544.925	108.25
545.139	95.25
545.352	94.25
545.566	111.25
545.779	92.25
545.993	97.25
546.206	94.25
546.42	89.25
546.633	87.25
546.847	95.25
547.06	83.25
547.274	91.25
547.487	95.25
547.7	102.25
547.914	103.25
548.127	95.25
548.34	98.25
548.554	89.25
548.767	90.25
548.98	104.25
549.193	94.25
549.407	83.25
549.62	85.25
549.833	100.25
550.046	97.25
550.259	95.25
550.473	97.25
550.686	96.25
550.899	105.25
551.112	96.25
551.325	100.25
551.538	85.25
551.751	87.25
551.964	81.25
552.177	98.25
552.39	76.25
552.603	99.25
552.816	99.25
553.029	97.25
553.242	91.25
553.455	99.25
553.667	106.25
553.88	98.25
554.093	88.25
554.306	89.25
554.519	102.25
554.732	86.25
554.944	96.25
555.157	102.25
555.37	88.25
555.583	90.25
555.795	100.25
556.008	77.25
556.221	87.25
556.433	101.25
556.646	93.25
556.859	104.25
557.071	91.25
557.284	82.25
557.496	102.25
557.709	92.25
557.921	111.25
558.134	96.25
558.346	91.25
558.559	89.25
558.771	87.25
558.984	82.25
559.196	86.25
559.409	84.25
559.621	79.25
559.833	80.25
560.046	87.25
560.258	82.25
560.47	87.25
560.683	92.25
560.895	95.25
561.107	93.25
561.32	83.25
561.532	97.25
561.744	95.25
561.956	78.25
562.168	82.25
562.381	98.25
562.593	93.25
562.805	76.25
563.017	92.25
563.229	92.25
563.441	60.25
563.653	88.25
563.865	85.25
564.077	89.25
564.289	76.25
564.501	95.25
564.713	76.25
564.925	91.25
565.137	88.25
565.349	95.25
565.561	82.25
565.773	85.25
565.985	91.25
566.197	94.25
566.408	87.25
566.62	87.25
566.832	82.25
567.044	91.25
567.255	83.25
567.467	84.25
567.679	81.25
567.891	97.25
568.102	89.25
568.314	79.25
568.526	82.25
568.737	91.25
568.949	79.25
569.161	65.25
569.372	83.25
569.584	90.25
569.795	84.25
570.007	82.25
570.218	83.25
570.43	73.25
570.641	83.25
570.853	95.25
571.064	73.25
571.276	98.25
571.487	88.25
571.698	103.25
571.91	76.25
572.121	94.25
572.333	90.25
572.544	95.25
572.755	88.25
572.966	85.25
573.178	74.25
573.389	90.25
573.6	83.25
573.811	90.25
574.023	71.25
574.234	95.25
574.445	101.25
574.656	98.25
574.867	87.25
575.078	104.25
575.289	77.25
575.501	81.25
575.712	80.25
575.923	92.25
576.134	82.25
576.345	80.25
576.556	88.25
576.767	87.25
576.978	86.25
577.188	82.25
577.399	77.25
577.61	74.25
577.821	91.25
578.032	82.25
578.243	77.25
578.454	78.25
578.665	87.25
578.875	83.25
579.086	81.25
579.297	87.25
579.508	80.25
579.718	85.25
579.929	78.25
580.14	72.25
580.35	89.25
580.561	87.25
580.772	81.25
580.982	88.25
581.193	91.25
581.403	80.25
581.614	82.25
581.825	98.25
582.035	103.25
582.246	75.25
582.456	73.25
582.667	81.25
582.877	94.25
583.087	85.25
583.298	83.25
583.508	78.25
583.719	80.25
583.929	83.25
584.139	81.25
584.35	79.25
584.56	89.25
584.77	85.25
584.981	72.25
585.191	79.25
585.401	73.25
585.611	75.25
585.821	88.25
586.032	95.25
586.242	80.25
586.452	96.25
586.662	78.25
586.872	95.25
587.082	88.25
587.292	97.25
587.502	80.25
587.713	81.25
587.923	80.25
588.133	87.25
588.343	84.25
588.553	84.25
588.762	81.25
588.972	70.25
589.182	84.25
589.392	77.25
589.602	62.25
589.812	75.25
590.022	80.25
590.232	70.25
590.441	88.25
590.651	89.25
590.861	70.25
591.071	76.25
591.281	76.25
591.49	86.25
591.7	80.25
591.91	84.25
592.119	87.25
592.329	86.25
592.539	87.25
592.748	71.25
592.958	78.25
593.167	90.25
593.377	81.25
593.587	76.25
593.796	81.25
594.006	74.25
594.215	91.25
594.424	89.25
594.634	87.25
594.843	75.25
595.053	81.25
595.262	75.25
595.472	81.25
595.681	82.25
595.89	62.25
596.1	89.25
596.309	75.25
596.518	89.25
596.727	81.25
596.937	71.25
597.146	87.25
597.355	80.25
597.564	73.25
597.774	90.25
597.983	76.25
598.192	96.25
598.401	80.25
598.61	91.25
598.819	94.25
599.028	82.25
599.237	87.25
599.446	77.25
599.655	89.25
599.864	96.25
600.073	86.25
600.282	72.25
600.491	81.25
600.7	80.25
600.909	90.25
601.118	75.25
601.327	83.25
601.536	72.25
601.745	82.25
601.953	84.25
602.162	89.25
602.371	86.25
602.58	89.25
602.789	64.25
602.997	94.25
603.206	84.25
603.415	89.25
603.623	97.25
603.832	76.25
604.041	82.25
604.249	82.25
604.458	94.25
604.666	76.25
604.875	77.25
605.084	98.25
605.292	81.25
605.501	92.25
605.709	81.25
605.918	84.25
606.126	87.25
606.334	83.25
606.543	96.25
606.751	79.25
606.96	87.25
607.168	86.25
607.376	102.25
607.585	84.25
607.793	94.25
608.001	95.25
608.21	89.25
608.418	78.25
608.626	74.25
608.834	82.25
609.043	98.25
609.251	71.25
609.459	92.25
609.667	82.25
609.875	97.25
610.083	84.25
610.291	100.25
610.499	87.25
610.707	91.25
610.916	96.25
611.124	85.25
611.332	102.25
611.54	90.25
611.748	94.25
611.955	87.25
612.163	73.25
612.371	87.25
612.579	86.25
612.787	87.25
612.995	95.25
613.203	86.25
613.411	95.25
613.618	92.25
613.826	76.25
614.034	93.25
614.242	83.25
614.449	91.25
614.657	87.25
614.865	88.25
615.072	79.25
615.28	83.25
615.488	84.25
615.695	91.25
615.903	102.25
616.111	100.25
616.318	97.25
616.526	73.25
616.733	97.25
616.941	84.25
617.148	103.25
617.356	77.25
617.563	84.25
617.771	88.25
617.978	83.25
618.185	80.25
618.393	83.25
618.6	82.25
618.807	94.25
619.015	85.25
619.222	84.25
619.429	76.25
619.637	83.25
619.844	70.25
620.051	102.25
620.258	79.25
620.466	77.25
620.673	83.25
620.88	93.25
621.087	82.25
621.294	85.25
621.501	92.25
621.708	93.25
621.915	94.25
622.122	99.25
622.329	98.25
622.536	81.25
622.743	91.25
622.95	87.25
623.157	94.25
623.364	84.25
623.571	83.25
623.778	86.25
623.985	87.25
624.192	86.25
624.399	76.25
624.606	81.25
624.812	82.25
625.019	80.25
625.226	82.25
625.433	80.25
625.639	87.25
625.846	97.25
626.053	76.25
626.259	88.25
626.466	77.25
626.673	83.25
626.879	91.25
627.086	97.25
627.293	79.25
627.499	83.25
627.706	85.25
627.912	87.25
628.119	81.25
628.325	91.25
628.532	85.25
628.738	86.25
628.945	90.25
629.151	90.25
629.357	82.25
629.564	78.25
629.77	85.25
629.976	87.25
630.183	83.25
630.389	84.25
630.595	76.25
630.802	82.25
631.008	73.25
631.214	88.25
631.42	84.25
631.627	92.25
631.833	72.25
632.039	80.25
632.245	87.25
632.451	80.25
632.657	80.25
632.863	86.25
633.069	99.25
633.275	81.25
633.481	81.25
633.688	99.25
633.893	95.25
634.099	73.25
634.305	93.25
634.511	79.25
634.717	85.25
634.923	91.25
635.129	94.25
635.335	85.25
635.541	92.25
635.747	82.25
635.952	76.25
636.158	97.25
636.364	84.25
636.57	76.25
636.775	81.25
636.981	95.25
637.187	74.25
637.392	76.25
637.598	81.25
637.804	63.25
638.009	82.25
638.215	86.25
638.421	81.25
638.626	88.25
638.832	79.25
639.037	95.25
639.243	78.25
639.448	80.25
639.654	95.25
639.859	84.25
640.065	83.25
640.27	81.25
640.475	84.25
640.681	77.25
640.886	86.25
641.091	80.25
641.297	87.25
641.502	87.25
641.707	83.25
641.913	84.25
642.118	83.25
642.323	84.25
642.528	86.25
642.733	108.25
642.939	88.25
643.144	84.25
643.349	92.25
643.554	82.25
643.759	84.25
643.964	73.25
644.169	74.25
644.374	92.25
644.579	84.25
644.784	91.25
644.989	88.25
645.194	82.25
645.399	74.25
645.604	75.25
645.809	88.25
646.014	79.25
646.219	86.25
646.423	86.25
646.628	86.25
646.833	82.25
647.038	77.25
647.243	75.25
647.447	96.25
647.652	91.25
647.857	78.25
648.062	74.25
648.266	79.25
648.471	87.25
648.676	75.25
648.88	82.25
649.085	76.25
649.289	94.25
649.494	82.25
649.698	74.25
649.903	82.25
650.107	76.25
650.312	69.25
650.516	87.25
650.721	85.25
650.925	80.25
651.13	79.25
651.334	72.25
651.539	80.25
651.743	79.25
651.947	75.25
652.152	85.25
652.356	87.25
652.56	68.25
652.764	88.25
652.969	89.25
653.173	76.25
653.377	82.25
653.581	74.25
653.785	76.25
653.99	79.25
654.194	84.25
654.398	74.25
654.602	86.25
654.806	81.25
655.01	88.25
655.214	80.25
655.418	88.25
655.622	72.25
655.826	66.25
656.03	78.25
656.234	96.25
656.438	76.25
656.642	96.25
656.846	92.25
657.049	71.25
657.253	79.25
657.457	87.25
657.661	81.25
657.865	82.25
658.068	68.25
658.272	82.25
658.476	73.25
658.68	76.25
658.883	72.25
659.087	81.25
659.291	88.25
659.494	74.25
659.698	80.25
659.901	72.25
660.105	83.25
660.309	87.25
660.512	74.25
660.716	87.25
660.919	76.25
661.123	82.25
661.326	81.25
661.53	65.25
661.733	79.25
661.936	84.25
662.14	74.25
662.343	67.25
662.546	74.25
662.75	75.25
662.953	75.25
663.156	83.25
663.36	85.25
663.563	75.25
663.766	92.25
663.969	92.25
664.173	73.25
664.376	73.25
664.579	88.25
664.782	82.25
664.985	70.25
665.188	57.25
665.391	68.25
665.594	75.25
665.797	90.25
666	82.25
666.203	79.25
666.406	79.25
666.609	75.25
666.812	82.25
667.015	79.25
667.218	80.25
667.421	82.25
667.624	90.25
667.827	92.25
668.03	90.25
668.232	92.25
668.435	85.25
668.638	76.25
668.841	89.25
669.043	97.25
669.246	87.25
669.449	79.25
669.651	77.25
669.854	83.25
670.057	83.25
670.259	77.25
670.462	75.25
670.665	75.25
670.867	84.25
671.07	75.25
671.272	76.25
671.475	84.25
671.677	84.25
671.88	83.25
672.082	85.25
672.284	90.25
672.487	92.25
672.689	80.25
672.892	68.25
