Data from Zn(NO3)2Standard.Agarose3%.GreenCap.LampEnergy10E.O_HRD10591_15-06-00-942.txt Node
Date: Mon Jul 22 15:06:00 EDT 2019
User: cochatt
Spectrometer: HR+D1059
Trigger mode: 1
Integration Time (sec): 1.000000E-1
Scans to average: 1
Electric dark correction enabled: true
Nonlinearity correction enabled: false
Boxcar width: 0
XAxis mode: Wavelengths
Number of Pixels in Spectrum: 2048
>>>>>Begin Spectral Data<<<<<
223.165	-6.94
223.4	-6.94
223.635	-6.94
223.869	-1.94
224.104	-24.94
224.338	-24.94
224.573	-26.94
224.808	-10.94
225.042	1.06
225.277	6.06
225.511	0.06
225.746	-5.94
225.98	13.06
226.215	8.06
226.449	2.06
226.683	11.06
226.918	25.06
227.152	36.06
227.387	41.06
227.621	40.06
227.856	54.06
228.09	39.06
228.324	58.06
228.559	47.06
228.793	65.06
229.027	58.06
229.262	61.06
229.496	63.06
229.73	72.06
229.964	80.06
230.199	72.06
230.433	68.06
230.667	70.06
230.901	76.06
231.136	79.06
231.37	71.06
231.604	85.06
231.838	75.06
232.072	93.06
232.306	80.06
232.541	84.06
232.775	88.06
233.009	107.06
233.243	89.06
233.477	88.06
233.711	88.06
233.945	86.06
234.179	73.06
234.413	78.06
234.647	82.06
234.881	92.06
235.115	81.06
235.349	72.06
235.583	77.06
235.817	88.06
236.051	83.06
236.285	97.06
236.519	72.06
236.753	89.06
236.987	80.06
237.221	88.06
237.455	76.06
237.689	84.06
237.922	90.06
238.156	76.06
238.39	77.06
238.624	61.06
238.858	66.06
239.091	87.06
239.325	84.06
239.559	95.06
239.793	69.06
240.027	81.06
240.26	82.06
240.494	59.06
240.728	71.06
240.961	76.06
241.195	77.06
241.429	83.06
241.662	74.06
241.896	86.06
242.13	77.06
242.363	81.06
242.597	63.06
242.83	80.06
243.064	81.06
243.298	72.06
243.531	90.06
243.765	82.06
243.998	88.06
244.232	87.06
244.465	75.06
244.699	77.06
244.932	76.06
245.166	73.06
245.399	91.06
245.633	79.06
245.866	95.06
246.099	87.06
246.333	81.06
246.566	77.06
246.8	74.06
247.033	79.06
247.266	85.06
247.5	92.06
247.733	95.06
247.966	92.06
248.2	76.06
248.433	79.06
248.666	81.06
248.899	88.06
249.133	89.06
249.366	87.06
249.599	88.06
249.832	84.06
250.066	93.06
250.299	81.06
250.532	89.06
250.765	86.06
250.998	80.06
251.231	77.06
251.465	78.06
251.698	79.06
251.931	78.06
252.164	79.06
252.397	70.06
252.63	86.06
252.863	77.06
253.096	70.06
253.329	81.06
253.562	86.06
253.795	88.06
254.028	82.06
254.261	70.06
254.494	90.06
254.727	98.06
254.96	70.06
255.193	60.06
255.426	79.06
255.659	91.06
255.892	95.06
256.124	84.06
256.357	72.06
256.59	84.06
256.823	88.06
257.056	79.06
257.289	91.06
257.521	79.06
257.754	81.06
257.987	77.06
258.22	85.06
258.452	92.06
258.685	87.06
258.918	92.06
259.151	96.06
259.383	84.06
259.616	89.06
259.849	91.06
260.081	79.06
260.314	69.06
260.547	93.06
260.779	88.06
261.012	71.06
261.244	75.06
261.477	81.06
261.71	72.06
261.942	88.06
262.175	86.06
262.407	94.06
262.64	88.06
262.872	94.06
263.105	74.06
263.337	74.06
263.57	87.06
263.802	86.06
264.035	84.06
264.267	80.06
264.499	85.06
264.732	82.06
264.964	85.06
265.197	86.06
265.429	82.06
265.661	97.06
265.894	76.06
266.126	92.06
266.358	92.06
266.591	94.06
266.823	90.06
267.055	93.06
267.287	80.06
267.52	76.06
267.752	96.06
267.984	102.06
268.216	70.06
268.448	92.06
268.681	99.06
268.913	90.06
269.145	91.06
269.377	72.06
269.609	92.06
269.841	86.06
270.073	89.06
270.306	82.06
270.538	85.06
270.77	82.06
271.002	69.06
271.234	91.06
271.466	91.06
271.698	84.06
271.93	82.06
272.162	88.06
272.394	123.06
272.626	82.06
272.858	81.06
273.09	91.06
273.322	94.06
273.553	79.06
273.785	64.06
274.017	92.06
274.249	76.06
274.481	83.06
274.713	84.06
274.945	75.06
275.176	78.06
275.408	91.06
275.64	75.06
275.872	92.06
276.104	82.06
276.335	73.06
276.567	92.06
276.799	87.06
277.031	66.06
277.262	88.06
277.494	89.06
277.726	72.06
277.957	79.06
278.189	91.06
278.421	90.06
278.652	90.06
278.884	76.06
279.115	94.06
279.347	91.06
279.579	73.06
279.81	85.06
280.042	93.06
280.273	79.06
280.505	75.06
280.736	95.06
280.968	93.06
281.199	92.06
281.431	89.06
281.662	100.06
281.894	84.06
282.125	86.06
282.356	90.06
282.588	99.06
282.819	83.06
283.051	95.06
283.282	89.06
283.513	98.06
283.745	81.06
283.976	87.06
284.207	87.06
284.439	95.06
284.67	78.06
284.901	79.06
285.132	76.06
285.364	81.06
285.595	81.06
285.826	82.06
286.057	85.06
286.288	86.06
286.52	93.06
286.751	91.06
286.982	90.06
287.213	82.06
287.444	85.06
287.675	88.06
287.906	89.06
288.138	78.06
288.369	84.06
288.6	93.06
288.831	83.06
289.062	89.06
289.293	73.06
289.524	88.06
289.755	90.06
289.986	85.06
290.217	91.06
290.448	82.06
290.679	88.06
290.91	89.06
291.141	82.06
291.371	97.06
291.602	78.06
291.833	102.06
292.064	89.06
292.295	80.06
292.526	76.06
292.757	107.06
292.987	91.06
293.218	94.06
293.449	93.06
293.68	90.06
293.91	94.06
294.141	86.06
294.372	80.06
294.603	76.06
294.833	86.06
295.064	86.06
295.295	96.06
295.525	93.06
295.756	83.06
295.987	90.06
296.217	80.06
296.448	90.06
296.679	78.06
296.909	94.06
297.14	86.06
297.37	87.06
297.601	93.06
297.831	82.06
298.062	97.06
298.292	89.06
298.523	89.06
298.753	98.06
298.984	99.06
299.214	81.06
299.445	94.06
299.675	92.06
299.905	78.06
300.136	86.06
300.366	90.06
300.597	85.06
300.827	78.06
301.057	93.06
301.288	77.06
301.518	82.06
301.748	92.06
301.979	99.06
302.209	84.06
302.439	92.06
302.669	80.06
302.9	90.06
303.13	100.06
303.36	86.06
303.59	75.06
303.82	84.06
304.051	76.06
304.281	100.06
304.511	102.06
304.741	94.06
304.971	97.06
305.201	81.06
305.431	93.06
305.661	88.06
305.891	94.06
306.121	78.06
306.352	86.06
306.582	108.06
306.812	104.06
307.042	84.06
307.272	94.06
307.502	78.06
307.731	76.06
307.961	87.06
308.191	103.06
308.421	88.06
308.651	81.06
308.881	98.06
309.111	87.06
309.341	85.06
309.571	100.06
309.8	99.06
310.03	85.06
310.26	80.06
310.49	92.06
310.72	101.06
310.949	79.06
311.179	88.06
311.409	79.06
311.639	86.06
311.868	83.06
312.098	74.06
312.328	88.06
312.557	62.06
312.787	84.06
313.017	90.06
313.246	74.06
313.476	99.06
313.706	96.06
313.935	82.06
314.165	83.06
314.394	92.06
314.624	94.06
314.853	76.06
315.083	82.06
315.312	84.06
315.542	88.06
315.771	83.06
316.001	78.06
316.23	88.06
316.46	85.06
316.689	93.06
316.919	85.06
317.148	86.06
317.377	101.06
317.607	89.06
317.836	92.06
318.065	88.06
318.295	90.06
318.524	93.06
318.753	72.06
318.983	89.06
319.212	88.06
319.441	97.06
319.67	86.06
319.9	95.06
320.129	80.06
320.358	90.06
320.587	91.06
320.816	92.06
321.046	79.06
321.275	92.06
321.504	95.06
321.733	109.06
321.962	89.06
322.191	91.06
322.42	95.06
322.649	89.06
322.878	81.06
323.108	102.06
323.337	79.06
323.566	76.06
323.795	74.06
324.024	72.06
324.253	100.06
324.482	87.06
324.71	95.06
324.939	81.06
325.168	69.06
325.397	86.06
325.626	100.06
325.855	87.06
326.084	98.06
326.313	95.06
326.542	85.06
326.77	91.06
326.999	76.06
327.228	87.06
327.457	85.06
327.686	83.06
327.914	94.06
328.143	92.06
328.372	94.06
328.6	84.06
328.829	87.06
329.058	90.06
329.287	89.06
329.515	85.06
329.744	94.06
329.972	94.06
330.201	81.06
330.43	80.06
330.658	82.06
330.887	84.06
331.115	87.06
331.344	90.06
331.572	96.06
331.801	82.06
332.03	101.06
332.258	89.06
332.486	73.06
332.715	75.06
332.943	97.06
333.172	74.06
333.4	90.06
333.629	89.06
333.857	97.06
334.085	91.06
334.314	104.06
334.542	93.06
334.771	91.06
334.999	92.06
335.227	84.06
335.455	89.06
335.684	92.06
335.912	89.06
336.14	79.06
336.369	78.06
336.597	86.06
336.825	86.06
337.053	88.06
337.281	88.06
337.51	98.06
337.738	91.06
337.966	100.06
338.194	93.06
338.422	88.06
338.65	94.06
338.878	95.06
339.106	88.06
339.334	93.06
339.562	74.06
339.79	74.06
340.018	76.06
340.246	88.06
340.474	92.06
340.702	89.06
340.93	74.06
341.158	77.06
341.386	78.06
341.614	78.06
341.842	90.06
342.07	83.06
342.298	90.06
342.526	84.06
342.754	86.06
342.981	86.06
343.209	77.06
343.437	78.06
343.665	94.06
343.893	85.06
344.12	91.06
344.348	77.06
344.576	87.06
344.804	86.06
345.031	93.06
345.259	100.06
345.487	95.06
345.714	82.06
345.942	93.06
346.17	97.06
346.397	79.06
346.625	92.06
346.853	91.06
347.08	79.06
347.308	83.06
347.535	90.06
347.763	74.06
347.99	102.06
348.218	95.06
348.445	86.06
348.673	98.06
348.9	88.06
349.128	89.06
349.355	87.06
349.583	102.06
349.81	90.06
350.037	89.06
350.265	86.06
350.492	94.06
350.72	90.06
350.947	78.06
351.174	85.06
351.402	92.06
351.629	82.06
351.856	77.06
352.083	86.06
352.311	89.06
352.538	75.06
352.765	88.06
352.992	92.06
353.22	91.06
353.447	89.06
353.674	85.06
353.901	88.06
354.128	91.06
354.355	94.06
354.583	85.06
354.81	90.06
355.037	92.06
355.264	79.06
355.491	87.06
355.718	83.06
355.945	82.06
356.172	81.06
356.399	88.06
356.626	81.06
356.853	87.06
357.08	108.06
357.307	89.06
357.534	103.06
357.761	75.06
357.988	76.06
358.215	80.06
358.441	76.06
358.668	81.06
358.895	92.06
359.122	91.06
359.349	85.06
359.576	95.06
359.802	105.06
360.029	72.06
360.256	93.06
360.483	87.06
360.709	87.06
360.936	83.06
361.163	84.06
361.39	81.06
361.616	87.06
361.843	97.06
362.07	80.06
362.296	84.06
362.523	95.06
362.749	81.06
362.976	93.06
363.203	94.06
363.429	85.06
363.656	89.06
363.882	90.06
364.109	102.06
364.335	101.06
364.562	80.06
364.788	83.06
365.015	86.06
365.241	87.06
365.468	88.06
365.694	91.06
365.92	91.06
366.147	77.06
366.373	83.06
366.599	78.06
366.826	73.06
367.052	80.06
367.278	92.06
367.505	78.06
367.731	82.06
367.957	83.06
368.184	103.06
368.41	85.06
368.636	91.06
368.862	89.06
369.089	94.06
369.315	97.06
369.541	83.06
369.767	103.06
369.993	78.06
370.219	78.06
370.445	92.06
370.672	94.06
370.898	80.06
371.124	95.06
371.35	92.06
371.576	79.06
371.802	97.06
372.028	101.06
372.254	88.06
372.48	87.06
372.706	99.06
372.932	86.06
373.158	85.06
373.384	77.06
373.61	93.06
373.835	98.06
374.061	108.06
374.287	98.06
374.513	80.06
374.739	80.06
374.965	96.06
375.191	88.06
375.416	80.06
375.642	98.06
375.868	97.06
376.094	99.06
376.319	89.06
376.545	88.06
376.771	96.06
376.997	91.06
377.222	77.06
377.448	99.06
377.674	105.06
377.899	88.06
378.125	101.06
378.35	84.06
378.576	88.06
378.802	98.06
379.027	92.06
379.253	91.06
379.478	96.06
379.704	83.06
379.929	82.06
380.155	92.06
380.38	98.06
380.606	97.06
380.831	100.06
381.057	89.06
381.282	76.06
381.507	93.06
381.733	91.06
381.958	94.06
382.184	98.06
382.409	94.06
382.634	85.06
382.86	90.06
383.085	93.06
383.31	103.06
383.535	95.06
383.761	77.06
383.986	83.06
384.211	106.06
384.436	94.06
384.662	90.06
384.887	85.06
385.112	101.06
385.337	102.06
385.562	94.06
385.787	88.06
386.013	101.06
386.238	92.06
386.463	88.06
386.688	105.06
386.913	91.06
387.138	86.06
387.363	105.06
387.588	105.06
387.813	96.06
388.038	110.06
388.263	111.06
388.488	93.06
388.713	95.06
388.938	87.06
389.163	100.06
389.387	80.06
389.612	93.06
389.837	97.06
390.062	110.06
390.287	96.06
390.512	90.06
390.736	96.06
390.961	91.06
391.186	89.06
391.411	102.06
391.636	92.06
391.86	80.06
392.085	97.06
392.31	112.06
392.534	77.06
392.759	98.06
392.984	106.06
393.208	92.06
393.433	92.06
393.658	105.06
393.882	100.06
394.107	87.06
394.331	106.06
394.556	94.06
394.78	87.06
395.005	99.06
395.229	96.06
395.454	106.06
395.678	90.06
395.903	85.06
396.127	104.06
396.352	104.06
396.576	86.06
396.801	92.06
397.025	95.06
397.249	96.06
397.474	94.06
397.698	98.06
397.922	100.06
398.147	100.06
398.371	95.06
398.595	106.06
398.82	104.06
399.044	103.06
399.268	102.06
399.492	101.06
399.717	105.06
399.941	96.06
400.165	98.06
400.389	90.06
400.613	102.06
400.837	103.06
401.062	90.06
401.286	99.06
401.51	95.06
401.734	102.06
401.958	102.06
402.182	88.06
402.406	101.06
402.63	95.06
402.854	86.06
403.078	96.06
403.302	99.06
403.526	104.06
403.75	89.06
403.974	107.06
404.198	102.06
404.422	95.06
404.645	98.06
404.869	112.06
405.093	96.06
405.317	102.06
405.541	96.06
405.765	103.06
405.988	102.06
406.212	88.06
406.436	89.06
406.66	91.06
406.883	102.06
407.107	94.06
407.331	96.06
407.555	89.06
407.778	100.06
408.002	121.06
408.226	97.06
408.449	100.06
408.673	121.06
408.896	118.06
409.12	105.06
409.344	105.06
409.567	97.06
409.791	97.06
410.014	97.06
410.238	100.06
410.461	91.06
410.685	105.06
410.908	98.06
411.132	109.06
411.355	98.06
411.578	110.06
411.802	102.06
412.025	113.06
412.249	103.06
412.472	101.06
412.695	118.06
412.919	103.06
413.142	104.06
413.365	112.06
413.589	111.06
413.812	110.06
414.035	99.06
414.258	94.06
414.482	110.06
414.705	96.06
414.928	102.06
415.151	110.06
415.374	117.06
415.597	98.06
415.821	98.06
416.044	105.06
416.267	100.06
416.49	104.06
416.713	113.06
416.936	117.06
417.159	92.06
417.382	105.06
417.605	107.06
417.828	117.06
418.051	99.06
418.274	113.06
418.497	112.06
418.72	93.06
418.943	105.06
419.166	93.06
419.389	120.06
419.611	108.06
419.834	96.06
420.057	118.06
420.28	110.06
420.503	109.06
420.726	109.06
420.948	106.06
421.171	102.06
421.394	112.06
421.617	103.06
421.839	124.06
422.062	112.06
422.285	106.06
422.507	90.06
422.73	109.06
422.953	114.06
423.175	107.06
423.398	121.06
423.621	114.06
423.843	108.06
424.066	117.06
424.288	116.06
424.511	100.06
424.733	111.06
424.956	115.06
425.178	109.06
425.401	120.06
425.623	116.06
425.846	105.06
426.068	100.06
426.291	110.06
426.513	106.06
426.735	103.06
426.958	107.06
427.18	92.06
427.402	105.06
427.625	107.06
427.847	107.06
428.069	116.06
428.292	100.06
428.514	107.06
428.736	109.06
428.958	109.06
429.181	111.06
429.403	108.06
429.625	102.06
429.847	101.06
430.069	109.06
430.292	108.06
430.514	109.06
430.736	110.06
430.958	114.06
431.18	117.06
431.402	103.06
431.624	107.06
431.846	99.06
432.068	84.06
432.29	98.06
432.512	112.06
432.734	108.06
432.956	96.06
433.178	117.06
433.4	109.06
433.622	107.06
433.844	98.06
434.066	101.06
434.287	113.06
434.509	86.06
434.731	88.06
434.953	92.06
435.175	85.06
435.397	98.06
435.618	110.06
435.84	105.06
436.062	111.06
436.284	110.06
436.505	103.06
436.727	108.06
436.949	102.06
437.17	107.06
437.392	104.06
437.614	104.06
437.835	105.06
438.057	107.06
438.278	94.06
438.5	107.06
438.721	117.06
438.943	104.06
439.165	116.06
439.386	116.06
439.608	110.06
439.829	108.06
440.05	104.06
440.272	119.06
440.493	112.06
440.715	122.06
440.936	102.06
441.158	117.06
441.379	118.06
441.6	120.06
441.822	109.06
442.043	94.06
442.264	112.06
442.486	112.06
442.707	101.06
442.928	124.06
443.149	98.06
443.371	119.06
443.592	109.06
443.813	110.06
444.034	104.06
444.255	113.06
444.476	105.06
444.698	115.06
444.919	121.06
445.14	213.06
445.361	157.06
445.582	124.06
445.803	120.06
446.024	122.06
446.245	118.06
446.466	120.06
446.687	118.06
446.908	121.06
447.129	106.06
447.35	117.06
447.571	129.06
447.792	120.06
448.013	109.06
448.234	111.06
448.455	117.06
448.675	114.06
448.896	126.06
449.117	108.06
449.338	109.06
449.559	125.06
449.779	119.06
450	102.06
450.221	118.06
450.442	109.06
450.662	102.06
450.883	118.06
451.104	120.06
451.324	120.06
451.545	124.06
451.766	111.06
451.986	101.06
452.207	123.06
452.428	100.06
452.648	98.06
452.869	108.06
453.089	102.06
453.31	111.06
453.53	97.06
453.751	97.06
453.971	86.06
454.192	95.06
454.412	87.06
454.633	105.06
454.853	103.06
455.073	108.06
455.294	93.06
455.514	113.06
455.734	116.06
455.955	102.06
456.175	97.06
456.395	99.06
456.616	99.06
456.836	95.06
457.056	100.06
457.276	98.06
457.497	102.06
457.717	107.06
457.937	86.06
458.157	97.06
458.377	98.06
458.598	103.06
458.818	109.06
459.038	85.06
459.258	79.06
459.478	92.06
459.698	97.06
459.918	102.06
460.138	106.06
460.358	107.06
460.578	98.06
460.798	97.06
461.018	109.06
461.238	113.06
461.458	101.06
461.678	104.06
461.898	109.06
462.118	109.06
462.338	105.06
462.558	97.06
462.777	98.06
462.997	100.06
463.217	100.06
463.437	106.06
463.657	93.06
463.876	100.06
464.096	95.06
464.316	92.06
464.536	82.06
464.755	99.06
464.975	103.06
465.195	114.06
465.414	100.06
465.634	103.06
465.854	97.06
466.073	94.06
466.293	103.06
466.512	101.06
466.732	124.06
466.951	108.06
467.171	110.06
467.391	116.06
467.61	109.06
467.829	121.06
468.049	113.06
468.268	106.06
468.488	105.06
468.707	116.06
468.927	103.06
469.146	103.06
469.365	121.06
469.585	111.06
469.804	117.06
470.023	120.06
470.243	101.06
470.462	116.06
470.681	103.06
470.901	106.06
471.12	133.06
471.339	120.06
471.558	109.06
471.777	112.06
471.997	127.06
472.216	114.06
472.435	103.06
472.654	103.06
472.873	79.06
473.092	101.06
473.311	105.06
473.53	111.06
473.749	107.06
473.968	122.06
474.187	103.06
474.406	98.06
474.625	113.06
474.844	114.06
475.063	110.06
475.282	101.06
475.501	101.06
475.72	111.06
475.939	105.06
476.158	112.06
476.377	114.06
476.596	97.06
476.814	92.06
477.033	106.06
477.252	96.06
477.471	116.06
477.69	112.06
477.908	106.06
478.127	111.06
478.346	108.06
478.564	111.06
478.783	117.06
479.002	119.06
479.22	116.06
479.439	124.06
479.658	94.06
479.876	101.06
480.095	94.06
480.313	103.06
480.532	95.06
480.751	104.06
480.969	93.06
481.188	109.06
481.406	98.06
481.624	80.06
481.843	87.06
482.061	83.06
482.28	97.06
482.498	94.06
482.717	117.06
482.935	112.06
483.153	101.06
483.372	105.06
483.59	119.06
483.808	106.06
484.027	122.06
484.245	127.06
484.463	111.06
484.681	126.06
484.9	110.06
485.118	127.06
485.336	122.06
485.554	100.06
485.772	84.06
485.99	81.06
486.209	103.06
486.427	89.06
486.645	105.06
486.863	110.06
487.081	113.06
487.299	119.06
487.517	115.06
487.735	128.06
487.953	129.06
488.171	121.06
488.389	126.06
488.607	126.06
488.825	107.06
489.043	101.06
489.261	113.06
489.479	111.06
489.696	105.06
489.914	117.06
490.132	132.06
490.35	125.06
490.568	129.06
490.786	134.06
491.003	139.06
491.221	140.06
491.439	149.06
491.657	139.06
491.874	169.06
492.092	146.06
492.31	161.06
492.527	158.06
492.745	145.06
492.963	132.06
493.18	134.06
493.398	126.06
493.615	132.06
493.833	136.06
494.05	120.06
494.268	133.06
494.485	122.06
494.703	126.06
494.92	130.06
495.138	132.06
495.355	136.06
495.573	122.06
495.79	123.06
496.008	122.06
496.225	140.06
496.442	138.06
496.66	152.06
496.877	124.06
497.094	127.06
497.312	120.06
497.529	123.06
497.746	127.06
497.963	123.06
498.181	104.06
498.398	102.06
498.615	96.06
498.832	94.06
499.049	97.06
499.267	113.06
499.484	106.06
499.701	100.06
499.918	108.06
500.135	125.06
500.352	120.06
500.569	112.06
500.786	124.06
501.003	105.06
501.22	120.06
501.437	108.06
501.654	117.06
501.871	70.06
502.088	108.06
502.305	106.06
502.522	106.06
502.739	106.06
502.956	118.06
503.172	120.06
503.389	104.06
503.606	96.06
503.823	107.06
504.04	99.06
504.256	100.06
504.473	110.06
504.69	121.06
504.907	115.06
505.123	116.06
505.34	126.06
505.557	104.06
505.773	98.06
505.99	110.06
506.207	97.06
506.423	94.06
506.64	104.06
506.856	98.06
507.073	97.06
507.289	97.06
507.506	104.06
507.722	98.06
507.939	94.06
508.155	109.06
508.372	105.06
508.588	106.06
508.805	102.06
509.021	101.06
509.238	88.06
509.454	105.06
509.67	88.06
509.887	91.06
510.103	99.06
510.319	97.06
510.536	82.06
510.752	97.06
510.968	89.06
511.184	100.06
511.401	87.06
511.617	86.06
511.833	85.06
512.049	91.06
512.265	108.06
512.481	89.06
512.698	94.06
512.914	91.06
513.13	96.06
513.346	86.06
513.562	79.06
513.778	92.06
513.994	97.06
514.21	81.06
514.426	98.06
514.642	96.06
514.858	85.06
515.074	93.06
515.29	98.06
515.506	95.06
515.721	85.06
515.937	86.06
516.153	70.06
516.369	85.06
516.585	92.06
516.801	100.06
517.016	94.06
517.232	99.06
517.448	84.06
517.664	93.06
517.879	86.06
518.095	97.06
518.311	101.06
518.527	92.06
518.742	86.06
518.958	97.06
519.173	95.06
519.389	90.06
519.605	81.06
519.82	97.06
520.036	117.06
520.251	111.06
520.467	112.06
520.682	95.06
520.898	87.06
521.113	103.06
521.329	106.06
521.544	106.06
521.76	90.06
521.975	91.06
522.19	108.06
522.406	90.06
522.621	87.06
522.836	95.06
523.052	110.06
523.267	102.06
523.482	90.06
523.698	100.06
523.913	112.06
524.128	101.06
524.343	109.06
524.559	102.06
524.774	104.06
524.989	105.06
525.204	111.06
525.419	103.06
525.634	105.06
525.849	95.06
526.064	100.06
526.28	104.06
526.495	101.06
526.71	88.06
526.925	95.06
527.14	99.06
527.355	91.06
527.57	89.06
527.785	97.06
527.999	97.06
528.214	87.06
528.429	109.06
528.644	98.06
528.859	104.06
529.074	132.06
529.289	130.06
529.503	135.06
529.718	117.06
529.933	111.06
530.148	90.06
530.363	99.06
530.577	93.06
530.792	94.06
531.007	82.06
531.221	101.06
531.436	102.06
531.651	103.06
531.865	67.06
532.08	84.06
532.295	89.06
532.509	96.06
532.724	86.06
532.938	84.06
533.153	102.06
533.367	108.06
533.582	104.06
533.796	107.06
534.011	96.06
534.225	93.06
534.44	98.06
534.654	101.06
534.868	100.06
535.083	102.06
535.297	98.06
535.511	105.06
535.726	104.06
535.94	102.06
536.154	98.06
536.369	93.06
536.583	85.06
536.797	96.06
537.011	93.06
537.225	78.06
537.44	89.06
537.654	96.06
537.868	90.06
538.082	90.06
538.296	104.06
538.51	97.06
538.724	112.06
538.938	101.06
539.153	91.06
539.367	119.06
539.581	112.06
539.795	109.06
540.009	107.06
540.222	108.06
540.436	98.06
540.65	90.06
540.864	104.06
541.078	120.06
541.292	129.06
541.506	118.06
541.72	108.06
541.934	144.06
542.147	138.06
542.361	128.06
542.575	129.06
542.789	123.06
543.002	112.06
543.216	112.06
543.43	93.06
543.644	114.06
543.857	119.06
544.071	124.06
544.285	123.06
544.498	107.06
544.712	131.06
544.925	118.06
545.139	132.06
545.352	121.06
545.566	129.06
545.779	121.06
545.993	122.06
546.206	122.06
546.42	121.06
546.633	125.06
546.847	142.06
547.06	132.06
547.274	135.06
547.487	127.06
547.7	132.06
547.914	122.06
548.127	128.06
548.34	136.06
548.554	133.06
548.767	129.06
548.98	128.06
549.193	127.06
549.407	126.06
549.62	122.06
549.833	132.06
550.046	131.06
550.259	120.06
550.473	127.06
550.686	125.06
550.899	129.06
551.112	120.06
551.325	109.06
551.538	115.06
551.751	102.06
551.964	101.06
552.177	109.06
552.39	118.06
552.603	138.06
552.816	130.06
553.029	122.06
553.242	125.06
553.455	132.06
553.667	128.06
553.88	119.06
554.093	110.06
554.306	118.06
554.519	132.06
554.732	122.06
554.944	120.06
555.157	111.06
555.37	126.06
555.583	114.06
555.795	111.06
556.008	113.06
556.221	120.06
556.433	105.06
556.646	108.06
556.859	123.06
557.071	124.06
557.284	133.06
557.496	117.06
557.709	124.06
557.921	125.06
558.134	128.06
558.346	116.06
558.559	105.06
558.771	106.06
558.984	110.06
559.196	106.06
559.409	117.06
559.621	116.06
559.833	98.06
560.046	110.06
560.258	116.06
560.47	106.06
560.683	105.06
560.895	113.06
561.107	118.06
561.32	97.06
561.532	112.06
561.744	119.06
561.956	120.06
562.168	111.06
562.381	106.06
562.593	99.06
562.805	106.06
563.017	101.06
563.229	107.06
563.441	98.06
563.653	124.06
563.865	107.06
564.077	113.06
564.289	106.06
564.501	104.06
564.713	109.06
564.925	101.06
565.137	92.06
565.349	98.06
565.561	98.06
565.773	101.06
565.985	117.06
566.197	100.06
566.408	92.06
566.62	96.06
566.832	95.06
567.044	103.06
567.255	103.06
567.467	96.06
567.679	112.06
567.891	111.06
568.102	95.06
568.314	85.06
568.526	92.06
568.737	98.06
568.949	86.06
569.161	76.06
569.372	89.06
569.584	87.06
569.795	87.06
570.007	83.06
570.218	83.06
570.43	89.06
570.641	107.06
570.853	98.06
571.064	107.06
571.276	95.06
571.487	94.06
571.698	106.06
571.91	105.06
572.121	108.06
572.333	101.06
572.544	93.06
572.755	100.06
572.966	91.06
573.178	87.06
573.389	84.06
573.6	87.06
573.811	79.06
574.023	87.06
574.234	91.06
574.445	86.06
574.656	102.06
574.867	102.06
575.078	99.06
575.289	99.06
575.501	85.06
575.712	95.06
575.923	91.06
576.134	94.06
576.345	82.06
576.556	93.06
576.767	108.06
576.978	104.06
577.188	82.06
577.399	87.06
577.61	95.06
577.821	96.06
578.032	103.06
578.243	106.06
578.454	87.06
578.665	97.06
578.875	70.06
579.086	85.06
579.297	79.06
579.508	92.06
579.718	84.06
579.929	98.06
580.14	90.06
580.35	80.06
580.561	92.06
580.772	94.06
580.982	79.06
581.193	84.06
581.403	88.06
581.614	77.06
581.825	86.06
582.035	94.06
582.246	91.06
582.456	86.06
582.667	93.06
582.877	94.06
583.087	85.06
583.298	104.06
583.508	108.06
583.719	95.06
583.929	93.06
584.139	97.06
584.35	106.06
584.56	99.06
584.77	90.06
584.981	79.06
585.191	98.06
585.401	82.06
585.611	94.06
585.821	93.06
586.032	86.06
586.242	87.06
586.452	94.06
586.662	73.06
586.872	89.06
587.082	82.06
587.292	82.06
587.502	91.06
587.713	90.06
587.923	76.06
588.133	82.06
588.343	89.06
588.553	85.06
588.762	102.06
588.972	87.06
589.182	84.06
589.392	89.06
589.602	93.06
589.812	88.06
590.022	88.06
590.232	80.06
590.441	99.06
590.651	83.06
590.861	94.06
591.071	94.06
591.281	78.06
591.49	93.06
591.7	88.06
591.91	98.06
592.119	85.06
592.329	81.06
592.539	93.06
592.748	74.06
592.958	82.06
593.167	76.06
593.377	80.06
593.587	101.06
593.796	103.06
594.006	93.06
594.215	79.06
594.424	83.06
594.634	80.06
594.843	97.06
595.053	92.06
595.262	93.06
595.472	93.06
595.681	90.06
595.89	100.06
596.1	96.06
596.309	89.06
596.518	100.06
596.727	89.06
596.937	108.06
597.146	86.06
597.355	118.06
597.564	104.06
597.774	101.06
597.983	92.06
598.192	95.06
598.401	87.06
598.61	86.06
598.819	100.06
599.028	96.06
599.237	97.06
599.446	101.06
599.655	87.06
599.864	95.06
600.073	89.06
600.282	100.06
600.491	80.06
600.7	76.06
600.909	79.06
601.118	93.06
601.327	91.06
601.536	98.06
601.745	95.06
601.953	84.06
602.162	92.06
602.371	101.06
602.58	101.06
602.789	108.06
602.997	99.06
603.206	102.06
603.415	121.06
603.623	98.06
603.832	96.06
604.041	91.06
604.249	107.06
604.458	99.06
604.666	92.06
604.875	87.06
605.084	103.06
605.292	97.06
605.501	97.06
605.709	101.06
605.918	92.06
606.126	108.06
606.334	94.06
606.543	108.06
606.751	92.06
606.96	111.06
607.168	96.06
607.376	81.06
607.585	94.06
607.793	96.06
608.001	88.06
608.21	99.06
608.418	113.06
608.626	114.06
608.834	94.06
609.043	122.06
609.251	105.06
609.459	94.06
609.667	108.06
609.875	129.06
610.083	105.06
610.291	97.06
610.499	102.06
610.707	96.06
610.916	89.06
611.124	108.06
611.332	104.06
611.54	108.06
611.748	100.06
611.955	115.06
612.163	97.06
612.371	89.06
612.579	99.06
612.787	89.06
612.995	102.06
613.203	92.06
613.411	88.06
613.618	98.06
613.826	103.06
614.034	103.06
614.242	119.06
614.449	97.06
614.657	101.06
614.865	78.06
615.072	95.06
615.28	91.06
615.488	90.06
615.695	104.06
615.903	103.06
616.111	105.06
616.318	100.06
616.526	111.06
616.733	109.06
616.941	98.06
617.148	96.06
617.356	94.06
617.563	105.06
617.771	93.06
617.978	85.06
618.185	104.06
618.393	100.06
618.6	101.06
618.807	110.06
619.015	112.06
619.222	96.06
619.429	93.06
619.637	103.06
619.844	93.06
620.051	95.06
620.258	97.06
620.466	113.06
620.673	86.06
620.88	109.06
621.087	97.06
621.294	93.06
621.501	88.06
621.708	95.06
621.915	93.06
622.122	86.06
622.329	104.06
622.536	108.06
622.743	106.06
622.95	102.06
623.157	95.06
623.364	103.06
623.571	111.06
623.778	89.06
623.985	101.06
624.192	95.06
624.399	108.06
624.606	101.06
624.812	96.06
625.019	90.06
625.226	93.06
625.433	92.06
625.639	95.06
625.846	82.06
626.053	94.06
626.259	98.06
626.466	94.06
626.673	100.06
626.879	90.06
627.086	101.06
627.293	85.06
627.499	91.06
627.706	99.06
627.912	95.06
628.119	92.06
628.325	89.06
628.532	87.06
628.738	105.06
628.945	106.06
629.151	88.06
629.357	87.06
629.564	88.06
629.77	90.06
629.976	93.06
630.183	103.06
630.389	84.06
630.595	95.06
630.802	95.06
631.008	100.06
631.214	110.06
631.42	107.06
631.627	82.06
631.833	83.06
632.039	98.06
632.245	110.06
632.451	104.06
632.657	102.06
632.863	90.06
633.069	91.06
633.275	95.06
633.481	107.06
633.688	97.06
633.893	102.06
634.099	101.06
634.305	88.06
634.511	93.06
634.717	91.06
634.923	85.06
635.129	98.06
635.335	96.06
635.541	77.06
635.747	91.06
635.952	102.06
636.158	90.06
636.364	105.06
636.57	95.06
636.775	93.06
636.981	95.06
637.187	99.06
637.392	100.06
637.598	100.06
637.804	92.06
638.009	86.06
638.215	90.06
638.421	94.06
638.626	95.06
638.832	95.06
639.037	83.06
639.243	88.06
639.448	92.06
639.654	94.06
639.859	87.06
640.065	85.06
640.27	83.06
640.475	85.06
640.681	99.06
640.886	96.06
641.091	95.06
641.297	99.06
641.502	109.06
641.707	96.06
641.913	105.06
642.118	89.06
642.323	101.06
642.528	106.06
642.733	92.06
642.939	96.06
643.144	100.06
643.349	87.06
643.554	102.06
643.759	94.06
643.964	90.06
644.169	80.06
644.374	102.06
644.579	107.06
644.784	103.06
644.989	99.06
645.194	98.06
645.399	96.06
645.604	93.06
645.809	102.06
646.014	97.06
646.219	87.06
646.423	102.06
646.628	98.06
646.833	85.06
647.038	93.06
647.243	88.06
647.447	90.06
647.652	101.06
647.857	90.06
648.062	89.06
648.266	94.06
648.471	92.06
648.676	100.06
648.88	98.06
649.085	88.06
649.289	94.06
649.494	98.06
649.698	86.06
649.903	108.06
650.107	89.06
650.312	84.06
650.516	81.06
650.721	89.06
650.925	96.06
651.13	91.06
651.334	100.06
651.539	94.06
651.743	98.06
651.947	92.06
652.152	96.06
652.356	88.06
652.56	101.06
652.764	90.06
652.969	85.06
653.173	102.06
653.377	79.06
653.581	88.06
653.785	92.06
653.99	77.06
654.194	81.06
654.398	102.06
654.602	102.06
654.806	80.06
655.01	93.06
655.214	81.06
655.418	85.06
655.622	86.06
655.826	97.06
656.03	104.06
656.234	97.06
656.438	90.06
656.642	109.06
656.846	77.06
657.049	79.06
657.253	88.06
657.457	96.06
657.661	99.06
657.865	87.06
658.068	80.06
658.272	82.06
658.476	95.06
658.68	89.06
658.883	95.06
659.087	74.06
659.291	87.06
659.494	80.06
659.698	84.06
659.901	84.06
660.105	85.06
660.309	85.06
660.512	88.06
660.716	83.06
660.919	93.06
661.123	95.06
661.326	98.06
661.53	87.06
661.733	80.06
661.936	95.06
662.14	92.06
662.343	92.06
662.546	75.06
662.75	71.06
662.953	88.06
663.156	81.06
663.36	81.06
663.563	90.06
663.766	71.06
663.969	79.06
664.173	105.06
664.376	88.06
664.579	65.06
664.782	75.06
664.985	89.06
665.188	80.06
665.391	94.06
665.594	80.06
665.797	74.06
666	86.06
666.203	76.06
666.406	76.06
666.609	95.06
666.812	72.06
667.015	79.06
667.218	97.06
667.421	89.06
667.624	82.06
667.827	103.06
668.03	78.06
668.232	80.06
668.435	80.06
668.638	74.06
668.841	85.06
669.043	92.06
669.246	82.06
669.449	88.06
669.651	95.06
669.854	82.06
670.057	92.06
670.259	101.06
670.462	76.06
670.665	84.06
670.867	87.06
671.07	89.06
671.272	86.06
671.475	84.06
671.677	70.06
671.88	82.06
672.082	88.06
672.284	86.06
672.487	90.06
672.689	83.06
672.892	94.06
