Data from Zn(NO3)2Standard.Agarose3%.GreenCap.LampEnergy5.5.E.O_HRD10591_15-01-31-767.txt Node
Date: Mon Jul 22 15:01:31 EDT 2019
User: cochatt
Spectrometer: HR+D1059
Trigger mode: 1
Integration Time (sec): 1.000000E-1
Scans to average: 1
Electric dark correction enabled: true
Nonlinearity correction enabled: false
Boxcar width: 0
XAxis mode: Wavelengths
Number of Pixels in Spectrum: 2048
>>>>>Begin Spectral Data<<<<<
223.165	-15.25
223.4	-15.25
223.635	-15.25
223.869	-26.25
224.104	-28.25
224.338	-32.25
224.573	-14.25
224.808	-17.25
225.042	-3.25
225.277	-6.25
225.511	10.75
225.746	18.75
225.98	0.75
226.215	15.75
226.449	13.75
226.683	22.75
226.918	29.75
227.152	30.75
227.387	45.75
227.621	34.75
227.856	32.75
228.09	29.75
228.324	50.75
228.559	56.75
228.793	66.75
229.027	68.75
229.262	63.75
229.496	58.75
229.73	70.75
229.964	57.75
230.199	75.75
230.433	64.75
230.667	78.75
230.901	79.75
231.136	86.75
231.37	71.75
231.604	72.75
231.838	77.75
232.072	85.75
232.306	72.75
232.541	94.75
232.775	88.75
233.009	89.75
233.243	92.75
233.477	88.75
233.711	87.75
233.945	82.75
234.179	96.75
234.413	62.75
234.647	73.75
234.881	71.75
235.115	74.75
235.349	94.75
235.583	89.75
235.817	74.75
236.051	64.75
236.285	76.75
236.519	70.75
236.753	75.75
236.987	75.75
237.221	80.75
237.455	84.75
237.689	86.75
237.922	85.75
238.156	90.75
238.39	78.75
238.624	77.75
238.858	70.75
239.091	90.75
239.325	75.75
239.559	90.75
239.793	69.75
240.027	74.75
240.26	80.75
240.494	77.75
240.728	67.75
240.961	70.75
241.195	83.75
241.429	83.75
241.662	89.75
241.896	82.75
242.13	79.75
242.363	73.75
242.597	71.75
242.83	87.75
243.064	85.75
243.298	80.75
243.531	77.75
243.765	78.75
243.998	87.75
244.232	78.75
244.465	90.75
244.699	87.75
244.932	68.75
245.166	77.75
245.399	79.75
245.633	75.75
245.866	65.75
246.099	72.75
246.333	72.75
246.566	72.75
246.8	81.75
247.033	83.75
247.266	81.75
247.5	78.75
247.733	92.75
247.966	76.75
248.2	86.75
248.433	78.75
248.666	75.75
248.899	81.75
249.133	85.75
249.366	67.75
249.599	90.75
249.832	78.75
250.066	88.75
250.299	70.75
250.532	80.75
250.765	90.75
250.998	82.75
251.231	78.75
251.465	85.75
251.698	85.75
251.931	82.75
252.164	87.75
252.397	94.75
252.63	79.75
252.863	68.75
253.096	88.75
253.329	85.75
253.562	84.75
253.795	82.75
254.028	94.75
254.261	86.75
254.494	84.75
254.727	77.75
254.96	78.75
255.193	79.75
255.426	70.75
255.659	77.75
255.892	97.75
256.124	88.75
256.357	72.75
256.59	78.75
256.823	79.75
257.056	69.75
257.289	77.75
257.521	74.75
257.754	83.75
257.987	82.75
258.22	78.75
258.452	78.75
258.685	82.75
258.918	82.75
259.151	72.75
259.383	82.75
259.616	78.75
259.849	77.75
260.081	83.75
260.314	65.75
260.547	82.75
260.779	70.75
261.012	97.75
261.244	75.75
261.477	81.75
261.71	83.75
261.942	87.75
262.175	85.75
262.407	78.75
262.64	74.75
262.872	91.75
263.105	81.75
263.337	77.75
263.57	82.75
263.802	103.75
264.035	77.75
264.267	86.75
264.499	95.75
264.732	90.75
264.964	89.75
265.197	84.75
265.429	83.75
265.661	86.75
265.894	78.75
266.126	86.75
266.358	75.75
266.591	85.75
266.823	82.75
267.055	59.75
267.287	81.75
267.52	92.75
267.752	78.75
267.984	83.75
268.216	94.75
268.448	82.75
268.681	80.75
268.913	84.75
269.145	91.75
269.377	79.75
269.609	78.75
269.841	86.75
270.073	86.75
270.306	83.75
270.538	98.75
270.77	85.75
271.002	86.75
271.234	85.75
271.466	73.75
271.698	82.75
271.93	77.75
272.162	81.75
272.394	76.75
272.626	75.75
272.858	77.75
273.09	79.75
273.322	112.75
273.553	89.75
273.785	89.75
274.017	87.75
274.249	80.75
274.481	78.75
274.713	77.75
274.945	75.75
275.176	82.75
275.408	81.75
275.64	78.75
275.872	89.75
276.104	79.75
276.335	91.75
276.567	92.75
276.799	69.75
277.031	75.75
277.262	79.75
277.494	80.75
277.726	93.75
277.957	76.75
278.189	81.75
278.421	81.75
278.652	72.75
278.884	89.75
279.115	76.75
279.347	75.75
279.579	79.75
279.81	87.75
280.042	83.75
280.273	81.75
280.505	84.75
280.736	84.75
280.968	82.75
281.199	86.75
281.431	83.75
281.662	86.75
281.894	84.75
282.125	86.75
282.356	99.75
282.588	83.75
282.819	89.75
283.051	90.75
283.282	76.75
283.513	92.75
283.745	84.75
283.976	85.75
284.207	79.75
284.439	86.75
284.67	93.75
284.901	81.75
285.132	86.75
285.364	80.75
285.595	86.75
285.826	84.75
286.057	80.75
286.288	93.75
286.52	75.75
286.751	77.75
286.982	92.75
287.213	85.75
287.444	83.75
287.675	82.75
287.906	62.75
288.138	80.75
288.369	85.75
288.6	76.75
288.831	87.75
289.062	92.75
289.293	77.75
289.524	88.75
289.755	89.75
289.986	88.75
290.217	96.75
290.448	75.75
290.679	81.75
290.91	76.75
291.141	78.75
291.371	89.75
291.602	87.75
291.833	82.75
292.064	82.75
292.295	96.75
292.526	92.75
292.757	89.75
292.987	86.75
293.218	82.75
293.449	81.75
293.68	79.75
293.91	92.75
294.141	83.75
294.372	78.75
294.603	77.75
294.833	91.75
295.064	79.75
295.295	85.75
295.525	96.75
295.756	97.75
295.987	82.75
296.217	85.75
296.448	98.75
296.679	84.75
296.909	86.75
297.14	87.75
297.37	93.75
297.601	92.75
297.831	85.75
298.062	79.75
298.292	89.75
298.523	88.75
298.753	94.75
298.984	89.75
299.214	74.75
299.445	83.75
299.675	87.75
299.905	97.75
300.136	95.75
300.366	87.75
300.597	89.75
300.827	83.75
301.057	82.75
301.288	86.75
301.518	95.75
301.748	83.75
301.979	85.75
302.209	80.75
302.439	79.75
302.669	85.75
302.9	87.75
303.13	99.75
303.36	97.75
303.59	77.75
303.82	92.75
304.051	77.75
304.281	88.75
304.511	87.75
304.741	90.75
304.971	76.75
305.201	90.75
305.431	92.75
305.661	94.75
305.891	73.75
306.121	87.75
306.352	86.75
306.582	90.75
306.812	91.75
307.042	97.75
307.272	90.75
307.502	87.75
307.731	93.75
307.961	92.75
308.191	79.75
308.421	101.75
308.651	82.75
308.881	98.75
309.111	84.75
309.341	102.75
309.571	86.75
309.8	93.75
310.03	97.75
310.26	70.75
310.49	80.75
310.72	96.75
310.949	84.75
311.179	89.75
311.409	93.75
311.639	80.75
311.868	74.75
312.098	86.75
312.328	85.75
312.557	87.75
312.787	91.75
313.017	99.75
313.246	88.75
313.476	80.75
313.706	74.75
313.935	76.75
314.165	83.75
314.394	75.75
314.624	85.75
314.853	95.75
315.083	86.75
315.312	86.75
315.542	82.75
315.771	86.75
316.001	83.75
316.23	95.75
316.46	84.75
316.689	87.75
316.919	81.75
317.148	87.75
317.377	93.75
317.607	82.75
317.836	74.75
318.065	81.75
318.295	97.75
318.524	74.75
318.753	86.75
318.983	71.75
319.212	91.75
319.441	94.75
319.67	92.75
319.9	83.75
320.129	70.75
320.358	91.75
320.587	85.75
320.816	81.75
321.046	87.75
321.275	96.75
321.504	91.75
321.733	92.75
321.962	86.75
322.191	90.75
322.42	84.75
322.649	80.75
322.878	83.75
323.108	80.75
323.337	73.75
323.566	92.75
323.795	87.75
324.024	86.75
324.253	89.75
324.482	92.75
324.71	92.75
324.939	97.75
325.168	89.75
325.397	86.75
325.626	89.75
325.855	90.75
326.084	80.75
326.313	77.75
326.542	90.75
326.77	73.75
326.999	78.75
327.228	90.75
327.457	98.75
327.686	90.75
327.914	98.75
328.143	75.75
328.372	98.75
328.6	75.75
328.829	79.75
329.058	86.75
329.287	85.75
329.515	90.75
329.744	77.75
329.972	76.75
330.201	86.75
330.43	96.75
330.658	95.75
330.887	95.75
331.115	79.75
331.344	79.75
331.572	85.75
331.801	66.75
332.03	77.75
332.258	97.75
332.486	90.75
332.715	82.75
332.943	73.75
333.172	87.75
333.4	93.75
333.629	82.75
333.857	79.75
334.085	78.75
334.314	86.75
334.542	80.75
334.771	77.75
334.999	81.75
335.227	94.75
335.455	77.75
335.684	90.75
335.912	83.75
336.14	78.75
336.369	77.75
336.597	86.75
336.825	75.75
337.053	79.75
337.281	91.75
337.51	90.75
337.738	87.75
337.966	76.75
338.194	89.75
338.422	86.75
338.65	70.75
338.878	82.75
339.106	68.75
339.334	90.75
339.562	81.75
339.79	92.75
340.018	80.75
340.246	75.75
340.474	93.75
340.702	78.75
340.93	82.75
341.158	84.75
341.386	76.75
341.614	87.75
341.842	90.75
342.07	76.75
342.298	87.75
342.526	86.75
342.754	77.75
342.981	69.75
343.209	92.75
343.437	95.75
343.665	88.75
343.893	79.75
344.12	106.75
344.348	82.75
344.576	89.75
344.804	83.75
345.031	84.75
345.259	74.75
345.487	78.75
345.714	83.75
345.942	83.75
346.17	75.75
346.397	83.75
346.625	89.75
346.853	87.75
347.08	79.75
347.308	90.75
347.535	90.75
347.763	91.75
347.99	90.75
348.218	78.75
348.445	78.75
348.673	79.75
348.9	85.75
349.128	82.75
349.355	95.75
349.583	85.75
349.81	82.75
350.037	99.75
350.265	84.75
350.492	86.75
350.72	98.75
350.947	88.75
351.174	81.75
351.402	90.75
351.629	88.75
351.856	85.75
352.083	85.75
352.311	84.75
352.538	84.75
352.765	82.75
352.992	78.75
353.22	77.75
353.447	91.75
353.674	87.75
353.901	90.75
354.128	73.75
354.355	84.75
354.583	80.75
354.81	84.75
355.037	87.75
355.264	78.75
355.491	77.75
355.718	84.75
355.945	91.75
356.172	100.75
356.399	90.75
356.626	81.75
356.853	74.75
357.08	83.75
357.307	86.75
357.534	85.75
357.761	89.75
357.988	79.75
358.215	105.75
358.441	96.75
358.668	92.75
358.895	110.75
359.122	83.75
359.349	71.75
359.576	84.75
359.802	78.75
360.029	82.75
360.256	89.75
360.483	85.75
360.709	88.75
360.936	96.75
361.163	89.75
361.39	70.75
361.616	84.75
361.843	91.75
362.07	96.75
362.296	94.75
362.523	70.75
362.749	88.75
362.976	80.75
363.203	82.75
363.429	90.75
363.656	79.75
363.882	91.75
364.109	83.75
364.335	87.75
364.562	81.75
364.788	85.75
365.015	94.75
365.241	77.75
365.468	73.75
365.694	83.75
365.92	84.75
366.147	94.75
366.373	84.75
366.599	87.75
366.826	90.75
367.052	90.75
367.278	81.75
367.505	85.75
367.731	90.75
367.957	101.75
368.184	87.75
368.41	82.75
368.636	91.75
368.862	95.75
369.089	96.75
369.315	74.75
369.541	84.75
369.767	79.75
369.993	81.75
370.219	93.75
370.445	95.75
370.672	88.75
370.898	76.75
371.124	69.75
371.35	78.75
371.576	80.75
371.802	89.75
372.028	96.75
372.254	72.75
372.48	86.75
372.706	81.75
372.932	89.75
373.158	73.75
373.384	98.75
373.61	100.75
373.835	87.75
374.061	82.75
374.287	94.75
374.513	93.75
374.739	86.75
374.965	84.75
375.191	84.75
375.416	79.75
375.642	74.75
375.868	76.75
376.094	86.75
376.319	74.75
376.545	85.75
376.771	79.75
376.997	80.75
377.222	73.75
377.448	93.75
377.674	86.75
377.899	89.75
378.125	77.75
378.35	91.75
378.576	91.75
378.802	95.75
379.027	82.75
379.253	84.75
379.478	85.75
379.704	84.75
379.929	92.75
380.155	90.75
380.38	77.75
380.606	86.75
380.831	86.75
381.057	87.75
381.282	79.75
381.507	86.75
381.733	82.75
381.958	84.75
382.184	77.75
382.409	81.75
382.634	76.75
382.86	95.75
383.085	69.75
383.31	92.75
383.535	87.75
383.761	88.75
383.986	92.75
384.211	77.75
384.436	62.75
384.662	87.75
384.887	85.75
385.112	76.75
385.337	85.75
385.562	87.75
385.787	90.75
386.013	84.75
386.238	72.75
386.463	101.75
386.688	85.75
386.913	76.75
387.138	89.75
387.363	84.75
387.588	93.75
387.813	89.75
388.038	70.75
388.263	87.75
388.488	85.75
388.713	76.75
388.938	83.75
389.163	75.75
389.387	82.75
389.612	88.75
389.837	84.75
390.062	83.75
390.287	101.75
390.512	93.75
390.736	91.75
390.961	79.75
391.186	90.75
391.411	83.75
391.636	88.75
391.86	79.75
392.085	78.75
392.31	89.75
392.534	83.75
392.759	91.75
392.984	83.75
393.208	87.75
393.433	91.75
393.658	93.75
393.882	83.75
394.107	76.75
394.331	97.75
394.556	78.75
394.78	92.75
395.005	89.75
395.229	79.75
395.454	82.75
395.678	90.75
395.903	83.75
396.127	81.75
396.352	103.75
396.576	75.75
396.801	75.75
397.025	86.75
397.249	83.75
397.474	102.75
397.698	98.75
397.922	89.75
398.147	92.75
398.371	77.75
398.595	75.75
398.82	98.75
399.044	85.75
399.268	78.75
399.492	90.75
399.717	81.75
399.941	83.75
400.165	98.75
400.389	97.75
400.613	78.75
400.837	89.75
401.062	83.75
401.286	83.75
401.51	79.75
401.734	88.75
401.958	74.75
402.182	77.75
402.406	82.75
402.63	87.75
402.854	84.75
403.078	92.75
403.302	81.75
403.526	88.75
403.75	98.75
403.974	105.75
404.198	91.75
404.422	73.75
404.645	83.75
404.869	89.75
405.093	93.75
405.317	78.75
405.541	94.75
405.765	87.75
405.988	78.75
406.212	87.75
406.436	81.75
406.66	82.75
406.883	86.75
407.107	90.75
407.331	85.75
407.555	79.75
407.778	81.75
408.002	84.75
408.226	83.75
408.449	97.75
408.673	82.75
408.896	58.75
409.12	78.75
409.344	89.75
409.567	86.75
409.791	82.75
410.014	89.75
410.238	74.75
410.461	90.75
410.685	80.75
410.908	89.75
411.132	82.75
411.355	83.75
411.578	88.75
411.802	93.75
412.025	100.75
412.249	76.75
412.472	90.75
412.695	69.75
412.919	83.75
413.142	90.75
413.365	90.75
413.589	91.75
413.812	80.75
414.035	75.75
414.258	92.75
414.482	99.75
414.705	92.75
414.928	78.75
415.151	84.75
415.374	97.75
415.597	86.75
415.821	96.75
416.044	89.75
416.267	107.75
416.49	91.75
416.713	100.75
416.936	69.75
417.159	88.75
417.382	82.75
417.605	90.75
417.828	82.75
418.051	77.75
418.274	81.75
418.497	92.75
418.72	97.75
418.943	91.75
419.166	87.75
419.389	98.75
419.611	90.75
419.834	86.75
420.057	82.75
420.28	91.75
420.503	84.75
420.726	88.75
420.948	87.75
421.171	84.75
421.394	88.75
421.617	89.75
421.839	70.75
422.062	95.75
422.285	80.75
422.507	89.75
422.73	76.75
422.953	84.75
423.175	84.75
423.398	89.75
423.621	90.75
423.843	94.75
424.066	97.75
424.288	90.75
424.511	83.75
424.733	92.75
424.956	75.75
425.178	87.75
425.401	95.75
425.623	90.75
425.846	93.75
426.068	87.75
426.291	70.75
426.513	86.75
426.735	88.75
426.958	97.75
427.18	85.75
427.402	81.75
427.625	82.75
427.847	86.75
428.069	94.75
428.292	89.75
428.514	89.75
428.736	87.75
428.958	101.75
429.181	91.75
429.403	84.75
429.625	105.75
429.847	84.75
430.069	103.75
430.292	92.75
430.514	102.75
430.736	86.75
430.958	89.75
431.18	97.75
431.402	95.75
431.624	91.75
431.846	86.75
432.068	88.75
432.29	88.75
432.512	90.75
432.734	95.75
432.956	89.75
433.178	96.75
433.4	91.75
433.622	105.75
433.844	83.75
434.066	93.75
434.287	83.75
434.509	88.75
434.731	94.75
434.953	90.75
435.175	93.75
435.397	97.75
435.618	89.75
435.84	82.75
436.062	91.75
436.284	83.75
436.505	89.75
436.727	79.75
436.949	67.75
437.17	86.75
437.392	80.75
437.614	96.75
437.835	94.75
438.057	93.75
438.278	91.75
438.5	77.75
438.721	86.75
438.943	82.75
439.165	88.75
439.386	100.75
439.608	100.75
439.829	100.75
440.05	91.75
440.272	98.75
440.493	95.75
440.715	93.75
440.936	96.75
441.158	104.75
441.379	102.75
441.6	94.75
441.822	94.75
442.043	89.75
442.264	80.75
442.486	88.75
442.707	95.75
442.928	97.75
443.149	82.75
443.371	79.75
443.592	93.75
443.813	84.75
444.034	90.75
444.255	91.75
444.476	76.75
444.698	105.75
444.919	89.75
445.14	198.75
445.361	133.75
445.582	101.75
445.803	101.75
446.024	89.75
446.245	103.75
446.466	73.75
446.687	101.75
446.908	92.75
447.129	91.75
447.35	87.75
447.571	84.75
447.792	93.75
448.013	89.75
448.234	92.75
448.455	103.75
448.675	98.75
448.896	96.75
449.117	87.75
449.338	95.75
449.559	101.75
449.779	75.75
450	85.75
450.221	96.75
450.442	95.75
450.662	91.75
450.883	84.75
451.104	80.75
451.324	93.75
451.545	91.75
451.766	95.75
451.986	98.75
452.207	91.75
452.428	93.75
452.648	85.75
452.869	89.75
453.089	76.75
453.31	83.75
453.53	80.75
453.751	90.75
453.971	84.75
454.192	80.75
454.412	84.75
454.633	93.75
454.853	97.75
455.073	92.75
455.294	96.75
455.514	89.75
455.734	92.75
455.955	98.75
456.175	97.75
456.395	82.75
456.616	85.75
456.836	87.75
457.056	91.75
457.276	75.75
457.497	92.75
457.717	87.75
457.937	90.75
458.157	71.75
458.377	82.75
458.598	85.75
458.818	78.75
459.038	84.75
459.258	86.75
459.478	84.75
459.698	95.75
459.918	81.75
460.138	95.75
460.358	78.75
460.578	96.75
460.798	90.75
461.018	75.75
461.238	80.75
461.458	85.75
461.678	86.75
461.898	85.75
462.118	87.75
462.338	98.75
462.558	93.75
462.777	83.75
462.997	85.75
463.217	93.75
463.437	90.75
463.657	87.75
463.876	85.75
464.096	83.75
464.316	88.75
464.536	90.75
464.755	98.75
464.975	110.75
465.195	97.75
465.414	79.75
465.634	78.75
465.854	79.75
466.073	91.75
466.293	103.75
466.512	82.75
466.732	76.75
466.951	91.75
467.171	103.75
467.391	91.75
467.61	90.75
467.829	85.75
468.049	96.75
468.268	87.75
468.488	94.75
468.707	90.75
468.927	99.75
469.146	77.75
469.365	92.75
469.585	91.75
469.804	87.75
470.023	85.75
470.243	84.75
470.462	88.75
470.681	84.75
470.901	88.75
471.12	104.75
471.339	101.75
471.558	88.75
471.777	83.75
471.997	89.75
472.216	100.75
472.435	84.75
472.654	85.75
472.873	96.75
473.092	90.75
473.311	96.75
473.53	87.75
473.749	97.75
473.968	89.75
474.187	93.75
474.406	84.75
474.625	101.75
474.844	86.75
475.063	108.75
475.282	93.75
475.501	85.75
475.72	98.75
475.939	79.75
476.158	97.75
476.377	78.75
476.596	83.75
476.814	97.75
477.033	79.75
477.252	89.75
477.471	86.75
477.69	85.75
477.908	92.75
478.127	97.75
478.346	101.75
478.564	96.75
478.783	79.75
479.002	83.75
479.22	98.75
479.439	90.75
479.658	85.75
479.876	88.75
480.095	87.75
480.313	79.75
480.532	90.75
480.751	94.75
480.969	84.75
481.188	94.75
481.406	74.75
481.624	88.75
481.843	85.75
482.061	77.75
482.28	72.75
482.498	84.75
482.717	80.75
482.935	83.75
483.153	84.75
483.372	91.75
483.59	87.75
483.808	91.75
484.027	88.75
484.245	85.75
484.463	97.75
484.681	93.75
484.9	91.75
485.118	94.75
485.336	91.75
485.554	98.75
485.772	92.75
485.99	75.75
486.209	83.75
486.427	86.75
486.645	90.75
486.863	99.75
487.081	99.75
487.299	87.75
487.517	89.75
487.735	83.75
487.953	101.75
488.171	101.75
488.389	111.75
488.607	103.75
488.825	102.75
489.043	85.75
489.261	87.75
489.479	84.75
489.696	89.75
489.914	89.75
490.132	98.75
490.35	96.75
490.568	91.75
490.786	105.75
491.003	90.75
491.221	101.75
491.439	110.75
491.657	116.75
491.874	97.75
492.092	102.75
492.31	113.75
492.527	115.75
492.745	87.75
492.963	104.75
493.18	119.75
493.398	94.75
493.615	102.75
493.833	93.75
494.05	103.75
494.268	91.75
494.485	110.75
494.703	93.75
494.92	97.75
495.138	95.75
495.355	106.75
495.573	71.75
495.79	94.75
496.008	94.75
496.225	91.75
496.442	91.75
496.66	85.75
496.877	101.75
497.094	86.75
497.312	89.75
497.529	86.75
497.746	85.75
497.963	84.75
498.181	78.75
498.398	86.75
498.615	103.75
498.832	89.75
499.049	100.75
499.267	90.75
499.484	89.75
499.701	101.75
499.918	91.75
500.135	82.75
500.352	97.75
500.569	99.75
500.786	102.75
501.003	99.75
501.22	84.75
501.437	90.75
501.654	102.75
501.871	80.75
502.088	77.75
502.305	77.75
502.522	91.75
502.739	81.75
502.956	88.75
503.172	82.75
503.389	69.75
503.606	79.75
503.823	73.75
504.04	93.75
504.256	88.75
504.473	90.75
504.69	86.75
504.907	105.75
505.123	103.75
505.34	101.75
505.557	101.75
505.773	91.75
505.99	87.75
506.207	84.75
506.423	84.75
506.64	91.75
506.856	89.75
507.073	89.75
507.289	106.75
507.506	86.75
507.722	92.75
507.939	90.75
508.155	102.75
508.372	76.75
508.588	93.75
508.805	90.75
509.021	92.75
509.238	93.75
509.454	92.75
509.67	73.75
509.887	92.75
510.103	74.75
510.319	90.75
510.536	91.75
510.752	85.75
510.968	90.75
511.184	87.75
511.401	83.75
511.617	97.75
511.833	92.75
512.049	99.75
512.265	78.75
512.481	85.75
512.698	57.75
512.914	86.75
513.13	87.75
513.346	73.75
513.562	78.75
513.778	91.75
513.994	90.75
514.21	82.75
514.426	103.75
514.642	98.75
514.858	71.75
515.074	87.75
515.29	81.75
515.506	88.75
515.721	75.75
515.937	73.75
516.153	84.75
516.369	76.75
516.585	76.75
516.801	87.75
517.016	92.75
517.232	94.75
517.448	87.75
517.664	85.75
517.879	87.75
518.095	82.75
518.311	81.75
518.527	92.75
518.742	72.75
518.958	106.75
519.173	99.75
519.389	89.75
519.605	90.75
519.82	83.75
520.036	95.75
520.251	72.75
520.467	92.75
520.682	82.75
520.898	80.75
521.113	79.75
521.329	88.75
521.544	90.75
521.76	79.75
521.975	86.75
522.19	70.75
522.406	86.75
522.621	92.75
522.836	75.75
523.052	87.75
523.267	97.75
523.482	84.75
523.698	92.75
523.913	90.75
524.128	81.75
524.343	79.75
524.559	90.75
524.774	104.75
524.989	83.75
525.204	86.75
525.419	87.75
525.634	91.75
525.849	82.75
526.064	79.75
526.28	93.75
526.495	83.75
526.71	90.75
526.925	85.75
527.14	77.75
527.355	84.75
527.57	83.75
527.785	85.75
527.999	89.75
528.214	89.75
528.429	100.75
528.644	82.75
528.859	86.75
529.074	87.75
529.289	93.75
529.503	91.75
529.718	78.75
529.933	84.75
530.148	85.75
530.363	97.75
530.577	77.75
530.792	78.75
531.007	77.75
531.221	73.75
531.436	76.75
531.651	95.75
531.865	88.75
532.08	78.75
532.295	91.75
532.509	89.75
532.724	75.75
532.938	87.75
533.153	92.75
533.367	78.75
533.582	85.75
533.796	83.75
534.011	88.75
534.225	90.75
534.44	92.75
534.654	77.75
534.868	88.75
535.083	76.75
535.297	78.75
535.511	88.75
535.726	101.75
535.94	89.75
536.154	81.75
536.369	84.75
536.583	80.75
536.797	91.75
537.011	80.75
537.225	84.75
537.44	79.75
537.654	85.75
537.868	72.75
538.082	95.75
538.296	91.75
538.51	85.75
538.724	84.75
538.938	78.75
539.153	87.75
539.367	93.75
539.581	98.75
539.795	98.75
540.009	96.75
540.222	88.75
540.436	86.75
540.65	79.75
540.864	86.75
541.078	81.75
541.292	102.75
541.506	87.75
541.72	112.75
541.934	89.75
542.147	100.75
542.361	110.75
542.575	105.75
542.789	99.75
543.002	106.75
543.216	91.75
543.43	96.75
543.644	83.75
543.857	81.75
544.071	95.75
544.285	101.75
544.498	102.75
544.712	107.75
544.925	99.75
545.139	89.75
545.352	104.75
545.566	94.75
545.779	101.75
545.993	95.75
546.206	91.75
546.42	87.75
546.633	98.75
546.847	93.75
547.06	93.75
547.274	108.75
547.487	116.75
547.7	107.75
547.914	100.75
548.127	99.75
548.34	98.75
548.554	92.75
548.767	101.75
548.98	95.75
549.193	106.75
549.407	100.75
549.62	113.75
549.833	98.75
550.046	100.75
550.259	99.75
550.473	101.75
550.686	97.75
550.899	92.75
551.112	99.75
551.325	95.75
551.538	87.75
551.751	101.75
551.964	89.75
552.177	102.75
552.39	94.75
552.603	97.75
552.816	103.75
553.029	103.75
553.242	100.75
553.455	84.75
553.667	113.75
553.88	98.75
554.093	94.75
554.306	105.75
554.519	98.75
554.732	99.75
554.944	90.75
555.157	85.75
555.37	92.75
555.583	93.75
555.795	99.75
556.008	93.75
556.221	103.75
556.433	89.75
556.646	113.75
556.859	94.75
557.071	94.75
557.284	103.75
557.496	113.75
557.709	92.75
557.921	90.75
558.134	77.75
558.346	96.75
558.559	87.75
558.771	99.75
558.984	100.75
559.196	84.75
559.409	94.75
559.621	84.75
559.833	91.75
560.046	105.75
560.258	98.75
560.47	90.75
560.683	87.75
560.895	105.75
561.107	90.75
561.32	108.75
561.532	85.75
561.744	97.75
561.956	86.75
562.168	74.75
562.381	91.75
562.593	92.75
562.805	90.75
563.017	87.75
563.229	101.75
563.441	94.75
563.653	85.75
563.865	97.75
564.077	97.75
564.289	89.75
564.501	79.75
564.713	81.75
564.925	98.75
565.137	90.75
565.349	90.75
565.561	92.75
565.773	90.75
565.985	74.75
566.197	99.75
566.408	94.75
566.62	90.75
566.832	91.75
567.044	89.75
567.255	91.75
567.467	80.75
567.679	95.75
567.891	87.75
568.102	89.75
568.314	82.75
568.526	90.75
568.737	93.75
568.949	90.75
569.161	90.75
569.372	89.75
569.584	85.75
569.795	78.75
570.007	94.75
570.218	87.75
570.43	99.75
570.641	83.75
570.853	95.75
571.064	95.75
571.276	83.75
571.487	85.75
571.698	75.75
571.91	85.75
572.121	110.75
572.333	94.75
572.544	95.75
572.755	75.75
572.966	82.75
573.178	89.75
573.389	90.75
573.6	80.75
573.811	76.75
574.023	99.75
574.234	89.75
574.445	84.75
574.656	79.75
574.867	92.75
575.078	82.75
575.289	98.75
575.501	89.75
575.712	69.75
575.923	79.75
576.134	85.75
576.345	76.75
576.556	88.75
576.767	101.75
576.978	77.75
577.188	89.75
577.399	86.75
577.61	80.75
577.821	90.75
578.032	81.75
578.243	76.75
578.454	84.75
578.665	74.75
578.875	76.75
579.086	87.75
579.297	93.75
579.508	77.75
579.718	93.75
579.929	93.75
580.14	89.75
580.35	79.75
580.561	89.75
580.772	74.75
580.982	84.75
581.193	86.75
581.403	90.75
581.614	85.75
581.825	87.75
582.035	85.75
582.246	98.75
582.456	73.75
582.667	97.75
582.877	78.75
583.087	76.75
583.298	85.75
583.508	82.75
583.719	90.75
583.929	93.75
584.139	80.75
584.35	91.75
584.56	103.75
584.77	90.75
584.981	93.75
585.191	77.75
585.401	74.75
585.611	88.75
585.821	87.75
586.032	84.75
586.242	96.75
586.452	89.75
586.662	90.75
586.872	114.75
587.082	85.75
587.292	78.75
587.502	83.75
587.713	79.75
587.923	82.75
588.133	80.75
588.343	89.75
588.553	94.75
588.762	85.75
588.972	98.75
589.182	90.75
589.392	89.75
589.602	78.75
589.812	81.75
590.022	87.75
590.232	82.75
590.441	85.75
590.651	88.75
590.861	85.75
591.071	84.75
591.281	87.75
591.49	79.75
591.7	82.75
591.91	90.75
592.119	88.75
592.329	94.75
592.539	82.75
592.748	93.75
592.958	92.75
593.167	87.75
593.377	84.75
593.587	82.75
593.796	74.75
594.006	84.75
594.215	89.75
594.424	99.75
594.634	79.75
594.843	76.75
595.053	89.75
595.262	90.75
595.472	93.75
595.681	85.75
595.89	76.75
596.1	89.75
596.309	79.75
596.518	83.75
596.727	90.75
596.937	98.75
597.146	70.75
597.355	94.75
597.564	97.75
597.774	83.75
597.983	83.75
598.192	77.75
598.401	93.75
598.61	90.75
598.819	91.75
599.028	97.75
599.237	84.75
599.446	79.75
599.655	93.75
599.864	71.75
600.073	100.75
600.282	78.75
600.491	93.75
600.7	86.75
600.909	92.75
601.118	81.75
601.327	86.75
601.536	89.75
601.745	87.75
601.953	78.75
602.162	101.75
602.371	93.75
602.58	88.75
602.789	75.75
602.997	71.75
603.206	97.75
603.415	88.75
603.623	89.75
603.832	86.75
604.041	94.75
604.249	98.75
604.458	86.75
604.666	88.75
604.875	84.75
605.084	84.75
605.292	77.75
605.501	81.75
605.709	93.75
605.918	96.75
606.126	91.75
606.334	90.75
606.543	88.75
606.751	87.75
606.96	93.75
607.168	102.75
607.376	84.75
607.585	86.75
607.793	81.75
608.001	81.75
608.21	79.75
608.418	81.75
608.626	75.75
608.834	83.75
609.043	83.75
609.251	86.75
609.459	89.75
609.667	88.75
609.875	79.75
610.083	103.75
610.291	89.75
610.499	87.75
610.707	94.75
610.916	100.75
611.124	99.75
611.332	74.75
611.54	106.75
611.748	89.75
611.955	77.75
612.163	96.75
612.371	100.75
612.579	90.75
612.787	104.75
612.995	89.75
613.203	90.75
613.411	86.75
613.618	92.75
613.826	78.75
614.034	101.75
614.242	85.75
614.449	87.75
614.657	87.75
614.865	85.75
615.072	95.75
615.28	102.75
615.488	91.75
615.695	99.75
615.903	87.75
616.111	89.75
616.318	93.75
616.526	86.75
616.733	98.75
616.941	96.75
617.148	94.75
617.356	96.75
617.563	81.75
617.771	89.75
617.978	94.75
618.185	90.75
618.393	94.75
618.6	87.75
618.807	82.75
619.015	89.75
619.222	96.75
619.429	92.75
619.637	90.75
619.844	90.75
620.051	91.75
620.258	106.75
620.466	86.75
620.673	75.75
620.88	86.75
621.087	94.75
621.294	89.75
621.501	92.75
621.708	86.75
621.915	81.75
622.122	78.75
622.329	99.75
622.536	92.75
622.743	91.75
622.95	94.75
623.157	93.75
623.364	99.75
623.571	86.75
623.778	77.75
623.985	92.75
624.192	82.75
624.399	82.75
624.606	67.75
624.812	88.75
625.019	84.75
625.226	90.75
625.433	97.75
625.639	92.75
625.846	95.75
626.053	90.75
626.259	102.75
626.466	98.75
626.673	79.75
626.879	80.75
627.086	92.75
627.293	94.75
627.499	90.75
627.706	95.75
627.912	94.75
628.119	76.75
628.325	88.75
628.532	91.75
628.738	87.75
628.945	89.75
629.151	91.75
629.357	90.75
629.564	102.75
629.77	90.75
629.976	84.75
630.183	89.75
630.389	86.75
630.595	97.75
630.802	89.75
631.008	83.75
631.214	101.75
631.42	98.75
631.627	97.75
631.833	86.75
632.039	83.75
632.245	91.75
632.451	75.75
632.657	80.75
632.863	86.75
633.069	77.75
633.275	89.75
633.481	85.75
633.688	92.75
633.893	105.75
634.099	94.75
634.305	91.75
634.511	99.75
634.717	81.75
634.923	94.75
635.129	89.75
635.335	86.75
635.541	95.75
635.747	86.75
635.952	97.75
636.158	75.75
636.364	97.75
636.57	78.75
636.775	96.75
636.981	90.75
637.187	93.75
637.392	91.75
637.598	83.75
637.804	88.75
638.009	74.75
638.215	86.75
638.421	87.75
638.626	79.75
638.832	82.75
639.037	82.75
639.243	76.75
639.448	93.75
639.654	94.75
639.859	93.75
640.065	77.75
640.27	87.75
640.475	87.75
640.681	83.75
640.886	91.75
641.091	92.75
641.297	100.75
641.502	92.75
641.707	88.75
641.913	84.75
642.118	94.75
642.323	101.75
642.528	87.75
642.733	79.75
642.939	96.75
643.144	86.75
643.349	80.75
643.554	91.75
643.759	86.75
643.964	93.75
644.169	89.75
644.374	95.75
644.579	82.75
644.784	88.75
644.989	94.75
645.194	82.75
645.399	82.75
645.604	80.75
645.809	94.75
646.014	91.75
646.219	77.75
646.423	94.75
646.628	85.75
646.833	72.75
647.038	101.75
647.243	83.75
647.447	94.75
647.652	87.75
647.857	97.75
648.062	91.75
648.266	105.75
648.471	74.75
648.676	80.75
648.88	86.75
649.085	92.75
649.289	85.75
649.494	76.75
649.698	81.75
649.903	86.75
650.107	90.75
650.312	81.75
650.516	83.75
650.721	80.75
650.925	83.75
651.13	76.75
651.334	100.75
651.539	91.75
651.743	90.75
651.947	90.75
652.152	95.75
652.356	82.75
652.56	73.75
652.764	92.75
652.969	80.75
653.173	89.75
653.377	93.75
653.581	80.75
653.785	87.75
653.99	88.75
654.194	93.75
654.398	93.75
654.602	86.75
654.806	88.75
655.01	84.75
655.214	82.75
655.418	88.75
655.622	84.75
655.826	83.75
656.03	81.75
656.234	77.75
656.438	91.75
656.642	89.75
656.846	90.75
657.049	87.75
657.253	79.75
657.457	71.75
657.661	98.75
657.865	86.75
658.068	89.75
658.272	87.75
658.476	105.75
658.68	91.75
658.883	96.75
659.087	82.75
659.291	101.75
659.494	91.75
659.698	75.75
659.901	99.75
660.105	87.75
660.309	89.75
660.512	85.75
660.716	74.75
660.919	83.75
661.123	92.75
661.326	85.75
661.53	71.75
661.733	89.75
661.936	83.75
662.14	95.75
662.343	94.75
662.546	88.75
662.75	94.75
662.953	78.75
663.156	84.75
663.36	74.75
663.563	79.75
663.766	83.75
663.969	92.75
664.173	86.75
664.376	90.75
664.579	83.75
664.782	76.75
664.985	83.75
665.188	69.75
665.391	87.75
665.594	78.75
665.797	82.75
666	81.75
666.203	96.75
666.406	82.75
666.609	75.75
666.812	84.75
667.015	79.75
667.218	89.75
667.421	77.75
667.624	78.75
667.827	101.75
668.03	90.75
668.232	85.75
668.435	68.75
668.638	74.75
668.841	73.75
669.043	78.75
669.246	78.75
669.449	77.75
669.651	77.75
669.854	87.75
670.057	84.75
670.259	69.75
670.462	77.75
670.665	91.75
670.867	93.75
671.07	84.75
671.272	93.75
671.475	97.75
671.677	94.75
671.88	97.75
672.082	70.75
672.284	81.75
672.487	76.75
672.689	89.75
672.892	94.75
