Data from Zn(NO3)2Standard.Agarose3%.GreenCap.LampEnergy5.5.E.O_HRD10591_15-01-33-768.txt Node
Date: Mon Jul 22 15:01:33 EDT 2019
User: cochatt
Spectrometer: HR+D1059
Trigger mode: 1
Integration Time (sec): 1.000000E-1
Scans to average: 1
Electric dark correction enabled: true
Nonlinearity correction enabled: false
Boxcar width: 0
XAxis mode: Wavelengths
Number of Pixels in Spectrum: 2048
>>>>>Begin Spectral Data<<<<<
223.165	-18.94
223.4	-18.94
223.635	-18.94
223.869	-7.94
224.104	-4.94
224.338	-14.94
224.573	-6.94
224.808	-23.94
225.042	-22.94
225.277	-7.94
225.511	-6.94
225.746	5.06
225.98	2.06
226.215	10.06
226.449	26.06
226.683	26.06
226.918	25.06
227.152	21.06
227.387	40.06
227.621	40.06
227.856	55.06
228.09	51.06
228.324	38.06
228.559	42.06
228.793	52.06
229.027	64.06
229.262	60.06
229.496	73.06
229.73	75.06
229.964	67.06
230.199	60.06
230.433	77.06
230.667	64.06
230.901	80.06
231.136	84.06
231.37	84.06
231.604	80.06
231.838	69.06
232.072	83.06
232.306	75.06
232.541	74.06
232.775	85.06
233.009	70.06
233.243	79.06
233.477	73.06
233.711	67.06
233.945	81.06
234.179	82.06
234.413	76.06
234.647	96.06
234.881	89.06
235.115	76.06
235.349	89.06
235.583	69.06
235.817	84.06
236.051	74.06
236.285	82.06
236.519	74.06
236.753	80.06
236.987	74.06
237.221	62.06
237.455	74.06
237.689	76.06
237.922	75.06
238.156	77.06
238.39	59.06
238.624	73.06
238.858	80.06
239.091	72.06
239.325	67.06
239.559	84.06
239.793	86.06
240.027	73.06
240.26	75.06
240.494	76.06
240.728	84.06
240.961	84.06
241.195	87.06
241.429	81.06
241.662	76.06
241.896	71.06
242.13	78.06
242.363	72.06
242.597	82.06
242.83	71.06
243.064	66.06
243.298	73.06
243.531	63.06
243.765	85.06
243.998	75.06
244.232	81.06
244.465	75.06
244.699	91.06
244.932	77.06
245.166	84.06
245.399	81.06
245.633	74.06
245.866	75.06
246.099	65.06
246.333	66.06
246.566	89.06
246.8	70.06
247.033	62.06
247.266	76.06
247.5	72.06
247.733	77.06
247.966	73.06
248.2	77.06
248.433	72.06
248.666	79.06
248.899	88.06
249.133	74.06
249.366	80.06
249.599	83.06
249.832	71.06
250.066	83.06
250.299	86.06
250.532	79.06
250.765	83.06
250.998	84.06
251.231	78.06
251.465	77.06
251.698	91.06
251.931	71.06
252.164	81.06
252.397	84.06
252.63	72.06
252.863	73.06
253.096	80.06
253.329	69.06
253.562	92.06
253.795	77.06
254.028	85.06
254.261	81.06
254.494	89.06
254.727	91.06
254.96	57.06
255.193	81.06
255.426	74.06
255.659	81.06
255.892	76.06
256.124	83.06
256.357	88.06
256.59	82.06
256.823	70.06
257.056	92.06
257.289	73.06
257.521	74.06
257.754	77.06
257.987	80.06
258.22	69.06
258.452	73.06
258.685	83.06
258.918	90.06
259.151	87.06
259.383	83.06
259.616	76.06
259.849	84.06
260.081	80.06
260.314	84.06
260.547	89.06
260.779	91.06
261.012	98.06
261.244	67.06
261.477	86.06
261.71	83.06
261.942	77.06
262.175	77.06
262.407	75.06
262.64	85.06
262.872	87.06
263.105	80.06
263.337	96.06
263.57	86.06
263.802	77.06
264.035	59.06
264.267	86.06
264.499	74.06
264.732	90.06
264.964	88.06
265.197	85.06
265.429	86.06
265.661	72.06
265.894	77.06
266.126	84.06
266.358	83.06
266.591	81.06
266.823	94.06
267.055	85.06
267.287	90.06
267.52	90.06
267.752	89.06
267.984	73.06
268.216	87.06
268.448	94.06
268.681	98.06
268.913	92.06
269.145	84.06
269.377	84.06
269.609	82.06
269.841	82.06
270.073	83.06
270.306	80.06
270.538	79.06
270.77	94.06
271.002	82.06
271.234	91.06
271.466	88.06
271.698	94.06
271.93	86.06
272.162	84.06
272.394	83.06
272.626	79.06
272.858	82.06
273.09	91.06
273.322	79.06
273.553	85.06
273.785	88.06
274.017	96.06
274.249	84.06
274.481	73.06
274.713	81.06
274.945	69.06
275.176	84.06
275.408	88.06
275.64	88.06
275.872	75.06
276.104	81.06
276.335	73.06
276.567	95.06
276.799	87.06
277.031	90.06
277.262	88.06
277.494	89.06
277.726	83.06
277.957	78.06
278.189	61.06
278.421	89.06
278.652	92.06
278.884	82.06
279.115	82.06
279.347	88.06
279.579	75.06
279.81	102.06
280.042	71.06
280.273	84.06
280.505	82.06
280.736	91.06
280.968	100.06
281.199	89.06
281.431	87.06
281.662	78.06
281.894	84.06
282.125	99.06
282.356	84.06
282.588	63.06
282.819	78.06
283.051	65.06
283.282	86.06
283.513	90.06
283.745	91.06
283.976	83.06
284.207	81.06
284.439	75.06
284.67	76.06
284.901	86.06
285.132	94.06
285.364	73.06
285.595	93.06
285.826	96.06
286.057	89.06
286.288	68.06
286.52	85.06
286.751	102.06
286.982	94.06
287.213	91.06
287.444	83.06
287.675	90.06
287.906	78.06
288.138	77.06
288.369	86.06
288.6	92.06
288.831	72.06
289.062	84.06
289.293	90.06
289.524	87.06
289.755	76.06
289.986	87.06
290.217	81.06
290.448	82.06
290.679	81.06
290.91	90.06
291.141	76.06
291.371	90.06
291.602	83.06
291.833	87.06
292.064	102.06
292.295	80.06
292.526	90.06
292.757	84.06
292.987	74.06
293.218	81.06
293.449	91.06
293.68	84.06
293.91	77.06
294.141	92.06
294.372	77.06
294.603	92.06
294.833	74.06
295.064	76.06
295.295	71.06
295.525	95.06
295.756	75.06
295.987	87.06
296.217	75.06
296.448	82.06
296.679	96.06
296.909	87.06
297.14	95.06
297.37	91.06
297.601	77.06
297.831	102.06
298.062	72.06
298.292	64.06
298.523	93.06
298.753	81.06
298.984	82.06
299.214	88.06
299.445	80.06
299.675	87.06
299.905	86.06
300.136	76.06
300.366	79.06
300.597	95.06
300.827	85.06
301.057	69.06
301.288	77.06
301.518	80.06
301.748	98.06
301.979	88.06
302.209	84.06
302.439	75.06
302.669	86.06
302.9	68.06
303.13	85.06
303.36	100.06
303.59	86.06
303.82	79.06
304.051	90.06
304.281	91.06
304.511	85.06
304.741	96.06
304.971	75.06
305.201	84.06
305.431	97.06
305.661	98.06
305.891	86.06
306.121	89.06
306.352	80.06
306.582	83.06
306.812	81.06
307.042	74.06
307.272	84.06
307.502	96.06
307.731	90.06
307.961	93.06
308.191	84.06
308.421	81.06
308.651	99.06
308.881	80.06
309.111	81.06
309.341	75.06
309.571	76.06
309.8	84.06
310.03	87.06
310.26	95.06
310.49	79.06
310.72	86.06
310.949	84.06
311.179	82.06
311.409	92.06
311.639	82.06
311.868	95.06
312.098	78.06
312.328	93.06
312.557	89.06
312.787	89.06
313.017	95.06
313.246	75.06
313.476	96.06
313.706	87.06
313.935	76.06
314.165	83.06
314.394	99.06
314.624	83.06
314.853	77.06
315.083	79.06
315.312	82.06
315.542	78.06
315.771	96.06
316.001	79.06
316.23	100.06
316.46	93.06
316.689	76.06
316.919	81.06
317.148	100.06
317.377	82.06
317.607	94.06
317.836	77.06
318.065	88.06
318.295	75.06
318.524	82.06
318.753	76.06
318.983	87.06
319.212	89.06
319.441	56.06
319.67	75.06
319.9	74.06
320.129	100.06
320.358	92.06
320.587	89.06
320.816	76.06
321.046	88.06
321.275	84.06
321.504	72.06
321.733	72.06
321.962	65.06
322.191	98.06
322.42	84.06
322.649	77.06
322.878	90.06
323.108	94.06
323.337	83.06
323.566	65.06
323.795	89.06
324.024	94.06
324.253	74.06
324.482	83.06
324.71	96.06
324.939	86.06
325.168	78.06
325.397	84.06
325.626	85.06
325.855	81.06
326.084	87.06
326.313	102.06
326.542	91.06
326.77	85.06
326.999	84.06
327.228	69.06
327.457	76.06
327.686	77.06
327.914	79.06
328.143	91.06
328.372	95.06
328.6	81.06
328.829	89.06
329.058	84.06
329.287	76.06
329.515	83.06
329.744	97.06
329.972	77.06
330.201	86.06
330.43	72.06
330.658	82.06
330.887	91.06
331.115	95.06
331.344	84.06
331.572	80.06
331.801	94.06
332.03	88.06
332.258	84.06
332.486	87.06
332.715	84.06
332.943	85.06
333.172	82.06
333.4	93.06
333.629	87.06
333.857	67.06
334.085	70.06
334.314	86.06
334.542	81.06
334.771	82.06
334.999	75.06
335.227	76.06
335.455	89.06
335.684	88.06
335.912	83.06
336.14	83.06
336.369	86.06
336.597	79.06
336.825	89.06
337.053	86.06
337.281	83.06
337.51	69.06
337.738	88.06
337.966	83.06
338.194	96.06
338.422	96.06
338.65	86.06
338.878	88.06
339.106	78.06
339.334	77.06
339.562	85.06
339.79	90.06
340.018	84.06
340.246	71.06
340.474	74.06
340.702	95.06
340.93	83.06
341.158	74.06
341.386	77.06
341.614	71.06
341.842	83.06
342.07	78.06
342.298	84.06
342.526	74.06
342.754	89.06
342.981	79.06
343.209	76.06
343.437	88.06
343.665	82.06
343.893	97.06
344.12	92.06
344.348	82.06
344.576	94.06
344.804	77.06
345.031	74.06
345.259	77.06
345.487	91.06
345.714	77.06
345.942	69.06
346.17	92.06
346.397	75.06
346.625	76.06
346.853	76.06
347.08	74.06
347.308	76.06
347.535	90.06
347.763	75.06
347.99	81.06
348.218	88.06
348.445	84.06
348.673	100.06
348.9	105.06
349.128	93.06
349.355	88.06
349.583	89.06
349.81	67.06
350.037	91.06
350.265	87.06
350.492	80.06
350.72	104.06
350.947	85.06
351.174	72.06
351.402	79.06
351.629	83.06
351.856	77.06
352.083	85.06
352.311	89.06
352.538	79.06
352.765	77.06
352.992	85.06
353.22	90.06
353.447	74.06
353.674	82.06
353.901	73.06
354.128	67.06
354.355	83.06
354.583	90.06
354.81	87.06
355.037	90.06
355.264	74.06
355.491	76.06
355.718	92.06
355.945	88.06
356.172	70.06
356.399	76.06
356.626	84.06
356.853	87.06
357.08	92.06
357.307	84.06
357.534	82.06
357.761	82.06
357.988	88.06
358.215	82.06
358.441	82.06
358.668	85.06
358.895	82.06
359.122	79.06
359.349	77.06
359.576	83.06
359.802	84.06
360.029	84.06
360.256	92.06
360.483	75.06
360.709	82.06
360.936	91.06
361.163	85.06
361.39	81.06
361.616	74.06
361.843	82.06
362.07	89.06
362.296	72.06
362.523	80.06
362.749	74.06
362.976	71.06
363.203	82.06
363.429	85.06
363.656	73.06
363.882	100.06
364.109	82.06
364.335	86.06
364.562	75.06
364.788	88.06
365.015	81.06
365.241	75.06
365.468	89.06
365.694	80.06
365.92	91.06
366.147	83.06
366.373	89.06
366.599	80.06
366.826	85.06
367.052	84.06
367.278	76.06
367.505	81.06
367.731	75.06
367.957	66.06
368.184	87.06
368.41	73.06
368.636	86.06
368.862	78.06
369.089	82.06
369.315	77.06
369.541	78.06
369.767	76.06
369.993	103.06
370.219	94.06
370.445	78.06
370.672	89.06
370.898	87.06
371.124	82.06
371.35	92.06
371.576	81.06
371.802	85.06
372.028	73.06
372.254	93.06
372.48	90.06
372.706	82.06
372.932	88.06
373.158	89.06
373.384	91.06
373.61	76.06
373.835	78.06
374.061	85.06
374.287	85.06
374.513	80.06
374.739	84.06
374.965	82.06
375.191	81.06
375.416	87.06
375.642	92.06
375.868	75.06
376.094	89.06
376.319	75.06
376.545	81.06
376.771	80.06
376.997	78.06
377.222	85.06
377.448	91.06
377.674	86.06
377.899	93.06
378.125	75.06
378.35	87.06
378.576	81.06
378.802	83.06
379.027	83.06
379.253	89.06
379.478	77.06
379.704	86.06
379.929	83.06
380.155	76.06
380.38	82.06
380.606	81.06
380.831	88.06
381.057	81.06
381.282	86.06
381.507	92.06
381.733	94.06
381.958	78.06
382.184	95.06
382.409	89.06
382.634	72.06
382.86	79.06
383.085	65.06
383.31	91.06
383.535	83.06
383.761	86.06
383.986	88.06
384.211	77.06
384.436	75.06
384.662	77.06
384.887	72.06
385.112	88.06
385.337	67.06
385.562	81.06
385.787	83.06
386.013	83.06
386.238	86.06
386.463	76.06
386.688	92.06
386.913	83.06
387.138	79.06
387.363	102.06
387.588	83.06
387.813	77.06
388.038	74.06
388.263	69.06
388.488	76.06
388.713	83.06
388.938	73.06
389.163	88.06
389.387	90.06
389.612	76.06
389.837	70.06
390.062	91.06
390.287	73.06
390.512	90.06
390.736	75.06
390.961	94.06
391.186	80.06
391.411	81.06
391.636	80.06
391.86	77.06
392.085	82.06
392.31	75.06
392.534	87.06
392.759	73.06
392.984	91.06
393.208	75.06
393.433	67.06
393.658	77.06
393.882	85.06
394.107	92.06
394.331	75.06
394.556	83.06
394.78	71.06
395.005	84.06
395.229	91.06
395.454	81.06
395.678	94.06
395.903	74.06
396.127	77.06
396.352	87.06
396.576	74.06
396.801	87.06
397.025	92.06
397.249	94.06
397.474	83.06
397.698	88.06
397.922	88.06
398.147	80.06
398.371	76.06
398.595	87.06
398.82	78.06
399.044	81.06
399.268	96.06
399.492	89.06
399.717	78.06
399.941	90.06
400.165	89.06
400.389	81.06
400.613	80.06
400.837	81.06
401.062	85.06
401.286	87.06
401.51	60.06
401.734	91.06
401.958	74.06
402.182	83.06
402.406	86.06
402.63	76.06
402.854	77.06
403.078	83.06
403.302	89.06
403.526	84.06
403.75	96.06
403.974	81.06
404.198	80.06
404.422	87.06
404.645	85.06
404.869	91.06
405.093	84.06
405.317	88.06
405.541	89.06
405.765	91.06
405.988	80.06
406.212	84.06
406.436	81.06
406.66	83.06
406.883	91.06
407.107	87.06
407.331	81.06
407.555	92.06
407.778	74.06
408.002	81.06
408.226	82.06
408.449	87.06
408.673	71.06
408.896	73.06
409.12	83.06
409.344	80.06
409.567	81.06
409.791	95.06
410.014	83.06
410.238	88.06
410.461	83.06
410.685	80.06
410.908	96.06
411.132	84.06
411.355	86.06
411.578	79.06
411.802	80.06
412.025	92.06
412.249	80.06
412.472	81.06
412.695	68.06
412.919	79.06
413.142	67.06
413.365	85.06
413.589	89.06
413.812	86.06
414.035	94.06
414.258	77.06
414.482	89.06
414.705	90.06
414.928	99.06
415.151	94.06
415.374	79.06
415.597	84.06
415.821	85.06
416.044	83.06
416.267	82.06
416.49	75.06
416.713	79.06
416.936	94.06
417.159	97.06
417.382	85.06
417.605	81.06
417.828	74.06
418.051	97.06
418.274	83.06
418.497	77.06
418.72	86.06
418.943	91.06
419.166	85.06
419.389	73.06
419.611	83.06
419.834	77.06
420.057	77.06
420.28	84.06
420.503	80.06
420.726	69.06
420.948	83.06
421.171	79.06
421.394	100.06
421.617	86.06
421.839	87.06
422.062	59.06
422.285	80.06
422.507	95.06
422.73	82.06
422.953	89.06
423.175	81.06
423.398	88.06
423.621	73.06
423.843	77.06
424.066	87.06
424.288	85.06
424.511	92.06
424.733	89.06
424.956	92.06
425.178	89.06
425.401	69.06
425.623	86.06
425.846	80.06
426.068	87.06
426.291	99.06
426.513	78.06
426.735	96.06
426.958	91.06
427.18	89.06
427.402	85.06
427.625	92.06
427.847	79.06
428.069	81.06
428.292	77.06
428.514	84.06
428.736	89.06
428.958	81.06
429.181	74.06
429.403	79.06
429.625	85.06
429.847	64.06
430.069	80.06
430.292	88.06
430.514	83.06
430.736	93.06
430.958	95.06
431.18	80.06
431.402	77.06
431.624	96.06
431.846	86.06
432.068	81.06
432.29	91.06
432.512	75.06
432.734	72.06
432.956	98.06
433.178	91.06
433.4	90.06
433.622	91.06
433.844	87.06
434.066	82.06
434.287	91.06
434.509	79.06
434.731	78.06
434.953	82.06
435.175	82.06
435.397	89.06
435.618	81.06
435.84	74.06
436.062	100.06
436.284	84.06
436.505	95.06
436.727	77.06
436.949	85.06
437.17	87.06
437.392	86.06
437.614	83.06
437.835	98.06
438.057	94.06
438.278	92.06
438.5	102.06
438.721	73.06
438.943	86.06
439.165	83.06
439.386	91.06
439.608	86.06
439.829	74.06
440.05	87.06
440.272	93.06
440.493	88.06
440.715	79.06
440.936	76.06
441.158	95.06
441.379	92.06
441.6	91.06
441.822	89.06
442.043	96.06
442.264	92.06
442.486	97.06
442.707	86.06
442.928	98.06
443.149	100.06
443.371	72.06
443.592	82.06
443.813	86.06
444.034	87.06
444.255	89.06
444.476	94.06
444.698	81.06
444.919	88.06
445.14	175.06
445.361	133.06
445.582	102.06
445.803	75.06
446.024	83.06
446.245	99.06
446.466	82.06
446.687	75.06
446.908	86.06
447.129	101.06
447.35	83.06
447.571	83.06
447.792	90.06
448.013	90.06
448.234	105.06
448.455	92.06
448.675	89.06
448.896	92.06
449.117	83.06
449.338	91.06
449.559	81.06
449.779	105.06
450	63.06
450.221	85.06
450.442	88.06
450.662	88.06
450.883	85.06
451.104	85.06
451.324	83.06
451.545	87.06
451.766	71.06
451.986	92.06
452.207	77.06
452.428	83.06
452.648	89.06
452.869	81.06
453.089	92.06
453.31	86.06
453.53	101.06
453.751	93.06
453.971	88.06
454.192	69.06
454.412	78.06
454.633	89.06
454.853	85.06
455.073	96.06
455.294	73.06
455.514	88.06
455.734	80.06
455.955	95.06
456.175	81.06
456.395	75.06
456.616	81.06
456.836	75.06
457.056	87.06
457.276	84.06
457.497	82.06
457.717	91.06
457.937	83.06
458.157	95.06
458.377	67.06
458.598	94.06
458.818	90.06
459.038	79.06
459.258	77.06
459.478	87.06
459.698	92.06
459.918	85.06
460.138	97.06
460.358	84.06
460.578	91.06
460.798	71.06
461.018	77.06
461.238	86.06
461.458	74.06
461.678	85.06
461.898	94.06
462.118	90.06
462.338	86.06
462.558	90.06
462.777	79.06
462.997	75.06
463.217	61.06
463.437	78.06
463.657	92.06
463.876	95.06
464.096	92.06
464.316	84.06
464.536	91.06
464.755	81.06
464.975	92.06
465.195	86.06
465.414	93.06
465.634	92.06
465.854	76.06
466.073	78.06
466.293	82.06
466.512	85.06
466.732	89.06
466.951	90.06
467.171	75.06
467.391	76.06
467.61	93.06
467.829	82.06
468.049	88.06
468.268	92.06
468.488	91.06
468.707	81.06
468.927	79.06
469.146	102.06
469.365	82.06
469.585	87.06
469.804	81.06
470.023	95.06
470.243	92.06
470.462	99.06
470.681	86.06
470.901	85.06
471.12	80.06
471.339	97.06
471.558	105.06
471.777	79.06
471.997	86.06
472.216	87.06
472.435	85.06
472.654	76.06
472.873	81.06
473.092	83.06
473.311	87.06
473.53	103.06
473.749	83.06
473.968	95.06
474.187	75.06
474.406	89.06
474.625	86.06
474.844	97.06
475.063	88.06
475.282	81.06
475.501	83.06
475.72	95.06
475.939	81.06
476.158	105.06
476.377	85.06
476.596	75.06
476.814	73.06
477.033	79.06
477.252	88.06
477.471	87.06
477.69	97.06
477.908	89.06
478.127	83.06
478.346	80.06
478.564	77.06
478.783	83.06
479.002	91.06
479.22	96.06
479.439	101.06
479.658	90.06
479.876	95.06
480.095	79.06
480.313	93.06
480.532	81.06
480.751	85.06
480.969	80.06
481.188	93.06
481.406	95.06
481.624	73.06
481.843	77.06
482.061	60.06
482.28	84.06
482.498	92.06
482.717	92.06
482.935	82.06
483.153	98.06
483.372	84.06
483.59	98.06
483.808	88.06
484.027	85.06
484.245	77.06
484.463	75.06
484.681	90.06
484.9	94.06
485.118	93.06
485.336	91.06
485.554	90.06
485.772	76.06
485.99	75.06
486.209	84.06
486.427	92.06
486.645	93.06
486.863	92.06
487.081	92.06
487.299	84.06
487.517	97.06
487.735	101.06
487.953	89.06
488.171	118.06
488.389	91.06
488.607	79.06
488.825	85.06
489.043	76.06
489.261	81.06
489.479	96.06
489.696	102.06
489.914	92.06
490.132	98.06
490.35	99.06
490.568	87.06
490.786	90.06
491.003	96.06
491.221	95.06
491.439	94.06
491.657	85.06
491.874	107.06
492.092	103.06
492.31	113.06
492.527	110.06
492.745	105.06
492.963	98.06
493.18	101.06
493.398	97.06
493.615	77.06
493.833	73.06
494.05	104.06
494.268	93.06
494.485	92.06
494.703	96.06
494.92	98.06
495.138	85.06
495.355	101.06
495.573	104.06
495.79	93.06
496.008	92.06
496.225	109.06
496.442	100.06
496.66	102.06
496.877	97.06
497.094	94.06
497.312	92.06
497.529	76.06
497.746	96.06
497.963	105.06
498.181	85.06
498.398	84.06
498.615	86.06
498.832	75.06
499.049	85.06
499.267	80.06
499.484	100.06
499.701	87.06
499.918	96.06
500.135	96.06
500.352	89.06
500.569	91.06
500.786	75.06
501.003	86.06
501.22	100.06
501.437	83.06
501.654	89.06
501.871	85.06
502.088	76.06
502.305	88.06
502.522	85.06
502.739	86.06
502.956	95.06
503.172	79.06
503.389	90.06
503.606	85.06
503.823	99.06
504.04	89.06
504.256	92.06
504.473	101.06
504.69	88.06
504.907	86.06
505.123	92.06
505.34	83.06
505.557	83.06
505.773	96.06
505.99	95.06
506.207	76.06
506.423	90.06
506.64	77.06
506.856	90.06
507.073	87.06
507.289	85.06
507.506	90.06
507.722	87.06
507.939	96.06
508.155	85.06
508.372	80.06
508.588	83.06
508.805	81.06
509.021	94.06
509.238	92.06
509.454	73.06
509.67	92.06
509.887	88.06
510.103	96.06
510.319	82.06
510.536	87.06
510.752	73.06
510.968	83.06
511.184	80.06
511.401	95.06
511.617	89.06
511.833	82.06
512.049	71.06
512.265	89.06
512.481	88.06
512.698	103.06
512.914	82.06
513.13	92.06
513.346	69.06
513.562	86.06
513.778	85.06
513.994	77.06
514.21	97.06
514.426	75.06
514.642	84.06
514.858	95.06
515.074	78.06
515.29	83.06
515.506	77.06
515.721	90.06
515.937	85.06
516.153	92.06
516.369	81.06
516.585	86.06
516.801	82.06
517.016	81.06
517.232	82.06
517.448	91.06
517.664	84.06
517.879	85.06
518.095	87.06
518.311	78.06
518.527	79.06
518.742	77.06
518.958	84.06
519.173	84.06
519.389	98.06
519.605	103.06
519.82	82.06
520.036	77.06
520.251	88.06
520.467	101.06
520.682	93.06
520.898	92.06
521.113	84.06
521.329	81.06
521.544	77.06
521.76	73.06
521.975	86.06
522.19	99.06
522.406	91.06
522.621	73.06
522.836	82.06
523.052	92.06
523.267	73.06
523.482	85.06
523.698	74.06
523.913	83.06
524.128	96.06
524.343	89.06
524.559	82.06
524.774	97.06
524.989	83.06
525.204	87.06
525.419	81.06
525.634	98.06
525.849	91.06
526.064	82.06
526.28	88.06
526.495	86.06
526.71	98.06
526.925	89.06
527.14	81.06
527.355	90.06
527.57	78.06
527.785	82.06
527.999	76.06
528.214	81.06
528.429	92.06
528.644	87.06
528.859	79.06
529.074	90.06
529.289	103.06
529.503	87.06
529.718	97.06
529.933	88.06
530.148	89.06
530.363	92.06
530.577	96.06
530.792	77.06
531.007	84.06
531.221	85.06
531.436	82.06
531.651	88.06
531.865	84.06
532.08	92.06
532.295	81.06
532.509	90.06
532.724	81.06
532.938	81.06
533.153	90.06
533.367	82.06
533.582	92.06
533.796	88.06
534.011	87.06
534.225	77.06
534.44	89.06
534.654	84.06
534.868	87.06
535.083	82.06
535.297	77.06
535.511	89.06
535.726	100.06
535.94	85.06
536.154	90.06
536.369	80.06
536.583	83.06
536.797	84.06
537.011	92.06
537.225	91.06
537.44	84.06
537.654	97.06
537.868	91.06
538.082	88.06
538.296	80.06
538.51	84.06
538.724	82.06
538.938	101.06
539.153	81.06
539.367	101.06
539.581	85.06
539.795	88.06
540.009	82.06
540.222	92.06
540.436	90.06
540.65	106.06
540.864	99.06
541.078	89.06
541.292	92.06
541.506	96.06
541.72	111.06
541.934	94.06
542.147	104.06
542.361	96.06
542.575	101.06
542.789	94.06
543.002	91.06
543.216	80.06
543.43	90.06
543.644	92.06
543.857	96.06
544.071	99.06
544.285	94.06
544.498	104.06
544.712	92.06
544.925	100.06
545.139	93.06
545.352	89.06
545.566	100.06
545.779	105.06
545.993	85.06
546.206	104.06
546.42	98.06
546.633	115.06
546.847	96.06
547.06	96.06
547.274	107.06
547.487	101.06
547.7	100.06
547.914	102.06
548.127	113.06
548.34	107.06
548.554	105.06
548.767	102.06
548.98	93.06
549.193	96.06
549.407	106.06
549.62	95.06
549.833	83.06
550.046	86.06
550.259	93.06
550.473	98.06
550.686	95.06
550.899	89.06
551.112	95.06
551.325	94.06
551.538	108.06
551.751	101.06
551.964	90.06
552.177	101.06
552.39	107.06
552.603	107.06
552.816	91.06
553.029	99.06
553.242	92.06
553.455	100.06
553.667	83.06
553.88	90.06
554.093	105.06
554.306	94.06
554.519	100.06
554.732	104.06
554.944	102.06
555.157	85.06
555.37	89.06
555.583	86.06
555.795	83.06
556.008	96.06
556.221	105.06
556.433	105.06
556.646	88.06
556.859	85.06
557.071	106.06
557.284	93.06
557.496	90.06
557.709	84.06
557.921	98.06
558.134	85.06
558.346	99.06
558.559	90.06
558.771	89.06
558.984	109.06
559.196	104.06
559.409	91.06
559.621	105.06
559.833	99.06
560.046	85.06
560.258	107.06
560.47	103.06
560.683	89.06
560.895	84.06
561.107	93.06
561.32	99.06
561.532	99.06
561.744	98.06
561.956	97.06
562.168	103.06
562.381	90.06
562.593	92.06
562.805	104.06
563.017	102.06
563.229	89.06
563.441	97.06
563.653	93.06
563.865	80.06
564.077	92.06
564.289	89.06
564.501	87.06
564.713	102.06
564.925	91.06
565.137	81.06
565.349	94.06
565.561	97.06
565.773	88.06
565.985	106.06
566.197	82.06
566.408	80.06
566.62	90.06
566.832	89.06
567.044	92.06
567.255	87.06
567.467	80.06
567.679	81.06
567.891	88.06
568.102	91.06
568.314	78.06
568.526	80.06
568.737	98.06
568.949	84.06
569.161	82.06
569.372	93.06
569.584	87.06
569.795	81.06
570.007	91.06
570.218	72.06
570.43	86.06
570.641	87.06
570.853	92.06
571.064	85.06
571.276	92.06
571.487	94.06
571.698	82.06
571.91	90.06
572.121	95.06
572.333	92.06
572.544	84.06
572.755	86.06
572.966	83.06
573.178	87.06
573.389	96.06
573.6	79.06
573.811	91.06
574.023	80.06
574.234	88.06
574.445	76.06
574.656	88.06
574.867	82.06
575.078	93.06
575.289	89.06
575.501	84.06
575.712	92.06
575.923	92.06
576.134	96.06
576.345	95.06
576.556	94.06
576.767	93.06
576.978	98.06
577.188	99.06
577.399	82.06
577.61	92.06
577.821	87.06
578.032	87.06
578.243	85.06
578.454	84.06
578.665	79.06
578.875	89.06
579.086	76.06
579.297	83.06
579.508	95.06
579.718	87.06
579.929	87.06
580.14	90.06
580.35	84.06
580.561	106.06
580.772	87.06
580.982	91.06
581.193	82.06
581.403	82.06
581.614	65.06
581.825	86.06
582.035	81.06
582.246	89.06
582.456	88.06
582.667	88.06
582.877	94.06
583.087	77.06
583.298	82.06
583.508	91.06
583.719	92.06
583.929	100.06
584.139	103.06
584.35	81.06
584.56	105.06
584.77	86.06
584.981	82.06
585.191	86.06
585.401	96.06
585.611	81.06
585.821	92.06
586.032	98.06
586.242	93.06
586.452	88.06
586.662	77.06
586.872	89.06
587.082	75.06
587.292	85.06
587.502	91.06
587.713	86.06
587.923	102.06
588.133	88.06
588.343	94.06
588.553	88.06
588.762	89.06
588.972	90.06
589.182	77.06
589.392	80.06
589.602	99.06
589.812	86.06
590.022	99.06
590.232	89.06
590.441	92.06
590.651	84.06
590.861	84.06
591.071	90.06
591.281	89.06
591.49	88.06
591.7	89.06
591.91	87.06
592.119	80.06
592.329	74.06
592.539	86.06
592.748	75.06
592.958	88.06
593.167	85.06
593.377	89.06
593.587	83.06
593.796	89.06
594.006	82.06
594.215	83.06
594.424	71.06
594.634	84.06
594.843	75.06
595.053	81.06
595.262	83.06
595.472	95.06
595.681	75.06
595.89	96.06
596.1	83.06
596.309	90.06
596.518	83.06
596.727	95.06
596.937	82.06
597.146	89.06
597.355	93.06
597.564	85.06
597.774	83.06
597.983	76.06
598.192	91.06
598.401	88.06
598.61	95.06
598.819	88.06
599.028	81.06
599.237	93.06
599.446	86.06
599.655	95.06
599.864	84.06
600.073	82.06
600.282	96.06
600.491	97.06
600.7	95.06
600.909	95.06
601.118	88.06
601.327	81.06
601.536	85.06
601.745	88.06
601.953	67.06
602.162	96.06
602.371	78.06
602.58	90.06
602.789	75.06
602.997	93.06
603.206	72.06
603.415	90.06
603.623	79.06
603.832	95.06
604.041	86.06
604.249	85.06
604.458	87.06
604.666	92.06
604.875	83.06
605.084	84.06
605.292	79.06
605.501	102.06
605.709	78.06
605.918	87.06
606.126	90.06
606.334	78.06
606.543	104.06
606.751	90.06
606.96	89.06
607.168	93.06
607.376	84.06
607.585	80.06
607.793	77.06
608.001	92.06
608.21	93.06
608.418	93.06
608.626	86.06
608.834	98.06
609.043	82.06
609.251	87.06
609.459	81.06
609.667	103.06
609.875	83.06
610.083	91.06
610.291	100.06
610.499	101.06
610.707	80.06
610.916	74.06
611.124	89.06
611.332	89.06
611.54	87.06
611.748	95.06
611.955	90.06
612.163	99.06
612.371	88.06
612.579	101.06
612.787	75.06
612.995	102.06
613.203	100.06
613.411	90.06
613.618	82.06
613.826	98.06
614.034	98.06
614.242	95.06
614.449	75.06
614.657	86.06
614.865	103.06
615.072	93.06
615.28	80.06
615.488	74.06
615.695	90.06
615.903	72.06
616.111	88.06
616.318	102.06
616.526	91.06
616.733	99.06
616.941	100.06
617.148	75.06
617.356	85.06
617.563	88.06
617.771	93.06
617.978	90.06
618.185	85.06
618.393	88.06
618.6	82.06
618.807	85.06
619.015	84.06
619.222	79.06
619.429	74.06
619.637	83.06
619.844	76.06
620.051	89.06
620.258	103.06
620.466	94.06
620.673	99.06
620.88	97.06
621.087	97.06
621.294	90.06
621.501	83.06
621.708	89.06
621.915	96.06
622.122	85.06
622.329	73.06
622.536	91.06
622.743	86.06
622.95	83.06
623.157	92.06
623.364	88.06
623.571	93.06
623.778	95.06
623.985	77.06
624.192	92.06
624.399	89.06
624.606	80.06
624.812	87.06
625.019	84.06
625.226	68.06
625.433	96.06
625.639	79.06
625.846	80.06
626.053	86.06
626.259	79.06
626.466	93.06
626.673	81.06
626.879	98.06
627.086	75.06
627.293	87.06
627.499	98.06
627.706	83.06
627.912	76.06
628.119	87.06
628.325	83.06
628.532	80.06
628.738	96.06
628.945	83.06
629.151	90.06
629.357	92.06
629.564	70.06
629.77	83.06
629.976	76.06
630.183	92.06
630.389	85.06
630.595	90.06
630.802	84.06
631.008	95.06
631.214	79.06
631.42	80.06
631.627	101.06
631.833	97.06
632.039	92.06
632.245	81.06
632.451	88.06
632.657	81.06
632.863	87.06
633.069	81.06
633.275	75.06
633.481	91.06
633.688	84.06
633.893	76.06
634.099	84.06
634.305	92.06
634.511	95.06
634.717	103.06
634.923	82.06
635.129	77.06
635.335	97.06
635.541	90.06
635.747	90.06
635.952	84.06
636.158	88.06
636.364	84.06
636.57	91.06
636.775	106.06
636.981	93.06
637.187	82.06
637.392	80.06
637.598	90.06
637.804	100.06
638.009	84.06
638.215	89.06
638.421	83.06
638.626	88.06
638.832	93.06
639.037	84.06
639.243	85.06
639.448	88.06
639.654	79.06
639.859	61.06
640.065	86.06
640.27	72.06
640.475	80.06
640.681	87.06
640.886	85.06
641.091	82.06
641.297	84.06
641.502	93.06
641.707	89.06
641.913	97.06
642.118	78.06
642.323	83.06
642.528	97.06
642.733	100.06
642.939	98.06
643.144	92.06
643.349	71.06
643.554	95.06
643.759	100.06
643.964	101.06
644.169	78.06
644.374	91.06
644.579	79.06
644.784	94.06
644.989	77.06
645.194	85.06
645.399	82.06
645.604	86.06
645.809	97.06
646.014	71.06
646.219	91.06
646.423	92.06
646.628	86.06
646.833	81.06
647.038	88.06
647.243	81.06
647.447	68.06
647.652	75.06
647.857	86.06
648.062	89.06
648.266	93.06
648.471	82.06
648.676	84.06
648.88	76.06
649.085	85.06
649.289	82.06
649.494	74.06
649.698	78.06
649.903	76.06
650.107	84.06
650.312	91.06
650.516	76.06
650.721	98.06
650.925	78.06
651.13	84.06
651.334	92.06
651.539	81.06
651.743	93.06
651.947	79.06
652.152	80.06
652.356	90.06
652.56	83.06
652.764	82.06
652.969	77.06
653.173	61.06
653.377	83.06
653.581	72.06
653.785	81.06
653.99	84.06
654.194	80.06
654.398	83.06
654.602	82.06
654.806	82.06
655.01	98.06
655.214	87.06
655.418	80.06
655.622	74.06
655.826	104.06
656.03	85.06
656.234	83.06
656.438	96.06
656.642	84.06
656.846	80.06
657.049	76.06
657.253	71.06
657.457	82.06
657.661	84.06
657.865	93.06
658.068	73.06
658.272	70.06
658.476	88.06
658.68	80.06
658.883	83.06
659.087	93.06
659.291	89.06
659.494	98.06
659.698	95.06
659.901	87.06
660.105	81.06
660.309	93.06
660.512	73.06
660.716	77.06
660.919	90.06
661.123	95.06
661.326	79.06
661.53	80.06
661.733	87.06
661.936	85.06
662.14	70.06
662.343	83.06
662.546	91.06
662.75	74.06
662.953	63.06
663.156	84.06
663.36	86.06
663.563	57.06
663.766	87.06
663.969	79.06
664.173	77.06
664.376	77.06
664.579	82.06
664.782	73.06
664.985	70.06
665.188	82.06
665.391	73.06
665.594	95.06
665.797	87.06
666	82.06
666.203	84.06
666.406	86.06
666.609	67.06
666.812	88.06
667.015	85.06
667.218	90.06
667.421	82.06
667.624	70.06
667.827	81.06
668.03	68.06
668.232	85.06
668.435	76.06
668.638	98.06
668.841	89.06
669.043	98.06
669.246	81.06
669.449	75.06
669.651	71.06
669.854	79.06
670.057	81.06
670.259	77.06
670.462	67.06
670.665	90.06
670.867	91.06
671.07	88.06
671.272	78.06
671.475	83.06
671.677	80.06
671.88	102.06
672.082	85.06
672.284	75.06
672.487	92.06
672.689	81.06
672.892	79.06
