Data from Zn(NO3)2Standard.Agarose3%.GreenCap.LampEnergy5.5.E.O_HRD10591_15-01-27-767.txt Node
Date: Mon Jul 22 15:01:27 EDT 2019
User: cochatt
Spectrometer: HR+D1059
Trigger mode: 1
Integration Time (sec): 1.000000E-1
Scans to average: 1
Electric dark correction enabled: true
Nonlinearity correction enabled: false
Boxcar width: 0
XAxis mode: Wavelengths
Number of Pixels in Spectrum: 2048
>>>>>Begin Spectral Data<<<<<
223.165	-19.19
223.4	-19.19
223.635	-19.19
223.869	-15.19
224.104	-14.19
224.338	-13.19
224.573	-9.19
224.808	-14.19
225.042	-8.19
225.277	-1.19
225.511	-7.19
225.746	6.81
225.98	2.81
226.215	11.81
226.449	11.81
226.683	12.81
226.918	24.81
227.152	30.81
227.387	36.81
227.621	43.81
227.856	58.81
228.09	48.81
228.324	52.81
228.559	58.81
228.793	54.81
229.027	49.81
229.262	59.81
229.496	48.81
229.73	73.81
229.964	67.81
230.199	79.81
230.433	77.81
230.667	79.81
230.901	79.81
231.136	76.81
231.37	74.81
231.604	81.81
231.838	76.81
232.072	82.81
232.306	96.81
232.541	85.81
232.775	89.81
233.009	81.81
233.243	72.81
233.477	82.81
233.711	84.81
233.945	85.81
234.179	72.81
234.413	79.81
234.647	77.81
234.881	89.81
235.115	90.81
235.349	68.81
235.583	72.81
235.817	88.81
236.051	68.81
236.285	72.81
236.519	81.81
236.753	75.81
236.987	79.81
237.221	70.81
237.455	77.81
237.689	67.81
237.922	77.81
238.156	85.81
238.39	77.81
238.624	75.81
238.858	80.81
239.091	75.81
239.325	75.81
239.559	73.81
239.793	63.81
240.027	64.81
240.26	84.81
240.494	82.81
240.728	76.81
240.961	77.81
241.195	68.81
241.429	81.81
241.662	72.81
241.896	80.81
242.13	89.81
242.363	75.81
242.597	81.81
242.83	74.81
243.064	77.81
243.298	67.81
243.531	86.81
243.765	68.81
243.998	77.81
244.232	78.81
244.465	71.81
244.699	75.81
244.932	76.81
245.166	85.81
245.399	76.81
245.633	72.81
245.866	71.81
246.099	71.81
246.333	68.81
246.566	96.81
246.8	69.81
247.033	77.81
247.266	79.81
247.5	78.81
247.733	92.81
247.966	72.81
248.2	82.81
248.433	73.81
248.666	84.81
248.899	82.81
249.133	88.81
249.366	90.81
249.599	73.81
249.832	74.81
250.066	76.81
250.299	84.81
250.532	85.81
250.765	73.81
250.998	82.81
251.231	68.81
251.465	83.81
251.698	75.81
251.931	70.81
252.164	79.81
252.397	61.81
252.63	83.81
252.863	93.81
253.096	82.81
253.329	82.81
253.562	82.81
253.795	83.81
254.028	81.81
254.261	73.81
254.494	73.81
254.727	68.81
254.96	68.81
255.193	85.81
255.426	80.81
255.659	88.81
255.892	81.81
256.124	83.81
256.357	81.81
256.59	81.81
256.823	86.81
257.056	77.81
257.289	79.81
257.521	86.81
257.754	73.81
257.987	74.81
258.22	92.81
258.452	71.81
258.685	76.81
258.918	72.81
259.151	75.81
259.383	90.81
259.616	96.81
259.849	76.81
260.081	77.81
260.314	79.81
260.547	87.81
260.779	82.81
261.012	93.81
261.244	81.81
261.477	99.81
261.71	85.81
261.942	75.81
262.175	74.81
262.407	73.81
262.64	80.81
262.872	92.81
263.105	98.81
263.337	83.81
263.57	86.81
263.802	85.81
264.035	83.81
264.267	96.81
264.499	71.81
264.732	84.81
264.964	82.81
265.197	88.81
265.429	98.81
265.661	95.81
265.894	71.81
266.126	85.81
266.358	89.81
266.591	86.81
266.823	84.81
267.055	70.81
267.287	90.81
267.52	65.81
267.752	75.81
267.984	81.81
268.216	78.81
268.448	95.81
268.681	91.81
268.913	79.81
269.145	74.81
269.377	84.81
269.609	89.81
269.841	94.81
270.073	86.81
270.306	90.81
270.538	79.81
270.77	81.81
271.002	106.81
271.234	85.81
271.466	88.81
271.698	96.81
271.93	72.81
272.162	85.81
272.394	87.81
272.626	88.81
272.858	93.81
273.09	92.81
273.322	78.81
273.553	85.81
273.785	89.81
274.017	93.81
274.249	88.81
274.481	80.81
274.713	76.81
274.945	77.81
275.176	85.81
275.408	97.81
275.64	72.81
275.872	78.81
276.104	87.81
276.335	90.81
276.567	91.81
276.799	86.81
277.031	81.81
277.262	83.81
277.494	84.81
277.726	81.81
277.957	83.81
278.189	89.81
278.421	98.81
278.652	91.81
278.884	76.81
279.115	90.81
279.347	82.81
279.579	92.81
279.81	56.81
280.042	87.81
280.273	78.81
280.505	81.81
280.736	87.81
280.968	94.81
281.199	89.81
281.431	73.81
281.662	79.81
281.894	94.81
282.125	100.81
282.356	76.81
282.588	84.81
282.819	85.81
283.051	86.81
283.282	75.81
283.513	82.81
283.745	74.81
283.976	92.81
284.207	83.81
284.439	101.81
284.67	82.81
284.901	86.81
285.132	80.81
285.364	87.81
285.595	94.81
285.826	84.81
286.057	91.81
286.288	90.81
286.52	93.81
286.751	80.81
286.982	79.81
287.213	93.81
287.444	82.81
287.675	83.81
287.906	88.81
288.138	97.81
288.369	85.81
288.6	91.81
288.831	85.81
289.062	83.81
289.293	83.81
289.524	85.81
289.755	80.81
289.986	93.81
290.217	73.81
290.448	91.81
290.679	90.81
290.91	90.81
291.141	78.81
291.371	92.81
291.602	91.81
291.833	86.81
292.064	88.81
292.295	89.81
292.526	81.81
292.757	75.81
292.987	79.81
293.218	82.81
293.449	70.81
293.68	97.81
293.91	81.81
294.141	76.81
294.372	80.81
294.603	88.81
294.833	88.81
295.064	75.81
295.295	85.81
295.525	84.81
295.756	88.81
295.987	80.81
296.217	85.81
296.448	82.81
296.679	78.81
296.909	78.81
297.14	70.81
297.37	74.81
297.601	85.81
297.831	75.81
298.062	83.81
298.292	91.81
298.523	94.81
298.753	86.81
298.984	81.81
299.214	67.81
299.445	85.81
299.675	76.81
299.905	87.81
300.136	88.81
300.366	84.81
300.597	88.81
300.827	83.81
301.057	78.81
301.288	75.81
301.518	86.81
301.748	81.81
301.979	93.81
302.209	92.81
302.439	92.81
302.669	86.81
302.9	83.81
303.13	80.81
303.36	73.81
303.59	84.81
303.82	86.81
304.051	85.81
304.281	98.81
304.511	86.81
304.741	75.81
304.971	81.81
305.201	88.81
305.431	89.81
305.661	94.81
305.891	87.81
306.121	87.81
306.352	92.81
306.582	86.81
306.812	89.81
307.042	76.81
307.272	88.81
307.502	87.81
307.731	92.81
307.961	78.81
308.191	77.81
308.421	70.81
308.651	101.81
308.881	72.81
309.111	82.81
309.341	99.81
309.571	105.81
309.8	79.81
310.03	77.81
310.26	92.81
310.49	93.81
310.72	71.81
310.949	95.81
311.179	99.81
311.409	84.81
311.639	83.81
311.868	86.81
312.098	86.81
312.328	74.81
312.557	86.81
312.787	75.81
313.017	99.81
313.246	87.81
313.476	81.81
313.706	89.81
313.935	86.81
314.165	85.81
314.394	85.81
314.624	84.81
314.853	78.81
315.083	100.81
315.312	81.81
315.542	70.81
315.771	87.81
316.001	88.81
316.23	91.81
316.46	89.81
316.689	61.81
316.919	96.81
317.148	96.81
317.377	77.81
317.607	80.81
317.836	80.81
318.065	84.81
318.295	83.81
318.524	74.81
318.753	88.81
318.983	76.81
319.212	80.81
319.441	76.81
319.67	79.81
319.9	81.81
320.129	78.81
320.358	84.81
320.587	101.81
320.816	91.81
321.046	78.81
321.275	77.81
321.504	82.81
321.733	89.81
321.962	75.81
322.191	85.81
322.42	81.81
322.649	73.81
322.878	89.81
323.108	82.81
323.337	87.81
323.566	78.81
323.795	93.81
324.024	86.81
324.253	85.81
324.482	79.81
324.71	86.81
324.939	74.81
325.168	74.81
325.397	78.81
325.626	90.81
325.855	85.81
326.084	96.81
326.313	85.81
326.542	78.81
326.77	73.81
326.999	91.81
327.228	84.81
327.457	87.81
327.686	76.81
327.914	80.81
328.143	86.81
328.372	90.81
328.6	97.81
328.829	85.81
329.058	92.81
329.287	85.81
329.515	83.81
329.744	79.81
329.972	84.81
330.201	78.81
330.43	96.81
330.658	83.81
330.887	93.81
331.115	71.81
331.344	87.81
331.572	77.81
331.801	59.81
332.03	76.81
332.258	85.81
332.486	80.81
332.715	83.81
332.943	80.81
333.172	82.81
333.4	80.81
333.629	92.81
333.857	75.81
334.085	89.81
334.314	103.81
334.542	98.81
334.771	90.81
334.999	78.81
335.227	88.81
335.455	93.81
335.684	102.81
335.912	78.81
336.14	74.81
336.369	72.81
336.597	81.81
336.825	82.81
337.053	78.81
337.281	84.81
337.51	78.81
337.738	74.81
337.966	81.81
338.194	85.81
338.422	81.81
338.65	87.81
338.878	118.81
339.106	75.81
339.334	80.81
339.562	85.81
339.79	80.81
340.018	81.81
340.246	84.81
340.474	79.81
340.702	89.81
340.93	84.81
341.158	74.81
341.386	88.81
341.614	78.81
341.842	88.81
342.07	90.81
342.298	71.81
342.526	82.81
342.754	84.81
342.981	82.81
343.209	60.81
343.437	84.81
343.665	67.81
343.893	85.81
344.12	81.81
344.348	82.81
344.576	92.81
344.804	92.81
345.031	90.81
345.259	77.81
345.487	97.81
345.714	74.81
345.942	97.81
346.17	81.81
346.397	60.81
346.625	85.81
346.853	81.81
347.08	92.81
347.308	88.81
347.535	82.81
347.763	96.81
347.99	92.81
348.218	86.81
348.445	84.81
348.673	73.81
348.9	82.81
349.128	78.81
349.355	94.81
349.583	75.81
349.81	78.81
350.037	74.81
350.265	88.81
350.492	86.81
350.72	85.81
350.947	102.81
351.174	93.81
351.402	77.81
351.629	80.81
351.856	92.81
352.083	101.81
352.311	101.81
352.538	69.81
352.765	89.81
352.992	86.81
353.22	89.81
353.447	72.81
353.674	84.81
353.901	84.81
354.128	78.81
354.355	78.81
354.583	77.81
354.81	77.81
355.037	81.81
355.264	76.81
355.491	78.81
355.718	63.81
355.945	92.81
356.172	81.81
356.399	84.81
356.626	67.81
356.853	78.81
357.08	91.81
357.307	85.81
357.534	85.81
357.761	86.81
357.988	85.81
358.215	77.81
358.441	85.81
358.668	73.81
358.895	84.81
359.122	90.81
359.349	84.81
359.576	90.81
359.802	86.81
360.029	78.81
360.256	88.81
360.483	86.81
360.709	96.81
360.936	90.81
361.163	83.81
361.39	85.81
361.616	86.81
361.843	97.81
362.07	76.81
362.296	89.81
362.523	84.81
362.749	85.81
362.976	87.81
363.203	85.81
363.429	81.81
363.656	80.81
363.882	77.81
364.109	81.81
364.335	82.81
364.562	78.81
364.788	86.81
365.015	78.81
365.241	93.81
365.468	86.81
365.694	69.81
365.92	80.81
366.147	64.81
366.373	76.81
366.599	92.81
366.826	92.81
367.052	86.81
367.278	71.81
367.505	86.81
367.731	89.81
367.957	83.81
368.184	84.81
368.41	96.81
368.636	80.81
368.862	90.81
369.089	76.81
369.315	95.81
369.541	83.81
369.767	76.81
369.993	93.81
370.219	74.81
370.445	77.81
370.672	76.81
370.898	97.81
371.124	91.81
371.35	78.81
371.576	91.81
371.802	81.81
372.028	80.81
372.254	73.81
372.48	78.81
372.706	74.81
372.932	97.81
373.158	85.81
373.384	85.81
373.61	97.81
373.835	76.81
374.061	79.81
374.287	86.81
374.513	89.81
374.739	82.81
374.965	88.81
375.191	83.81
375.416	77.81
375.642	84.81
375.868	85.81
376.094	72.81
376.319	75.81
376.545	89.81
376.771	88.81
376.997	93.81
377.222	85.81
377.448	81.81
377.674	85.81
377.899	73.81
378.125	90.81
378.35	75.81
378.576	84.81
378.802	76.81
379.027	84.81
379.253	90.81
379.478	104.81
379.704	78.81
379.929	88.81
380.155	85.81
380.38	84.81
380.606	90.81
380.831	97.81
381.057	82.81
381.282	80.81
381.507	86.81
381.733	92.81
381.958	85.81
382.184	74.81
382.409	83.81
382.634	85.81
382.86	76.81
383.085	86.81
383.31	89.81
383.535	80.81
383.761	75.81
383.986	73.81
384.211	77.81
384.436	90.81
384.662	82.81
384.887	85.81
385.112	77.81
385.337	74.81
385.562	84.81
385.787	80.81
386.013	79.81
386.238	81.81
386.463	78.81
386.688	87.81
386.913	91.81
387.138	73.81
387.363	86.81
387.588	76.81
387.813	91.81
388.038	78.81
388.263	80.81
388.488	86.81
388.713	77.81
388.938	82.81
389.163	82.81
389.387	78.81
389.612	74.81
389.837	79.81
390.062	83.81
390.287	68.81
390.512	80.81
390.736	99.81
390.961	72.81
391.186	77.81
391.411	88.81
391.636	90.81
391.86	88.81
392.085	89.81
392.31	70.81
392.534	89.81
392.759	96.81
392.984	77.81
393.208	70.81
393.433	89.81
393.658	87.81
393.882	91.81
394.107	78.81
394.331	104.81
394.556	84.81
394.78	84.81
395.005	88.81
395.229	72.81
395.454	94.81
395.678	97.81
395.903	84.81
396.127	62.81
396.352	94.81
396.576	76.81
396.801	73.81
397.025	77.81
397.249	96.81
397.474	89.81
397.698	89.81
397.922	84.81
398.147	75.81
398.371	79.81
398.595	87.81
398.82	87.81
399.044	88.81
399.268	94.81
399.492	90.81
399.717	81.81
399.941	82.81
400.165	88.81
400.389	83.81
400.613	87.81
400.837	82.81
401.062	82.81
401.286	90.81
401.51	97.81
401.734	73.81
401.958	82.81
402.182	76.81
402.406	78.81
402.63	99.81
402.854	84.81
403.078	88.81
403.302	84.81
403.526	88.81
403.75	77.81
403.974	88.81
404.198	73.81
404.422	82.81
404.645	84.81
404.869	92.81
405.093	88.81
405.317	81.81
405.541	78.81
405.765	81.81
405.988	90.81
406.212	93.81
406.436	91.81
406.66	83.81
406.883	91.81
407.107	81.81
407.331	80.81
407.555	86.81
407.778	99.81
408.002	84.81
408.226	89.81
408.449	81.81
408.673	92.81
408.896	75.81
409.12	73.81
409.344	79.81
409.567	85.81
409.791	72.81
410.014	78.81
410.238	83.81
410.461	76.81
410.685	80.81
410.908	77.81
411.132	88.81
411.355	81.81
411.578	88.81
411.802	77.81
412.025	93.81
412.249	86.81
412.472	89.81
412.695	94.81
412.919	89.81
413.142	85.81
413.365	83.81
413.589	93.81
413.812	95.81
414.035	83.81
414.258	79.81
414.482	81.81
414.705	92.81
414.928	88.81
415.151	88.81
415.374	92.81
415.597	69.81
415.821	86.81
416.044	88.81
416.267	85.81
416.49	79.81
416.713	66.81
416.936	98.81
417.159	89.81
417.382	89.81
417.605	76.81
417.828	74.81
418.051	100.81
418.274	88.81
418.497	100.81
418.72	84.81
418.943	83.81
419.166	95.81
419.389	86.81
419.611	84.81
419.834	76.81
420.057	89.81
420.28	92.81
420.503	95.81
420.726	80.81
420.948	79.81
421.171	93.81
421.394	89.81
421.617	91.81
421.839	74.81
422.062	90.81
422.285	93.81
422.507	77.81
422.73	93.81
422.953	81.81
423.175	88.81
423.398	92.81
423.621	97.81
423.843	91.81
424.066	73.81
424.288	78.81
424.511	93.81
424.733	88.81
424.956	91.81
425.178	90.81
425.401	83.81
425.623	98.81
425.846	85.81
426.068	94.81
426.291	84.81
426.513	67.81
426.735	81.81
426.958	93.81
427.18	88.81
427.402	88.81
427.625	87.81
427.847	87.81
428.069	103.81
428.292	88.81
428.514	77.81
428.736	75.81
428.958	83.81
429.181	85.81
429.403	86.81
429.625	88.81
429.847	84.81
430.069	91.81
430.292	89.81
430.514	102.81
430.736	92.81
430.958	87.81
431.18	87.81
431.402	88.81
431.624	86.81
431.846	76.81
432.068	97.81
432.29	100.81
432.512	92.81
432.734	85.81
432.956	87.81
433.178	98.81
433.4	95.81
433.622	91.81
433.844	85.81
434.066	90.81
434.287	82.81
434.509	79.81
434.731	77.81
434.953	89.81
435.175	89.81
435.397	87.81
435.618	82.81
435.84	95.81
436.062	90.81
436.284	92.81
436.505	79.81
436.727	86.81
436.949	90.81
437.17	94.81
437.392	86.81
437.614	67.81
437.835	92.81
438.057	80.81
438.278	100.81
438.5	93.81
438.721	86.81
438.943	94.81
439.165	90.81
439.386	77.81
439.608	90.81
439.829	90.81
440.05	96.81
440.272	90.81
440.493	86.81
440.715	78.81
440.936	91.81
441.158	86.81
441.379	90.81
441.6	88.81
441.822	100.81
442.043	91.81
442.264	97.81
442.486	99.81
442.707	97.81
442.928	83.81
443.149	97.81
443.371	103.81
443.592	92.81
443.813	101.81
444.034	76.81
444.255	89.81
444.476	86.81
444.698	93.81
444.919	92.81
445.14	195.81
445.361	126.81
445.582	101.81
445.803	99.81
446.024	93.81
446.245	88.81
446.466	93.81
446.687	85.81
446.908	82.81
447.129	95.81
447.35	98.81
447.571	82.81
447.792	98.81
448.013	94.81
448.234	92.81
448.455	98.81
448.675	113.81
448.896	88.81
449.117	73.81
449.338	84.81
449.559	94.81
449.779	81.81
450	80.81
450.221	108.81
450.442	91.81
450.662	92.81
450.883	85.81
451.104	87.81
451.324	83.81
451.545	87.81
451.766	90.81
451.986	93.81
452.207	92.81
452.428	83.81
452.648	103.81
452.869	90.81
453.089	77.81
453.31	71.81
453.53	84.81
453.751	90.81
453.971	88.81
454.192	91.81
454.412	77.81
454.633	97.81
454.853	88.81
455.073	81.81
455.294	85.81
455.514	90.81
455.734	93.81
455.955	83.81
456.175	69.81
456.395	84.81
456.616	77.81
456.836	79.81
457.056	84.81
457.276	103.81
457.497	82.81
457.717	88.81
457.937	78.81
458.157	100.81
458.377	99.81
458.598	78.81
458.818	91.81
459.038	72.81
459.258	66.81
459.478	76.81
459.698	85.81
459.918	94.81
460.138	91.81
460.358	90.81
460.578	100.81
460.798	92.81
461.018	84.81
461.238	92.81
461.458	88.81
461.678	86.81
461.898	75.81
462.118	86.81
462.338	78.81
462.558	73.81
462.777	68.81
462.997	77.81
463.217	72.81
463.437	84.81
463.657	76.81
463.876	95.81
464.096	77.81
464.316	82.81
464.536	87.81
464.755	84.81
464.975	86.81
465.195	81.81
465.414	98.81
465.634	88.81
465.854	80.81
466.073	84.81
466.293	91.81
466.512	90.81
466.732	83.81
466.951	84.81
467.171	85.81
467.391	78.81
467.61	104.81
467.829	92.81
468.049	94.81
468.268	85.81
468.488	84.81
468.707	79.81
468.927	94.81
469.146	77.81
469.365	87.81
469.585	96.81
469.804	97.81
470.023	84.81
470.243	86.81
470.462	89.81
470.681	78.81
470.901	99.81
471.12	89.81
471.339	79.81
471.558	88.81
471.777	90.81
471.997	78.81
472.216	93.81
472.435	88.81
472.654	78.81
472.873	90.81
473.092	88.81
473.311	80.81
473.53	90.81
473.749	91.81
473.968	98.81
474.187	100.81
474.406	83.81
474.625	89.81
474.844	99.81
475.063	92.81
475.282	93.81
475.501	87.81
475.72	99.81
475.939	83.81
476.158	87.81
476.377	76.81
476.596	85.81
476.814	91.81
477.033	83.81
477.252	78.81
477.471	85.81
477.69	95.81
477.908	85.81
478.127	86.81
478.346	91.81
478.564	89.81
478.783	89.81
479.002	76.81
479.22	98.81
479.439	84.81
479.658	85.81
479.876	90.81
480.095	88.81
480.313	84.81
480.532	69.81
480.751	88.81
480.969	89.81
481.188	77.81
481.406	78.81
481.624	85.81
481.843	82.81
482.061	99.81
482.28	81.81
482.498	89.81
482.717	74.81
482.935	79.81
483.153	79.81
483.372	93.81
483.59	81.81
483.808	96.81
484.027	92.81
484.245	89.81
484.463	91.81
484.681	105.81
484.9	83.81
485.118	82.81
485.336	88.81
485.554	102.81
485.772	86.81
485.99	92.81
486.209	92.81
486.427	87.81
486.645	90.81
486.863	87.81
487.081	86.81
487.299	93.81
487.517	94.81
487.735	95.81
487.953	98.81
488.171	89.81
488.389	98.81
488.607	105.81
488.825	93.81
489.043	85.81
489.261	82.81
489.479	82.81
489.696	78.81
489.914	94.81
490.132	98.81
490.35	87.81
490.568	92.81
490.786	92.81
491.003	102.81
491.221	114.81
491.439	97.81
491.657	89.81
491.874	102.81
492.092	104.81
492.31	109.81
492.527	108.81
492.745	96.81
492.963	100.81
493.18	123.81
493.398	110.81
493.615	94.81
493.833	93.81
494.05	84.81
494.268	105.81
494.485	100.81
494.703	95.81
494.92	93.81
495.138	95.81
495.355	86.81
495.573	99.81
495.79	89.81
496.008	101.81
496.225	82.81
496.442	98.81
496.66	118.81
496.877	99.81
497.094	87.81
497.312	104.81
497.529	98.81
497.746	91.81
497.963	95.81
498.181	72.81
498.398	85.81
498.615	73.81
498.832	92.81
499.049	85.81
499.267	75.81
499.484	81.81
499.701	83.81
499.918	84.81
500.135	94.81
500.352	77.81
500.569	81.81
500.786	100.81
501.003	78.81
501.22	85.81
501.437	85.81
501.654	87.81
501.871	84.81
502.088	82.81
502.305	98.81
502.522	89.81
502.739	89.81
502.956	85.81
503.172	97.81
503.389	87.81
503.606	86.81
503.823	92.81
504.04	98.81
504.256	91.81
504.473	98.81
504.69	88.81
504.907	88.81
505.123	78.81
505.34	88.81
505.557	87.81
505.773	75.81
505.99	84.81
506.207	85.81
506.423	100.81
506.64	79.81
506.856	79.81
507.073	91.81
507.289	94.81
507.506	85.81
507.722	90.81
507.939	84.81
508.155	85.81
508.372	77.81
508.588	70.81
508.805	79.81
509.021	90.81
509.238	89.81
509.454	91.81
509.67	80.81
509.887	95.81
510.103	81.81
510.319	97.81
510.536	76.81
510.752	89.81
510.968	93.81
511.184	84.81
511.401	73.81
511.617	74.81
511.833	88.81
512.049	61.81
512.265	86.81
512.481	93.81
512.698	89.81
512.914	76.81
513.13	90.81
513.346	81.81
513.562	79.81
513.778	84.81
513.994	86.81
514.21	81.81
514.426	77.81
514.642	84.81
514.858	87.81
515.074	82.81
515.29	86.81
515.506	78.81
515.721	73.81
515.937	82.81
516.153	78.81
516.369	86.81
516.585	94.81
516.801	95.81
517.016	80.81
517.232	63.81
517.448	87.81
517.664	86.81
517.879	85.81
518.095	83.81
518.311	85.81
518.527	92.81
518.742	86.81
518.958	73.81
519.173	67.81
519.389	99.81
519.605	92.81
519.82	85.81
520.036	74.81
520.251	91.81
520.467	98.81
520.682	79.81
520.898	84.81
521.113	91.81
521.329	88.81
521.544	83.81
521.76	97.81
521.975	92.81
522.19	107.81
522.406	87.81
522.621	73.81
522.836	88.81
523.052	80.81
523.267	78.81
523.482	80.81
523.698	92.81
523.913	73.81
524.128	89.81
524.343	83.81
524.559	90.81
524.774	84.81
524.989	78.81
525.204	98.81
525.419	89.81
525.634	88.81
525.849	93.81
526.064	89.81
526.28	87.81
526.495	87.81
526.71	93.81
526.925	66.81
527.14	101.81
527.355	86.81
527.57	77.81
527.785	81.81
527.999	86.81
528.214	91.81
528.429	85.81
528.644	94.81
528.859	89.81
529.074	90.81
529.289	92.81
529.503	87.81
529.718	82.81
529.933	85.81
530.148	93.81
530.363	95.81
530.577	78.81
530.792	64.81
531.007	97.81
531.221	78.81
531.436	87.81
531.651	93.81
531.865	83.81
532.08	97.81
532.295	83.81
532.509	82.81
532.724	70.81
532.938	82.81
533.153	84.81
533.367	78.81
533.582	96.81
533.796	101.81
534.011	76.81
534.225	94.81
534.44	88.81
534.654	93.81
534.868	91.81
535.083	92.81
535.297	94.81
535.511	97.81
535.726	76.81
535.94	93.81
536.154	98.81
536.369	80.81
536.583	91.81
536.797	76.81
537.011	89.81
537.225	78.81
537.44	80.81
537.654	92.81
537.868	82.81
538.082	97.81
538.296	83.81
538.51	78.81
538.724	86.81
538.938	86.81
539.153	94.81
539.367	97.81
539.581	86.81
539.795	89.81
540.009	91.81
540.222	86.81
540.436	84.81
540.65	92.81
540.864	91.81
541.078	94.81
541.292	94.81
541.506	100.81
541.72	105.81
541.934	106.81
542.147	109.81
542.361	102.81
542.575	97.81
542.789	94.81
543.002	97.81
543.216	94.81
543.43	101.81
543.644	96.81
543.857	89.81
544.071	107.81
544.285	101.81
544.498	96.81
544.712	106.81
544.925	104.81
545.139	112.81
545.352	100.81
545.566	95.81
545.779	98.81
545.993	82.81
546.206	94.81
546.42	97.81
546.633	110.81
546.847	105.81
547.06	87.81
547.274	98.81
547.487	114.81
547.7	96.81
547.914	101.81
548.127	105.81
548.34	95.81
548.554	100.81
548.767	109.81
548.98	89.81
549.193	95.81
549.407	92.81
549.62	88.81
549.833	86.81
550.046	100.81
550.259	93.81
550.473	100.81
550.686	86.81
550.899	87.81
551.112	100.81
551.325	94.81
551.538	74.81
551.751	95.81
551.964	95.81
552.177	94.81
552.39	91.81
552.603	96.81
552.816	96.81
553.029	100.81
553.242	104.81
553.455	89.81
553.667	98.81
553.88	91.81
554.093	88.81
554.306	108.81
554.519	86.81
554.732	88.81
554.944	90.81
555.157	87.81
555.37	91.81
555.583	94.81
555.795	112.81
556.008	87.81
556.221	101.81
556.433	99.81
556.646	103.81
556.859	87.81
557.071	100.81
557.284	104.81
557.496	82.81
557.709	104.81
557.921	101.81
558.134	91.81
558.346	91.81
558.559	95.81
558.771	82.81
558.984	91.81
559.196	86.81
559.409	94.81
559.621	94.81
559.833	97.81
560.046	89.81
560.258	88.81
560.47	86.81
560.683	96.81
560.895	105.81
561.107	86.81
561.32	102.81
561.532	88.81
561.744	90.81
561.956	80.81
562.168	104.81
562.381	95.81
562.593	95.81
562.805	97.81
563.017	93.81
563.229	88.81
563.441	100.81
563.653	102.81
563.865	92.81
564.077	82.81
564.289	87.81
564.501	96.81
564.713	89.81
564.925	91.81
565.137	94.81
565.349	87.81
565.561	92.81
565.773	95.81
565.985	86.81
566.197	89.81
566.408	81.81
566.62	82.81
566.832	95.81
567.044	103.81
567.255	92.81
567.467	81.81
567.679	81.81
567.891	89.81
568.102	96.81
568.314	81.81
568.526	88.81
568.737	89.81
568.949	79.81
569.161	83.81
569.372	88.81
569.584	89.81
569.795	78.81
570.007	85.81
570.218	66.81
570.43	78.81
570.641	77.81
570.853	91.81
571.064	88.81
571.276	81.81
571.487	85.81
571.698	99.81
571.91	91.81
572.121	90.81
572.333	88.81
572.544	85.81
572.755	88.81
572.966	86.81
573.178	89.81
573.389	85.81
573.6	93.81
573.811	98.81
574.023	69.81
574.234	98.81
574.445	79.81
574.656	73.81
574.867	89.81
575.078	82.81
575.289	81.81
575.501	98.81
575.712	87.81
575.923	77.81
576.134	85.81
576.345	96.81
576.556	90.81
576.767	97.81
576.978	93.81
577.188	84.81
577.399	86.81
577.61	94.81
577.821	88.81
578.032	83.81
578.243	94.81
578.454	84.81
578.665	85.81
578.875	83.81
579.086	82.81
579.297	88.81
579.508	89.81
579.718	87.81
579.929	93.81
580.14	91.81
580.35	82.81
580.561	84.81
580.772	87.81
580.982	91.81
581.193	85.81
581.403	84.81
581.614	78.81
581.825	81.81
582.035	80.81
582.246	83.81
582.456	97.81
582.667	86.81
582.877	83.81
583.087	90.81
583.298	101.81
583.508	88.81
583.719	79.81
583.929	87.81
584.139	84.81
584.35	78.81
584.56	91.81
584.77	86.81
584.981	91.81
585.191	89.81
585.401	66.81
585.611	72.81
585.821	79.81
586.032	83.81
586.242	75.81
586.452	83.81
586.662	85.81
586.872	91.81
587.082	82.81
587.292	76.81
587.502	89.81
587.713	86.81
587.923	99.81
588.133	82.81
588.343	99.81
588.553	76.81
588.762	70.81
588.972	97.81
589.182	93.81
589.392	93.81
589.602	94.81
589.812	85.81
590.022	90.81
590.232	81.81
590.441	91.81
590.651	100.81
590.861	90.81
591.071	86.81
591.281	96.81
591.49	87.81
591.7	76.81
591.91	84.81
592.119	105.81
592.329	87.81
592.539	83.81
592.748	87.81
592.958	82.81
593.167	83.81
593.377	84.81
593.587	92.81
593.796	73.81
594.006	83.81
594.215	80.81
594.424	86.81
594.634	76.81
594.843	93.81
595.053	94.81
595.262	90.81
595.472	92.81
595.681	80.81
595.89	98.81
596.1	89.81
596.309	83.81
596.518	84.81
596.727	84.81
596.937	85.81
597.146	85.81
597.355	75.81
597.564	82.81
597.774	80.81
597.983	73.81
598.192	77.81
598.401	73.81
598.61	87.81
598.819	105.81
599.028	86.81
599.237	93.81
599.446	88.81
599.655	98.81
599.864	92.81
600.073	78.81
600.282	88.81
600.491	76.81
600.7	80.81
600.909	85.81
601.118	85.81
601.327	78.81
601.536	88.81
601.745	88.81
601.953	88.81
602.162	88.81
602.371	76.81
602.58	99.81
602.789	90.81
602.997	75.81
603.206	76.81
603.415	102.81
603.623	78.81
603.832	78.81
604.041	84.81
604.249	74.81
604.458	84.81
604.666	93.81
604.875	89.81
605.084	85.81
605.292	81.81
605.501	101.81
605.709	78.81
605.918	97.81
606.126	90.81
606.334	101.81
606.543	96.81
606.751	86.81
606.96	90.81
607.168	102.81
607.376	92.81
607.585	89.81
607.793	83.81
608.001	91.81
608.21	95.81
608.418	92.81
608.626	87.81
608.834	92.81
609.043	100.81
609.251	94.81
609.459	98.81
609.667	90.81
609.875	90.81
610.083	88.81
610.291	92.81
610.499	79.81
610.707	103.81
610.916	93.81
611.124	72.81
611.332	83.81
611.54	84.81
611.748	94.81
611.955	85.81
612.163	93.81
612.371	97.81
612.579	97.81
612.787	94.81
612.995	86.81
613.203	98.81
613.411	86.81
613.618	88.81
613.826	88.81
614.034	88.81
614.242	92.81
614.449	89.81
614.657	72.81
614.865	89.81
615.072	92.81
615.28	94.81
615.488	76.81
615.695	78.81
615.903	84.81
616.111	86.81
616.318	93.81
616.526	97.81
616.733	87.81
616.941	92.81
617.148	90.81
617.356	81.81
617.563	91.81
617.771	78.81
617.978	95.81
618.185	96.81
618.393	80.81
618.6	82.81
618.807	90.81
619.015	94.81
619.222	87.81
619.429	92.81
619.637	82.81
619.844	88.81
620.051	84.81
620.258	89.81
620.466	85.81
620.673	83.81
620.88	89.81
621.087	86.81
621.294	88.81
621.501	71.81
621.708	101.81
621.915	96.81
622.122	94.81
622.329	86.81
622.536	91.81
622.743	89.81
622.95	87.81
623.157	92.81
623.364	88.81
623.571	101.81
623.778	86.81
623.985	96.81
624.192	86.81
624.399	84.81
624.606	92.81
624.812	85.81
625.019	97.81
625.226	98.81
625.433	91.81
625.639	78.81
625.846	93.81
626.053	90.81
626.259	97.81
626.466	89.81
626.673	75.81
626.879	88.81
627.086	85.81
627.293	98.81
627.499	88.81
627.706	93.81
627.912	84.81
628.119	78.81
628.325	78.81
628.532	88.81
628.738	80.81
628.945	90.81
629.151	78.81
629.357	84.81
629.564	104.81
629.77	90.81
629.976	93.81
630.183	92.81
630.389	82.81
630.595	72.81
630.802	76.81
631.008	85.81
631.214	87.81
631.42	88.81
631.627	88.81
631.833	82.81
632.039	79.81
632.245	89.81
632.451	86.81
632.657	78.81
632.863	81.81
633.069	90.81
633.275	81.81
633.481	96.81
633.688	83.81
633.893	100.81
634.099	79.81
634.305	85.81
634.511	87.81
634.717	74.81
634.923	83.81
635.129	89.81
635.335	88.81
635.541	85.81
635.747	69.81
635.952	80.81
636.158	85.81
636.364	90.81
636.57	105.81
636.775	96.81
636.981	76.81
637.187	101.81
637.392	87.81
637.598	76.81
637.804	91.81
638.009	86.81
638.215	81.81
638.421	76.81
638.626	90.81
638.832	97.81
639.037	90.81
639.243	83.81
639.448	96.81
639.654	98.81
639.859	89.81
640.065	87.81
640.27	88.81
640.475	85.81
640.681	83.81
640.886	76.81
641.091	98.81
641.297	86.81
641.502	110.81
641.707	78.81
641.913	85.81
642.118	77.81
642.323	74.81
642.528	104.81
642.733	93.81
642.939	94.81
643.144	85.81
643.349	97.81
643.554	106.81
643.759	87.81
643.964	86.81
644.169	100.81
644.374	76.81
644.579	91.81
644.784	82.81
644.989	80.81
645.194	91.81
645.399	90.81
645.604	77.81
645.809	92.81
646.014	99.81
646.219	92.81
646.423	83.81
646.628	78.81
646.833	84.81
647.038	93.81
647.243	97.81
647.447	81.81
647.652	84.81
647.857	88.81
648.062	78.81
648.266	91.81
648.471	75.81
648.676	95.81
648.88	87.81
649.085	77.81
649.289	93.81
649.494	84.81
649.698	93.81
649.903	93.81
650.107	74.81
650.312	84.81
650.516	82.81
650.721	82.81
650.925	82.81
651.13	88.81
651.334	75.81
651.539	82.81
651.743	76.81
651.947	87.81
652.152	76.81
652.356	80.81
652.56	99.81
652.764	83.81
652.969	83.81
653.173	91.81
653.377	87.81
653.581	95.81
653.785	67.81
653.99	81.81
654.194	85.81
654.398	93.81
654.602	82.81
654.806	88.81
655.01	81.81
655.214	81.81
655.418	91.81
655.622	77.81
655.826	72.81
656.03	74.81
656.234	88.81
656.438	88.81
656.642	77.81
656.846	90.81
657.049	83.81
657.253	95.81
657.457	82.81
657.661	91.81
657.865	84.81
658.068	83.81
658.272	78.81
658.476	94.81
658.68	93.81
658.883	81.81
659.087	75.81
659.291	85.81
659.494	78.81
659.698	98.81
659.901	81.81
660.105	84.81
660.309	64.81
660.512	88.81
660.716	78.81
660.919	83.81
661.123	88.81
661.326	68.81
661.53	92.81
661.733	81.81
661.936	88.81
662.14	77.81
662.343	89.81
662.546	83.81
662.75	81.81
662.953	75.81
663.156	79.81
663.36	92.81
663.563	88.81
663.766	83.81
663.969	68.81
664.173	95.81
664.376	77.81
664.579	85.81
664.782	75.81
664.985	81.81
665.188	75.81
665.391	85.81
665.594	77.81
665.797	95.81
666	87.81
666.203	90.81
666.406	83.81
666.609	85.81
666.812	86.81
667.015	65.81
667.218	96.81
667.421	81.81
667.624	86.81
667.827	81.81
668.03	78.81
668.232	86.81
668.435	80.81
668.638	77.81
668.841	78.81
669.043	82.81
669.246	80.81
669.449	85.81
669.651	85.81
669.854	82.81
670.057	84.81
670.259	80.81
670.462	89.81
670.665	82.81
670.867	81.81
671.07	87.81
671.272	92.81
671.475	85.81
671.677	85.81
671.88	79.81
672.082	80.81
672.284	82.81
672.487	86.81
672.689	73.81
672.892	92.81
