Data from Zn(NO3)2Standard.Agarose3%.GreenCap.LampEnergy10E.O_HRD10591_15-07-32-948.txt Node
Date: Mon Jul 22 15:07:32 EDT 2019
User: cochatt
Spectrometer: HR+D1059
Trigger mode: 1
Integration Time (sec): 1.000000E-1
Scans to average: 1
Electric dark correction enabled: true
Nonlinearity correction enabled: false
Boxcar width: 0
XAxis mode: Wavelengths
Number of Pixels in Spectrum: 2048
>>>>>Begin Spectral Data<<<<<
223.165	1.38
223.4	1.38
223.635	1.38
223.869	-21.62
224.104	-17.62
224.338	-13.62
224.573	-18.62
224.808	-12.62
225.042	-13.62
225.277	-3.62
225.511	-6.62
225.746	0.38
225.98	5.38
226.215	7.38
226.449	27.38
226.683	25.38
226.918	16.38
227.152	24.38
227.387	22.38
227.621	33.38
227.856	31.38
228.09	47.38
228.324	42.38
228.559	54.38
228.793	67.38
229.027	71.38
229.262	70.38
229.496	66.38
229.73	75.38
229.964	73.38
230.199	92.38
230.433	82.38
230.667	82.38
230.901	86.38
231.136	77.38
231.37	65.38
231.604	85.38
231.838	83.38
232.072	77.38
232.306	86.38
232.541	88.38
232.775	82.38
233.009	80.38
233.243	81.38
233.477	92.38
233.711	86.38
233.945	75.38
234.179	84.38
234.413	85.38
234.647	95.38
234.881	89.38
235.115	79.38
235.349	66.38
235.583	90.38
235.817	90.38
236.051	95.38
236.285	78.38
236.519	76.38
236.753	70.38
236.987	79.38
237.221	78.38
237.455	80.38
237.689	93.38
237.922	91.38
238.156	87.38
238.39	69.38
238.624	72.38
238.858	78.38
239.091	70.38
239.325	60.38
239.559	78.38
239.793	65.38
240.027	83.38
240.26	87.38
240.494	79.38
240.728	73.38
240.961	76.38
241.195	79.38
241.429	77.38
241.662	85.38
241.896	71.38
242.13	78.38
242.363	73.38
242.597	84.38
242.83	88.38
243.064	87.38
243.298	92.38
243.531	81.38
243.765	85.38
243.998	64.38
244.232	65.38
244.465	86.38
244.699	73.38
244.932	91.38
245.166	70.38
245.399	84.38
245.633	71.38
245.866	74.38
246.099	74.38
246.333	80.38
246.566	85.38
246.8	94.38
247.033	68.38
247.266	85.38
247.5	86.38
247.733	78.38
247.966	71.38
248.2	75.38
248.433	82.38
248.666	82.38
248.899	79.38
249.133	72.38
249.366	86.38
249.599	79.38
249.832	82.38
250.066	72.38
250.299	83.38
250.532	102.38
250.765	81.38
250.998	59.38
251.231	82.38
251.465	78.38
251.698	78.38
251.931	85.38
252.164	73.38
252.397	74.38
252.63	88.38
252.863	92.38
253.096	86.38
253.329	82.38
253.562	75.38
253.795	72.38
254.028	75.38
254.261	85.38
254.494	79.38
254.727	88.38
254.96	79.38
255.193	83.38
255.426	66.38
255.659	84.38
255.892	83.38
256.124	78.38
256.357	76.38
256.59	75.38
256.823	81.38
257.056	78.38
257.289	73.38
257.521	95.38
257.754	84.38
257.987	88.38
258.22	86.38
258.452	84.38
258.685	95.38
258.918	92.38
259.151	94.38
259.383	78.38
259.616	88.38
259.849	79.38
260.081	91.38
260.314	83.38
260.547	90.38
260.779	65.38
261.012	85.38
261.244	83.38
261.477	83.38
261.71	77.38
261.942	87.38
262.175	90.38
262.407	90.38
262.64	90.38
262.872	74.38
263.105	78.38
263.337	69.38
263.57	81.38
263.802	81.38
264.035	79.38
264.267	72.38
264.499	75.38
264.732	63.38
264.964	71.38
265.197	84.38
265.429	84.38
265.661	76.38
265.894	81.38
266.126	88.38
266.358	86.38
266.591	89.38
266.823	88.38
267.055	74.38
267.287	93.38
267.52	96.38
267.752	96.38
267.984	95.38
268.216	91.38
268.448	74.38
268.681	86.38
268.913	79.38
269.145	93.38
269.377	83.38
269.609	88.38
269.841	86.38
270.073	78.38
270.306	78.38
270.538	88.38
270.77	89.38
271.002	91.38
271.234	93.38
271.466	73.38
271.698	84.38
271.93	73.38
272.162	79.38
272.394	85.38
272.626	78.38
272.858	80.38
273.09	98.38
273.322	78.38
273.553	85.38
273.785	69.38
274.017	82.38
274.249	83.38
274.481	87.38
274.713	83.38
274.945	92.38
275.176	100.38
275.408	87.38
275.64	90.38
275.872	93.38
276.104	87.38
276.335	91.38
276.567	90.38
276.799	110.38
277.031	87.38
277.262	91.38
277.494	83.38
277.726	93.38
277.957	74.38
278.189	79.38
278.421	82.38
278.652	87.38
278.884	77.38
279.115	91.38
279.347	75.38
279.579	91.38
279.81	75.38
280.042	88.38
280.273	88.38
280.505	68.38
280.736	78.38
280.968	81.38
281.199	76.38
281.431	90.38
281.662	92.38
281.894	79.38
282.125	79.38
282.356	72.38
282.588	89.38
282.819	89.38
283.051	89.38
283.282	79.38
283.513	96.38
283.745	85.38
283.976	72.38
284.207	94.38
284.439	85.38
284.67	70.38
284.901	90.38
285.132	87.38
285.364	80.38
285.595	79.38
285.826	72.38
286.057	74.38
286.288	85.38
286.52	79.38
286.751	98.38
286.982	81.38
287.213	88.38
287.444	73.38
287.675	88.38
287.906	89.38
288.138	79.38
288.369	87.38
288.6	86.38
288.831	86.38
289.062	86.38
289.293	90.38
289.524	77.38
289.755	70.38
289.986	90.38
290.217	73.38
290.448	75.38
290.679	84.38
290.91	100.38
291.141	91.38
291.371	88.38
291.602	92.38
291.833	71.38
292.064	83.38
292.295	87.38
292.526	88.38
292.757	81.38
292.987	88.38
293.218	94.38
293.449	83.38
293.68	89.38
293.91	98.38
294.141	87.38
294.372	76.38
294.603	83.38
294.833	77.38
295.064	78.38
295.295	99.38
295.525	85.38
295.756	83.38
295.987	90.38
296.217	91.38
296.448	80.38
296.679	85.38
296.909	85.38
297.14	77.38
297.37	98.38
297.601	89.38
297.831	87.38
298.062	89.38
298.292	78.38
298.523	83.38
298.753	92.38
298.984	82.38
299.214	80.38
299.445	86.38
299.675	107.38
299.905	88.38
300.136	89.38
300.366	86.38
300.597	94.38
300.827	68.38
301.057	92.38
301.288	94.38
301.518	97.38
301.748	72.38
301.979	89.38
302.209	84.38
302.439	94.38
302.669	86.38
302.9	83.38
303.13	81.38
303.36	84.38
303.59	77.38
303.82	94.38
304.051	85.38
304.281	84.38
304.511	78.38
304.741	97.38
304.971	82.38
305.201	91.38
305.431	82.38
305.661	85.38
305.891	86.38
306.121	87.38
306.352	82.38
306.582	77.38
306.812	83.38
307.042	83.38
307.272	71.38
307.502	82.38
307.731	94.38
307.961	94.38
308.191	81.38
308.421	84.38
308.651	92.38
308.881	82.38
309.111	84.38
309.341	87.38
309.571	82.38
309.8	102.38
310.03	86.38
310.26	85.38
310.49	71.38
310.72	96.38
310.949	93.38
311.179	92.38
311.409	82.38
311.639	73.38
311.868	79.38
312.098	82.38
312.328	84.38
312.557	79.38
312.787	80.38
313.017	74.38
313.246	84.38
313.476	77.38
313.706	70.38
313.935	83.38
314.165	83.38
314.394	85.38
314.624	78.38
314.853	83.38
315.083	94.38
315.312	87.38
315.542	90.38
315.771	84.38
316.001	88.38
316.23	89.38
316.46	89.38
316.689	72.38
316.919	85.38
317.148	74.38
317.377	89.38
317.607	80.38
317.836	87.38
318.065	84.38
318.295	83.38
318.524	88.38
318.753	84.38
318.983	75.38
319.212	80.38
319.441	99.38
319.67	79.38
319.9	90.38
320.129	95.38
320.358	86.38
320.587	82.38
320.816	77.38
321.046	83.38
321.275	90.38
321.504	77.38
321.733	77.38
321.962	93.38
322.191	82.38
322.42	76.38
322.649	78.38
322.878	78.38
323.108	86.38
323.337	76.38
323.566	82.38
323.795	88.38
324.024	83.38
324.253	83.38
324.482	83.38
324.71	99.38
324.939	83.38
325.168	92.38
325.397	95.38
325.626	90.38
325.855	79.38
326.084	82.38
326.313	94.38
326.542	71.38
326.77	91.38
326.999	86.38
327.228	86.38
327.457	89.38
327.686	86.38
327.914	83.38
328.143	87.38
328.372	103.38
328.6	88.38
328.829	90.38
329.058	79.38
329.287	82.38
329.515	81.38
329.744	79.38
329.972	94.38
330.201	84.38
330.43	93.38
330.658	83.38
330.887	82.38
331.115	90.38
331.344	85.38
331.572	93.38
331.801	77.38
332.03	94.38
332.258	80.38
332.486	89.38
332.715	73.38
332.943	86.38
333.172	69.38
333.4	83.38
333.629	93.38
333.857	84.38
334.085	90.38
334.314	106.38
334.542	88.38
334.771	93.38
334.999	88.38
335.227	89.38
335.455	90.38
335.684	89.38
335.912	78.38
336.14	84.38
336.369	70.38
336.597	99.38
336.825	75.38
337.053	85.38
337.281	87.38
337.51	95.38
337.738	85.38
337.966	74.38
338.194	87.38
338.422	73.38
338.65	83.38
338.878	79.38
339.106	79.38
339.334	84.38
339.562	101.38
339.79	94.38
340.018	90.38
340.246	74.38
340.474	86.38
340.702	92.38
340.93	74.38
341.158	90.38
341.386	102.38
341.614	87.38
341.842	86.38
342.07	86.38
342.298	94.38
342.526	88.38
342.754	93.38
342.981	89.38
343.209	88.38
343.437	90.38
343.665	82.38
343.893	98.38
344.12	86.38
344.348	88.38
344.576	82.38
344.804	75.38
345.031	78.38
345.259	95.38
345.487	76.38
345.714	86.38
345.942	90.38
346.17	96.38
346.397	98.38
346.625	91.38
346.853	73.38
347.08	67.38
347.308	80.38
347.535	67.38
347.763	88.38
347.99	91.38
348.218	92.38
348.445	87.38
348.673	72.38
348.9	88.38
349.128	85.38
349.355	94.38
349.583	93.38
349.81	91.38
350.037	86.38
350.265	68.38
350.492	94.38
350.72	85.38
350.947	93.38
351.174	72.38
351.402	84.38
351.629	90.38
351.856	87.38
352.083	85.38
352.311	95.38
352.538	88.38
352.765	102.38
352.992	94.38
353.22	84.38
353.447	83.38
353.674	85.38
353.901	87.38
354.128	92.38
354.355	98.38
354.583	102.38
354.81	102.38
355.037	82.38
355.264	79.38
355.491	87.38
355.718	91.38
355.945	92.38
356.172	98.38
356.399	81.38
356.626	94.38
356.853	72.38
357.08	84.38
357.307	77.38
357.534	78.38
357.761	85.38
357.988	86.38
358.215	101.38
358.441	88.38
358.668	87.38
358.895	79.38
359.122	81.38
359.349	90.38
359.576	75.38
359.802	82.38
360.029	90.38
360.256	83.38
360.483	88.38
360.709	78.38
360.936	86.38
361.163	88.38
361.39	80.38
361.616	98.38
361.843	75.38
362.07	85.38
362.296	88.38
362.523	78.38
362.749	93.38
362.976	94.38
363.203	103.38
363.429	80.38
363.656	89.38
363.882	88.38
364.109	92.38
364.335	99.38
364.562	91.38
364.788	76.38
365.015	105.38
365.241	84.38
365.468	97.38
365.694	91.38
365.92	88.38
366.147	79.38
366.373	94.38
366.599	82.38
366.826	84.38
367.052	98.38
367.278	82.38
367.505	77.38
367.731	89.38
367.957	90.38
368.184	94.38
368.41	84.38
368.636	91.38
368.862	85.38
369.089	94.38
369.315	91.38
369.541	87.38
369.767	97.38
369.993	86.38
370.219	78.38
370.445	83.38
370.672	91.38
370.898	86.38
371.124	74.38
371.35	83.38
371.576	75.38
371.802	85.38
372.028	78.38
372.254	93.38
372.48	90.38
372.706	88.38
372.932	87.38
373.158	81.38
373.384	98.38
373.61	91.38
373.835	89.38
374.061	72.38
374.287	92.38
374.513	99.38
374.739	85.38
374.965	90.38
375.191	71.38
375.416	97.38
375.642	106.38
375.868	87.38
376.094	90.38
376.319	83.38
376.545	87.38
376.771	93.38
376.997	86.38
377.222	110.38
377.448	79.38
377.674	81.38
377.899	85.38
378.125	84.38
378.35	91.38
378.576	90.38
378.802	78.38
379.027	84.38
379.253	81.38
379.478	71.38
379.704	78.38
379.929	89.38
380.155	79.38
380.38	84.38
380.606	97.38
380.831	108.38
381.057	85.38
381.282	93.38
381.507	92.38
381.733	83.38
381.958	97.38
382.184	93.38
382.409	86.38
382.634	91.38
382.86	96.38
383.085	88.38
383.31	86.38
383.535	91.38
383.761	87.38
383.986	98.38
384.211	73.38
384.436	95.38
384.662	93.38
384.887	86.38
385.112	86.38
385.337	86.38
385.562	86.38
385.787	92.38
386.013	94.38
386.238	95.38
386.463	112.38
386.688	99.38
386.913	93.38
387.138	76.38
387.363	90.38
387.588	82.38
387.813	94.38
388.038	103.38
388.263	89.38
388.488	99.38
388.713	91.38
388.938	102.38
389.163	80.38
389.387	89.38
389.612	82.38
389.837	82.38
390.062	83.38
390.287	94.38
390.512	82.38
390.736	88.38
390.961	92.38
391.186	98.38
391.411	90.38
391.636	89.38
391.86	93.38
392.085	89.38
392.31	97.38
392.534	83.38
392.759	95.38
392.984	85.38
393.208	98.38
393.433	99.38
393.658	97.38
393.882	80.38
394.107	90.38
394.331	78.38
394.556	103.38
394.78	88.38
395.005	101.38
395.229	97.38
395.454	101.38
395.678	93.38
395.903	91.38
396.127	97.38
396.352	97.38
396.576	95.38
396.801	85.38
397.025	91.38
397.249	91.38
397.474	97.38
397.698	85.38
397.922	90.38
398.147	97.38
398.371	95.38
398.595	98.38
398.82	107.38
399.044	100.38
399.268	91.38
399.492	95.38
399.717	98.38
399.941	103.38
400.165	104.38
400.389	101.38
400.613	109.38
400.837	94.38
401.062	106.38
401.286	75.38
401.51	86.38
401.734	100.38
401.958	89.38
402.182	81.38
402.406	96.38
402.63	99.38
402.854	97.38
403.078	99.38
403.302	83.38
403.526	83.38
403.75	97.38
403.974	94.38
404.198	98.38
404.422	97.38
404.645	116.38
404.869	106.38
405.093	83.38
405.317	106.38
405.541	93.38
405.765	106.38
405.988	109.38
406.212	83.38
406.436	109.38
406.66	102.38
406.883	102.38
407.107	97.38
407.331	89.38
407.555	103.38
407.778	81.38
408.002	100.38
408.226	91.38
408.449	87.38
408.673	94.38
408.896	104.38
409.12	110.38
409.344	90.38
409.567	93.38
409.791	103.38
410.014	89.38
410.238	77.38
410.461	96.38
410.685	91.38
410.908	106.38
411.132	104.38
411.355	106.38
411.578	92.38
411.802	96.38
412.025	90.38
412.249	100.38
412.472	108.38
412.695	117.38
412.919	101.38
413.142	93.38
413.365	111.38
413.589	111.38
413.812	99.38
414.035	97.38
414.258	101.38
414.482	96.38
414.705	105.38
414.928	101.38
415.151	94.38
415.374	103.38
415.597	87.38
415.821	101.38
416.044	95.38
416.267	101.38
416.49	110.38
416.713	109.38
416.936	116.38
417.159	101.38
417.382	97.38
417.605	100.38
417.828	111.38
418.051	104.38
418.274	97.38
418.497	106.38
418.72	109.38
418.943	104.38
419.166	95.38
419.389	107.38
419.611	98.38
419.834	106.38
420.057	100.38
420.28	99.38
420.503	98.38
420.726	98.38
420.948	98.38
421.171	94.38
421.394	112.38
421.617	114.38
421.839	109.38
422.062	127.38
422.285	121.38
422.507	116.38
422.73	114.38
422.953	104.38
423.175	102.38
423.398	97.38
423.621	102.38
423.843	106.38
424.066	112.38
424.288	94.38
424.511	104.38
424.733	109.38
424.956	105.38
425.178	97.38
425.401	108.38
425.623	106.38
425.846	111.38
426.068	104.38
426.291	113.38
426.513	118.38
426.735	126.38
426.958	121.38
427.18	94.38
427.402	101.38
427.625	99.38
427.847	111.38
428.069	111.38
428.292	121.38
428.514	123.38
428.736	105.38
428.958	109.38
429.181	102.38
429.403	111.38
429.625	99.38
429.847	96.38
430.069	113.38
430.292	108.38
430.514	94.38
430.736	119.38
430.958	106.38
431.18	91.38
431.402	95.38
431.624	110.38
431.846	111.38
432.068	102.38
432.29	93.38
432.512	102.38
432.734	109.38
432.956	118.38
433.178	106.38
433.4	123.38
433.622	117.38
433.844	104.38
434.066	103.38
434.287	92.38
434.509	90.38
434.731	100.38
434.953	106.38
435.175	93.38
435.397	97.38
435.618	105.38
435.84	90.38
436.062	95.38
436.284	102.38
436.505	107.38
436.727	105.38
436.949	117.38
437.17	112.38
437.392	116.38
437.614	106.38
437.835	102.38
438.057	99.38
438.278	85.38
438.5	130.38
438.721	103.38
438.943	99.38
439.165	88.38
439.386	115.38
439.608	115.38
439.829	103.38
440.05	116.38
440.272	126.38
440.493	114.38
440.715	111.38
440.936	115.38
441.158	113.38
441.379	107.38
441.6	108.38
441.822	105.38
442.043	115.38
442.264	115.38
442.486	105.38
442.707	98.38
442.928	103.38
443.149	95.38
443.371	109.38
443.592	109.38
443.813	103.38
444.034	111.38
444.255	122.38
444.476	112.38
444.698	110.38
444.919	119.38
445.14	220.38
445.361	175.38
445.582	116.38
445.803	105.38
446.024	117.38
446.245	127.38
446.466	121.38
446.687	113.38
446.908	114.38
447.129	111.38
447.35	109.38
447.571	115.38
447.792	113.38
448.013	107.38
448.234	109.38
448.455	115.38
448.675	102.38
448.896	101.38
449.117	106.38
449.338	110.38
449.559	117.38
449.779	118.38
450	101.38
450.221	115.38
450.442	112.38
450.662	103.38
450.883	121.38
451.104	102.38
451.324	115.38
451.545	106.38
451.766	96.38
451.986	112.38
452.207	95.38
452.428	116.38
452.648	99.38
452.869	93.38
453.089	101.38
453.31	103.38
453.53	99.38
453.751	98.38
453.971	98.38
454.192	99.38
454.412	101.38
454.633	92.38
454.853	98.38
455.073	90.38
455.294	99.38
455.514	106.38
455.734	84.38
455.955	93.38
456.175	104.38
456.395	90.38
456.616	97.38
456.836	100.38
457.056	92.38
457.276	89.38
457.497	91.38
457.717	78.38
457.937	85.38
458.157	102.38
458.377	91.38
458.598	93.38
458.818	90.38
459.038	88.38
459.258	82.38
459.478	86.38
459.698	92.38
459.918	79.38
460.138	104.38
460.358	99.38
460.578	103.38
460.798	95.38
461.018	102.38
461.238	97.38
461.458	87.38
461.678	102.38
461.898	108.38
462.118	95.38
462.338	111.38
462.558	89.38
462.777	94.38
462.997	91.38
463.217	90.38
463.437	98.38
463.657	93.38
463.876	94.38
464.096	101.38
464.316	103.38
464.536	95.38
464.755	99.38
464.975	100.38
465.195	104.38
465.414	105.38
465.634	86.38
465.854	95.38
466.073	96.38
466.293	110.38
466.512	114.38
466.732	100.38
466.951	101.38
467.171	103.38
467.391	100.38
467.61	109.38
467.829	126.38
468.049	114.38
468.268	106.38
468.488	107.38
468.707	102.38
468.927	105.38
469.146	126.38
469.365	122.38
469.585	117.38
469.804	105.38
470.023	111.38
470.243	123.38
470.462	106.38
470.681	119.38
470.901	109.38
471.12	109.38
471.339	111.38
471.558	105.38
471.777	124.38
471.997	112.38
472.216	98.38
472.435	86.38
472.654	102.38
472.873	99.38
473.092	103.38
473.311	103.38
473.53	98.38
473.749	102.38
473.968	108.38
474.187	120.38
474.406	108.38
474.625	108.38
474.844	98.38
475.063	88.38
475.282	126.38
475.501	107.38
475.72	104.38
475.939	109.38
476.158	103.38
476.377	86.38
476.596	97.38
476.814	87.38
477.033	103.38
477.252	108.38
477.471	98.38
477.69	105.38
477.908	119.38
478.127	105.38
478.346	111.38
478.564	115.38
478.783	112.38
479.002	91.38
479.22	119.38
479.439	108.38
479.658	107.38
479.876	103.38
480.095	108.38
480.313	105.38
480.532	90.38
480.751	95.38
480.969	101.38
481.188	91.38
481.406	99.38
481.624	84.38
481.843	80.38
482.061	106.38
482.28	107.38
482.498	91.38
482.717	94.38
482.935	90.38
483.153	122.38
483.372	114.38
483.59	122.38
483.808	121.38
484.027	117.38
484.245	103.38
484.463	125.38
484.681	129.38
484.9	121.38
485.118	120.38
485.336	115.38
485.554	97.38
485.772	107.38
485.99	91.38
486.209	98.38
486.427	93.38
486.645	111.38
486.863	121.38
487.081	110.38
487.299	108.38
487.517	122.38
487.735	124.38
487.953	134.38
488.171	123.38
488.389	129.38
488.607	123.38
488.825	127.38
489.043	105.38
489.261	125.38
489.479	111.38
489.696	108.38
489.914	114.38
490.132	114.38
490.35	119.38
490.568	121.38
490.786	119.38
491.003	139.38
491.221	132.38
491.439	127.38
491.657	126.38
491.874	149.38
492.092	149.38
492.31	164.38
492.527	155.38
492.745	135.38
492.963	131.38
493.18	140.38
493.398	149.38
493.615	132.38
493.833	128.38
494.05	121.38
494.268	131.38
494.485	132.38
494.703	126.38
494.92	124.38
495.138	132.38
495.355	122.38
495.573	137.38
495.79	133.38
496.008	118.38
496.225	112.38
496.442	115.38
496.66	133.38
496.877	133.38
497.094	124.38
497.312	126.38
497.529	114.38
497.746	127.38
497.963	118.38
498.181	108.38
498.398	102.38
498.615	100.38
498.832	87.38
499.049	103.38
499.267	105.38
499.484	110.38
499.701	107.38
499.918	110.38
500.135	107.38
500.352	106.38
500.569	121.38
500.786	108.38
501.003	118.38
501.22	110.38
501.437	115.38
501.654	114.38
501.871	105.38
502.088	107.38
502.305	107.38
502.522	101.38
502.739	114.38
502.956	109.38
503.172	103.38
503.389	87.38
503.606	116.38
503.823	104.38
504.04	99.38
504.256	114.38
504.473	100.38
504.69	103.38
504.907	101.38
505.123	107.38
505.34	98.38
505.557	91.38
505.773	97.38
505.99	83.38
506.207	89.38
506.423	109.38
506.64	101.38
506.856	108.38
507.073	107.38
507.289	99.38
507.506	106.38
507.722	103.38
507.939	94.38
508.155	110.38
508.372	105.38
508.588	109.38
508.805	108.38
509.021	103.38
509.238	93.38
509.454	90.38
509.67	93.38
509.887	85.38
510.103	94.38
510.319	79.38
510.536	85.38
510.752	93.38
510.968	77.38
511.184	92.38
511.401	80.38
511.617	84.38
511.833	89.38
512.049	74.38
512.265	97.38
512.481	76.38
512.698	97.38
512.914	92.38
513.13	95.38
513.346	100.38
513.562	93.38
513.778	92.38
513.994	87.38
514.21	90.38
514.426	94.38
514.642	89.38
514.858	85.38
515.074	83.38
515.29	85.38
515.506	89.38
515.721	82.38
515.937	82.38
516.153	86.38
516.369	85.38
516.585	92.38
516.801	76.38
517.016	91.38
517.232	83.38
517.448	90.38
517.664	86.38
517.879	93.38
518.095	104.38
518.311	84.38
518.527	99.38
518.742	95.38
518.958	96.38
519.173	98.38
519.389	92.38
519.605	103.38
519.82	104.38
520.036	93.38
520.251	84.38
520.467	94.38
520.682	84.38
520.898	91.38
521.113	94.38
521.329	98.38
521.544	94.38
521.76	91.38
521.975	102.38
522.19	93.38
522.406	91.38
522.621	107.38
522.836	98.38
523.052	103.38
523.267	104.38
523.482	93.38
523.698	103.38
523.913	116.38
524.128	90.38
524.343	92.38
524.559	101.38
524.774	90.38
524.989	101.38
525.204	101.38
525.419	95.38
525.634	91.38
525.849	89.38
526.064	103.38
526.28	107.38
526.495	87.38
526.71	78.38
526.925	95.38
527.14	83.38
527.355	76.38
527.57	104.38
527.785	101.38
527.999	84.38
528.214	91.38
528.429	100.38
528.644	90.38
528.859	105.38
529.074	126.38
529.289	122.38
529.503	132.38
529.718	113.38
529.933	89.38
530.148	102.38
530.363	94.38
530.577	101.38
530.792	83.38
531.007	76.38
531.221	64.38
531.436	87.38
531.651	91.38
531.865	87.38
532.08	83.38
532.295	88.38
532.509	78.38
532.724	71.38
532.938	84.38
533.153	97.38
533.367	90.38
533.582	102.38
533.796	91.38
534.011	104.38
534.225	84.38
534.44	93.38
534.654	93.38
534.868	83.38
535.083	98.38
535.297	95.38
535.511	90.38
535.726	108.38
535.94	97.38
536.154	87.38
536.369	85.38
536.583	71.38
536.797	85.38
537.011	79.38
537.225	85.38
537.44	113.38
537.654	91.38
537.868	90.38
538.082	98.38
538.296	96.38
538.51	95.38
538.724	98.38
538.938	99.38
539.153	104.38
539.367	96.38
539.581	103.38
539.795	97.38
540.009	92.38
540.222	99.38
540.436	99.38
540.65	105.38
540.864	104.38
541.078	107.38
541.292	133.38
541.506	130.38
541.72	119.38
541.934	124.38
542.147	147.38
542.361	129.38
542.575	132.38
542.789	108.38
543.002	102.38
543.216	105.38
543.43	103.38
543.644	106.38
543.857	124.38
544.071	104.38
544.285	137.38
544.498	108.38
544.712	133.38
544.925	123.38
545.139	126.38
545.352	113.38
545.566	114.38
545.779	130.38
545.993	105.38
546.206	133.38
546.42	110.38
546.633	117.38
546.847	123.38
547.06	137.38
547.274	124.38
547.487	128.38
547.7	110.38
547.914	121.38
548.127	115.38
548.34	121.38
548.554	115.38
548.767	130.38
548.98	118.38
549.193	120.38
549.407	118.38
549.62	115.38
549.833	114.38
550.046	131.38
550.259	120.38
550.473	133.38
550.686	111.38
550.899	115.38
551.112	129.38
551.325	115.38
551.538	117.38
551.751	105.38
551.964	95.38
552.177	94.38
552.39	110.38
552.603	116.38
552.816	119.38
553.029	113.38
553.242	118.38
553.455	125.38
553.667	125.38
553.88	119.38
554.093	117.38
554.306	113.38
554.519	126.38
554.732	87.38
554.944	123.38
555.157	108.38
555.37	103.38
555.583	117.38
555.795	115.38
556.008	117.38
556.221	117.38
556.433	110.38
556.646	103.38
556.859	113.38
557.071	118.38
557.284	117.38
557.496	103.38
557.709	109.38
557.921	107.38
558.134	120.38
558.346	115.38
558.559	119.38
558.771	115.38
558.984	105.38
559.196	97.38
559.409	89.38
559.621	89.38
559.833	109.38
560.046	107.38
560.258	115.38
560.47	111.38
560.683	92.38
560.895	103.38
561.107	113.38
561.32	113.38
561.532	97.38
561.744	110.38
561.956	100.38
562.168	108.38
562.381	116.38
562.593	104.38
562.805	113.38
563.017	103.38
563.229	115.38
563.441	107.38
563.653	115.38
563.865	109.38
564.077	115.38
564.289	92.38
564.501	95.38
564.713	101.38
564.925	115.38
565.137	104.38
565.349	103.38
565.561	105.38
565.773	110.38
565.985	111.38
566.197	87.38
566.408	100.38
566.62	110.38
566.832	98.38
567.044	83.38
567.255	94.38
567.467	96.38
567.679	93.38
567.891	89.38
568.102	112.38
568.314	93.38
568.526	79.38
568.737	86.38
568.949	89.38
569.161	72.38
569.372	86.38
569.584	82.38
569.795	67.38
570.007	94.38
570.218	98.38
570.43	82.38
570.641	100.38
570.853	88.38
571.064	94.38
571.276	85.38
571.487	94.38
571.698	103.38
571.91	93.38
572.121	95.38
572.333	91.38
572.544	88.38
572.755	91.38
572.966	91.38
573.178	80.38
573.389	98.38
573.6	90.38
573.811	59.38
574.023	83.38
574.234	66.38
574.445	80.38
574.656	84.38
574.867	96.38
575.078	95.38
575.289	110.38
575.501	94.38
575.712	85.38
575.923	76.38
576.134	81.38
576.345	89.38
576.556	94.38
576.767	111.38
576.978	77.38
577.188	105.38
577.399	97.38
577.61	89.38
577.821	100.38
578.032	97.38
578.243	75.38
578.454	70.38
578.665	93.38
578.875	72.38
579.086	86.38
579.297	100.38
579.508	82.38
579.718	84.38
579.929	86.38
580.14	87.38
580.35	98.38
580.561	93.38
580.772	78.38
580.982	99.38
581.193	81.38
581.403	79.38
581.614	95.38
581.825	72.38
582.035	81.38
582.246	79.38
582.456	85.38
582.667	89.38
582.877	96.38
583.087	96.38
583.298	89.38
583.508	90.38
583.719	86.38
583.929	105.38
584.139	97.38
584.35	79.38
584.56	102.38
584.77	81.38
584.981	95.38
585.191	87.38
585.401	98.38
585.611	84.38
585.821	92.38
586.032	89.38
586.242	100.38
586.452	88.38
586.662	93.38
586.872	84.38
587.082	78.38
587.292	83.38
587.502	84.38
587.713	93.38
587.923	79.38
588.133	85.38
588.343	86.38
588.553	78.38
588.762	79.38
588.972	89.38
589.182	90.38
589.392	86.38
589.602	94.38
589.812	90.38
590.022	79.38
590.232	93.38
590.441	88.38
590.651	93.38
590.861	98.38
591.071	90.38
591.281	82.38
591.49	85.38
591.7	85.38
591.91	90.38
592.119	95.38
592.329	91.38
592.539	102.38
592.748	85.38
592.958	66.38
593.167	89.38
593.377	93.38
593.587	84.38
593.796	88.38
594.006	81.38
594.215	86.38
594.424	82.38
594.634	95.38
594.843	86.38
595.053	94.38
595.262	85.38
595.472	86.38
595.681	93.38
595.89	90.38
596.1	89.38
596.309	85.38
596.518	76.38
596.727	81.38
596.937	90.38
597.146	100.38
597.355	93.38
597.564	102.38
597.774	77.38
597.983	86.38
598.192	86.38
598.401	91.38
598.61	88.38
598.819	95.38
599.028	94.38
599.237	86.38
599.446	87.38
599.655	93.38
599.864	88.38
600.073	86.38
600.282	99.38
600.491	77.38
600.7	102.38
600.909	82.38
601.118	83.38
601.327	102.38
601.536	92.38
601.745	94.38
601.953	91.38
602.162	91.38
602.371	90.38
602.58	92.38
602.789	85.38
602.997	93.38
603.206	89.38
603.415	97.38
603.623	99.38
603.832	98.38
604.041	91.38
604.249	90.38
604.458	103.38
604.666	80.38
604.875	109.38
605.084	110.38
605.292	95.38
605.501	85.38
605.709	89.38
605.918	87.38
606.126	96.38
606.334	100.38
606.543	96.38
606.751	99.38
606.96	102.38
607.168	105.38
607.376	101.38
607.585	82.38
607.793	92.38
608.001	101.38
608.21	102.38
608.418	100.38
608.626	92.38
608.834	94.38
609.043	97.38
609.251	98.38
609.459	95.38
609.667	87.38
609.875	100.38
610.083	105.38
610.291	100.38
610.499	102.38
610.707	98.38
610.916	105.38
611.124	105.38
611.332	100.38
611.54	110.38
611.748	91.38
611.955	91.38
612.163	102.38
612.371	91.38
612.579	102.38
612.787	109.38
612.995	86.38
613.203	103.38
613.411	103.38
613.618	92.38
613.826	105.38
614.034	83.38
614.242	88.38
614.449	98.38
614.657	107.38
614.865	114.38
615.072	107.38
615.28	98.38
615.488	99.38
615.695	95.38
615.903	94.38
616.111	77.38
616.318	97.38
616.526	76.38
616.733	100.38
616.941	96.38
617.148	91.38
617.356	93.38
617.563	83.38
617.771	97.38
617.978	102.38
618.185	95.38
618.393	99.38
618.6	99.38
618.807	99.38
619.015	99.38
619.222	93.38
619.429	101.38
619.637	92.38
619.844	92.38
620.051	82.38
620.258	100.38
620.466	101.38
620.673	99.38
620.88	103.38
621.087	101.38
621.294	81.38
621.501	102.38
621.708	90.38
621.915	101.38
622.122	96.38
622.329	90.38
622.536	87.38
622.743	103.38
622.95	97.38
623.157	89.38
623.364	107.38
623.571	106.38
623.778	102.38
623.985	84.38
624.192	92.38
624.399	90.38
624.606	118.38
624.812	99.38
625.019	91.38
625.226	108.38
625.433	93.38
625.639	95.38
625.846	87.38
626.053	85.38
626.259	104.38
626.466	87.38
626.673	86.38
626.879	91.38
627.086	116.38
627.293	89.38
627.499	81.38
627.706	82.38
627.912	106.38
628.119	91.38
628.325	90.38
628.532	95.38
628.738	103.38
628.945	92.38
629.151	104.38
629.357	85.38
629.564	101.38
629.77	89.38
629.976	95.38
630.183	105.38
630.389	79.38
630.595	93.38
630.802	105.38
631.008	89.38
631.214	90.38
631.42	95.38
631.627	100.38
631.833	85.38
632.039	89.38
632.245	100.38
632.451	87.38
632.657	99.38
632.863	92.38
633.069	87.38
633.275	77.38
633.481	86.38
633.688	85.38
633.893	111.38
634.099	96.38
634.305	92.38
634.511	108.38
634.717	90.38
634.923	101.38
635.129	86.38
635.335	84.38
635.541	87.38
635.747	89.38
635.952	85.38
636.158	103.38
636.364	101.38
636.57	83.38
636.775	88.38
636.981	93.38
637.187	101.38
637.392	97.38
637.598	92.38
637.804	91.38
638.009	90.38
638.215	85.38
638.421	98.38
638.626	91.38
638.832	94.38
639.037	91.38
639.243	84.38
639.448	115.38
639.654	103.38
639.859	97.38
640.065	99.38
640.27	107.38
640.475	90.38
640.681	93.38
640.886	87.38
641.091	106.38
641.297	99.38
641.502	101.38
641.707	92.38
641.913	89.38
642.118	101.38
642.323	91.38
642.528	98.38
642.733	93.38
642.939	83.38
643.144	81.38
643.349	93.38
643.554	113.38
643.759	113.38
643.964	103.38
644.169	91.38
644.374	94.38
644.579	93.38
644.784	91.38
644.989	89.38
645.194	96.38
645.399	90.38
645.604	81.38
645.809	86.38
646.014	86.38
646.219	94.38
646.423	91.38
646.628	93.38
646.833	92.38
647.038	97.38
647.243	95.38
647.447	97.38
647.652	101.38
647.857	73.38
648.062	80.38
648.266	105.38
648.471	107.38
648.676	89.38
648.88	93.38
649.085	96.38
649.289	102.38
649.494	98.38
649.698	90.38
649.903	89.38
650.107	89.38
650.312	87.38
650.516	85.38
650.721	93.38
650.925	114.38
651.13	94.38
651.334	90.38
651.539	89.38
651.743	84.38
651.947	95.38
652.152	84.38
652.356	97.38
652.56	101.38
652.764	91.38
652.969	92.38
653.173	93.38
653.377	93.38
653.581	95.38
653.785	91.38
653.99	74.38
654.194	90.38
654.398	92.38
654.602	88.38
654.806	78.38
655.01	85.38
655.214	78.38
655.418	92.38
655.622	79.38
655.826	85.38
656.03	95.38
656.234	110.38
656.438	86.38
656.642	100.38
656.846	76.38
657.049	86.38
657.253	83.38
657.457	84.38
657.661	100.38
657.865	78.38
658.068	89.38
658.272	89.38
658.476	84.38
658.68	79.38
658.883	85.38
659.087	88.38
659.291	98.38
659.494	85.38
659.698	95.38
659.901	92.38
660.105	78.38
660.309	76.38
660.512	77.38
660.716	84.38
660.919	76.38
661.123	89.38
661.326	85.38
661.53	86.38
661.733	86.38
661.936	85.38
662.14	85.38
662.343	81.38
662.546	81.38
662.75	90.38
662.953	86.38
663.156	97.38
663.36	75.38
663.563	69.38
663.766	75.38
663.969	101.38
664.173	85.38
664.376	87.38
664.579	85.38
664.782	75.38
664.985	81.38
665.188	80.38
665.391	85.38
665.594	87.38
665.797	85.38
666	89.38
666.203	91.38
666.406	98.38
666.609	81.38
666.812	67.38
667.015	90.38
667.218	77.38
667.421	76.38
667.624	91.38
667.827	81.38
668.03	92.38
668.232	80.38
668.435	77.38
668.638	85.38
668.841	79.38
669.043	89.38
669.246	85.38
669.449	87.38
669.651	79.38
669.854	89.38
670.057	79.38
670.259	78.38
670.462	91.38
670.665	89.38
670.867	100.38
671.07	78.38
671.272	88.38
671.475	90.38
671.677	73.38
671.88	70.38
672.082	80.38
672.284	79.38
672.487	77.38
672.689	89.38
672.892	93.38
