Data from Zn(NO3)2Standard.Agarose3%.GreenCap.LampEnergy10E.O_HRD10591_15-08-49-951.txt Node
Date: Mon Jul 22 15:08:49 EDT 2019
User: cochatt
Spectrometer: HR+D1059
Trigger mode: 1
Integration Time (sec): 1.000000E-1
Scans to average: 1
Electric dark correction enabled: true
Nonlinearity correction enabled: false
Boxcar width: 0
XAxis mode: Wavelengths
Number of Pixels in Spectrum: 2048
>>>>>Begin Spectral Data<<<<<
223.165	-28.12
223.4	-28.12
223.635	-28.12
223.869	-23.12
224.104	-9.12
224.338	-13.12
224.573	-15.12
224.808	-4.12
225.042	-8.12
225.277	-13.12
225.511	4.88
225.746	-0.12
225.98	2.88
226.215	21.88
226.449	12.88
226.683	25.88
226.918	23.88
227.152	21.88
227.387	26.88
227.621	40.88
227.856	49.88
228.09	41.88
228.324	41.88
228.559	55.88
228.793	50.88
229.027	64.88
229.262	66.88
229.496	62.88
229.73	64.88
229.964	63.88
230.199	68.88
230.433	70.88
230.667	71.88
230.901	62.88
231.136	70.88
231.37	57.88
231.604	73.88
231.838	80.88
232.072	81.88
232.306	73.88
232.541	80.88
232.775	80.88
233.009	81.88
233.243	77.88
233.477	77.88
233.711	83.88
233.945	78.88
234.179	82.88
234.413	72.88
234.647	80.88
234.881	80.88
235.115	77.88
235.349	83.88
235.583	77.88
235.817	66.88
236.051	76.88
236.285	74.88
236.519	67.88
236.753	77.88
236.987	74.88
237.221	71.88
237.455	68.88
237.689	88.88
237.922	71.88
238.156	86.88
238.39	69.88
238.624	73.88
238.858	77.88
239.091	71.88
239.325	76.88
239.559	62.88
239.793	70.88
240.027	64.88
240.26	66.88
240.494	78.88
240.728	78.88
240.961	74.88
241.195	81.88
241.429	71.88
241.662	78.88
241.896	68.88
242.13	79.88
242.363	71.88
242.597	72.88
242.83	72.88
243.064	65.88
243.298	82.88
243.531	71.88
243.765	76.88
243.998	76.88
244.232	80.88
244.465	66.88
244.699	74.88
244.932	85.88
245.166	75.88
245.399	83.88
245.633	59.88
245.866	74.88
246.099	64.88
246.333	83.88
246.566	64.88
246.8	64.88
247.033	66.88
247.266	78.88
247.5	72.88
247.733	87.88
247.966	71.88
248.2	78.88
248.433	80.88
248.666	83.88
248.899	84.88
249.133	69.88
249.366	76.88
249.599	81.88
249.832	79.88
250.066	65.88
250.299	64.88
250.532	89.88
250.765	70.88
250.998	73.88
251.231	84.88
251.465	77.88
251.698	82.88
251.931	80.88
252.164	65.88
252.397	68.88
252.63	69.88
252.863	74.88
253.096	63.88
253.329	83.88
253.562	77.88
253.795	80.88
254.028	71.88
254.261	92.88
254.494	77.88
254.727	72.88
254.96	68.88
255.193	73.88
255.426	71.88
255.659	82.88
255.892	72.88
256.124	59.88
256.357	72.88
256.59	75.88
256.823	80.88
257.056	73.88
257.289	69.88
257.521	82.88
257.754	67.88
257.987	80.88
258.22	83.88
258.452	80.88
258.685	83.88
258.918	55.88
259.151	72.88
259.383	78.88
259.616	62.88
259.849	78.88
260.081	77.88
260.314	71.88
260.547	70.88
260.779	70.88
261.012	82.88
261.244	87.88
261.477	92.88
261.71	85.88
261.942	78.88
262.175	77.88
262.407	72.88
262.64	69.88
262.872	70.88
263.105	73.88
263.337	85.88
263.57	77.88
263.802	61.88
264.035	62.88
264.267	91.88
264.499	80.88
264.732	78.88
264.964	81.88
265.197	67.88
265.429	80.88
265.661	76.88
265.894	82.88
266.126	77.88
266.358	66.88
266.591	78.88
266.823	86.88
267.055	71.88
267.287	75.88
267.52	67.88
267.752	87.88
267.984	68.88
268.216	85.88
268.448	77.88
268.681	80.88
268.913	75.88
269.145	82.88
269.377	69.88
269.609	58.88
269.841	63.88
270.073	70.88
270.306	75.88
270.538	84.88
270.77	72.88
271.002	75.88
271.234	76.88
271.466	99.88
271.698	79.88
271.93	96.88
272.162	85.88
272.394	84.88
272.626	83.88
272.858	79.88
273.09	79.88
273.322	93.88
273.553	78.88
273.785	83.88
274.017	68.88
274.249	68.88
274.481	71.88
274.713	81.88
274.945	72.88
275.176	70.88
275.408	78.88
275.64	69.88
275.872	68.88
276.104	65.88
276.335	87.88
276.567	82.88
276.799	85.88
277.031	82.88
277.262	79.88
277.494	69.88
277.726	75.88
277.957	77.88
278.189	71.88
278.421	74.88
278.652	79.88
278.884	88.88
279.115	82.88
279.347	75.88
279.579	71.88
279.81	81.88
280.042	80.88
280.273	73.88
280.505	78.88
280.736	77.88
280.968	80.88
281.199	94.88
281.431	80.88
281.662	78.88
281.894	77.88
282.125	72.88
282.356	80.88
282.588	69.88
282.819	74.88
283.051	86.88
283.282	74.88
283.513	79.88
283.745	74.88
283.976	88.88
284.207	83.88
284.439	81.88
284.67	79.88
284.901	84.88
285.132	74.88
285.364	73.88
285.595	86.88
285.826	93.88
286.057	87.88
286.288	71.88
286.52	75.88
286.751	68.88
286.982	80.88
287.213	82.88
287.444	82.88
287.675	70.88
287.906	83.88
288.138	81.88
288.369	71.88
288.6	82.88
288.831	69.88
289.062	89.88
289.293	86.88
289.524	90.88
289.755	78.88
289.986	81.88
290.217	76.88
290.448	74.88
290.679	81.88
290.91	81.88
291.141	69.88
291.371	93.88
291.602	90.88
291.833	79.88
292.064	85.88
292.295	88.88
292.526	67.88
292.757	82.88
292.987	92.88
293.218	76.88
293.449	72.88
293.68	84.88
293.91	71.88
294.141	84.88
294.372	73.88
294.603	87.88
294.833	84.88
295.064	81.88
295.295	61.88
295.525	81.88
295.756	86.88
295.987	81.88
296.217	101.88
296.448	93.88
296.679	96.88
296.909	84.88
297.14	89.88
297.37	81.88
297.601	80.88
297.831	84.88
298.062	79.88
298.292	80.88
298.523	73.88
298.753	83.88
298.984	70.88
299.214	76.88
299.445	78.88
299.675	71.88
299.905	84.88
300.136	84.88
300.366	82.88
300.597	85.88
300.827	77.88
301.057	73.88
301.288	68.88
301.518	71.88
301.748	90.88
301.979	95.88
302.209	80.88
302.439	84.88
302.669	80.88
302.9	78.88
303.13	92.88
303.36	79.88
303.59	84.88
303.82	79.88
304.051	89.88
304.281	86.88
304.511	90.88
304.741	78.88
304.971	84.88
305.201	89.88
305.431	85.88
305.661	63.88
305.891	80.88
306.121	82.88
306.352	100.88
306.582	73.88
306.812	94.88
307.042	73.88
307.272	74.88
307.502	64.88
307.731	92.88
307.961	88.88
308.191	70.88
308.421	70.88
308.651	70.88
308.881	73.88
309.111	86.88
309.341	82.88
309.571	77.88
309.8	89.88
310.03	72.88
310.26	97.88
310.49	94.88
310.72	70.88
310.949	73.88
311.179	81.88
311.409	79.88
311.639	63.88
311.868	90.88
312.098	80.88
312.328	96.88
312.557	92.88
312.787	79.88
313.017	88.88
313.246	80.88
313.476	75.88
313.706	88.88
313.935	84.88
314.165	76.88
314.394	74.88
314.624	98.88
314.853	74.88
315.083	79.88
315.312	94.88
315.542	80.88
315.771	77.88
316.001	74.88
316.23	80.88
316.46	67.88
316.689	77.88
316.919	83.88
317.148	81.88
317.377	86.88
317.607	78.88
317.836	84.88
318.065	74.88
318.295	78.88
318.524	74.88
318.753	88.88
318.983	82.88
319.212	88.88
319.441	89.88
319.67	76.88
319.9	86.88
320.129	71.88
320.358	82.88
320.587	73.88
320.816	70.88
321.046	67.88
321.275	87.88
321.504	74.88
321.733	85.88
321.962	66.88
322.191	81.88
322.42	72.88
322.649	83.88
322.878	88.88
323.108	78.88
323.337	89.88
323.566	82.88
323.795	75.88
324.024	86.88
324.253	92.88
324.482	87.88
324.71	80.88
324.939	78.88
325.168	85.88
325.397	69.88
325.626	86.88
325.855	90.88
326.084	77.88
326.313	72.88
326.542	75.88
326.77	76.88
326.999	88.88
327.228	91.88
327.457	74.88
327.686	77.88
327.914	76.88
328.143	94.88
328.372	75.88
328.6	78.88
328.829	65.88
329.058	84.88
329.287	80.88
329.515	78.88
329.744	93.88
329.972	81.88
330.201	79.88
330.43	76.88
330.658	73.88
330.887	86.88
331.115	78.88
331.344	93.88
331.572	93.88
331.801	77.88
332.03	84.88
332.258	68.88
332.486	71.88
332.715	86.88
332.943	74.88
333.172	80.88
333.4	92.88
333.629	76.88
333.857	82.88
334.085	78.88
334.314	93.88
334.542	83.88
334.771	69.88
334.999	74.88
335.227	87.88
335.455	68.88
335.684	72.88
335.912	81.88
336.14	76.88
336.369	90.88
336.597	75.88
336.825	82.88
337.053	89.88
337.281	83.88
337.51	76.88
337.738	84.88
337.966	94.88
338.194	81.88
338.422	75.88
338.65	70.88
338.878	74.88
339.106	77.88
339.334	86.88
339.562	84.88
339.79	67.88
340.018	78.88
340.246	73.88
340.474	79.88
340.702	68.88
340.93	77.88
341.158	77.88
341.386	74.88
341.614	83.88
341.842	84.88
342.07	75.88
342.298	81.88
342.526	88.88
342.754	82.88
342.981	73.88
343.209	68.88
343.437	74.88
343.665	71.88
343.893	80.88
344.12	86.88
344.348	71.88
344.576	70.88
344.804	68.88
345.031	85.88
345.259	78.88
345.487	84.88
345.714	81.88
345.942	75.88
346.17	94.88
346.397	90.88
346.625	89.88
346.853	82.88
347.08	81.88
347.308	83.88
347.535	89.88
347.763	73.88
347.99	80.88
348.218	73.88
348.445	82.88
348.673	66.88
348.9	77.88
349.128	95.88
349.355	77.88
349.583	77.88
349.81	85.88
350.037	89.88
350.265	79.88
350.492	73.88
350.72	81.88
350.947	77.88
351.174	81.88
351.402	71.88
351.629	87.88
351.856	72.88
352.083	83.88
352.311	79.88
352.538	81.88
352.765	74.88
352.992	74.88
353.22	78.88
353.447	83.88
353.674	86.88
353.901	85.88
354.128	92.88
354.355	85.88
354.583	71.88
354.81	84.88
355.037	81.88
355.264	68.88
355.491	62.88
355.718	75.88
355.945	80.88
356.172	74.88
356.399	86.88
356.626	69.88
356.853	87.88
357.08	77.88
357.307	78.88
357.534	64.88
357.761	87.88
357.988	82.88
358.215	79.88
358.441	77.88
358.668	82.88
358.895	81.88
359.122	82.88
359.349	69.88
359.576	80.88
359.802	76.88
360.029	71.88
360.256	73.88
360.483	91.88
360.709	71.88
360.936	88.88
361.163	73.88
361.39	81.88
361.616	88.88
361.843	68.88
362.07	54.88
362.296	85.88
362.523	70.88
362.749	77.88
362.976	73.88
363.203	72.88
363.429	77.88
363.656	66.88
363.882	83.88
364.109	96.88
364.335	92.88
364.562	81.88
364.788	93.88
365.015	79.88
365.241	75.88
365.468	73.88
365.694	76.88
365.92	86.88
366.147	86.88
366.373	81.88
366.599	82.88
366.826	74.88
367.052	87.88
367.278	83.88
367.505	83.88
367.731	84.88
367.957	77.88
368.184	74.88
368.41	82.88
368.636	83.88
368.862	84.88
369.089	85.88
369.315	74.88
369.541	78.88
369.767	89.88
369.993	80.88
370.219	87.88
370.445	73.88
370.672	87.88
370.898	89.88
371.124	83.88
371.35	73.88
371.576	80.88
371.802	89.88
372.028	84.88
372.254	81.88
372.48	78.88
372.706	92.88
372.932	88.88
373.158	69.88
373.384	95.88
373.61	101.88
373.835	89.88
374.061	89.88
374.287	89.88
374.513	92.88
374.739	94.88
374.965	74.88
375.191	87.88
375.416	88.88
375.642	83.88
375.868	98.88
376.094	83.88
376.319	73.88
376.545	95.88
376.771	59.88
376.997	75.88
377.222	74.88
377.448	81.88
377.674	82.88
377.899	89.88
378.125	85.88
378.35	83.88
378.576	84.88
378.802	87.88
379.027	74.88
379.253	81.88
379.478	76.88
379.704	82.88
379.929	72.88
380.155	88.88
380.38	89.88
380.606	76.88
380.831	89.88
381.057	90.88
381.282	87.88
381.507	88.88
381.733	72.88
381.958	87.88
382.184	94.88
382.409	90.88
382.634	94.88
382.86	76.88
383.085	76.88
383.31	88.88
383.535	85.88
383.761	86.88
383.986	96.88
384.211	81.88
384.436	82.88
384.662	78.88
384.887	84.88
385.112	77.88
385.337	74.88
385.562	87.88
385.787	87.88
386.013	103.88
386.238	79.88
386.463	83.88
386.688	74.88
386.913	87.88
387.138	84.88
387.363	88.88
387.588	72.88
387.813	78.88
388.038	90.88
388.263	80.88
388.488	92.88
388.713	85.88
388.938	93.88
389.163	70.88
389.387	83.88
389.612	95.88
389.837	81.88
390.062	89.88
390.287	82.88
390.512	99.88
390.736	110.88
390.961	90.88
391.186	90.88
391.411	79.88
391.636	93.88
391.86	87.88
392.085	93.88
392.31	94.88
392.534	91.88
392.759	80.88
392.984	84.88
393.208	92.88
393.433	88.88
393.658	87.88
393.882	87.88
394.107	80.88
394.331	88.88
394.556	97.88
394.78	81.88
395.005	92.88
395.229	75.88
395.454	89.88
395.678	71.88
395.903	83.88
396.127	89.88
396.352	84.88
396.576	87.88
396.801	82.88
397.025	87.88
397.249	91.88
397.474	73.88
397.698	97.88
397.922	88.88
398.147	89.88
398.371	95.88
398.595	93.88
398.82	85.88
399.044	73.88
399.268	99.88
399.492	90.88
399.717	93.88
399.941	93.88
400.165	99.88
400.389	89.88
400.613	81.88
400.837	89.88
401.062	99.88
401.286	84.88
401.51	100.88
401.734	69.88
401.958	84.88
402.182	94.88
402.406	103.88
402.63	101.88
402.854	94.88
403.078	95.88
403.302	83.88
403.526	86.88
403.75	104.88
403.974	89.88
404.198	96.88
404.422	91.88
404.645	97.88
404.869	81.88
405.093	98.88
405.317	84.88
405.541	105.88
405.765	82.88
405.988	99.88
406.212	89.88
406.436	93.88
406.66	98.88
406.883	96.88
407.107	102.88
407.331	98.88
407.555	100.88
407.778	86.88
408.002	86.88
408.226	98.88
408.449	84.88
408.673	93.88
408.896	91.88
409.12	105.88
409.344	104.88
409.567	95.88
409.791	95.88
410.014	91.88
410.238	108.88
410.461	81.88
410.685	102.88
410.908	97.88
411.132	105.88
411.355	89.88
411.578	89.88
411.802	94.88
412.025	86.88
412.249	96.88
412.472	93.88
412.695	99.88
412.919	93.88
413.142	93.88
413.365	85.88
413.589	96.88
413.812	85.88
414.035	105.88
414.258	102.88
414.482	93.88
414.705	88.88
414.928	97.88
415.151	91.88
415.374	91.88
415.597	82.88
415.821	95.88
416.044	113.88
416.267	97.88
416.49	88.88
416.713	101.88
416.936	85.88
417.159	91.88
417.382	107.88
417.605	101.88
417.828	100.88
418.051	114.88
418.274	98.88
418.497	110.88
418.72	112.88
418.943	111.88
419.166	92.88
419.389	94.88
419.611	101.88
419.834	98.88
420.057	104.88
420.28	105.88
420.503	86.88
420.726	91.88
420.948	102.88
421.171	94.88
421.394	100.88
421.617	103.88
421.839	88.88
422.062	104.88
422.285	116.88
422.507	100.88
422.73	113.88
422.953	110.88
423.175	104.88
423.398	100.88
423.621	98.88
423.843	101.88
424.066	106.88
424.288	105.88
424.511	114.88
424.733	107.88
424.956	113.88
425.178	93.88
425.401	110.88
425.623	108.88
425.846	106.88
426.068	100.88
426.291	106.88
426.513	99.88
426.735	103.88
426.958	105.88
427.18	101.88
427.402	102.88
427.625	106.88
427.847	103.88
428.069	99.88
428.292	108.88
428.514	96.88
428.736	101.88
428.958	115.88
429.181	120.88
429.403	104.88
429.625	114.88
429.847	99.88
430.069	78.88
430.292	103.88
430.514	92.88
430.736	99.88
430.958	105.88
431.18	92.88
431.402	97.88
431.624	86.88
431.846	99.88
432.068	80.88
432.29	98.88
432.512	94.88
432.734	101.88
432.956	86.88
433.178	94.88
433.4	98.88
433.622	93.88
433.844	101.88
434.066	86.88
434.287	98.88
434.509	92.88
434.731	87.88
434.953	89.88
435.175	97.88
435.397	107.88
435.618	90.88
435.84	83.88
436.062	86.88
436.284	105.88
436.505	94.88
436.727	89.88
436.949	109.88
437.17	88.88
437.392	87.88
437.614	93.88
437.835	82.88
438.057	102.88
438.278	87.88
438.5	98.88
438.721	119.88
438.943	119.88
439.165	104.88
439.386	98.88
439.608	110.88
439.829	111.88
440.05	119.88
440.272	117.88
440.493	94.88
440.715	101.88
440.936	101.88
441.158	102.88
441.379	105.88
441.6	113.88
441.822	104.88
442.043	100.88
442.264	85.88
442.486	108.88
442.707	105.88
442.928	120.88
443.149	97.88
443.371	104.88
443.592	114.88
443.813	96.88
444.034	100.88
444.255	83.88
444.476	103.88
444.698	82.88
444.919	108.88
445.14	236.88
445.361	182.88
445.582	120.88
445.803	94.88
446.024	92.88
446.245	121.88
446.466	108.88
446.687	102.88
446.908	112.88
447.129	110.88
447.35	109.88
447.571	110.88
447.792	106.88
448.013	117.88
448.234	129.88
448.455	104.88
448.675	95.88
448.896	106.88
449.117	124.88
449.338	104.88
449.559	94.88
449.779	99.88
450	103.88
450.221	103.88
450.442	105.88
450.662	103.88
450.883	93.88
451.104	91.88
451.324	90.88
451.545	108.88
451.766	99.88
451.986	92.88
452.207	98.88
452.428	88.88
452.648	101.88
452.869	88.88
453.089	102.88
453.31	78.88
453.53	96.88
453.751	87.88
453.971	94.88
454.192	81.88
454.412	86.88
454.633	98.88
454.853	94.88
455.073	96.88
455.294	102.88
455.514	98.88
455.734	98.88
455.955	106.88
456.175	102.88
456.395	104.88
456.616	83.88
456.836	92.88
457.056	87.88
457.276	97.88
457.497	96.88
457.717	88.88
457.937	96.88
458.157	84.88
458.377	88.88
458.598	91.88
458.818	108.88
459.038	86.88
459.258	64.88
459.478	72.88
459.698	84.88
459.918	97.88
460.138	82.88
460.358	87.88
460.578	100.88
460.798	80.88
461.018	89.88
461.238	92.88
461.458	96.88
461.678	87.88
461.898	81.88
462.118	104.88
462.338	100.88
462.558	97.88
462.777	85.88
462.997	85.88
463.217	86.88
463.437	87.88
463.657	84.88
463.876	85.88
464.096	87.88
464.316	95.88
464.536	82.88
464.755	90.88
464.975	95.88
465.195	94.88
465.414	101.88
465.634	86.88
465.854	102.88
466.073	95.88
466.293	86.88
466.512	104.88
466.732	96.88
466.951	96.88
467.171	109.88
467.391	98.88
467.61	101.88
467.829	95.88
468.049	103.88
468.268	104.88
468.488	90.88
468.707	114.88
468.927	98.88
469.146	93.88
469.365	108.88
469.585	108.88
469.804	99.88
470.023	101.88
470.243	111.88
470.462	108.88
470.681	111.88
470.901	101.88
471.12	96.88
471.339	102.88
471.558	104.88
471.777	101.88
471.997	107.88
472.216	90.88
472.435	84.88
472.654	99.88
472.873	92.88
473.092	93.88
473.311	90.88
473.53	90.88
473.749	95.88
473.968	96.88
474.187	88.88
474.406	111.88
474.625	106.88
474.844	97.88
475.063	99.88
475.282	94.88
475.501	82.88
475.72	96.88
475.939	113.88
476.158	114.88
476.377	104.88
476.596	92.88
476.814	99.88
477.033	98.88
477.252	79.88
477.471	101.88
477.69	100.88
477.908	106.88
478.127	100.88
478.346	102.88
478.564	95.88
478.783	109.88
479.002	105.88
479.22	101.88
479.439	85.88
479.658	108.88
479.876	97.88
480.095	86.88
480.313	98.88
480.532	105.88
480.751	82.88
480.969	79.88
481.188	82.88
481.406	85.88
481.624	79.88
481.843	88.88
482.061	79.88
482.28	101.88
482.498	100.88
482.717	93.88
482.935	98.88
483.153	117.88
483.372	106.88
483.59	117.88
483.808	104.88
484.027	115.88
484.245	96.88
484.463	106.88
484.681	105.88
484.9	113.88
485.118	97.88
485.336	108.88
485.554	102.88
485.772	87.88
485.99	83.88
486.209	114.88
486.427	96.88
486.645	111.88
486.863	103.88
487.081	99.88
487.299	95.88
487.517	116.88
487.735	102.88
487.953	113.88
488.171	117.88
488.389	127.88
488.607	112.88
488.825	100.88
489.043	98.88
489.261	93.88
489.479	94.88
489.696	115.88
489.914	108.88
490.132	93.88
490.35	112.88
490.568	122.88
490.786	123.88
491.003	126.88
491.221	120.88
491.439	131.88
491.657	129.88
491.874	142.88
492.092	142.88
492.31	156.88
492.527	137.88
492.745	126.88
492.963	126.88
493.18	111.88
493.398	112.88
493.615	119.88
493.833	116.88
494.05	121.88
494.268	127.88
494.485	97.88
494.703	141.88
494.92	134.88
495.138	126.88
495.355	125.88
495.573	129.88
495.79	121.88
496.008	137.88
496.225	96.88
496.442	120.88
496.66	126.88
496.877	119.88
497.094	116.88
497.312	121.88
497.529	103.88
497.746	112.88
497.963	101.88
498.181	116.88
498.398	118.88
498.615	95.88
498.832	111.88
499.049	99.88
499.267	88.88
499.484	111.88
499.701	105.88
499.918	105.88
500.135	103.88
500.352	99.88
500.569	97.88
500.786	106.88
501.003	108.88
501.22	96.88
501.437	98.88
501.654	88.88
501.871	102.88
502.088	96.88
502.305	116.88
502.522	113.88
502.739	89.88
502.956	93.88
503.172	92.88
503.389	96.88
503.606	96.88
503.823	96.88
504.04	113.88
504.256	101.88
504.473	106.88
504.69	102.88
504.907	94.88
505.123	97.88
505.34	98.88
505.557	93.88
505.773	93.88
505.99	94.88
506.207	101.88
506.423	104.88
506.64	104.88
506.856	93.88
507.073	101.88
507.289	90.88
507.506	116.88
507.722	101.88
507.939	105.88
508.155	97.88
508.372	93.88
508.588	110.88
508.805	92.88
509.021	113.88
509.238	107.88
509.454	85.88
509.67	88.88
509.887	97.88
510.103	76.88
510.319	87.88
510.536	94.88
510.752	84.88
510.968	81.88
511.184	70.88
511.401	92.88
511.617	91.88
511.833	77.88
512.049	95.88
512.265	89.88
512.481	90.88
512.698	85.88
512.914	89.88
513.13	85.88
513.346	79.88
513.562	87.88
513.778	80.88
513.994	82.88
514.21	94.88
514.426	81.88
514.642	96.88
514.858	79.88
515.074	84.88
515.29	86.88
515.506	73.88
515.721	83.88
515.937	78.88
516.153	96.88
516.369	81.88
516.585	72.88
516.801	76.88
517.016	89.88
517.232	85.88
517.448	90.88
517.664	88.88
517.879	76.88
518.095	100.88
518.311	97.88
518.527	83.88
518.742	85.88
518.958	91.88
519.173	88.88
519.389	85.88
519.605	98.88
519.82	100.88
520.036	97.88
520.251	89.88
520.467	97.88
520.682	90.88
520.898	104.88
521.113	86.88
521.329	82.88
521.544	90.88
521.76	83.88
521.975	84.88
522.19	89.88
522.406	89.88
522.621	84.88
522.836	111.88
523.052	88.88
523.267	96.88
523.482	95.88
523.698	96.88
523.913	93.88
524.128	90.88
524.343	100.88
524.559	95.88
524.774	97.88
524.989	109.88
525.204	83.88
525.419	102.88
525.634	102.88
525.849	95.88
526.064	112.88
526.28	80.88
526.495	87.88
526.71	95.88
526.925	78.88
527.14	55.88
527.355	72.88
527.57	86.88
527.785	80.88
527.999	96.88
528.214	98.88
528.429	85.88
528.644	86.88
528.859	106.88
529.074	120.88
529.289	108.88
529.503	118.88
529.718	108.88
529.933	107.88
530.148	105.88
530.363	92.88
530.577	93.88
530.792	98.88
531.007	91.88
531.221	61.88
531.436	80.88
531.651	71.88
531.865	80.88
532.08	78.88
532.295	91.88
532.509	86.88
532.724	75.88
532.938	76.88
533.153	85.88
533.367	75.88
533.582	90.88
533.796	109.88
534.011	92.88
534.225	77.88
534.44	72.88
534.654	79.88
534.868	86.88
535.083	85.88
535.297	90.88
535.511	90.88
535.726	91.88
535.94	86.88
536.154	98.88
536.369	86.88
536.583	93.88
536.797	86.88
537.011	78.88
537.225	82.88
537.44	82.88
537.654	77.88
537.868	80.88
538.082	74.88
538.296	84.88
538.51	95.88
538.724	97.88
538.938	89.88
539.153	113.88
539.367	112.88
539.581	90.88
539.795	88.88
540.009	81.88
540.222	94.88
540.436	119.88
540.65	87.88
540.864	94.88
541.078	99.88
541.292	117.88
541.506	121.88
541.72	127.88
541.934	113.88
542.147	136.88
542.361	125.88
542.575	116.88
542.789	120.88
543.002	109.88
543.216	98.88
543.43	103.88
543.644	105.88
543.857	110.88
544.071	121.88
544.285	113.88
544.498	119.88
544.712	108.88
544.925	105.88
545.139	105.88
545.352	122.88
545.566	114.88
545.779	119.88
545.993	113.88
546.206	129.88
546.42	122.88
546.633	132.88
546.847	115.88
547.06	127.88
547.274	132.88
547.487	133.88
547.7	133.88
547.914	124.88
548.127	114.88
548.34	110.88
548.554	113.88
548.767	115.88
548.98	113.88
549.193	128.88
549.407	108.88
549.62	126.88
549.833	121.88
550.046	108.88
550.259	104.88
550.473	116.88
550.686	126.88
550.899	109.88
551.112	105.88
551.325	124.88
551.538	95.88
551.751	100.88
551.964	100.88
552.177	111.88
552.39	102.88
552.603	120.88
552.816	98.88
553.029	104.88
553.242	110.88
553.455	103.88
553.667	102.88
553.88	110.88
554.093	105.88
554.306	120.88
554.519	99.88
554.732	112.88
554.944	117.88
555.157	114.88
555.37	94.88
555.583	111.88
555.795	112.88
556.008	110.88
556.221	96.88
556.433	106.88
556.646	108.88
556.859	100.88
557.071	116.88
557.284	94.88
557.496	105.88
557.709	112.88
557.921	114.88
558.134	105.88
558.346	116.88
558.559	120.88
558.771	96.88
558.984	103.88
559.196	113.88
559.409	92.88
559.621	110.88
559.833	100.88
560.046	99.88
560.258	113.88
560.47	112.88
560.683	113.88
560.895	94.88
561.107	113.88
561.32	95.88
561.532	108.88
561.744	105.88
561.956	87.88
562.168	103.88
562.381	114.88
562.593	100.88
562.805	108.88
563.017	96.88
563.229	106.88
563.441	115.88
563.653	97.88
563.865	95.88
564.077	93.88
564.289	98.88
564.501	91.88
564.713	93.88
564.925	93.88
565.137	101.88
565.349	96.88
565.561	100.88
565.773	109.88
565.985	100.88
566.197	113.88
566.408	97.88
566.62	101.88
566.832	97.88
567.044	69.88
567.255	94.88
567.467	104.88
567.679	90.88
567.891	91.88
568.102	91.88
568.314	91.88
568.526	81.88
568.737	78.88
568.949	66.88
569.161	83.88
569.372	89.88
569.584	79.88
569.795	84.88
570.007	74.88
570.218	80.88
570.43	81.88
570.641	89.88
570.853	83.88
571.064	95.88
571.276	97.88
571.487	101.88
571.698	98.88
571.91	96.88
572.121	97.88
572.333	80.88
572.544	83.88
572.755	95.88
572.966	89.88
573.178	81.88
573.389	77.88
573.6	88.88
573.811	89.88
574.023	72.88
574.234	104.88
574.445	94.88
574.656	90.88
574.867	97.88
575.078	96.88
575.289	80.88
575.501	72.88
575.712	72.88
575.923	87.88
576.134	89.88
576.345	85.88
576.556	95.88
576.767	89.88
576.978	101.88
577.188	84.88
577.399	95.88
577.61	79.88
577.821	76.88
578.032	85.88
578.243	84.88
578.454	90.88
578.665	76.88
578.875	73.88
579.086	87.88
579.297	77.88
579.508	87.88
579.718	89.88
579.929	85.88
580.14	85.88
580.35	81.88
580.561	92.88
580.772	76.88
580.982	72.88
581.193	79.88
581.403	80.88
581.614	92.88
581.825	89.88
582.035	92.88
582.246	93.88
582.456	95.88
582.667	96.88
582.877	81.88
583.087	83.88
583.298	93.88
583.508	92.88
583.719	84.88
583.929	83.88
584.139	82.88
584.35	84.88
584.56	90.88
584.77	82.88
584.981	81.88
585.191	80.88
585.401	73.88
585.611	78.88
585.821	77.88
586.032	83.88
586.242	79.88
586.452	74.88
586.662	71.88
586.872	86.88
587.082	74.88
587.292	84.88
587.502	82.88
587.713	78.88
587.923	70.88
588.133	68.88
588.343	94.88
588.553	88.88
588.762	74.88
588.972	77.88
589.182	86.88
589.392	64.88
589.602	78.88
589.812	64.88
590.022	80.88
590.232	78.88
590.441	73.88
590.651	74.88
590.861	82.88
591.071	81.88
591.281	84.88
591.49	92.88
591.7	70.88
591.91	69.88
592.119	78.88
592.329	88.88
592.539	85.88
592.748	76.88
592.958	77.88
593.167	73.88
593.377	81.88
593.587	83.88
593.796	74.88
594.006	88.88
594.215	88.88
594.424	85.88
594.634	93.88
594.843	79.88
595.053	92.88
595.262	80.88
595.472	76.88
595.681	70.88
595.89	82.88
596.1	86.88
596.309	81.88
596.518	82.88
596.727	88.88
596.937	72.88
597.146	89.88
597.355	81.88
597.564	85.88
597.774	70.88
597.983	95.88
598.192	91.88
598.401	81.88
598.61	81.88
598.819	71.88
599.028	85.88
599.237	88.88
599.446	88.88
599.655	87.88
599.864	94.88
600.073	77.88
600.282	90.88
600.491	85.88
600.7	74.88
600.909	69.88
601.118	90.88
601.327	94.88
601.536	90.88
601.745	87.88
601.953	81.88
602.162	98.88
602.371	103.88
602.58	93.88
602.789	92.88
602.997	93.88
603.206	102.88
603.415	94.88
603.623	95.88
603.832	82.88
604.041	78.88
604.249	86.88
604.458	88.88
604.666	86.88
604.875	99.88
605.084	90.88
605.292	103.88
605.501	100.88
605.709	94.88
605.918	88.88
606.126	86.88
606.334	84.88
606.543	109.88
606.751	91.88
606.96	94.88
607.168	90.88
607.376	101.88
607.585	93.88
607.793	103.88
608.001	88.88
608.21	99.88
608.418	103.88
608.626	87.88
608.834	93.88
609.043	108.88
609.251	89.88
609.459	97.88
609.667	81.88
609.875	91.88
610.083	94.88
610.291	93.88
610.499	101.88
610.707	88.88
610.916	100.88
611.124	105.88
611.332	75.88
611.54	88.88
611.748	100.88
611.955	93.88
612.163	82.88
612.371	90.88
612.579	88.88
612.787	97.88
612.995	88.88
613.203	98.88
613.411	103.88
613.618	102.88
613.826	85.88
614.034	95.88
614.242	87.88
614.449	77.88
614.657	90.88
614.865	101.88
615.072	103.88
615.28	107.88
615.488	91.88
615.695	91.88
615.903	82.88
616.111	86.88
616.318	104.88
616.526	99.88
616.733	96.88
616.941	98.88
617.148	93.88
617.356	89.88
617.563	89.88
617.771	79.88
617.978	99.88
618.185	92.88
618.393	87.88
618.6	95.88
618.807	97.88
619.015	90.88
619.222	95.88
619.429	88.88
619.637	84.88
619.844	98.88
620.051	88.88
620.258	87.88
620.466	87.88
620.673	88.88
620.88	94.88
621.087	97.88
621.294	87.88
621.501	79.88
621.708	98.88
621.915	101.88
622.122	89.88
622.329	84.88
622.536	100.88
622.743	81.88
622.95	85.88
623.157	90.88
623.364	76.88
623.571	90.88
623.778	85.88
623.985	81.88
624.192	84.88
624.399	94.88
624.606	95.88
624.812	74.88
625.019	102.88
625.226	90.88
625.433	86.88
625.639	96.88
625.846	66.88
626.053	85.88
626.259	74.88
626.466	77.88
626.673	80.88
626.879	89.88
627.086	83.88
627.293	86.88
627.499	89.88
627.706	87.88
627.912	84.88
628.119	104.88
628.325	92.88
628.532	100.88
628.738	92.88
628.945	96.88
629.151	86.88
629.357	92.88
629.564	92.88
629.77	80.88
629.976	89.88
630.183	82.88
630.389	73.88
630.595	74.88
630.802	95.88
631.008	93.88
631.214	84.88
631.42	86.88
631.627	92.88
631.833	87.88
632.039	85.88
632.245	99.88
632.451	96.88
632.657	83.88
632.863	89.88
633.069	93.88
633.275	85.88
633.481	100.88
633.688	92.88
633.893	71.88
634.099	68.88
634.305	81.88
634.511	87.88
634.717	102.88
634.923	88.88
635.129	85.88
635.335	81.88
635.541	85.88
635.747	80.88
635.952	88.88
636.158	76.88
636.364	93.88
636.57	96.88
636.775	95.88
636.981	85.88
637.187	95.88
637.392	101.88
637.598	89.88
637.804	93.88
638.009	78.88
638.215	69.88
638.421	81.88
638.626	89.88
638.832	96.88
639.037	96.88
639.243	88.88
639.448	91.88
639.654	96.88
639.859	99.88
640.065	81.88
640.27	83.88
640.475	84.88
640.681	81.88
640.886	86.88
641.091	96.88
641.297	81.88
641.502	80.88
641.707	87.88
641.913	91.88
642.118	90.88
642.323	81.88
642.528	90.88
642.733	75.88
642.939	87.88
643.144	93.88
643.349	91.88
643.554	85.88
643.759	70.88
643.964	93.88
644.169	83.88
644.374	78.88
644.579	85.88
644.784	89.88
644.989	78.88
645.194	96.88
645.399	102.88
645.604	88.88
645.809	79.88
646.014	80.88
646.219	74.88
646.423	92.88
646.628	102.88
646.833	89.88
647.038	89.88
647.243	86.88
647.447	94.88
647.652	73.88
647.857	85.88
648.062	78.88
648.266	84.88
648.471	99.88
648.676	79.88
648.88	82.88
649.085	95.88
649.289	82.88
649.494	78.88
649.698	80.88
649.903	78.88
650.107	74.88
650.312	79.88
650.516	82.88
650.721	88.88
650.925	98.88
651.13	73.88
651.334	79.88
651.539	86.88
651.743	70.88
651.947	78.88
652.152	81.88
652.356	94.88
652.56	91.88
652.764	91.88
652.969	81.88
653.173	78.88
653.377	100.88
653.581	82.88
653.785	80.88
653.99	79.88
654.194	88.88
654.398	79.88
654.602	103.88
654.806	74.88
655.01	75.88
655.214	78.88
655.418	80.88
655.622	79.88
655.826	86.88
656.03	82.88
656.234	87.88
656.438	81.88
656.642	85.88
656.846	66.88
657.049	84.88
657.253	76.88
657.457	86.88
657.661	94.88
657.865	70.88
658.068	75.88
658.272	81.88
658.476	86.88
658.68	86.88
658.883	82.88
659.087	70.88
659.291	81.88
659.494	76.88
659.698	78.88
659.901	73.88
660.105	84.88
660.309	80.88
660.512	75.88
660.716	71.88
660.919	76.88
661.123	90.88
661.326	92.88
661.53	75.88
661.733	83.88
661.936	73.88
662.14	68.88
662.343	80.88
662.546	83.88
662.75	83.88
662.953	83.88
663.156	71.88
663.36	74.88
663.563	70.88
663.766	82.88
663.969	89.88
664.173	81.88
664.376	74.88
664.579	87.88
664.782	73.88
664.985	91.88
665.188	82.88
665.391	81.88
665.594	72.88
665.797	82.88
666	61.88
666.203	79.88
666.406	79.88
666.609	72.88
666.812	87.88
667.015	77.88
667.218	67.88
667.421	85.88
667.624	87.88
667.827	68.88
668.03	72.88
668.232	82.88
668.435	73.88
668.638	88.88
668.841	68.88
669.043	78.88
669.246	75.88
669.449	84.88
669.651	77.88
669.854	81.88
670.057	63.88
670.259	68.88
670.462	75.88
670.665	72.88
670.867	66.88
671.07	88.88
671.272	89.88
671.475	86.88
671.677	80.88
671.88	65.88
672.082	68.88
672.284	74.88
672.487	86.88
672.689	87.88
672.892	72.88
