Data from Zn(NO3)2Standard.Agarose3%.GreenCap.LampEnergy5.5.E.O_HRD10591_15-02-01-768.txt Node
Date: Mon Jul 22 15:02:01 EDT 2019
User: cochatt
Spectrometer: HR+D1059
Trigger mode: 1
Integration Time (sec): 1.000000E-1
Scans to average: 1
Electric dark correction enabled: true
Nonlinearity correction enabled: false
Boxcar width: 0
XAxis mode: Wavelengths
Number of Pixels in Spectrum: 2048
>>>>>Begin Spectral Data<<<<<
223.165	-11.62
223.4	-11.62
223.635	-11.62
223.869	-15.62
224.104	-31.62
224.338	-12.62
224.573	-6.62
224.808	-19.62
225.042	-3.62
225.277	-6.62
225.511	0.38
225.746	12.38
225.98	6.38
226.215	14.38
226.449	17.38
226.683	19.38
226.918	10.38
227.152	27.38
227.387	34.38
227.621	43.38
227.856	50.38
228.09	53.38
228.324	59.38
228.559	55.38
228.793	59.38
229.027	61.38
229.262	56.38
229.496	60.38
229.73	67.38
229.964	69.38
230.199	73.38
230.433	77.38
230.667	64.38
230.901	85.38
231.136	76.38
231.37	75.38
231.604	77.38
231.838	83.38
232.072	83.38
232.306	85.38
232.541	85.38
232.775	76.38
233.009	65.38
233.243	81.38
233.477	75.38
233.711	81.38
233.945	82.38
234.179	73.38
234.413	78.38
234.647	77.38
234.881	78.38
235.115	91.38
235.349	86.38
235.583	80.38
235.817	74.38
236.051	79.38
236.285	75.38
236.519	88.38
236.753	80.38
236.987	72.38
237.221	65.38
237.455	80.38
237.689	81.38
237.922	73.38
238.156	82.38
238.39	80.38
238.624	74.38
238.858	64.38
239.091	88.38
239.325	81.38
239.559	77.38
239.793	61.38
240.027	59.38
240.26	63.38
240.494	79.38
240.728	81.38
240.961	74.38
241.195	82.38
241.429	74.38
241.662	67.38
241.896	78.38
242.13	76.38
242.363	69.38
242.597	59.38
242.83	73.38
243.064	76.38
243.298	80.38
243.531	77.38
243.765	66.38
243.998	72.38
244.232	70.38
244.465	79.38
244.699	75.38
244.932	78.38
245.166	73.38
245.399	58.38
245.633	80.38
245.866	70.38
246.099	86.38
246.333	77.38
246.566	83.38
246.8	82.38
247.033	74.38
247.266	77.38
247.5	79.38
247.733	65.38
247.966	68.38
248.2	77.38
248.433	71.38
248.666	84.38
248.899	64.38
249.133	66.38
249.366	89.38
249.599	84.38
249.832	72.38
250.066	82.38
250.299	82.38
250.532	88.38
250.765	90.38
250.998	69.38
251.231	58.38
251.465	86.38
251.698	76.38
251.931	82.38
252.164	73.38
252.397	85.38
252.63	71.38
252.863	87.38
253.096	75.38
253.329	84.38
253.562	70.38
253.795	80.38
254.028	80.38
254.261	82.38
254.494	77.38
254.727	79.38
254.96	79.38
255.193	76.38
255.426	83.38
255.659	84.38
255.892	80.38
256.124	73.38
256.357	86.38
256.59	88.38
256.823	92.38
257.056	77.38
257.289	78.38
257.521	86.38
257.754	80.38
257.987	85.38
258.22	77.38
258.452	80.38
258.685	77.38
258.918	79.38
259.151	99.38
259.383	71.38
259.616	76.38
259.849	81.38
260.081	72.38
260.314	60.38
260.547	84.38
260.779	60.38
261.012	83.38
261.244	76.38
261.477	81.38
261.71	80.38
261.942	75.38
262.175	65.38
262.407	89.38
262.64	68.38
262.872	72.38
263.105	79.38
263.337	86.38
263.57	72.38
263.802	78.38
264.035	96.38
264.267	77.38
264.499	84.38
264.732	83.38
264.964	77.38
265.197	75.38
265.429	68.38
265.661	97.38
265.894	67.38
266.126	84.38
266.358	56.38
266.591	76.38
266.823	93.38
267.055	77.38
267.287	84.38
267.52	84.38
267.752	95.38
267.984	83.38
268.216	86.38
268.448	72.38
268.681	80.38
268.913	79.38
269.145	80.38
269.377	76.38
269.609	83.38
269.841	86.38
270.073	84.38
270.306	90.38
270.538	86.38
270.77	82.38
271.002	87.38
271.234	72.38
271.466	75.38
271.698	82.38
271.93	83.38
272.162	96.38
272.394	87.38
272.626	88.38
272.858	80.38
273.09	76.38
273.322	79.38
273.553	76.38
273.785	85.38
274.017	83.38
274.249	83.38
274.481	86.38
274.713	82.38
274.945	73.38
275.176	95.38
275.408	70.38
275.64	75.38
275.872	71.38
276.104	81.38
276.335	91.38
276.567	87.38
276.799	72.38
277.031	67.38
277.262	89.38
277.494	86.38
277.726	88.38
277.957	89.38
278.189	85.38
278.421	89.38
278.652	82.38
278.884	81.38
279.115	92.38
279.347	75.38
279.579	97.38
279.81	77.38
280.042	83.38
280.273	93.38
280.505	80.38
280.736	76.38
280.968	88.38
281.199	82.38
281.431	77.38
281.662	94.38
281.894	94.38
282.125	71.38
282.356	74.38
282.588	91.38
282.819	87.38
283.051	84.38
283.282	77.38
283.513	90.38
283.745	94.38
283.976	86.38
284.207	97.38
284.439	76.38
284.67	70.38
284.901	70.38
285.132	76.38
285.364	89.38
285.595	97.38
285.826	96.38
286.057	80.38
286.288	83.38
286.52	90.38
286.751	99.38
286.982	86.38
287.213	74.38
287.444	88.38
287.675	81.38
287.906	86.38
288.138	76.38
288.369	78.38
288.6	94.38
288.831	81.38
289.062	79.38
289.293	73.38
289.524	95.38
289.755	85.38
289.986	86.38
290.217	84.38
290.448	81.38
290.679	83.38
290.91	85.38
291.141	83.38
291.371	88.38
291.602	84.38
291.833	84.38
292.064	73.38
292.295	79.38
292.526	70.38
292.757	77.38
292.987	82.38
293.218	64.38
293.449	80.38
293.68	80.38
293.91	87.38
294.141	96.38
294.372	89.38
294.603	71.38
294.833	75.38
295.064	84.38
295.295	55.38
295.525	102.38
295.756	86.38
295.987	90.38
296.217	86.38
296.448	75.38
296.679	75.38
296.909	83.38
297.14	84.38
297.37	88.38
297.601	93.38
297.831	82.38
298.062	98.38
298.292	88.38
298.523	89.38
298.753	79.38
298.984	78.38
299.214	94.38
299.445	85.38
299.675	76.38
299.905	69.38
300.136	86.38
300.366	99.38
300.597	86.38
300.827	93.38
301.057	81.38
301.288	67.38
301.518	85.38
301.748	78.38
301.979	86.38
302.209	77.38
302.439	74.38
302.669	64.38
302.9	80.38
303.13	76.38
303.36	77.38
303.59	85.38
303.82	74.38
304.051	87.38
304.281	83.38
304.511	88.38
304.741	81.38
304.971	87.38
305.201	88.38
305.431	99.38
305.661	84.38
305.891	78.38
306.121	93.38
306.352	90.38
306.582	93.38
306.812	96.38
307.042	91.38
307.272	86.38
307.502	76.38
307.731	102.38
307.961	81.38
308.191	86.38
308.421	86.38
308.651	86.38
308.881	82.38
309.111	83.38
309.341	84.38
309.571	93.38
309.8	85.38
310.03	77.38
310.26	100.38
310.49	87.38
310.72	86.38
310.949	91.38
311.179	75.38
311.409	71.38
311.639	85.38
311.868	84.38
312.098	81.38
312.328	81.38
312.557	89.38
312.787	85.38
313.017	77.38
313.246	77.38
313.476	79.38
313.706	73.38
313.935	83.38
314.165	74.38
314.394	92.38
314.624	78.38
314.853	89.38
315.083	87.38
315.312	91.38
315.542	76.38
315.771	85.38
316.001	84.38
316.23	88.38
316.46	82.38
316.689	73.38
316.919	81.38
317.148	91.38
317.377	101.38
317.607	78.38
317.836	71.38
318.065	84.38
318.295	83.38
318.524	80.38
318.753	84.38
318.983	72.38
319.212	79.38
319.441	74.38
319.67	71.38
319.9	77.38
320.129	78.38
320.358	78.38
320.587	86.38
320.816	86.38
321.046	83.38
321.275	82.38
321.504	79.38
321.733	89.38
321.962	84.38
322.191	85.38
322.42	92.38
322.649	88.38
322.878	84.38
323.108	82.38
323.337	75.38
323.566	68.38
323.795	77.38
324.024	82.38
324.253	73.38
324.482	83.38
324.71	97.38
324.939	82.38
325.168	94.38
325.397	83.38
325.626	79.38
325.855	79.38
326.084	76.38
326.313	91.38
326.542	81.38
326.77	90.38
326.999	89.38
327.228	88.38
327.457	80.38
327.686	99.38
327.914	72.38
328.143	85.38
328.372	77.38
328.6	88.38
328.829	83.38
329.058	76.38
329.287	79.38
329.515	83.38
329.744	90.38
329.972	82.38
330.201	72.38
330.43	72.38
330.658	79.38
330.887	73.38
331.115	81.38
331.344	74.38
331.572	81.38
331.801	97.38
332.03	83.38
332.258	98.38
332.486	97.38
332.715	86.38
332.943	76.38
333.172	75.38
333.4	78.38
333.629	92.38
333.857	92.38
334.085	79.38
334.314	67.38
334.542	73.38
334.771	76.38
334.999	76.38
335.227	91.38
335.455	78.38
335.684	87.38
335.912	63.38
336.14	87.38
336.369	75.38
336.597	87.38
336.825	84.38
337.053	86.38
337.281	81.38
337.51	84.38
337.738	83.38
337.966	85.38
338.194	83.38
338.422	92.38
338.65	81.38
338.878	88.38
339.106	89.38
339.334	82.38
339.562	75.38
339.79	81.38
340.018	74.38
340.246	71.38
340.474	77.38
340.702	100.38
340.93	99.38
341.158	89.38
341.386	76.38
341.614	77.38
341.842	81.38
342.07	74.38
342.298	72.38
342.526	73.38
342.754	81.38
342.981	74.38
343.209	79.38
343.437	91.38
343.665	88.38
343.893	69.38
344.12	91.38
344.348	81.38
344.576	79.38
344.804	92.38
345.031	91.38
345.259	77.38
345.487	68.38
345.714	82.38
345.942	74.38
346.17	79.38
346.397	90.38
346.625	80.38
346.853	84.38
347.08	78.38
347.308	96.38
347.535	99.38
347.763	84.38
347.99	71.38
348.218	78.38
348.445	83.38
348.673	95.38
348.9	90.38
349.128	96.38
349.355	95.38
349.583	99.38
349.81	76.38
350.037	82.38
350.265	83.38
350.492	82.38
350.72	80.38
350.947	83.38
351.174	69.38
351.402	77.38
351.629	78.38
351.856	82.38
352.083	88.38
352.311	81.38
352.538	84.38
352.765	83.38
352.992	87.38
353.22	80.38
353.447	83.38
353.674	89.38
353.901	85.38
354.128	87.38
354.355	64.38
354.583	95.38
354.81	71.38
355.037	75.38
355.264	91.38
355.491	83.38
355.718	84.38
355.945	90.38
356.172	98.38
356.399	59.38
356.626	75.38
356.853	81.38
357.08	79.38
357.307	69.38
357.534	81.38
357.761	81.38
357.988	74.38
358.215	80.38
358.441	88.38
358.668	90.38
358.895	81.38
359.122	73.38
359.349	89.38
359.576	95.38
359.802	69.38
360.029	76.38
360.256	81.38
360.483	83.38
360.709	103.38
360.936	84.38
361.163	84.38
361.39	74.38
361.616	86.38
361.843	91.38
362.07	76.38
362.296	81.38
362.523	74.38
362.749	76.38
362.976	82.38
363.203	90.38
363.429	83.38
363.656	86.38
363.882	65.38
364.109	94.38
364.335	76.38
364.562	72.38
364.788	79.38
365.015	95.38
365.241	82.38
365.468	87.38
365.694	79.38
365.92	95.38
366.147	90.38
366.373	73.38
366.599	81.38
366.826	82.38
367.052	76.38
367.278	80.38
367.505	92.38
367.731	93.38
367.957	79.38
368.184	76.38
368.41	77.38
368.636	78.38
368.862	76.38
369.089	79.38
369.315	79.38
369.541	85.38
369.767	88.38
369.993	77.38
370.219	70.38
370.445	81.38
370.672	81.38
370.898	65.38
371.124	76.38
371.35	88.38
371.576	100.38
371.802	73.38
372.028	82.38
372.254	81.38
372.48	82.38
372.706	96.38
372.932	80.38
373.158	75.38
373.384	71.38
373.61	89.38
373.835	104.38
374.061	85.38
374.287	76.38
374.513	70.38
374.739	93.38
374.965	81.38
375.191	77.38
375.416	81.38
375.642	95.38
375.868	76.38
376.094	89.38
376.319	85.38
376.545	88.38
376.771	101.38
376.997	81.38
377.222	73.38
377.448	86.38
377.674	97.38
377.899	86.38
378.125	81.38
378.35	88.38
378.576	86.38
378.802	88.38
379.027	97.38
379.253	93.38
379.478	84.38
379.704	75.38
379.929	91.38
380.155	71.38
380.38	73.38
380.606	76.38
380.831	78.38
381.057	93.38
381.282	76.38
381.507	87.38
381.733	76.38
381.958	85.38
382.184	93.38
382.409	89.38
382.634	78.38
382.86	77.38
383.085	87.38
383.31	79.38
383.535	83.38
383.761	95.38
383.986	102.38
384.211	74.38
384.436	96.38
384.662	85.38
384.887	76.38
385.112	91.38
385.337	75.38
385.562	75.38
385.787	83.38
386.013	80.38
386.238	65.38
386.463	81.38
386.688	69.38
386.913	68.38
387.138	79.38
387.363	87.38
387.588	81.38
387.813	88.38
388.038	82.38
388.263	88.38
388.488	85.38
388.713	73.38
388.938	77.38
389.163	74.38
389.387	83.38
389.612	74.38
389.837	103.38
390.062	67.38
390.287	79.38
390.512	79.38
390.736	88.38
390.961	108.38
391.186	89.38
391.411	89.38
391.636	95.38
391.86	87.38
392.085	81.38
392.31	88.38
392.534	88.38
392.759	82.38
392.984	88.38
393.208	88.38
393.433	83.38
393.658	88.38
393.882	87.38
394.107	82.38
394.331	75.38
394.556	92.38
394.78	80.38
395.005	89.38
395.229	74.38
395.454	81.38
395.678	83.38
395.903	90.38
396.127	79.38
396.352	65.38
396.576	87.38
396.801	79.38
397.025	74.38
397.249	72.38
397.474	80.38
397.698	68.38
397.922	82.38
398.147	88.38
398.371	85.38
398.595	81.38
398.82	88.38
399.044	98.38
399.268	82.38
399.492	69.38
399.717	85.38
399.941	82.38
400.165	94.38
400.389	74.38
400.613	78.38
400.837	90.38
401.062	94.38
401.286	91.38
401.51	78.38
401.734	78.38
401.958	71.38
402.182	95.38
402.406	76.38
402.63	84.38
402.854	85.38
403.078	83.38
403.302	79.38
403.526	69.38
403.75	88.38
403.974	85.38
404.198	84.38
404.422	86.38
404.645	85.38
404.869	81.38
405.093	80.38
405.317	76.38
405.541	85.38
405.765	90.38
405.988	88.38
406.212	83.38
406.436	78.38
406.66	87.38
406.883	84.38
407.107	95.38
407.331	86.38
407.555	85.38
407.778	87.38
408.002	90.38
408.226	88.38
408.449	76.38
408.673	65.38
408.896	86.38
409.12	80.38
409.344	102.38
409.567	87.38
409.791	71.38
410.014	89.38
410.238	96.38
410.461	73.38
410.685	93.38
410.908	63.38
411.132	91.38
411.355	73.38
411.578	95.38
411.802	80.38
412.025	91.38
412.249	97.38
412.472	84.38
412.695	91.38
412.919	81.38
413.142	85.38
413.365	93.38
413.589	85.38
413.812	76.38
414.035	108.38
414.258	87.38
414.482	78.38
414.705	84.38
414.928	94.38
415.151	84.38
415.374	85.38
415.597	92.38
415.821	88.38
416.044	87.38
416.267	89.38
416.49	84.38
416.713	80.38
416.936	84.38
417.159	89.38
417.382	102.38
417.605	83.38
417.828	85.38
418.051	72.38
418.274	87.38
418.497	88.38
418.72	84.38
418.943	103.38
419.166	99.38
419.389	82.38
419.611	91.38
419.834	98.38
420.057	95.38
420.28	83.38
420.503	86.38
420.726	99.38
420.948	95.38
421.171	77.38
421.394	85.38
421.617	83.38
421.839	85.38
422.062	100.38
422.285	86.38
422.507	92.38
422.73	84.38
422.953	87.38
423.175	99.38
423.398	88.38
423.621	81.38
423.843	81.38
424.066	97.38
424.288	88.38
424.511	98.38
424.733	97.38
424.956	82.38
425.178	78.38
425.401	96.38
425.623	94.38
425.846	95.38
426.068	78.38
426.291	74.38
426.513	75.38
426.735	96.38
426.958	81.38
427.18	89.38
427.402	83.38
427.625	77.38
427.847	79.38
428.069	84.38
428.292	81.38
428.514	98.38
428.736	82.38
428.958	88.38
429.181	83.38
429.403	77.38
429.625	75.38
429.847	97.38
430.069	83.38
430.292	89.38
430.514	92.38
430.736	89.38
430.958	88.38
431.18	62.38
431.402	74.38
431.624	80.38
431.846	79.38
432.068	81.38
432.29	81.38
432.512	90.38
432.734	78.38
432.956	90.38
433.178	79.38
433.4	93.38
433.622	103.38
433.844	95.38
434.066	95.38
434.287	87.38
434.509	84.38
434.731	86.38
434.953	76.38
435.175	83.38
435.397	81.38
435.618	87.38
435.84	75.38
436.062	79.38
436.284	75.38
436.505	85.38
436.727	89.38
436.949	91.38
437.17	72.38
437.392	85.38
437.614	86.38
437.835	100.38
438.057	76.38
438.278	83.38
438.5	74.38
438.721	90.38
438.943	84.38
439.165	80.38
439.386	91.38
439.608	88.38
439.829	88.38
440.05	111.38
440.272	91.38
440.493	84.38
440.715	83.38
440.936	108.38
441.158	105.38
441.379	79.38
441.6	77.38
441.822	84.38
442.043	96.38
442.264	83.38
442.486	76.38
442.707	88.38
442.928	71.38
443.149	93.38
443.371	85.38
443.592	93.38
443.813	89.38
444.034	92.38
444.255	92.38
444.476	97.38
444.698	89.38
444.919	95.38
445.14	218.38
445.361	155.38
445.582	104.38
445.803	81.38
446.024	95.38
446.245	95.38
446.466	100.38
446.687	89.38
446.908	89.38
447.129	94.38
447.35	96.38
447.571	81.38
447.792	103.38
448.013	77.38
448.234	83.38
448.455	89.38
448.675	92.38
448.896	88.38
449.117	83.38
449.338	78.38
449.559	88.38
449.779	87.38
450	99.38
450.221	94.38
450.442	92.38
450.662	99.38
450.883	91.38
451.104	79.38
451.324	99.38
451.545	68.38
451.766	84.38
451.986	91.38
452.207	91.38
452.428	93.38
452.648	81.38
452.869	92.38
453.089	86.38
453.31	87.38
453.53	79.38
453.751	98.38
453.971	76.38
454.192	77.38
454.412	86.38
454.633	71.38
454.853	73.38
455.073	84.38
455.294	90.38
455.514	90.38
455.734	86.38
455.955	86.38
456.175	87.38
456.395	74.38
456.616	85.38
456.836	85.38
457.056	92.38
457.276	74.38
457.497	79.38
457.717	81.38
457.937	75.38
458.157	74.38
458.377	66.38
458.598	67.38
458.818	88.38
459.038	90.38
459.258	87.38
459.478	72.38
459.698	84.38
459.918	75.38
460.138	77.38
460.358	90.38
460.578	100.38
460.798	89.38
461.018	89.38
461.238	79.38
461.458	90.38
461.678	87.38
461.898	89.38
462.118	78.38
462.338	86.38
462.558	84.38
462.777	78.38
462.997	91.38
463.217	91.38
463.437	91.38
463.657	87.38
463.876	83.38
464.096	74.38
464.316	92.38
464.536	73.38
464.755	86.38
464.975	81.38
465.195	89.38
465.414	83.38
465.634	97.38
465.854	96.38
466.073	83.38
466.293	86.38
466.512	87.38
466.732	94.38
466.951	96.38
467.171	81.38
467.391	92.38
467.61	94.38
467.829	72.38
468.049	93.38
468.268	96.38
468.488	88.38
468.707	90.38
468.927	92.38
469.146	86.38
469.365	83.38
469.585	99.38
469.804	101.38
470.023	95.38
470.243	93.38
470.462	91.38
470.681	113.38
470.901	90.38
471.12	77.38
471.339	77.38
471.558	81.38
471.777	88.38
471.997	87.38
472.216	87.38
472.435	94.38
472.654	77.38
472.873	86.38
473.092	78.38
473.311	91.38
473.53	94.38
473.749	90.38
473.968	90.38
474.187	80.38
474.406	96.38
474.625	87.38
474.844	85.38
475.063	90.38
475.282	83.38
475.501	96.38
475.72	67.38
475.939	92.38
476.158	83.38
476.377	72.38
476.596	75.38
476.814	75.38
477.033	95.38
477.252	91.38
477.471	85.38
477.69	90.38
477.908	87.38
478.127	92.38
478.346	95.38
478.564	97.38
478.783	92.38
479.002	80.38
479.22	85.38
479.439	89.38
479.658	101.38
479.876	104.38
480.095	87.38
480.313	91.38
480.532	89.38
480.751	72.38
480.969	82.38
481.188	69.38
481.406	92.38
481.624	82.38
481.843	76.38
482.061	76.38
482.28	98.38
482.498	81.38
482.717	80.38
482.935	74.38
483.153	82.38
483.372	87.38
483.59	95.38
483.808	77.38
484.027	90.38
484.245	99.38
484.463	85.38
484.681	80.38
484.9	99.38
485.118	92.38
485.336	95.38
485.554	95.38
485.772	86.38
485.99	80.38
486.209	93.38
486.427	77.38
486.645	93.38
486.863	95.38
487.081	92.38
487.299	88.38
487.517	87.38
487.735	99.38
487.953	99.38
488.171	81.38
488.389	84.38
488.607	93.38
488.825	82.38
489.043	86.38
489.261	87.38
489.479	92.38
489.696	83.38
489.914	84.38
490.132	79.38
490.35	92.38
490.568	92.38
490.786	109.38
491.003	90.38
491.221	91.38
491.439	101.38
491.657	83.38
491.874	108.38
492.092	103.38
492.31	117.38
492.527	105.38
492.745	109.38
492.963	90.38
493.18	98.38
493.398	80.38
493.615	98.38
493.833	88.38
494.05	89.38
494.268	113.38
494.485	87.38
494.703	111.38
494.92	95.38
495.138	100.38
495.355	106.38
495.573	108.38
495.79	117.38
496.008	115.38
496.225	101.38
496.442	94.38
496.66	114.38
496.877	93.38
497.094	103.38
497.312	95.38
497.529	99.38
497.746	97.38
497.963	85.38
498.181	91.38
498.398	76.38
498.615	91.38
498.832	73.38
499.049	97.38
499.267	92.38
499.484	87.38
499.701	93.38
499.918	89.38
500.135	76.38
500.352	98.38
500.569	93.38
500.786	83.38
501.003	107.38
501.22	81.38
501.437	80.38
501.654	90.38
501.871	73.38
502.088	90.38
502.305	85.38
502.522	91.38
502.739	92.38
502.956	91.38
503.172	87.38
503.389	83.38
503.606	78.38
503.823	83.38
504.04	101.38
504.256	98.38
504.473	80.38
504.69	91.38
504.907	93.38
505.123	97.38
505.34	85.38
505.557	78.38
505.773	87.38
505.99	87.38
506.207	95.38
506.423	97.38
506.64	81.38
506.856	86.38
507.073	70.38
507.289	71.38
507.506	86.38
507.722	92.38
507.939	84.38
508.155	93.38
508.372	84.38
508.588	83.38
508.805	83.38
509.021	102.38
509.238	93.38
509.454	85.38
509.67	86.38
509.887	86.38
510.103	89.38
510.319	82.38
510.536	90.38
510.752	91.38
510.968	84.38
511.184	98.38
511.401	90.38
511.617	92.38
511.833	95.38
512.049	93.38
512.265	85.38
512.481	80.38
512.698	83.38
512.914	76.38
513.13	90.38
513.346	76.38
513.562	84.38
513.778	93.38
513.994	69.38
514.21	90.38
514.426	90.38
514.642	77.38
514.858	85.38
515.074	96.38
515.29	82.38
515.506	86.38
515.721	87.38
515.937	101.38
516.153	77.38
516.369	93.38
516.585	83.38
516.801	101.38
517.016	97.38
517.232	82.38
517.448	67.38
517.664	76.38
517.879	81.38
518.095	71.38
518.311	84.38
518.527	93.38
518.742	88.38
518.958	88.38
519.173	84.38
519.389	65.38
519.605	75.38
519.82	87.38
520.036	94.38
520.251	71.38
520.467	85.38
520.682	86.38
520.898	87.38
521.113	78.38
521.329	78.38
521.544	82.38
521.76	84.38
521.975	84.38
522.19	89.38
522.406	89.38
522.621	82.38
522.836	79.38
523.052	92.38
523.267	89.38
523.482	96.38
523.698	88.38
523.913	88.38
524.128	74.38
524.343	89.38
524.559	72.38
524.774	91.38
524.989	84.38
525.204	85.38
525.419	91.38
525.634	101.38
525.849	85.38
526.064	96.38
526.28	87.38
526.495	84.38
526.71	79.38
526.925	72.38
527.14	77.38
527.355	78.38
527.57	87.38
527.785	85.38
527.999	75.38
528.214	88.38
528.429	89.38
528.644	79.38
528.859	95.38
529.074	92.38
529.289	97.38
529.503	105.38
529.718	80.38
529.933	90.38
530.148	83.38
530.363	76.38
530.577	77.38
530.792	93.38
531.007	76.38
531.221	95.38
531.436	83.38
531.651	82.38
531.865	83.38
532.08	95.38
532.295	95.38
532.509	85.38
532.724	83.38
532.938	82.38
533.153	81.38
533.367	80.38
533.582	88.38
533.796	68.38
534.011	95.38
534.225	74.38
534.44	81.38
534.654	80.38
534.868	79.38
535.083	88.38
535.297	77.38
535.511	81.38
535.726	89.38
535.94	87.38
536.154	99.38
536.369	87.38
536.583	100.38
536.797	81.38
537.011	78.38
537.225	91.38
537.44	75.38
537.654	82.38
537.868	75.38
538.082	85.38
538.296	82.38
538.51	88.38
538.724	85.38
538.938	89.38
539.153	99.38
539.367	91.38
539.581	93.38
539.795	75.38
540.009	72.38
540.222	95.38
540.436	95.38
540.65	83.38
540.864	97.38
541.078	93.38
541.292	99.38
541.506	98.38
541.72	96.38
541.934	92.38
542.147	102.38
542.361	104.38
542.575	91.38
542.789	101.38
543.002	89.38
543.216	85.38
543.43	84.38
543.644	87.38
543.857	79.38
544.071	84.38
544.285	95.38
544.498	114.38
544.712	107.38
544.925	80.38
545.139	85.38
545.352	103.38
545.566	103.38
545.779	86.38
545.993	87.38
546.206	76.38
546.42	91.38
546.633	89.38
546.847	100.38
547.06	97.38
547.274	117.38
547.487	105.38
547.7	99.38
547.914	100.38
548.127	98.38
548.34	100.38
548.554	81.38
548.767	102.38
548.98	95.38
549.193	99.38
549.407	97.38
549.62	82.38
549.833	99.38
550.046	85.38
550.259	100.38
550.473	98.38
550.686	97.38
550.899	104.38
551.112	99.38
551.325	82.38
551.538	87.38
551.751	93.38
551.964	79.38
552.177	91.38
552.39	97.38
552.603	104.38
552.816	94.38
553.029	90.38
553.242	101.38
553.455	95.38
553.667	106.38
553.88	106.38
554.093	101.38
554.306	99.38
554.519	92.38
554.732	89.38
554.944	96.38
555.157	86.38
555.37	91.38
555.583	101.38
555.795	115.38
556.008	98.38
556.221	96.38
556.433	93.38
556.646	108.38
556.859	83.38
557.071	90.38
557.284	84.38
557.496	89.38
557.709	83.38
557.921	90.38
558.134	104.38
558.346	88.38
558.559	99.38
558.771	87.38
558.984	93.38
559.196	95.38
559.409	92.38
559.621	91.38
559.833	99.38
560.046	83.38
560.258	95.38
560.47	112.38
560.683	96.38
560.895	76.38
561.107	101.38
561.32	96.38
561.532	87.38
561.744	80.38
561.956	87.38
562.168	92.38
562.381	81.38
562.593	95.38
562.805	88.38
563.017	92.38
563.229	95.38
563.441	83.38
563.653	85.38
563.865	89.38
564.077	86.38
564.289	90.38
564.501	83.38
564.713	89.38
564.925	91.38
565.137	100.38
565.349	82.38
565.561	83.38
565.773	91.38
565.985	83.38
566.197	97.38
566.408	90.38
566.62	79.38
566.832	90.38
567.044	111.38
567.255	89.38
567.467	83.38
567.679	95.38
567.891	97.38
568.102	88.38
568.314	72.38
568.526	83.38
568.737	84.38
568.949	89.38
569.161	83.38
569.372	73.38
569.584	93.38
569.795	93.38
570.007	84.38
570.218	80.38
570.43	93.38
570.641	87.38
570.853	85.38
571.064	95.38
571.276	83.38
571.487	72.38
571.698	86.38
571.91	91.38
572.121	87.38
572.333	86.38
572.544	82.38
572.755	90.38
572.966	76.38
573.178	83.38
573.389	77.38
573.6	93.38
573.811	78.38
574.023	82.38
574.234	76.38
574.445	91.38
574.656	91.38
574.867	99.38
575.078	87.38
575.289	87.38
575.501	72.38
575.712	84.38
575.923	88.38
576.134	80.38
576.345	84.38
576.556	84.38
576.767	81.38
576.978	93.38
577.188	99.38
577.399	97.38
577.61	91.38
577.821	84.38
578.032	77.38
578.243	88.38
578.454	95.38
578.665	86.38
578.875	85.38
579.086	80.38
579.297	88.38
579.508	82.38
579.718	82.38
579.929	89.38
580.14	83.38
580.35	85.38
580.561	85.38
580.772	79.38
580.982	91.38
581.193	82.38
581.403	102.38
581.614	85.38
581.825	65.38
582.035	80.38
582.246	76.38
582.456	81.38
582.667	93.38
582.877	88.38
583.087	89.38
583.298	90.38
583.508	96.38
583.719	76.38
583.929	77.38
584.139	91.38
584.35	70.38
584.56	79.38
584.77	89.38
584.981	83.38
585.191	80.38
585.401	82.38
585.611	81.38
585.821	91.38
586.032	79.38
586.242	78.38
586.452	95.38
586.662	86.38
586.872	76.38
587.082	87.38
587.292	76.38
587.502	97.38
587.713	93.38
587.923	79.38
588.133	84.38
588.343	88.38
588.553	70.38
588.762	88.38
588.972	83.38
589.182	97.38
589.392	75.38
589.602	83.38
589.812	73.38
590.022	80.38
590.232	90.38
590.441	80.38
590.651	79.38
590.861	85.38
591.071	78.38
591.281	84.38
591.49	83.38
591.7	78.38
591.91	84.38
592.119	90.38
592.329	100.38
592.539	88.38
592.748	95.38
592.958	72.38
593.167	73.38
593.377	84.38
593.587	97.38
593.796	88.38
594.006	88.38
594.215	77.38
594.424	88.38
594.634	98.38
594.843	96.38
595.053	76.38
595.262	83.38
595.472	63.38
595.681	90.38
595.89	81.38
596.1	90.38
596.309	96.38
596.518	79.38
596.727	83.38
596.937	90.38
597.146	80.38
597.355	72.38
597.564	74.38
597.774	75.38
597.983	89.38
598.192	91.38
598.401	84.38
598.61	70.38
598.819	97.38
599.028	80.38
599.237	85.38
599.446	78.38
599.655	76.38
599.864	85.38
600.073	93.38
600.282	92.38
600.491	81.38
600.7	89.38
600.909	88.38
601.118	82.38
601.327	88.38
601.536	87.38
601.745	81.38
601.953	92.38
602.162	98.38
602.371	82.38
602.58	86.38
602.789	96.38
602.997	100.38
603.206	70.38
603.415	80.38
603.623	103.38
603.832	98.38
604.041	83.38
604.249	97.38
604.458	89.38
604.666	89.38
604.875	101.38
605.084	89.38
605.292	87.38
605.501	91.38
605.709	87.38
605.918	95.38
606.126	101.38
606.334	82.38
606.543	88.38
606.751	87.38
606.96	93.38
607.168	99.38
607.376	93.38
607.585	93.38
607.793	91.38
608.001	88.38
608.21	85.38
608.418	97.38
608.626	84.38
608.834	87.38
609.043	96.38
609.251	91.38
609.459	93.38
609.667	69.38
609.875	88.38
610.083	92.38
610.291	87.38
610.499	97.38
610.707	80.38
610.916	98.38
611.124	85.38
611.332	85.38
611.54	84.38
611.748	87.38
611.955	100.38
612.163	86.38
612.371	88.38
612.579	88.38
612.787	75.38
612.995	89.38
613.203	94.38
613.411	74.38
613.618	77.38
613.826	88.38
614.034	103.38
614.242	93.38
614.449	84.38
614.657	80.38
614.865	86.38
615.072	90.38
615.28	105.38
615.488	93.38
615.695	92.38
615.903	94.38
616.111	83.38
616.318	90.38
616.526	95.38
616.733	92.38
616.941	89.38
617.148	99.38
617.356	75.38
617.563	80.38
617.771	83.38
617.978	85.38
618.185	112.38
618.393	89.38
618.6	91.38
618.807	88.38
619.015	91.38
619.222	76.38
619.429	87.38
619.637	76.38
619.844	75.38
620.051	87.38
620.258	101.38
620.466	87.38
620.673	100.38
620.88	99.38
621.087	89.38
621.294	94.38
621.501	87.38
621.708	106.38
621.915	75.38
622.122	86.38
622.329	83.38
622.536	87.38
622.743	91.38
622.95	96.38
623.157	87.38
623.364	95.38
623.571	76.38
623.778	91.38
623.985	75.38
624.192	89.38
624.399	90.38
624.606	83.38
624.812	79.38
625.019	88.38
625.226	89.38
625.433	80.38
625.639	97.38
625.846	95.38
626.053	80.38
626.259	82.38
626.466	99.38
626.673	86.38
626.879	89.38
627.086	80.38
627.293	82.38
627.499	86.38
627.706	87.38
627.912	85.38
628.119	83.38
628.325	88.38
628.532	78.38
628.738	91.38
628.945	102.38
629.151	91.38
629.357	102.38
629.564	83.38
629.77	98.38
629.976	79.38
630.183	83.38
630.389	100.38
630.595	82.38
630.802	77.38
631.008	74.38
631.214	92.38
631.42	88.38
631.627	89.38
631.833	89.38
632.039	96.38
632.245	74.38
632.451	82.38
632.657	79.38
632.863	94.38
633.069	82.38
633.275	73.38
633.481	87.38
633.688	80.38
633.893	77.38
634.099	85.38
634.305	92.38
634.511	90.38
634.717	80.38
634.923	102.38
635.129	96.38
635.335	73.38
635.541	91.38
635.747	87.38
635.952	90.38
636.158	91.38
636.364	92.38
636.57	93.38
636.775	88.38
636.981	89.38
637.187	107.38
637.392	87.38
637.598	87.38
637.804	84.38
638.009	72.38
638.215	83.38
638.421	73.38
638.626	90.38
638.832	68.38
639.037	89.38
639.243	95.38
639.448	92.38
639.654	92.38
639.859	98.38
640.065	83.38
640.27	86.38
640.475	83.38
640.681	74.38
640.886	89.38
641.091	75.38
641.297	95.38
641.502	80.38
641.707	84.38
641.913	97.38
642.118	79.38
642.323	84.38
642.528	89.38
642.733	103.38
642.939	87.38
643.144	90.38
643.349	89.38
643.554	92.38
643.759	99.38
643.964	87.38
644.169	75.38
644.374	78.38
644.579	81.38
644.784	97.38
644.989	88.38
645.194	87.38
645.399	85.38
645.604	95.38
645.809	81.38
646.014	82.38
646.219	90.38
646.423	84.38
646.628	93.38
646.833	89.38
647.038	76.38
647.243	88.38
647.447	83.38
647.652	81.38
647.857	74.38
648.062	71.38
648.266	81.38
648.471	75.38
648.676	87.38
648.88	90.38
649.085	84.38
649.289	79.38
649.494	96.38
649.698	94.38
649.903	79.38
650.107	97.38
650.312	92.38
650.516	89.38
650.721	82.38
650.925	83.38
651.13	81.38
651.334	87.38
651.539	80.38
651.743	82.38
651.947	77.38
652.152	84.38
652.356	79.38
652.56	92.38
652.764	97.38
652.969	72.38
653.173	90.38
653.377	80.38
653.581	73.38
653.785	90.38
653.99	91.38
654.194	84.38
654.398	68.38
654.602	81.38
654.806	83.38
655.01	98.38
655.214	77.38
655.418	83.38
655.622	82.38
655.826	81.38
656.03	86.38
656.234	82.38
656.438	73.38
656.642	94.38
656.846	99.38
657.049	86.38
657.253	85.38
657.457	88.38
657.661	77.38
657.865	81.38
658.068	80.38
658.272	92.38
658.476	83.38
658.68	79.38
658.883	75.38
659.087	93.38
659.291	82.38
659.494	77.38
659.698	72.38
659.901	66.38
660.105	93.38
660.309	86.38
660.512	83.38
660.716	74.38
660.919	84.38
661.123	88.38
661.326	84.38
661.53	91.38
661.733	79.38
661.936	81.38
662.14	89.38
662.343	89.38
662.546	90.38
662.75	79.38
662.953	71.38
663.156	85.38
663.36	80.38
663.563	84.38
663.766	84.38
663.969	88.38
664.173	81.38
664.376	77.38
664.579	86.38
664.782	85.38
664.985	79.38
665.188	83.38
665.391	75.38
665.594	99.38
665.797	77.38
666	85.38
666.203	73.38
666.406	76.38
666.609	82.38
666.812	76.38
667.015	83.38
667.218	83.38
667.421	89.38
667.624	84.38
667.827	81.38
668.03	73.38
668.232	88.38
668.435	74.38
668.638	84.38
668.841	100.38
669.043	92.38
669.246	73.38
669.449	95.38
669.651	76.38
669.854	90.38
670.057	73.38
670.259	82.38
670.462	66.38
670.665	84.38
670.867	95.38
671.07	81.38
671.272	72.38
671.475	85.38
671.677	71.38
671.88	90.38
672.082	92.38
672.284	75.38
672.487	91.38
672.689	99.38
672.892	92.38
