Data from Zn(NO3)2Standard.Agarose3%.GreenCap.LampEnergy10E.O_HRD10591_15-08-44-950.txt Node
Date: Mon Jul 22 15:08:44 EDT 2019
User: cochatt
Spectrometer: HR+D1059
Trigger mode: 1
Integration Time (sec): 1.000000E-1
Scans to average: 1
Electric dark correction enabled: true
Nonlinearity correction enabled: false
Boxcar width: 0
XAxis mode: Wavelengths
Number of Pixels in Spectrum: 2048
>>>>>Begin Spectral Data<<<<<
223.165	-4.62
223.4	-4.62
223.635	-4.62
223.869	-6.62
224.104	-21.62
224.338	-8.62
224.573	-10.62
224.808	-13.62
225.042	8.38
225.277	-30.62
225.511	-7.62
225.746	6.38
225.98	2.38
226.215	16.38
226.449	9.38
226.683	12.38
226.918	30.38
227.152	18.38
227.387	39.38
227.621	40.38
227.856	31.38
228.09	46.38
228.324	55.38
228.559	56.38
228.793	69.38
229.027	63.38
229.262	64.38
229.496	58.38
229.73	75.38
229.964	83.38
230.199	75.38
230.433	79.38
230.667	83.38
230.901	97.38
231.136	63.38
231.37	72.38
231.604	80.38
231.838	80.38
232.072	86.38
232.306	81.38
232.541	82.38
232.775	78.38
233.009	82.38
233.243	96.38
233.477	93.38
233.711	74.38
233.945	86.38
234.179	80.38
234.413	95.38
234.647	87.38
234.881	76.38
235.115	76.38
235.349	80.38
235.583	90.38
235.817	82.38
236.051	89.38
236.285	74.38
236.519	72.38
236.753	78.38
236.987	81.38
237.221	69.38
237.455	72.38
237.689	70.38
237.922	74.38
238.156	76.38
238.39	85.38
238.624	70.38
238.858	89.38
239.091	86.38
239.325	86.38
239.559	75.38
239.793	80.38
240.027	85.38
240.26	62.38
240.494	90.38
240.728	81.38
240.961	70.38
241.195	89.38
241.429	86.38
241.662	86.38
241.896	85.38
242.13	96.38
242.363	88.38
242.597	88.38
242.83	85.38
243.064	76.38
243.298	70.38
243.531	81.38
243.765	81.38
243.998	79.38
244.232	74.38
244.465	75.38
244.699	76.38
244.932	89.38
245.166	78.38
245.399	87.38
245.633	78.38
245.866	79.38
246.099	71.38
246.333	75.38
246.566	73.38
246.8	70.38
247.033	86.38
247.266	81.38
247.5	89.38
247.733	84.38
247.966	78.38
248.2	93.38
248.433	75.38
248.666	81.38
248.899	80.38
249.133	85.38
249.366	86.38
249.599	93.38
249.832	88.38
250.066	81.38
250.299	90.38
250.532	76.38
250.765	90.38
250.998	79.38
251.231	80.38
251.465	83.38
251.698	82.38
251.931	69.38
252.164	81.38
252.397	82.38
252.63	77.38
252.863	70.38
253.096	85.38
253.329	76.38
253.562	85.38
253.795	78.38
254.028	78.38
254.261	92.38
254.494	83.38
254.727	81.38
254.96	84.38
255.193	91.38
255.426	85.38
255.659	82.38
255.892	80.38
256.124	77.38
256.357	73.38
256.59	85.38
256.823	84.38
257.056	90.38
257.289	84.38
257.521	84.38
257.754	97.38
257.987	75.38
258.22	96.38
258.452	84.38
258.685	86.38
258.918	88.38
259.151	88.38
259.383	94.38
259.616	102.38
259.849	98.38
260.081	81.38
260.314	86.38
260.547	69.38
260.779	82.38
261.012	80.38
261.244	84.38
261.477	80.38
261.71	82.38
261.942	74.38
262.175	81.38
262.407	88.38
262.64	76.38
262.872	72.38
263.105	83.38
263.337	82.38
263.57	80.38
263.802	75.38
264.035	81.38
264.267	83.38
264.499	82.38
264.732	73.38
264.964	77.38
265.197	80.38
265.429	90.38
265.661	94.38
265.894	89.38
266.126	86.38
266.358	80.38
266.591	82.38
266.823	67.38
267.055	79.38
267.287	86.38
267.52	82.38
267.752	80.38
267.984	88.38
268.216	69.38
268.448	86.38
268.681	74.38
268.913	74.38
269.145	76.38
269.377	86.38
269.609	87.38
269.841	77.38
270.073	82.38
270.306	65.38
270.538	81.38
270.77	92.38
271.002	80.38
271.234	88.38
271.466	83.38
271.698	85.38
271.93	88.38
272.162	90.38
272.394	87.38
272.626	89.38
272.858	66.38
273.09	78.38
273.322	80.38
273.553	95.38
273.785	88.38
274.017	87.38
274.249	92.38
274.481	89.38
274.713	98.38
274.945	85.38
275.176	91.38
275.408	88.38
275.64	95.38
275.872	92.38
276.104	93.38
276.335	68.38
276.567	83.38
276.799	90.38
277.031	81.38
277.262	82.38
277.494	97.38
277.726	83.38
277.957	93.38
278.189	88.38
278.421	86.38
278.652	75.38
278.884	101.38
279.115	86.38
279.347	82.38
279.579	79.38
279.81	87.38
280.042	83.38
280.273	91.38
280.505	96.38
280.736	101.38
280.968	83.38
281.199	91.38
281.431	91.38
281.662	73.38
281.894	93.38
282.125	86.38
282.356	93.38
282.588	82.38
282.819	77.38
283.051	80.38
283.282	83.38
283.513	88.38
283.745	96.38
283.976	91.38
284.207	96.38
284.439	83.38
284.67	85.38
284.901	92.38
285.132	94.38
285.364	82.38
285.595	96.38
285.826	90.38
286.057	91.38
286.288	80.38
286.52	82.38
286.751	98.38
286.982	82.38
287.213	87.38
287.444	88.38
287.675	109.38
287.906	82.38
288.138	89.38
288.369	97.38
288.6	86.38
288.831	100.38
289.062	91.38
289.293	102.38
289.524	97.38
289.755	104.38
289.986	96.38
290.217	80.38
290.448	96.38
290.679	86.38
290.91	103.38
291.141	90.38
291.371	87.38
291.602	88.38
291.833	95.38
292.064	93.38
292.295	101.38
292.526	79.38
292.757	77.38
292.987	96.38
293.218	78.38
293.449	79.38
293.68	82.38
293.91	91.38
294.141	97.38
294.372	81.38
294.603	80.38
294.833	94.38
295.064	82.38
295.295	90.38
295.525	91.38
295.756	88.38
295.987	81.38
296.217	85.38
296.448	85.38
296.679	89.38
296.909	88.38
297.14	87.38
297.37	81.38
297.601	81.38
297.831	87.38
298.062	86.38
298.292	84.38
298.523	96.38
298.753	101.38
298.984	92.38
299.214	80.38
299.445	92.38
299.675	90.38
299.905	84.38
300.136	82.38
300.366	83.38
300.597	90.38
300.827	99.38
301.057	92.38
301.288	96.38
301.518	89.38
301.748	87.38
301.979	93.38
302.209	96.38
302.439	87.38
302.669	97.38
302.9	97.38
303.13	92.38
303.36	82.38
303.59	82.38
303.82	83.38
304.051	90.38
304.281	90.38
304.511	94.38
304.741	91.38
304.971	102.38
305.201	81.38
305.431	85.38
305.661	80.38
305.891	80.38
306.121	86.38
306.352	89.38
306.582	88.38
306.812	91.38
307.042	96.38
307.272	91.38
307.502	98.38
307.731	89.38
307.961	86.38
308.191	80.38
308.421	89.38
308.651	84.38
308.881	93.38
309.111	82.38
309.341	67.38
309.571	105.38
309.8	83.38
310.03	91.38
310.26	92.38
310.49	94.38
310.72	98.38
310.949	88.38
311.179	94.38
311.409	74.38
311.639	89.38
311.868	92.38
312.098	79.38
312.328	95.38
312.557	96.38
312.787	104.38
313.017	77.38
313.246	88.38
313.476	91.38
313.706	86.38
313.935	84.38
314.165	84.38
314.394	86.38
314.624	89.38
314.853	91.38
315.083	87.38
315.312	102.38
315.542	77.38
315.771	86.38
316.001	88.38
316.23	77.38
316.46	87.38
316.689	93.38
316.919	91.38
317.148	87.38
317.377	85.38
317.607	83.38
317.836	93.38
318.065	79.38
318.295	99.38
318.524	94.38
318.753	96.38
318.983	85.38
319.212	91.38
319.441	89.38
319.67	92.38
319.9	85.38
320.129	87.38
320.358	92.38
320.587	82.38
320.816	91.38
321.046	105.38
321.275	90.38
321.504	78.38
321.733	91.38
321.962	88.38
322.191	78.38
322.42	76.38
322.649	85.38
322.878	96.38
323.108	91.38
323.337	79.38
323.566	89.38
323.795	81.38
324.024	85.38
324.253	80.38
324.482	87.38
324.71	84.38
324.939	101.38
325.168	94.38
325.397	90.38
325.626	90.38
325.855	89.38
326.084	94.38
326.313	97.38
326.542	97.38
326.77	79.38
326.999	84.38
327.228	95.38
327.457	104.38
327.686	77.38
327.914	95.38
328.143	94.38
328.372	89.38
328.6	90.38
328.829	91.38
329.058	93.38
329.287	89.38
329.515	93.38
329.744	91.38
329.972	80.38
330.201	99.38
330.43	76.38
330.658	79.38
330.887	84.38
331.115	90.38
331.344	105.38
331.572	99.38
331.801	90.38
332.03	94.38
332.258	94.38
332.486	88.38
332.715	91.38
332.943	91.38
333.172	91.38
333.4	90.38
333.629	103.38
333.857	92.38
334.085	96.38
334.314	82.38
334.542	85.38
334.771	96.38
334.999	100.38
335.227	96.38
335.455	94.38
335.684	89.38
335.912	93.38
336.14	96.38
336.369	87.38
336.597	85.38
336.825	103.38
337.053	80.38
337.281	90.38
337.51	91.38
337.738	97.38
337.966	98.38
338.194	95.38
338.422	85.38
338.65	82.38
338.878	80.38
339.106	85.38
339.334	96.38
339.562	96.38
339.79	89.38
340.018	101.38
340.246	70.38
340.474	79.38
340.702	98.38
340.93	93.38
341.158	96.38
341.386	96.38
341.614	89.38
341.842	91.38
342.07	89.38
342.298	92.38
342.526	85.38
342.754	90.38
342.981	89.38
343.209	98.38
343.437	85.38
343.665	89.38
343.893	82.38
344.12	89.38
344.348	73.38
344.576	71.38
344.804	89.38
345.031	89.38
345.259	84.38
345.487	82.38
345.714	83.38
345.942	95.38
346.17	94.38
346.397	92.38
346.625	80.38
346.853	86.38
347.08	81.38
347.308	85.38
347.535	96.38
347.763	88.38
347.99	100.38
348.218	88.38
348.445	96.38
348.673	85.38
348.9	82.38
349.128	84.38
349.355	83.38
349.583	77.38
349.81	90.38
350.037	89.38
350.265	89.38
350.492	87.38
350.72	81.38
350.947	88.38
351.174	94.38
351.402	89.38
351.629	91.38
351.856	104.38
352.083	80.38
352.311	91.38
352.538	94.38
352.765	73.38
352.992	88.38
353.22	104.38
353.447	79.38
353.674	85.38
353.901	84.38
354.128	87.38
354.355	88.38
354.583	87.38
354.81	72.38
355.037	91.38
355.264	95.38
355.491	87.38
355.718	87.38
355.945	81.38
356.172	93.38
356.399	89.38
356.626	86.38
356.853	94.38
357.08	90.38
357.307	86.38
357.534	81.38
357.761	78.38
357.988	93.38
358.215	95.38
358.441	81.38
358.668	80.38
358.895	90.38
359.122	93.38
359.349	87.38
359.576	82.38
359.802	76.38
360.029	96.38
360.256	87.38
360.483	97.38
360.709	86.38
360.936	80.38
361.163	81.38
361.39	101.38
361.616	91.38
361.843	85.38
362.07	89.38
362.296	93.38
362.523	92.38
362.749	96.38
362.976	86.38
363.203	86.38
363.429	94.38
363.656	95.38
363.882	92.38
364.109	92.38
364.335	93.38
364.562	73.38
364.788	101.38
365.015	91.38
365.241	90.38
365.468	102.38
365.694	86.38
365.92	97.38
366.147	83.38
366.373	95.38
366.599	92.38
366.826	84.38
367.052	85.38
367.278	80.38
367.505	100.38
367.731	96.38
367.957	87.38
368.184	90.38
368.41	98.38
368.636	80.38
368.862	86.38
369.089	95.38
369.315	79.38
369.541	91.38
369.767	82.38
369.993	89.38
370.219	90.38
370.445	94.38
370.672	81.38
370.898	103.38
371.124	94.38
371.35	92.38
371.576	88.38
371.802	89.38
372.028	87.38
372.254	77.38
372.48	82.38
372.706	65.38
372.932	93.38
373.158	97.38
373.384	107.38
373.61	87.38
373.835	84.38
374.061	83.38
374.287	92.38
374.513	80.38
374.739	87.38
374.965	88.38
375.191	89.38
375.416	91.38
375.642	98.38
375.868	86.38
376.094	88.38
376.319	95.38
376.545	95.38
376.771	97.38
376.997	101.38
377.222	93.38
377.448	106.38
377.674	92.38
377.899	100.38
378.125	80.38
378.35	78.38
378.576	89.38
378.802	78.38
379.027	100.38
379.253	88.38
379.478	64.38
379.704	90.38
379.929	106.38
380.155	94.38
380.38	95.38
380.606	91.38
380.831	77.38
381.057	102.38
381.282	82.38
381.507	85.38
381.733	101.38
381.958	96.38
382.184	82.38
382.409	100.38
382.634	89.38
382.86	86.38
383.085	90.38
383.31	92.38
383.535	90.38
383.761	83.38
383.986	99.38
384.211	93.38
384.436	99.38
384.662	90.38
384.887	102.38
385.112	86.38
385.337	98.38
385.562	83.38
385.787	84.38
386.013	104.38
386.238	77.38
386.463	82.38
386.688	94.38
386.913	92.38
387.138	107.38
387.363	87.38
387.588	83.38
387.813	83.38
388.038	82.38
388.263	92.38
388.488	99.38
388.713	97.38
388.938	102.38
389.163	77.38
389.387	95.38
389.612	105.38
389.837	92.38
390.062	86.38
390.287	85.38
390.512	96.38
390.736	85.38
390.961	90.38
391.186	81.38
391.411	98.38
391.636	93.38
391.86	97.38
392.085	96.38
392.31	102.38
392.534	86.38
392.759	77.38
392.984	85.38
393.208	94.38
393.433	93.38
393.658	104.38
393.882	99.38
394.107	109.38
394.331	118.38
394.556	106.38
394.78	94.38
395.005	86.38
395.229	88.38
395.454	99.38
395.678	97.38
395.903	81.38
396.127	115.38
396.352	112.38
396.576	111.38
396.801	103.38
397.025	107.38
397.249	98.38
397.474	106.38
397.698	98.38
397.922	88.38
398.147	105.38
398.371	113.38
398.595	106.38
398.82	96.38
399.044	89.38
399.268	93.38
399.492	113.38
399.717	101.38
399.941	103.38
400.165	98.38
400.389	102.38
400.613	109.38
400.837	104.38
401.062	100.38
401.286	92.38
401.51	94.38
401.734	100.38
401.958	93.38
402.182	95.38
402.406	101.38
402.63	76.38
402.854	106.38
403.078	99.38
403.302	88.38
403.526	111.38
403.75	118.38
403.974	102.38
404.198	113.38
404.422	109.38
404.645	97.38
404.869	96.38
405.093	97.38
405.317	99.38
405.541	104.38
405.765	99.38
405.988	105.38
406.212	105.38
406.436	109.38
406.66	97.38
406.883	109.38
407.107	93.38
407.331	105.38
407.555	108.38
407.778	94.38
408.002	102.38
408.226	103.38
408.449	96.38
408.673	95.38
408.896	110.38
409.12	93.38
409.344	110.38
409.567	102.38
409.791	93.38
410.014	108.38
410.238	107.38
410.461	118.38
410.685	104.38
410.908	97.38
411.132	101.38
411.355	115.38
411.578	116.38
411.802	118.38
412.025	102.38
412.249	104.38
412.472	102.38
412.695	113.38
412.919	107.38
413.142	103.38
413.365	102.38
413.589	103.38
413.812	94.38
414.035	116.38
414.258	108.38
414.482	108.38
414.705	104.38
414.928	93.38
415.151	111.38
415.374	102.38
415.597	105.38
415.821	106.38
416.044	98.38
416.267	112.38
416.49	105.38
416.713	100.38
416.936	95.38
417.159	117.38
417.382	113.38
417.605	104.38
417.828	103.38
418.051	117.38
418.274	120.38
418.497	112.38
418.72	118.38
418.943	118.38
419.166	117.38
419.389	108.38
419.611	104.38
419.834	116.38
420.057	112.38
420.28	108.38
420.503	98.38
420.726	120.38
420.948	106.38
421.171	110.38
421.394	99.38
421.617	110.38
421.839	114.38
422.062	102.38
422.285	104.38
422.507	123.38
422.73	109.38
422.953	100.38
423.175	113.38
423.398	109.38
423.621	114.38
423.843	121.38
424.066	121.38
424.288	113.38
424.511	112.38
424.733	128.38
424.956	108.38
425.178	112.38
425.401	121.38
425.623	99.38
425.846	107.38
426.068	109.38
426.291	94.38
426.513	109.38
426.735	116.38
426.958	108.38
427.18	105.38
427.402	106.38
427.625	111.38
427.847	117.38
428.069	106.38
428.292	116.38
428.514	112.38
428.736	111.38
428.958	111.38
429.181	103.38
429.403	110.38
429.625	104.38
429.847	97.38
430.069	116.38
430.292	121.38
430.514	108.38
430.736	105.38
430.958	109.38
431.18	100.38
431.402	106.38
431.624	113.38
431.846	102.38
432.068	98.38
432.29	97.38
432.512	98.38
432.734	111.38
432.956	90.38
433.178	121.38
433.4	108.38
433.622	99.38
433.844	116.38
434.066	121.38
434.287	98.38
434.509	102.38
434.731	102.38
434.953	112.38
435.175	107.38
435.397	97.38
435.618	100.38
435.84	98.38
436.062	82.38
436.284	98.38
436.505	112.38
436.727	104.38
436.949	108.38
437.17	113.38
437.392	112.38
437.614	102.38
437.835	96.38
438.057	97.38
438.278	121.38
438.5	112.38
438.721	109.38
438.943	106.38
439.165	123.38
439.386	108.38
439.608	126.38
439.829	125.38
440.05	118.38
440.272	96.38
440.493	107.38
440.715	117.38
440.936	110.38
441.158	104.38
441.379	121.38
441.6	104.38
441.822	107.38
442.043	118.38
442.264	113.38
442.486	97.38
442.707	113.38
442.928	120.38
443.149	103.38
443.371	116.38
443.592	108.38
443.813	122.38
444.034	104.38
444.255	104.38
444.476	116.38
444.698	109.38
444.919	108.38
445.14	214.38
445.361	160.38
445.582	118.38
445.803	109.38
446.024	127.38
446.245	128.38
446.466	124.38
446.687	116.38
446.908	110.38
447.129	126.38
447.35	123.38
447.571	116.38
447.792	107.38
448.013	114.38
448.234	121.38
448.455	122.38
448.675	110.38
448.896	107.38
449.117	114.38
449.338	110.38
449.559	117.38
449.779	114.38
450	118.38
450.221	122.38
450.442	111.38
450.662	129.38
450.883	115.38
451.104	101.38
451.324	116.38
451.545	121.38
451.766	119.38
451.986	104.38
452.207	109.38
452.428	118.38
452.648	108.38
452.869	108.38
453.089	108.38
453.31	89.38
453.53	106.38
453.751	91.38
453.971	102.38
454.192	89.38
454.412	110.38
454.633	104.38
454.853	98.38
455.073	92.38
455.294	101.38
455.514	108.38
455.734	105.38
455.955	121.38
456.175	104.38
456.395	98.38
456.616	99.38
456.836	102.38
457.056	103.38
457.276	96.38
457.497	103.38
457.717	85.38
457.937	98.38
458.157	96.38
458.377	92.38
458.598	96.38
458.818	98.38
459.038	79.38
459.258	98.38
459.478	90.38
459.698	89.38
459.918	97.38
460.138	99.38
460.358	97.38
460.578	104.38
460.798	101.38
461.018	93.38
461.238	102.38
461.458	99.38
461.678	96.38
461.898	105.38
462.118	101.38
462.338	107.38
462.558	111.38
462.777	111.38
462.997	105.38
463.217	96.38
463.437	102.38
463.657	90.38
463.876	103.38
464.096	107.38
464.316	103.38
464.536	113.38
464.755	109.38
464.975	95.38
465.195	102.38
465.414	104.38
465.634	90.38
465.854	99.38
466.073	106.38
466.293	105.38
466.512	107.38
466.732	124.38
466.951	102.38
467.171	104.38
467.391	106.38
467.61	102.38
467.829	120.38
468.049	108.38
468.268	101.38
468.488	98.38
468.707	92.38
468.927	111.38
469.146	110.38
469.365	111.38
469.585	113.38
469.804	121.38
470.023	121.38
470.243	118.38
470.462	124.38
470.681	120.38
470.901	116.38
471.12	126.38
471.339	117.38
471.558	124.38
471.777	123.38
471.997	111.38
472.216	96.38
472.435	103.38
472.654	122.38
472.873	97.38
473.092	100.38
473.311	100.38
473.53	85.38
473.749	119.38
473.968	128.38
474.187	107.38
474.406	103.38
474.625	109.38
474.844	109.38
475.063	116.38
475.282	102.38
475.501	95.38
475.72	107.38
475.939	104.38
476.158	113.38
476.377	116.38
476.596	106.38
476.814	98.38
477.033	96.38
477.252	106.38
477.471	101.38
477.69	108.38
477.908	111.38
478.127	125.38
478.346	117.38
478.564	117.38
478.783	114.38
479.002	121.38
479.22	97.38
479.439	105.38
479.658	112.38
479.876	91.38
480.095	88.38
480.313	91.38
480.532	96.38
480.751	104.38
480.969	103.38
481.188	100.38
481.406	90.38
481.624	84.38
481.843	98.38
482.061	120.38
482.28	110.38
482.498	93.38
482.717	102.38
482.935	99.38
483.153	105.38
483.372	115.38
483.59	118.38
483.808	120.38
484.027	104.38
484.245	121.38
484.463	116.38
484.681	132.38
484.9	125.38
485.118	117.38
485.336	94.38
485.554	99.38
485.772	91.38
485.99	98.38
486.209	107.38
486.427	99.38
486.645	119.38
486.863	120.38
487.081	110.38
487.299	110.38
487.517	106.38
487.735	122.38
487.953	136.38
488.171	135.38
488.389	129.38
488.607	129.38
488.825	112.38
489.043	101.38
489.261	105.38
489.479	116.38
489.696	116.38
489.914	101.38
490.132	124.38
490.35	120.38
490.568	123.38
490.786	106.38
491.003	136.38
491.221	132.38
491.439	134.38
491.657	149.38
491.874	146.38
492.092	147.38
492.31	152.38
492.527	166.38
492.745	144.38
492.963	136.38
493.18	131.38
493.398	142.38
493.615	139.38
493.833	139.38
494.05	141.38
494.268	117.38
494.485	124.38
494.703	118.38
494.92	129.38
495.138	127.38
495.355	132.38
495.573	136.38
495.79	140.38
496.008	133.38
496.225	136.38
496.442	128.38
496.66	124.38
496.877	130.38
497.094	133.38
497.312	125.38
497.529	129.38
497.746	133.38
497.963	117.38
498.181	114.38
498.398	100.38
498.615	104.38
498.832	88.38
499.049	103.38
499.267	109.38
499.484	119.38
499.701	104.38
499.918	102.38
500.135	121.38
500.352	123.38
500.569	100.38
500.786	118.38
501.003	118.38
501.22	118.38
501.437	128.38
501.654	112.38
501.871	98.38
502.088	107.38
502.305	104.38
502.522	101.38
502.739	117.38
502.956	116.38
503.172	93.38
503.389	93.38
503.606	96.38
503.823	100.38
504.04	112.38
504.256	102.38
504.473	102.38
504.69	106.38
504.907	118.38
505.123	101.38
505.34	106.38
505.557	108.38
505.773	104.38
505.99	108.38
506.207	107.38
506.423	122.38
506.64	100.38
506.856	100.38
507.073	100.38
507.289	112.38
507.506	109.38
507.722	90.38
507.939	120.38
508.155	104.38
508.372	109.38
508.588	95.38
508.805	94.38
509.021	89.38
509.238	104.38
509.454	87.38
509.67	89.38
509.887	92.38
510.103	100.38
510.319	93.38
510.536	102.38
510.752	95.38
510.968	86.38
511.184	94.38
511.401	86.38
511.617	83.38
511.833	90.38
512.049	93.38
512.265	89.38
512.481	102.38
512.698	91.38
512.914	103.38
513.13	99.38
513.346	81.38
513.562	93.38
513.778	85.38
513.994	103.38
514.21	95.38
514.426	99.38
514.642	87.38
514.858	93.38
515.074	100.38
515.29	88.38
515.506	76.38
515.721	87.38
515.937	88.38
516.153	84.38
516.369	82.38
516.585	91.38
516.801	85.38
517.016	97.38
517.232	91.38
517.448	106.38
517.664	91.38
517.879	94.38
518.095	108.38
518.311	93.38
518.527	93.38
518.742	97.38
518.958	98.38
519.173	112.38
519.389	101.38
519.605	97.38
519.82	104.38
520.036	102.38
520.251	103.38
520.467	107.38
520.682	109.38
520.898	89.38
521.113	85.38
521.329	98.38
521.544	90.38
521.76	104.38
521.975	93.38
522.19	79.38
522.406	92.38
522.621	95.38
522.836	94.38
523.052	102.38
523.267	95.38
523.482	98.38
523.698	97.38
523.913	103.38
524.128	101.38
524.343	105.38
524.559	101.38
524.774	112.38
524.989	93.38
525.204	95.38
525.419	102.38
525.634	100.38
525.849	109.38
526.064	94.38
526.28	93.38
526.495	107.38
526.71	96.38
526.925	93.38
527.14	85.38
527.355	64.38
527.57	86.38
527.785	88.38
527.999	96.38
528.214	85.38
528.429	80.38
528.644	104.38
528.859	111.38
529.074	116.38
529.289	123.38
529.503	124.38
529.718	108.38
529.933	113.38
530.148	106.38
530.363	98.38
530.577	81.38
530.792	95.38
531.007	80.38
531.221	85.38
531.436	93.38
531.651	74.38
531.865	95.38
532.08	69.38
532.295	103.38
532.509	90.38
532.724	94.38
532.938	93.38
533.153	92.38
533.367	89.38
533.582	104.38
533.796	97.38
534.011	105.38
534.225	107.38
534.44	98.38
534.654	98.38
534.868	112.38
535.083	88.38
535.297	91.38
535.511	82.38
535.726	104.38
535.94	105.38
536.154	92.38
536.369	86.38
536.583	84.38
536.797	94.38
537.011	89.38
537.225	89.38
537.44	97.38
537.654	86.38
537.868	103.38
538.082	94.38
538.296	92.38
538.51	91.38
538.724	109.38
538.938	95.38
539.153	111.38
539.367	110.38
539.581	101.38
539.795	102.38
540.009	110.38
540.222	85.38
540.436	88.38
540.65	100.38
540.864	117.38
541.078	111.38
541.292	111.38
541.506	119.38
541.72	128.38
541.934	148.38
542.147	136.38
542.361	138.38
542.575	124.38
542.789	114.38
543.002	94.38
543.216	118.38
543.43	104.38
543.644	98.38
543.857	119.38
544.071	132.38
544.285	128.38
544.498	112.38
544.712	143.38
544.925	124.38
545.139	125.38
545.352	114.38
545.566	134.38
545.779	120.38
545.993	120.38
546.206	124.38
546.42	140.38
546.633	127.38
546.847	124.38
547.06	125.38
547.274	127.38
547.487	130.38
547.7	123.38
547.914	136.38
548.127	129.38
548.34	118.38
548.554	113.38
548.767	127.38
548.98	129.38
549.193	114.38
549.407	112.38
549.62	123.38
549.833	120.38
550.046	116.38
550.259	129.38
550.473	119.38
550.686	121.38
550.899	126.38
551.112	120.38
551.325	132.38
551.538	122.38
551.751	108.38
551.964	116.38
552.177	113.38
552.39	98.38
552.603	130.38
552.816	125.38
553.029	126.38
553.242	122.38
553.455	112.38
553.667	132.38
553.88	120.38
554.093	128.38
554.306	116.38
554.519	103.38
554.732	123.38
554.944	113.38
555.157	122.38
555.37	114.38
555.583	110.38
555.795	115.38
556.008	98.38
556.221	122.38
556.433	95.38
556.646	121.38
556.859	121.38
557.071	129.38
557.284	95.38
557.496	105.38
557.709	111.38
557.921	118.38
558.134	107.38
558.346	116.38
558.559	116.38
558.771	118.38
558.984	106.38
559.196	113.38
559.409	97.38
559.621	109.38
559.833	97.38
560.046	109.38
560.258	97.38
560.47	103.38
560.683	112.38
560.895	108.38
561.107	102.38
561.32	114.38
561.532	109.38
561.744	111.38
561.956	101.38
562.168	117.38
562.381	105.38
562.593	120.38
562.805	108.38
563.017	112.38
563.229	109.38
563.441	98.38
563.653	105.38
563.865	90.38
564.077	97.38
564.289	108.38
564.501	122.38
564.713	108.38
564.925	98.38
565.137	97.38
565.349	113.38
565.561	111.38
565.773	110.38
565.985	120.38
566.197	92.38
566.408	105.38
566.62	104.38
566.832	109.38
567.044	116.38
567.255	95.38
567.467	105.38
567.679	101.38
567.891	102.38
568.102	93.38
568.314	92.38
568.526	88.38
568.737	89.38
568.949	92.38
569.161	82.38
569.372	98.38
569.584	81.38
569.795	85.38
570.007	82.38
570.218	90.38
570.43	90.38
570.641	87.38
570.853	93.38
571.064	86.38
571.276	89.38
571.487	101.38
571.698	104.38
571.91	97.38
572.121	89.38
572.333	89.38
572.544	97.38
572.755	99.38
572.966	81.38
573.178	87.38
573.389	101.38
573.6	80.38
573.811	76.38
574.023	69.38
574.234	94.38
574.445	95.38
574.656	98.38
574.867	79.38
575.078	98.38
575.289	102.38
575.501	96.38
575.712	92.38
575.923	98.38
576.134	86.38
576.345	88.38
576.556	87.38
576.767	85.38
576.978	92.38
577.188	88.38
577.399	101.38
577.61	84.38
577.821	88.38
578.032	95.38
578.243	85.38
578.454	102.38
578.665	95.38
578.875	75.38
579.086	91.38
579.297	79.38
579.508	103.38
579.718	101.38
579.929	90.38
580.14	81.38
580.35	92.38
580.561	96.38
580.772	98.38
580.982	84.38
581.193	91.38
581.403	87.38
581.614	96.38
581.825	97.38
582.035	95.38
582.246	91.38
582.456	88.38
582.667	81.38
582.877	89.38
583.087	84.38
583.298	99.38
583.508	85.38
583.719	87.38
583.929	96.38
584.139	89.38
584.35	84.38
584.56	100.38
584.77	82.38
584.981	86.38
585.191	87.38
585.401	95.38
585.611	94.38
585.821	96.38
586.032	90.38
586.242	80.38
586.452	103.38
586.662	85.38
586.872	93.38
587.082	81.38
587.292	78.38
587.502	92.38
587.713	75.38
587.923	99.38
588.133	88.38
588.343	82.38
588.553	72.38
588.762	90.38
588.972	86.38
589.182	85.38
589.392	81.38
589.602	77.38
589.812	80.38
590.022	91.38
590.232	95.38
590.441	109.38
590.651	101.38
590.861	86.38
591.071	88.38
591.281	89.38
591.49	85.38
591.7	81.38
591.91	93.38
592.119	90.38
592.329	89.38
592.539	85.38
592.748	89.38
592.958	107.38
593.167	95.38
593.377	92.38
593.587	93.38
593.796	86.38
594.006	96.38
594.215	91.38
594.424	90.38
594.634	105.38
594.843	93.38
595.053	81.38
595.262	71.38
595.472	104.38
595.681	100.38
595.89	100.38
596.1	90.38
596.309	97.38
596.518	92.38
596.727	91.38
596.937	87.38
597.146	96.38
597.355	94.38
597.564	85.38
597.774	95.38
597.983	89.38
598.192	82.38
598.401	86.38
598.61	85.38
598.819	82.38
599.028	83.38
599.237	80.38
599.446	93.38
599.655	88.38
599.864	97.38
600.073	97.38
600.282	93.38
600.491	87.38
600.7	93.38
600.909	90.38
601.118	99.38
601.327	104.38
601.536	108.38
601.745	91.38
601.953	89.38
602.162	96.38
602.371	98.38
602.58	110.38
602.789	105.38
602.997	99.38
603.206	101.38
603.415	99.38
603.623	101.38
603.832	94.38
604.041	112.38
604.249	99.38
604.458	95.38
604.666	95.38
604.875	106.38
605.084	90.38
605.292	118.38
605.501	97.38
605.709	105.38
605.918	92.38
606.126	98.38
606.334	92.38
606.543	105.38
606.751	118.38
606.96	102.38
607.168	108.38
607.376	98.38
607.585	101.38
607.793	111.38
608.001	98.38
608.21	84.38
608.418	103.38
608.626	121.38
608.834	97.38
609.043	106.38
609.251	105.38
609.459	97.38
609.667	98.38
609.875	104.38
610.083	93.38
610.291	93.38
610.499	108.38
610.707	90.38
610.916	112.38
611.124	99.38
611.332	96.38
611.54	110.38
611.748	104.38
611.955	96.38
612.163	104.38
612.371	97.38
612.579	108.38
612.787	104.38
612.995	93.38
613.203	101.38
613.411	86.38
613.618	95.38
613.826	101.38
614.034	95.38
614.242	111.38
614.449	93.38
614.657	100.38
614.865	91.38
615.072	109.38
615.28	103.38
615.488	87.38
615.695	101.38
615.903	95.38
616.111	99.38
616.318	100.38
616.526	101.38
616.733	95.38
616.941	97.38
617.148	111.38
617.356	105.38
617.563	105.38
617.771	101.38
617.978	92.38
618.185	104.38
618.393	107.38
618.6	101.38
618.807	88.38
619.015	102.38
619.222	106.38
619.429	99.38
619.637	85.38
619.844	100.38
620.051	102.38
620.258	110.38
620.466	106.38
620.673	112.38
620.88	101.38
621.087	106.38
621.294	94.38
621.501	96.38
621.708	95.38
621.915	114.38
622.122	97.38
622.329	88.38
622.536	108.38
622.743	93.38
622.95	93.38
623.157	104.38
623.364	91.38
623.571	92.38
623.778	88.38
623.985	103.38
624.192	90.38
624.399	88.38
624.606	101.38
624.812	111.38
625.019	96.38
625.226	88.38
625.433	98.38
625.639	103.38
625.846	88.38
626.053	87.38
626.259	92.38
626.466	89.38
626.673	93.38
626.879	93.38
627.086	107.38
627.293	102.38
627.499	103.38
627.706	94.38
627.912	86.38
628.119	110.38
628.325	96.38
628.532	90.38
628.738	102.38
628.945	88.38
629.151	92.38
629.357	94.38
629.564	101.38
629.77	99.38
629.976	96.38
630.183	86.38
630.389	93.38
630.595	91.38
630.802	100.38
631.008	107.38
631.214	90.38
631.42	96.38
631.627	96.38
631.833	102.38
632.039	95.38
632.245	83.38
632.451	99.38
632.657	104.38
632.863	95.38
633.069	95.38
633.275	104.38
633.481	97.38
633.688	97.38
633.893	101.38
634.099	95.38
634.305	80.38
634.511	108.38
634.717	103.38
634.923	83.38
635.129	96.38
635.335	97.38
635.541	96.38
635.747	86.38
635.952	92.38
636.158	102.38
636.364	87.38
636.57	89.38
636.775	75.38
636.981	88.38
637.187	96.38
637.392	93.38
637.598	92.38
637.804	85.38
638.009	98.38
638.215	112.38
638.421	94.38
638.626	88.38
638.832	89.38
639.037	98.38
639.243	94.38
639.448	99.38
639.654	92.38
639.859	99.38
640.065	101.38
640.27	102.38
640.475	96.38
640.681	98.38
640.886	99.38
641.091	97.38
641.297	102.38
641.502	84.38
641.707	97.38
641.913	113.38
642.118	115.38
642.323	81.38
642.528	106.38
642.733	103.38
642.939	93.38
643.144	105.38
643.349	110.38
643.554	102.38
643.759	87.38
643.964	79.38
644.169	94.38
644.374	94.38
644.579	79.38
644.784	89.38
644.989	110.38
645.194	105.38
645.399	104.38
645.604	79.38
645.809	96.38
646.014	102.38
646.219	102.38
646.423	86.38
646.628	84.38
646.833	94.38
647.038	85.38
647.243	92.38
647.447	88.38
647.652	99.38
647.857	84.38
648.062	96.38
648.266	96.38
648.471	80.38
648.676	79.38
648.88	99.38
649.085	93.38
649.289	93.38
649.494	99.38
649.698	93.38
649.903	86.38
650.107	95.38
650.312	91.38
650.516	88.38
650.721	103.38
650.925	97.38
651.13	89.38
651.334	93.38
651.539	92.38
651.743	95.38
651.947	91.38
652.152	103.38
652.356	91.38
652.56	93.38
652.764	88.38
652.969	93.38
653.173	85.38
653.377	101.38
653.581	94.38
653.785	95.38
653.99	67.38
654.194	84.38
654.398	92.38
654.602	84.38
654.806	106.38
655.01	109.38
655.214	82.38
655.418	89.38
655.622	93.38
655.826	101.38
656.03	101.38
656.234	97.38
656.438	85.38
656.642	100.38
656.846	94.38
657.049	95.38
657.253	97.38
657.457	86.38
657.661	89.38
657.865	86.38
658.068	96.38
658.272	89.38
658.476	88.38
658.68	94.38
658.883	91.38
659.087	88.38
659.291	87.38
659.494	96.38
659.698	78.38
659.901	94.38
660.105	94.38
660.309	74.38
660.512	86.38
660.716	105.38
660.919	89.38
661.123	100.38
661.326	72.38
661.53	96.38
661.733	94.38
661.936	106.38
662.14	81.38
662.343	94.38
662.546	81.38
662.75	81.38
662.953	88.38
663.156	92.38
663.36	83.38
663.563	91.38
663.766	94.38
663.969	86.38
664.173	91.38
664.376	80.38
664.579	85.38
664.782	61.38
664.985	83.38
665.188	84.38
665.391	101.38
665.594	89.38
665.797	98.38
666	99.38
666.203	88.38
666.406	79.38
666.609	75.38
666.812	80.38
667.015	75.38
667.218	86.38
667.421	85.38
667.624	100.38
667.827	85.38
668.03	94.38
668.232	98.38
668.435	86.38
668.638	97.38
668.841	80.38
669.043	86.38
669.246	74.38
669.449	103.38
669.651	101.38
669.854	90.38
670.057	72.38
670.259	95.38
670.462	76.38
670.665	78.38
670.867	98.38
671.07	84.38
671.272	92.38
671.475	83.38
671.677	78.38
671.88	83.38
672.082	83.38
672.284	79.38
672.487	75.38
672.689	76.38
672.892	90.38
