Data from Zn(NO3)2Standard.Agarose3%.GreenCap.LampEnergy10E.O_HRD10591_15-06-20-942.txt Node
Date: Mon Jul 22 15:06:20 EDT 2019
User: cochatt
Spectrometer: HR+D1059
Trigger mode: 1
Integration Time (sec): 1.000000E-1
Scans to average: 1
Electric dark correction enabled: true
Nonlinearity correction enabled: false
Boxcar width: 0
XAxis mode: Wavelengths
Number of Pixels in Spectrum: 2048
>>>>>Begin Spectral Data<<<<<
223.165	-11.25
223.4	-11.25
223.635	-11.25
223.869	-2.25
224.104	-30.25
224.338	-11.25
224.573	-15.25
224.808	-8.25
225.042	-16.25
225.277	-2.25
225.511	-10.25
225.746	-1.25
225.98	11.75
226.215	0.75
226.449	20.75
226.683	18.75
226.918	24.75
227.152	31.75
227.387	18.75
227.621	31.75
227.856	24.75
228.09	49.75
228.324	46.75
228.559	36.75
228.793	66.75
229.027	50.75
229.262	53.75
229.496	68.75
229.73	55.75
229.964	78.75
230.199	56.75
230.433	76.75
230.667	78.75
230.901	81.75
231.136	78.75
231.37	73.75
231.604	81.75
231.838	84.75
232.072	70.75
232.306	69.75
232.541	72.75
232.775	71.75
233.009	53.75
233.243	72.75
233.477	91.75
233.711	82.75
233.945	74.75
234.179	75.75
234.413	86.75
234.647	82.75
234.881	78.75
235.115	82.75
235.349	76.75
235.583	71.75
235.817	76.75
236.051	66.75
236.285	67.75
236.519	68.75
236.753	75.75
236.987	53.75
237.221	75.75
237.455	70.75
237.689	73.75
237.922	81.75
238.156	79.75
238.39	70.75
238.624	71.75
238.858	81.75
239.091	77.75
239.325	69.75
239.559	66.75
239.793	84.75
240.027	84.75
240.26	74.75
240.494	67.75
240.728	64.75
240.961	68.75
241.195	77.75
241.429	62.75
241.662	72.75
241.896	70.75
242.13	74.75
242.363	65.75
242.597	66.75
242.83	70.75
243.064	77.75
243.298	78.75
243.531	80.75
243.765	78.75
243.998	93.75
244.232	71.75
244.465	67.75
244.699	71.75
244.932	63.75
245.166	58.75
245.399	76.75
245.633	71.75
245.866	66.75
246.099	66.75
246.333	67.75
246.566	85.75
246.8	78.75
247.033	70.75
247.266	81.75
247.5	70.75
247.733	66.75
247.966	71.75
248.2	74.75
248.433	73.75
248.666	65.75
248.899	79.75
249.133	68.75
249.366	85.75
249.599	80.75
249.832	82.75
250.066	85.75
250.299	60.75
250.532	73.75
250.765	69.75
250.998	79.75
251.231	73.75
251.465	68.75
251.698	66.75
251.931	77.75
252.164	67.75
252.397	81.75
252.63	82.75
252.863	73.75
253.096	70.75
253.329	82.75
253.562	87.75
253.795	80.75
254.028	68.75
254.261	78.75
254.494	68.75
254.727	74.75
254.96	67.75
255.193	64.75
255.426	70.75
255.659	77.75
255.892	73.75
256.124	61.75
256.357	71.75
256.59	75.75
256.823	69.75
257.056	77.75
257.289	80.75
257.521	71.75
257.754	75.75
257.987	80.75
258.22	92.75
258.452	77.75
258.685	71.75
258.918	78.75
259.151	72.75
259.383	82.75
259.616	63.75
259.849	57.75
260.081	78.75
260.314	88.75
260.547	77.75
260.779	72.75
261.012	73.75
261.244	82.75
261.477	71.75
261.71	84.75
261.942	83.75
262.175	88.75
262.407	79.75
262.64	79.75
262.872	82.75
263.105	70.75
263.337	85.75
263.57	76.75
263.802	73.75
264.035	89.75
264.267	71.75
264.499	89.75
264.732	82.75
264.964	80.75
265.197	81.75
265.429	75.75
265.661	77.75
265.894	75.75
266.126	74.75
266.358	75.75
266.591	86.75
266.823	82.75
267.055	74.75
267.287	81.75
267.52	87.75
267.752	78.75
267.984	73.75
268.216	74.75
268.448	83.75
268.681	77.75
268.913	71.75
269.145	82.75
269.377	81.75
269.609	76.75
269.841	89.75
270.073	96.75
270.306	80.75
270.538	86.75
270.77	80.75
271.002	78.75
271.234	71.75
271.466	82.75
271.698	81.75
271.93	81.75
272.162	76.75
272.394	76.75
272.626	81.75
272.858	77.75
273.09	73.75
273.322	78.75
273.553	80.75
273.785	60.75
274.017	77.75
274.249	76.75
274.481	70.75
274.713	80.75
274.945	73.75
275.176	80.75
275.408	103.75
275.64	78.75
275.872	76.75
276.104	82.75
276.335	90.75
276.567	83.75
276.799	77.75
277.031	78.75
277.262	85.75
277.494	80.75
277.726	82.75
277.957	83.75
278.189	76.75
278.421	76.75
278.652	86.75
278.884	86.75
279.115	66.75
279.347	81.75
279.579	70.75
279.81	63.75
280.042	80.75
280.273	70.75
280.505	69.75
280.736	86.75
280.968	79.75
281.199	85.75
281.431	60.75
281.662	71.75
281.894	75.75
282.125	80.75
282.356	83.75
282.588	74.75
282.819	86.75
283.051	82.75
283.282	86.75
283.513	78.75
283.745	87.75
283.976	76.75
284.207	56.75
284.439	68.75
284.67	78.75
284.901	71.75
285.132	77.75
285.364	83.75
285.595	80.75
285.826	79.75
286.057	65.75
286.288	79.75
286.52	69.75
286.751	84.75
286.982	94.75
287.213	69.75
287.444	96.75
287.675	79.75
287.906	85.75
288.138	79.75
288.369	63.75
288.6	73.75
288.831	88.75
289.062	101.75
289.293	100.75
289.524	89.75
289.755	57.75
289.986	66.75
290.217	77.75
290.448	83.75
290.679	85.75
290.91	74.75
291.141	67.75
291.371	86.75
291.602	80.75
291.833	69.75
292.064	82.75
292.295	93.75
292.526	72.75
292.757	76.75
292.987	76.75
293.218	89.75
293.449	87.75
293.68	76.75
293.91	98.75
294.141	80.75
294.372	85.75
294.603	83.75
294.833	90.75
295.064	81.75
295.295	72.75
295.525	82.75
295.756	89.75
295.987	73.75
296.217	97.75
296.448	70.75
296.679	80.75
296.909	92.75
297.14	87.75
297.37	88.75
297.601	95.75
297.831	86.75
298.062	82.75
298.292	80.75
298.523	99.75
298.753	77.75
298.984	78.75
299.214	86.75
299.445	69.75
299.675	74.75
299.905	84.75
300.136	82.75
300.366	64.75
300.597	78.75
300.827	75.75
301.057	70.75
301.288	76.75
301.518	76.75
301.748	81.75
301.979	76.75
302.209	79.75
302.439	82.75
302.669	79.75
302.9	88.75
303.13	62.75
303.36	79.75
303.59	78.75
303.82	70.75
304.051	85.75
304.281	82.75
304.511	75.75
304.741	86.75
304.971	92.75
305.201	78.75
305.431	69.75
305.661	84.75
305.891	84.75
306.121	94.75
306.352	92.75
306.582	81.75
306.812	80.75
307.042	78.75
307.272	85.75
307.502	84.75
307.731	83.75
307.961	77.75
308.191	95.75
308.421	92.75
308.651	72.75
308.881	81.75
309.111	89.75
309.341	70.75
309.571	97.75
309.8	65.75
310.03	88.75
310.26	76.75
310.49	71.75
310.72	92.75
310.949	74.75
311.179	93.75
311.409	86.75
311.639	75.75
311.868	76.75
312.098	83.75
312.328	75.75
312.557	93.75
312.787	78.75
313.017	78.75
313.246	79.75
313.476	75.75
313.706	84.75
313.935	81.75
314.165	72.75
314.394	82.75
314.624	89.75
314.853	91.75
315.083	66.75
315.312	87.75
315.542	84.75
315.771	90.75
316.001	95.75
316.23	76.75
316.46	83.75
316.689	69.75
316.919	82.75
317.148	88.75
317.377	94.75
317.607	81.75
317.836	86.75
318.065	66.75
318.295	85.75
318.524	83.75
318.753	83.75
318.983	85.75
319.212	73.75
319.441	84.75
319.67	88.75
319.9	92.75
320.129	76.75
320.358	74.75
320.587	74.75
320.816	79.75
321.046	81.75
321.275	70.75
321.504	68.75
321.733	75.75
321.962	79.75
322.191	82.75
322.42	72.75
322.649	72.75
322.878	96.75
323.108	62.75
323.337	74.75
323.566	68.75
323.795	86.75
324.024	96.75
324.253	80.75
324.482	83.75
324.71	85.75
324.939	87.75
325.168	71.75
325.397	80.75
325.626	84.75
325.855	78.75
326.084	77.75
326.313	84.75
326.542	78.75
326.77	90.75
326.999	85.75
327.228	78.75
327.457	63.75
327.686	71.75
327.914	90.75
328.143	76.75
328.372	85.75
328.6	75.75
328.829	86.75
329.058	78.75
329.287	81.75
329.515	81.75
329.744	81.75
329.972	69.75
330.201	80.75
330.43	75.75
330.658	84.75
330.887	84.75
331.115	86.75
331.344	84.75
331.572	84.75
331.801	75.75
332.03	72.75
332.258	82.75
332.486	85.75
332.715	84.75
332.943	69.75
333.172	81.75
333.4	86.75
333.629	66.75
333.857	90.75
334.085	83.75
334.314	82.75
334.542	68.75
334.771	75.75
334.999	90.75
335.227	81.75
335.455	71.75
335.684	97.75
335.912	80.75
336.14	79.75
336.369	92.75
336.597	99.75
336.825	82.75
337.053	78.75
337.281	74.75
337.51	65.75
337.738	78.75
337.966	84.75
338.194	85.75
338.422	81.75
338.65	82.75
338.878	86.75
339.106	91.75
339.334	97.75
339.562	100.75
339.79	83.75
340.018	79.75
340.246	71.75
340.474	90.75
340.702	74.75
340.93	82.75
341.158	95.75
341.386	73.75
341.614	80.75
341.842	80.75
342.07	70.75
342.298	70.75
342.526	78.75
342.754	84.75
342.981	76.75
343.209	77.75
343.437	96.75
343.665	82.75
343.893	74.75
344.12	110.75
344.348	92.75
344.576	83.75
344.804	86.75
345.031	80.75
345.259	85.75
345.487	87.75
345.714	74.75
345.942	77.75
346.17	83.75
346.397	74.75
346.625	89.75
346.853	86.75
347.08	68.75
347.308	78.75
347.535	73.75
347.763	69.75
347.99	83.75
348.218	88.75
348.445	87.75
348.673	69.75
348.9	79.75
349.128	86.75
349.355	64.75
349.583	90.75
349.81	87.75
350.037	79.75
350.265	75.75
350.492	88.75
350.72	75.75
350.947	84.75
351.174	93.75
351.402	70.75
351.629	75.75
351.856	85.75
352.083	81.75
352.311	75.75
352.538	90.75
352.765	78.75
352.992	89.75
353.22	74.75
353.447	84.75
353.674	78.75
353.901	78.75
354.128	75.75
354.355	73.75
354.583	80.75
354.81	75.75
355.037	78.75
355.264	80.75
355.491	86.75
355.718	86.75
355.945	83.75
356.172	92.75
356.399	92.75
356.626	76.75
356.853	89.75
357.08	73.75
357.307	74.75
357.534	69.75
357.761	74.75
357.988	69.75
358.215	82.75
358.441	77.75
358.668	70.75
358.895	65.75
359.122	81.75
359.349	71.75
359.576	70.75
359.802	77.75
360.029	84.75
360.256	76.75
360.483	87.75
360.709	70.75
360.936	83.75
361.163	71.75
361.39	79.75
361.616	80.75
361.843	86.75
362.07	80.75
362.296	73.75
362.523	84.75
362.749	92.75
362.976	71.75
363.203	82.75
363.429	70.75
363.656	81.75
363.882	73.75
364.109	78.75
364.335	78.75
364.562	74.75
364.788	86.75
365.015	87.75
365.241	86.75
365.468	74.75
365.694	65.75
365.92	73.75
366.147	69.75
366.373	72.75
366.599	80.75
366.826	78.75
367.052	93.75
367.278	81.75
367.505	64.75
367.731	76.75
367.957	77.75
368.184	82.75
368.41	89.75
368.636	83.75
368.862	85.75
369.089	86.75
369.315	72.75
369.541	85.75
369.767	89.75
369.993	72.75
370.219	90.75
370.445	79.75
370.672	88.75
370.898	80.75
371.124	76.75
371.35	81.75
371.576	88.75
371.802	88.75
372.028	83.75
372.254	87.75
372.48	87.75
372.706	91.75
372.932	82.75
373.158	80.75
373.384	82.75
373.61	81.75
373.835	73.75
374.061	80.75
374.287	88.75
374.513	92.75
374.739	86.75
374.965	86.75
375.191	82.75
375.416	78.75
375.642	83.75
375.868	87.75
376.094	91.75
376.319	78.75
376.545	85.75
376.771	72.75
376.997	88.75
377.222	100.75
377.448	83.75
377.674	94.75
377.899	96.75
378.125	73.75
378.35	87.75
378.576	80.75
378.802	82.75
379.027	82.75
379.253	81.75
379.478	68.75
379.704	94.75
379.929	80.75
380.155	90.75
380.38	80.75
380.606	81.75
380.831	93.75
381.057	73.75
381.282	90.75
381.507	95.75
381.733	75.75
381.958	89.75
382.184	86.75
382.409	90.75
382.634	77.75
382.86	83.75
383.085	68.75
383.31	91.75
383.535	99.75
383.761	84.75
383.986	87.75
384.211	89.75
384.436	94.75
384.662	76.75
384.887	83.75
385.112	81.75
385.337	86.75
385.562	92.75
385.787	86.75
386.013	85.75
386.238	85.75
386.463	95.75
386.688	80.75
386.913	72.75
387.138	98.75
387.363	81.75
387.588	78.75
387.813	81.75
388.038	80.75
388.263	78.75
388.488	108.75
388.713	88.75
388.938	95.75
389.163	84.75
389.387	94.75
389.612	84.75
389.837	99.75
390.062	92.75
390.287	83.75
390.512	94.75
390.736	95.75
390.961	87.75
391.186	80.75
391.411	84.75
391.636	91.75
391.86	101.75
392.085	84.75
392.31	74.75
392.534	108.75
392.759	101.75
392.984	83.75
393.208	89.75
393.433	71.75
393.658	88.75
393.882	88.75
394.107	82.75
394.331	87.75
394.556	89.75
394.78	86.75
395.005	81.75
395.229	83.75
395.454	89.75
395.678	71.75
395.903	92.75
396.127	86.75
396.352	81.75
396.576	95.75
396.801	86.75
397.025	89.75
397.249	98.75
397.474	92.75
397.698	90.75
397.922	87.75
398.147	88.75
398.371	75.75
398.595	84.75
398.82	92.75
399.044	88.75
399.268	84.75
399.492	90.75
399.717	82.75
399.941	98.75
400.165	99.75
400.389	89.75
400.613	100.75
400.837	101.75
401.062	88.75
401.286	96.75
401.51	93.75
401.734	90.75
401.958	87.75
402.182	92.75
402.406	82.75
402.63	93.75
402.854	92.75
403.078	86.75
403.302	89.75
403.526	95.75
403.75	79.75
403.974	97.75
404.198	93.75
404.422	86.75
404.645	96.75
404.869	98.75
405.093	97.75
405.317	95.75
405.541	86.75
405.765	113.75
405.988	96.75
406.212	127.75
406.436	90.75
406.66	91.75
406.883	92.75
407.107	98.75
407.331	94.75
407.555	95.75
407.778	77.75
408.002	87.75
408.226	94.75
408.449	101.75
408.673	104.75
408.896	104.75
409.12	82.75
409.344	113.75
409.567	94.75
409.791	93.75
410.014	95.75
410.238	95.75
410.461	91.75
410.685	117.75
410.908	86.75
411.132	93.75
411.355	103.75
411.578	89.75
411.802	101.75
412.025	99.75
412.249	101.75
412.472	101.75
412.695	86.75
412.919	86.75
413.142	87.75
413.365	90.75
413.589	97.75
413.812	86.75
414.035	88.75
414.258	98.75
414.482	84.75
414.705	102.75
414.928	109.75
415.151	96.75
415.374	102.75
415.597	90.75
415.821	89.75
416.044	95.75
416.267	86.75
416.49	101.75
416.713	85.75
416.936	98.75
417.159	92.75
417.382	90.75
417.605	100.75
417.828	98.75
418.051	98.75
418.274	109.75
418.497	96.75
418.72	104.75
418.943	109.75
419.166	108.75
419.389	110.75
419.611	117.75
419.834	108.75
420.057	110.75
420.28	103.75
420.503	108.75
420.726	114.75
420.948	109.75
421.171	88.75
421.394	106.75
421.617	104.75
421.839	104.75
422.062	103.75
422.285	99.75
422.507	111.75
422.73	100.75
422.953	106.75
423.175	96.75
423.398	100.75
423.621	108.75
423.843	101.75
424.066	111.75
424.288	102.75
424.511	110.75
424.733	110.75
424.956	101.75
425.178	96.75
425.401	114.75
425.623	87.75
425.846	104.75
426.068	102.75
426.291	124.75
426.513	98.75
426.735	103.75
426.958	101.75
427.18	102.75
427.402	105.75
427.625	90.75
427.847	89.75
428.069	93.75
428.292	92.75
428.514	85.75
428.736	102.75
428.958	109.75
429.181	92.75
429.403	91.75
429.625	109.75
429.847	100.75
430.069	109.75
430.292	116.75
430.514	98.75
430.736	104.75
430.958	79.75
431.18	99.75
431.402	108.75
431.624	92.75
431.846	87.75
432.068	97.75
432.29	86.75
432.512	100.75
432.734	84.75
432.956	111.75
433.178	112.75
433.4	85.75
433.622	94.75
433.844	75.75
434.066	97.75
434.287	80.75
434.509	94.75
434.731	94.75
434.953	86.75
435.175	98.75
435.397	93.75
435.618	110.75
435.84	105.75
436.062	96.75
436.284	99.75
436.505	92.75
436.727	99.75
436.949	91.75
437.17	112.75
437.392	82.75
437.614	90.75
437.835	90.75
438.057	101.75
438.278	99.75
438.5	97.75
438.721	102.75
438.943	106.75
439.165	115.75
439.386	99.75
439.608	113.75
439.829	114.75
440.05	97.75
440.272	101.75
440.493	100.75
440.715	111.75
440.936	104.75
441.158	109.75
441.379	106.75
441.6	107.75
441.822	112.75
442.043	106.75
442.264	116.75
442.486	102.75
442.707	103.75
442.928	101.75
443.149	107.75
443.371	108.75
443.592	93.75
443.813	114.75
444.034	105.75
444.255	113.75
444.476	103.75
444.698	112.75
444.919	110.75
445.14	223.75
445.361	155.75
445.582	124.75
445.803	105.75
446.024	110.75
446.245	124.75
446.466	114.75
446.687	110.75
446.908	112.75
447.129	110.75
447.35	123.75
447.571	128.75
447.792	100.75
448.013	114.75
448.234	82.75
448.455	108.75
448.675	112.75
448.896	107.75
449.117	110.75
449.338	101.75
449.559	118.75
449.779	103.75
450	110.75
450.221	102.75
450.442	108.75
450.662	94.75
450.883	98.75
451.104	109.75
451.324	95.75
451.545	99.75
451.766	111.75
451.986	96.75
452.207	93.75
452.428	103.75
452.648	97.75
452.869	90.75
453.089	110.75
453.31	76.75
453.53	89.75
453.751	99.75
453.971	87.75
454.192	78.75
454.412	97.75
454.633	93.75
454.853	92.75
455.073	92.75
455.294	83.75
455.514	103.75
455.734	83.75
455.955	90.75
456.175	97.75
456.395	84.75
456.616	96.75
456.836	83.75
457.056	89.75
457.276	93.75
457.497	83.75
457.717	83.75
457.937	92.75
458.157	81.75
458.377	85.75
458.598	72.75
458.818	73.75
459.038	85.75
459.258	80.75
459.478	80.75
459.698	77.75
459.918	78.75
460.138	88.75
460.358	90.75
460.578	101.75
460.798	92.75
461.018	100.75
461.238	82.75
461.458	88.75
461.678	92.75
461.898	96.75
462.118	108.75
462.338	81.75
462.558	86.75
462.777	88.75
462.997	81.75
463.217	88.75
463.437	95.75
463.657	79.75
463.876	86.75
464.096	80.75
464.316	99.75
464.536	86.75
464.755	99.75
464.975	92.75
465.195	94.75
465.414	101.75
465.634	92.75
465.854	88.75
466.073	101.75
466.293	98.75
466.512	86.75
466.732	68.75
466.951	92.75
467.171	104.75
467.391	93.75
467.61	99.75
467.829	108.75
468.049	110.75
468.268	101.75
468.488	103.75
468.707	96.75
468.927	95.75
469.146	118.75
469.365	98.75
469.585	127.75
469.804	103.75
470.023	101.75
470.243	95.75
470.462	102.75
470.681	104.75
470.901	84.75
471.12	102.75
471.339	114.75
471.558	121.75
471.777	119.75
471.997	105.75
472.216	106.75
472.435	101.75
472.654	91.75
472.873	76.75
473.092	108.75
473.311	109.75
473.53	100.75
473.749	83.75
473.968	108.75
474.187	96.75
474.406	97.75
474.625	100.75
474.844	96.75
475.063	92.75
475.282	100.75
475.501	98.75
475.72	92.75
475.939	103.75
476.158	103.75
476.377	99.75
476.596	111.75
476.814	93.75
477.033	83.75
477.252	88.75
477.471	101.75
477.69	96.75
477.908	103.75
478.127	117.75
478.346	108.75
478.564	100.75
478.783	98.75
479.002	96.75
479.22	95.75
479.439	100.75
479.658	89.75
479.876	80.75
480.095	100.75
480.313	96.75
480.532	89.75
480.751	93.75
480.969	79.75
481.188	79.75
481.406	88.75
481.624	82.75
481.843	66.75
482.061	87.75
482.28	98.75
482.498	98.75
482.717	80.75
482.935	102.75
483.153	114.75
483.372	120.75
483.59	124.75
483.808	108.75
484.027	98.75
484.245	85.75
484.463	104.75
484.681	120.75
484.9	94.75
485.118	103.75
485.336	110.75
485.554	89.75
485.772	80.75
485.99	86.75
486.209	87.75
486.427	95.75
486.645	81.75
486.863	93.75
487.081	93.75
487.299	104.75
487.517	106.75
487.735	122.75
487.953	126.75
488.171	120.75
488.389	130.75
488.607	107.75
488.825	115.75
489.043	115.75
489.261	121.75
489.479	105.75
489.696	107.75
489.914	103.75
490.132	115.75
490.35	109.75
490.568	107.75
490.786	115.75
491.003	116.75
491.221	127.75
491.439	115.75
491.657	138.75
491.874	124.75
492.092	130.75
492.31	156.75
492.527	140.75
492.745	122.75
492.963	134.75
493.18	116.75
493.398	124.75
493.615	134.75
493.833	109.75
494.05	121.75
494.268	128.75
494.485	128.75
494.703	106.75
494.92	127.75
495.138	116.75
495.355	122.75
495.573	129.75
495.79	110.75
496.008	107.75
496.225	116.75
496.442	125.75
496.66	117.75
496.877	114.75
497.094	115.75
497.312	121.75
497.529	113.75
497.746	118.75
497.963	107.75
498.181	94.75
498.398	86.75
498.615	111.75
498.832	99.75
499.049	89.75
499.267	94.75
499.484	100.75
499.701	87.75
499.918	102.75
500.135	108.75
500.352	118.75
500.569	111.75
500.786	106.75
501.003	112.75
501.22	120.75
501.437	101.75
501.654	108.75
501.871	105.75
502.088	105.75
502.305	97.75
502.522	93.75
502.739	90.75
502.956	110.75
503.172	96.75
503.389	98.75
503.606	92.75
503.823	93.75
504.04	100.75
504.256	95.75
504.473	90.75
504.69	101.75
504.907	101.75
505.123	90.75
505.34	94.75
505.557	102.75
505.773	104.75
505.99	94.75
506.207	99.75
506.423	96.75
506.64	97.75
506.856	93.75
507.073	94.75
507.289	97.75
507.506	95.75
507.722	79.75
507.939	100.75
508.155	99.75
508.372	103.75
508.588	93.75
508.805	81.75
509.021	92.75
509.238	92.75
509.454	85.75
509.67	88.75
509.887	87.75
510.103	82.75
510.319	83.75
510.536	99.75
510.752	91.75
510.968	93.75
511.184	67.75
511.401	80.75
511.617	76.75
511.833	74.75
512.049	86.75
512.265	73.75
512.481	90.75
512.698	75.75
512.914	70.75
513.13	93.75
513.346	75.75
513.562	94.75
513.778	104.75
513.994	83.75
514.21	77.75
514.426	85.75
514.642	90.75
514.858	80.75
515.074	96.75
515.29	73.75
515.506	94.75
515.721	83.75
515.937	79.75
516.153	92.75
516.369	77.75
516.585	81.75
516.801	87.75
517.016	94.75
517.232	80.75
517.448	82.75
517.664	88.75
517.879	79.75
518.095	82.75
518.311	94.75
518.527	80.75
518.742	87.75
518.958	77.75
519.173	88.75
519.389	83.75
519.605	102.75
519.82	84.75
520.036	96.75
520.251	98.75
520.467	98.75
520.682	86.75
520.898	95.75
521.113	86.75
521.329	75.75
521.544	82.75
521.76	86.75
521.975	97.75
522.19	81.75
522.406	83.75
522.621	99.75
522.836	96.75
523.052	100.75
523.267	85.75
523.482	80.75
523.698	94.75
523.913	87.75
524.128	92.75
524.343	101.75
524.559	106.75
524.774	91.75
524.989	88.75
525.204	96.75
525.419	97.75
525.634	88.75
525.849	80.75
526.064	87.75
526.28	87.75
526.495	87.75
526.71	70.75
526.925	76.75
527.14	74.75
527.355	90.75
527.57	81.75
527.785	100.75
527.999	85.75
528.214	93.75
528.429	79.75
528.644	96.75
528.859	93.75
529.074	114.75
529.289	114.75
529.503	124.75
529.718	112.75
529.933	97.75
530.148	84.75
530.363	72.75
530.577	79.75
530.792	72.75
531.007	81.75
531.221	84.75
531.436	93.75
531.651	76.75
531.865	85.75
532.08	92.75
532.295	78.75
532.509	88.75
532.724	88.75
532.938	85.75
533.153	90.75
533.367	111.75
533.582	112.75
533.796	100.75
534.011	94.75
534.225	80.75
534.44	80.75
534.654	93.75
534.868	83.75
535.083	84.75
535.297	96.75
535.511	94.75
535.726	83.75
535.94	85.75
536.154	84.75
536.369	82.75
536.583	71.75
536.797	73.75
537.011	84.75
537.225	88.75
537.44	81.75
537.654	81.75
537.868	81.75
538.082	77.75
538.296	85.75
538.51	93.75
538.724	98.75
538.938	93.75
539.153	101.75
539.367	97.75
539.581	94.75
539.795	92.75
540.009	73.75
540.222	83.75
540.436	94.75
540.65	93.75
540.864	107.75
541.078	110.75
541.292	112.75
541.506	108.75
541.72	122.75
541.934	118.75
542.147	138.75
542.361	121.75
542.575	124.75
542.789	111.75
543.002	95.75
543.216	105.75
543.43	96.75
543.644	102.75
543.857	112.75
544.071	108.75
544.285	120.75
544.498	109.75
544.712	122.75
544.925	124.75
545.139	121.75
545.352	117.75
545.566	120.75
545.779	118.75
545.993	111.75
546.206	124.75
546.42	122.75
546.633	128.75
546.847	112.75
547.06	121.75
547.274	119.75
547.487	121.75
547.7	120.75
547.914	124.75
548.127	112.75
548.34	128.75
548.554	117.75
548.767	122.75
548.98	108.75
549.193	114.75
549.407	110.75
549.62	94.75
549.833	98.75
550.046	118.75
550.259	116.75
550.473	96.75
550.686	111.75
550.899	130.75
551.112	115.75
551.325	103.75
551.538	108.75
551.751	98.75
551.964	98.75
552.177	107.75
552.39	104.75
552.603	97.75
552.816	99.75
553.029	100.75
553.242	116.75
553.455	101.75
553.667	102.75
553.88	104.75
554.093	97.75
554.306	119.75
554.519	120.75
554.732	112.75
554.944	104.75
555.157	104.75
555.37	113.75
555.583	110.75
555.795	112.75
556.008	98.75
556.221	114.75
556.433	104.75
556.646	115.75
556.859	84.75
557.071	93.75
557.284	113.75
557.496	114.75
557.709	113.75
557.921	110.75
558.134	94.75
558.346	112.75
558.559	89.75
558.771	99.75
558.984	108.75
559.196	112.75
559.409	108.75
559.621	106.75
559.833	115.75
560.046	112.75
560.258	106.75
560.47	100.75
560.683	99.75
560.895	92.75
561.107	98.75
561.32	115.75
561.532	95.75
561.744	110.75
561.956	104.75
562.168	103.75
562.381	105.75
562.593	100.75
562.805	101.75
563.017	102.75
563.229	98.75
563.441	78.75
563.653	97.75
563.865	97.75
564.077	83.75
564.289	102.75
564.501	97.75
564.713	102.75
564.925	99.75
565.137	88.75
565.349	98.75
565.561	93.75
565.773	96.75
565.985	83.75
566.197	95.75
566.408	94.75
566.62	108.75
566.832	108.75
567.044	100.75
567.255	94.75
567.467	102.75
567.679	86.75
567.891	97.75
568.102	87.75
568.314	103.75
568.526	85.75
568.737	98.75
568.949	84.75
569.161	72.75
569.372	82.75
569.584	82.75
569.795	85.75
570.007	71.75
570.218	84.75
570.43	87.75
570.641	100.75
570.853	81.75
571.064	97.75
571.276	98.75
571.487	93.75
571.698	89.75
571.91	85.75
572.121	79.75
572.333	85.75
572.544	90.75
572.755	82.75
572.966	77.75
573.178	81.75
573.389	92.75
573.6	90.75
573.811	78.75
574.023	77.75
574.234	92.75
574.445	78.75
574.656	83.75
574.867	77.75
575.078	80.75
575.289	86.75
575.501	97.75
575.712	82.75
575.923	94.75
576.134	77.75
576.345	78.75
576.556	95.75
576.767	91.75
576.978	88.75
577.188	85.75
577.399	92.75
577.61	72.75
577.821	92.75
578.032	97.75
578.243	94.75
578.454	91.75
578.665	82.75
578.875	83.75
579.086	70.75
579.297	79.75
579.508	89.75
579.718	86.75
579.929	94.75
580.14	79.75
580.35	81.75
580.561	103.75
580.772	80.75
580.982	89.75
581.193	91.75
581.403	74.75
581.614	84.75
581.825	89.75
582.035	81.75
582.246	89.75
582.456	77.75
582.667	78.75
582.877	89.75
583.087	89.75
583.298	80.75
583.508	61.75
583.719	82.75
583.929	87.75
584.139	81.75
584.35	77.75
584.56	81.75
584.77	74.75
584.981	70.75
585.191	82.75
585.401	75.75
585.611	81.75
585.821	93.75
586.032	74.75
586.242	63.75
586.452	79.75
586.662	81.75
586.872	74.75
587.082	83.75
587.292	76.75
587.502	74.75
587.713	79.75
587.923	83.75
588.133	100.75
588.343	88.75
588.553	81.75
588.762	79.75
588.972	81.75
589.182	85.75
589.392	84.75
589.602	78.75
589.812	87.75
590.022	74.75
590.232	84.75
590.441	84.75
590.651	87.75
590.861	84.75
591.071	78.75
591.281	83.75
591.49	89.75
591.7	71.75
591.91	81.75
592.119	87.75
592.329	90.75
592.539	71.75
592.748	83.75
592.958	85.75
593.167	85.75
593.377	76.75
593.587	95.75
593.796	90.75
594.006	81.75
594.215	72.75
594.424	89.75
594.634	90.75
594.843	78.75
595.053	92.75
595.262	81.75
595.472	79.75
595.681	80.75
595.89	75.75
596.1	95.75
596.309	75.75
596.518	96.75
596.727	81.75
596.937	93.75
597.146	84.75
597.355	80.75
597.564	75.75
597.774	80.75
597.983	88.75
598.192	85.75
598.401	82.75
598.61	85.75
598.819	78.75
599.028	70.75
599.237	93.75
599.446	95.75
599.655	94.75
599.864	83.75
600.073	80.75
600.282	91.75
600.491	87.75
600.7	87.75
600.909	73.75
601.118	88.75
601.327	90.75
601.536	96.75
601.745	93.75
601.953	78.75
602.162	78.75
602.371	103.75
602.58	77.75
602.789	97.75
602.997	96.75
603.206	90.75
603.415	96.75
603.623	101.75
603.832	98.75
604.041	93.75
604.249	92.75
604.458	91.75
604.666	104.75
604.875	99.75
605.084	84.75
605.292	85.75
605.501	111.75
605.709	90.75
605.918	94.75
606.126	89.75
606.334	89.75
606.543	92.75
606.751	100.75
606.96	105.75
607.168	101.75
607.376	104.75
607.585	85.75
607.793	98.75
608.001	97.75
608.21	97.75
608.418	88.75
608.626	91.75
608.834	98.75
609.043	82.75
609.251	89.75
609.459	87.75
609.667	101.75
609.875	89.75
610.083	87.75
610.291	97.75
610.499	93.75
610.707	90.75
610.916	99.75
611.124	94.75
611.332	96.75
611.54	96.75
611.748	99.75
611.955	102.75
612.163	93.75
612.371	93.75
612.579	85.75
612.787	75.75
612.995	88.75
613.203	98.75
613.411	96.75
613.618	101.75
613.826	93.75
614.034	91.75
614.242	105.75
614.449	81.75
614.657	95.75
614.865	100.75
615.072	91.75
615.28	103.75
615.488	112.75
615.695	100.75
615.903	97.75
616.111	90.75
616.318	93.75
616.526	98.75
616.733	89.75
616.941	82.75
617.148	86.75
617.356	85.75
617.563	93.75
617.771	82.75
617.978	97.75
618.185	88.75
618.393	96.75
618.6	91.75
618.807	94.75
619.015	79.75
619.222	102.75
619.429	85.75
619.637	84.75
619.844	92.75
620.051	95.75
620.258	71.75
620.466	95.75
620.673	97.75
620.88	98.75
621.087	95.75
621.294	86.75
621.501	82.75
621.708	80.75
621.915	95.75
622.122	85.75
622.329	86.75
622.536	98.75
622.743	86.75
622.95	90.75
623.157	95.75
623.364	90.75
623.571	91.75
623.778	91.75
623.985	78.75
624.192	96.75
624.399	74.75
624.606	87.75
624.812	104.75
625.019	89.75
625.226	86.75
625.433	96.75
625.639	74.75
625.846	83.75
626.053	80.75
626.259	88.75
626.466	88.75
626.673	96.75
626.879	96.75
627.086	97.75
627.293	87.75
627.499	85.75
627.706	81.75
627.912	81.75
628.119	96.75
628.325	84.75
628.532	94.75
628.738	94.75
628.945	88.75
629.151	81.75
629.357	90.75
629.564	95.75
629.77	85.75
629.976	90.75
630.183	88.75
630.389	87.75
630.595	89.75
630.802	81.75
631.008	84.75
631.214	99.75
631.42	97.75
631.627	81.75
631.833	87.75
632.039	74.75
632.245	90.75
632.451	89.75
632.657	79.75
632.863	96.75
633.069	82.75
633.275	84.75
633.481	91.75
633.688	82.75
633.893	94.75
634.099	91.75
634.305	85.75
634.511	95.75
634.717	99.75
634.923	87.75
635.129	88.75
635.335	89.75
635.541	90.75
635.747	94.75
635.952	84.75
636.158	87.75
636.364	92.75
636.57	80.75
636.775	84.75
636.981	80.75
637.187	90.75
637.392	85.75
637.598	87.75
637.804	84.75
638.009	85.75
638.215	82.75
638.421	103.75
638.626	82.75
638.832	88.75
639.037	112.75
639.243	92.75
639.448	92.75
639.654	89.75
639.859	85.75
640.065	84.75
640.27	73.75
640.475	90.75
640.681	91.75
640.886	85.75
641.091	75.75
641.297	91.75
641.502	81.75
641.707	93.75
641.913	93.75
642.118	83.75
642.323	90.75
642.528	97.75
642.733	95.75
642.939	82.75
643.144	98.75
643.349	91.75
643.554	95.75
643.759	95.75
643.964	93.75
644.169	83.75
644.374	81.75
644.579	83.75
644.784	89.75
644.989	95.75
645.194	93.75
645.399	94.75
645.604	88.75
645.809	97.75
646.014	90.75
646.219	87.75
646.423	78.75
646.628	84.75
646.833	88.75
647.038	87.75
647.243	97.75
647.447	89.75
647.652	84.75
647.857	87.75
648.062	89.75
648.266	86.75
648.471	89.75
648.676	73.75
648.88	81.75
649.085	94.75
649.289	88.75
649.494	74.75
649.698	97.75
649.903	98.75
650.107	90.75
650.312	77.75
650.516	79.75
650.721	77.75
650.925	89.75
651.13	79.75
651.334	76.75
651.539	89.75
651.743	92.75
651.947	85.75
652.152	97.75
652.356	76.75
652.56	90.75
652.764	100.75
652.969	73.75
653.173	83.75
653.377	73.75
653.581	92.75
653.785	82.75
653.99	91.75
654.194	88.75
654.398	78.75
654.602	86.75
654.806	82.75
655.01	75.75
655.214	80.75
655.418	97.75
655.622	76.75
655.826	74.75
656.03	77.75
656.234	87.75
656.438	89.75
656.642	78.75
656.846	64.75
657.049	68.75
657.253	83.75
657.457	82.75
657.661	87.75
657.865	76.75
658.068	84.75
658.272	82.75
658.476	82.75
658.68	53.75
658.883	78.75
659.087	69.75
659.291	86.75
659.494	79.75
659.698	80.75
659.901	78.75
660.105	90.75
660.309	81.75
660.512	81.75
660.716	80.75
660.919	73.75
661.123	76.75
661.326	82.75
661.53	89.75
661.733	71.75
661.936	90.75
662.14	67.75
662.343	52.75
662.546	70.75
662.75	81.75
662.953	78.75
663.156	81.75
663.36	85.75
663.563	98.75
663.766	80.75
663.969	78.75
664.173	70.75
664.376	81.75
664.579	72.75
664.782	78.75
664.985	87.75
665.188	75.75
665.391	78.75
665.594	71.75
665.797	92.75
666	90.75
666.203	68.75
666.406	68.75
666.609	84.75
666.812	74.75
667.015	75.75
667.218	68.75
667.421	76.75
667.624	64.75
667.827	73.75
668.03	69.75
668.232	78.75
668.435	78.75
668.638	82.75
668.841	73.75
669.043	84.75
669.246	76.75
669.449	70.75
669.651	82.75
669.854	72.75
670.057	67.75
670.259	70.75
670.462	81.75
670.665	76.75
670.867	81.75
671.07	79.75
671.272	66.75
671.475	74.75
671.677	88.75
671.88	67.75
672.082	79.75
672.284	72.75
672.487	95.75
672.689	87.75
672.892	71.75
