Data from Zn(NO3)2Standard.Agarose3%.GreenCap.LampEnergy5.5.E.O_HRD10591_15-02-06-767.txt Node
Date: Mon Jul 22 15:02:06 EDT 2019
User: cochatt
Spectrometer: HR+D1059
Trigger mode: 1
Integration Time (sec): 1.000000E-1
Scans to average: 1
Electric dark correction enabled: true
Nonlinearity correction enabled: false
Boxcar width: 0
XAxis mode: Wavelengths
Number of Pixels in Spectrum: 2048
>>>>>Begin Spectral Data<<<<<
223.165	-17.25
223.4	-17.25
223.635	-17.25
223.869	-14.25
224.104	-13.25
224.338	-17.25
224.573	-13.25
224.808	-6.25
225.042	-2.25
225.277	-4.25
225.511	-1.25
225.746	2.75
225.98	-0.25
226.215	6.75
226.449	16.75
226.683	19.75
226.918	18.75
227.152	24.75
227.387	39.75
227.621	40.75
227.856	36.75
228.09	46.75
228.324	57.75
228.559	60.75
228.793	64.75
229.027	65.75
229.262	72.75
229.496	71.75
229.73	72.75
229.964	74.75
230.199	68.75
230.433	75.75
230.667	64.75
230.901	79.75
231.136	95.75
231.37	77.75
231.604	78.75
231.838	73.75
232.072	79.75
232.306	76.75
232.541	83.75
232.775	70.75
233.009	88.75
233.243	79.75
233.477	91.75
233.711	80.75
233.945	72.75
234.179	62.75
234.413	97.75
234.647	68.75
234.881	84.75
235.115	78.75
235.349	90.75
235.583	78.75
235.817	82.75
236.051	84.75
236.285	79.75
236.519	81.75
236.753	70.75
236.987	72.75
237.221	80.75
237.455	81.75
237.689	73.75
237.922	74.75
238.156	79.75
238.39	78.75
238.624	75.75
238.858	80.75
239.091	75.75
239.325	73.75
239.559	67.75
239.793	66.75
240.027	60.75
240.26	72.75
240.494	63.75
240.728	77.75
240.961	84.75
241.195	66.75
241.429	69.75
241.662	63.75
241.896	70.75
242.13	81.75
242.363	72.75
242.597	71.75
242.83	73.75
243.064	73.75
243.298	70.75
243.531	86.75
243.765	74.75
243.998	72.75
244.232	89.75
244.465	75.75
244.699	77.75
244.932	69.75
245.166	72.75
245.399	94.75
245.633	63.75
245.866	64.75
246.099	75.75
246.333	66.75
246.566	81.75
246.8	70.75
247.033	83.75
247.266	78.75
247.5	95.75
247.733	90.75
247.966	82.75
248.2	77.75
248.433	62.75
248.666	75.75
248.899	82.75
249.133	86.75
249.366	86.75
249.599	69.75
249.832	75.75
250.066	80.75
250.299	72.75
250.532	61.75
250.765	71.75
250.998	85.75
251.231	59.75
251.465	73.75
251.698	84.75
251.931	64.75
252.164	84.75
252.397	74.75
252.63	82.75
252.863	76.75
253.096	77.75
253.329	81.75
253.562	89.75
253.795	82.75
254.028	75.75
254.261	70.75
254.494	78.75
254.727	77.75
254.96	79.75
255.193	84.75
255.426	77.75
255.659	64.75
255.892	79.75
256.124	90.75
256.357	83.75
256.59	80.75
256.823	83.75
257.056	72.75
257.289	58.75
257.521	68.75
257.754	83.75
257.987	79.75
258.22	83.75
258.452	77.75
258.685	82.75
258.918	73.75
259.151	88.75
259.383	81.75
259.616	88.75
259.849	90.75
260.081	89.75
260.314	69.75
260.547	76.75
260.779	78.75
261.012	75.75
261.244	81.75
261.477	82.75
261.71	87.75
261.942	91.75
262.175	83.75
262.407	87.75
262.64	84.75
262.872	76.75
263.105	89.75
263.337	65.75
263.57	78.75
263.802	80.75
264.035	81.75
264.267	78.75
264.499	79.75
264.732	85.75
264.964	63.75
265.197	74.75
265.429	79.75
265.661	78.75
265.894	77.75
266.126	75.75
266.358	82.75
266.591	84.75
266.823	76.75
267.055	86.75
267.287	88.75
267.52	67.75
267.752	87.75
267.984	87.75
268.216	84.75
268.448	78.75
268.681	77.75
268.913	75.75
269.145	78.75
269.377	74.75
269.609	75.75
269.841	84.75
270.073	87.75
270.306	87.75
270.538	81.75
270.77	88.75
271.002	74.75
271.234	78.75
271.466	75.75
271.698	78.75
271.93	94.75
272.162	100.75
272.394	94.75
272.626	75.75
272.858	80.75
273.09	79.75
273.322	81.75
273.553	87.75
273.785	89.75
274.017	87.75
274.249	66.75
274.481	88.75
274.713	80.75
274.945	82.75
275.176	74.75
275.408	71.75
275.64	86.75
275.872	83.75
276.104	84.75
276.335	77.75
276.567	68.75
276.799	84.75
277.031	75.75
277.262	87.75
277.494	88.75
277.726	90.75
277.957	83.75
278.189	76.75
278.421	90.75
278.652	72.75
278.884	87.75
279.115	73.75
279.347	88.75
279.579	82.75
279.81	76.75
280.042	86.75
280.273	76.75
280.505	73.75
280.736	65.75
280.968	82.75
281.199	70.75
281.431	84.75
281.662	83.75
281.894	82.75
282.125	75.75
282.356	84.75
282.588	82.75
282.819	76.75
283.051	78.75
283.282	82.75
283.513	79.75
283.745	65.75
283.976	81.75
284.207	89.75
284.439	84.75
284.67	89.75
284.901	75.75
285.132	79.75
285.364	82.75
285.595	80.75
285.826	74.75
286.057	69.75
286.288	81.75
286.52	81.75
286.751	77.75
286.982	84.75
287.213	77.75
287.444	77.75
287.675	75.75
287.906	82.75
288.138	87.75
288.369	83.75
288.6	83.75
288.831	80.75
289.062	75.75
289.293	73.75
289.524	81.75
289.755	86.75
289.986	75.75
290.217	81.75
290.448	84.75
290.679	88.75
290.91	85.75
291.141	88.75
291.371	88.75
291.602	79.75
291.833	81.75
292.064	84.75
292.295	72.75
292.526	69.75
292.757	84.75
292.987	75.75
293.218	91.75
293.449	72.75
293.68	88.75
293.91	88.75
294.141	87.75
294.372	73.75
294.603	79.75
294.833	74.75
295.064	74.75
295.295	81.75
295.525	74.75
295.756	96.75
295.987	71.75
296.217	74.75
296.448	82.75
296.679	69.75
296.909	84.75
297.14	79.75
297.37	81.75
297.601	68.75
297.831	72.75
298.062	75.75
298.292	89.75
298.523	86.75
298.753	87.75
298.984	76.75
299.214	87.75
299.445	88.75
299.675	86.75
299.905	90.75
300.136	69.75
300.366	69.75
300.597	79.75
300.827	86.75
301.057	83.75
301.288	71.75
301.518	92.75
301.748	74.75
301.979	91.75
302.209	94.75
302.439	82.75
302.669	84.75
302.9	72.75
303.13	74.75
303.36	90.75
303.59	72.75
303.82	88.75
304.051	76.75
304.281	95.75
304.511	89.75
304.741	81.75
304.971	86.75
305.201	80.75
305.431	86.75
305.661	79.75
305.891	84.75
306.121	68.75
306.352	76.75
306.582	94.75
306.812	70.75
307.042	73.75
307.272	79.75
307.502	78.75
307.731	80.75
307.961	84.75
308.191	83.75
308.421	74.75
308.651	99.75
308.881	80.75
309.111	71.75
309.341	79.75
309.571	86.75
309.8	86.75
310.03	85.75
310.26	84.75
310.49	73.75
310.72	70.75
310.949	71.75
311.179	82.75
311.409	70.75
311.639	81.75
311.868	87.75
312.098	95.75
312.328	80.75
312.557	88.75
312.787	78.75
313.017	82.75
313.246	73.75
313.476	88.75
313.706	79.75
313.935	92.75
314.165	72.75
314.394	79.75
314.624	76.75
314.853	69.75
315.083	85.75
315.312	90.75
315.542	75.75
315.771	79.75
316.001	82.75
316.23	74.75
316.46	94.75
316.689	80.75
316.919	75.75
317.148	80.75
317.377	73.75
317.607	76.75
317.836	80.75
318.065	85.75
318.295	67.75
318.524	94.75
318.753	76.75
318.983	74.75
319.212	99.75
319.441	87.75
319.67	84.75
319.9	80.75
320.129	87.75
320.358	77.75
320.587	83.75
320.816	83.75
321.046	78.75
321.275	94.75
321.504	100.75
321.733	98.75
321.962	67.75
322.191	84.75
322.42	73.75
322.649	76.75
322.878	80.75
323.108	93.75
323.337	87.75
323.566	80.75
323.795	76.75
324.024	79.75
324.253	94.75
324.482	81.75
324.71	83.75
324.939	75.75
325.168	73.75
325.397	92.75
325.626	84.75
325.855	80.75
326.084	81.75
326.313	82.75
326.542	78.75
326.77	93.75
326.999	88.75
327.228	64.75
327.457	83.75
327.686	82.75
327.914	89.75
328.143	83.75
328.372	79.75
328.6	79.75
328.829	91.75
329.058	85.75
329.287	91.75
329.515	88.75
329.744	85.75
329.972	79.75
330.201	76.75
330.43	86.75
330.658	61.75
330.887	86.75
331.115	77.75
331.344	75.75
331.572	97.75
331.801	88.75
332.03	74.75
332.258	87.75
332.486	83.75
332.715	88.75
332.943	83.75
333.172	74.75
333.4	76.75
333.629	75.75
333.857	75.75
334.085	76.75
334.314	80.75
334.542	71.75
334.771	70.75
334.999	74.75
335.227	84.75
335.455	87.75
335.684	76.75
335.912	93.75
336.14	77.75
336.369	91.75
336.597	86.75
336.825	77.75
337.053	78.75
337.281	74.75
337.51	77.75
337.738	78.75
337.966	77.75
338.194	77.75
338.422	90.75
338.65	89.75
338.878	88.75
339.106	74.75
339.334	94.75
339.562	78.75
339.79	87.75
340.018	82.75
340.246	63.75
340.474	73.75
340.702	78.75
340.93	86.75
341.158	77.75
341.386	87.75
341.614	91.75
341.842	99.75
342.07	83.75
342.298	97.75
342.526	83.75
342.754	87.75
342.981	75.75
343.209	82.75
343.437	74.75
343.665	72.75
343.893	96.75
344.12	85.75
344.348	66.75
344.576	77.75
344.804	92.75
345.031	66.75
345.259	91.75
345.487	82.75
345.714	96.75
345.942	77.75
346.17	101.75
346.397	84.75
346.625	86.75
346.853	73.75
347.08	80.75
347.308	92.75
347.535	85.75
347.763	79.75
347.99	74.75
348.218	74.75
348.445	78.75
348.673	82.75
348.9	93.75
349.128	86.75
349.355	86.75
349.583	86.75
349.81	82.75
350.037	80.75
350.265	97.75
350.492	80.75
350.72	69.75
350.947	88.75
351.174	66.75
351.402	78.75
351.629	76.75
351.856	95.75
352.083	88.75
352.311	80.75
352.538	74.75
352.765	66.75
352.992	86.75
353.22	76.75
353.447	75.75
353.674	85.75
353.901	86.75
354.128	82.75
354.355	88.75
354.583	74.75
354.81	90.75
355.037	74.75
355.264	84.75
355.491	82.75
355.718	108.75
355.945	86.75
356.172	75.75
356.399	81.75
356.626	71.75
356.853	73.75
357.08	81.75
357.307	84.75
357.534	65.75
357.761	77.75
357.988	87.75
358.215	80.75
358.441	63.75
358.668	74.75
358.895	78.75
359.122	83.75
359.349	76.75
359.576	73.75
359.802	90.75
360.029	86.75
360.256	83.75
360.483	84.75
360.709	84.75
360.936	74.75
361.163	76.75
361.39	87.75
361.616	75.75
361.843	77.75
362.07	75.75
362.296	78.75
362.523	96.75
362.749	84.75
362.976	81.75
363.203	87.75
363.429	84.75
363.656	87.75
363.882	83.75
364.109	77.75
364.335	79.75
364.562	77.75
364.788	72.75
365.015	61.75
365.241	75.75
365.468	76.75
365.694	68.75
365.92	76.75
366.147	73.75
366.373	78.75
366.599	82.75
366.826	97.75
367.052	88.75
367.278	85.75
367.505	92.75
367.731	66.75
367.957	81.75
368.184	77.75
368.41	95.75
368.636	87.75
368.862	89.75
369.089	75.75
369.315	84.75
369.541	75.75
369.767	80.75
369.993	77.75
370.219	76.75
370.445	76.75
370.672	92.75
370.898	72.75
371.124	70.75
371.35	93.75
371.576	81.75
371.802	81.75
372.028	76.75
372.254	87.75
372.48	76.75
372.706	80.75
372.932	80.75
373.158	92.75
373.384	69.75
373.61	79.75
373.835	89.75
374.061	80.75
374.287	90.75
374.513	67.75
374.739	83.75
374.965	79.75
375.191	87.75
375.416	83.75
375.642	91.75
375.868	86.75
376.094	82.75
376.319	88.75
376.545	86.75
376.771	79.75
376.997	74.75
377.222	73.75
377.448	70.75
377.674	75.75
377.899	89.75
378.125	90.75
378.35	85.75
378.576	73.75
378.802	85.75
379.027	81.75
379.253	84.75
379.478	78.75
379.704	77.75
379.929	79.75
380.155	87.75
380.38	89.75
380.606	89.75
380.831	79.75
381.057	87.75
381.282	71.75
381.507	80.75
381.733	90.75
381.958	75.75
382.184	86.75
382.409	75.75
382.634	71.75
382.86	85.75
383.085	73.75
383.31	88.75
383.535	82.75
383.761	78.75
383.986	86.75
384.211	78.75
384.436	76.75
384.662	70.75
384.887	76.75
385.112	92.75
385.337	75.75
385.562	78.75
385.787	69.75
386.013	81.75
386.238	87.75
386.463	82.75
386.688	91.75
386.913	67.75
387.138	86.75
387.363	90.75
387.588	89.75
387.813	86.75
388.038	90.75
388.263	92.75
388.488	88.75
388.713	91.75
388.938	82.75
389.163	77.75
389.387	86.75
389.612	73.75
389.837	78.75
390.062	89.75
390.287	80.75
390.512	80.75
390.736	84.75
390.961	83.75
391.186	89.75
391.411	80.75
391.636	96.75
391.86	73.75
392.085	81.75
392.31	81.75
392.534	85.75
392.759	77.75
392.984	87.75
393.208	70.75
393.433	68.75
393.658	81.75
393.882	73.75
394.107	74.75
394.331	74.75
394.556	85.75
394.78	92.75
395.005	70.75
395.229	91.75
395.454	76.75
395.678	79.75
395.903	80.75
396.127	96.75
396.352	91.75
396.576	80.75
396.801	71.75
397.025	86.75
397.249	96.75
397.474	84.75
397.698	87.75
397.922	76.75
398.147	87.75
398.371	78.75
398.595	93.75
398.82	64.75
399.044	83.75
399.268	86.75
399.492	60.75
399.717	79.75
399.941	86.75
400.165	88.75
400.389	89.75
400.613	66.75
400.837	90.75
401.062	79.75
401.286	65.75
401.51	81.75
401.734	84.75
401.958	85.75
402.182	82.75
402.406	80.75
402.63	77.75
402.854	96.75
403.078	78.75
403.302	81.75
403.526	72.75
403.75	90.75
403.974	83.75
404.198	87.75
404.422	76.75
404.645	73.75
404.869	89.75
405.093	87.75
405.317	84.75
405.541	94.75
405.765	82.75
405.988	72.75
406.212	85.75
406.436	83.75
406.66	95.75
406.883	61.75
407.107	94.75
407.331	77.75
407.555	74.75
407.778	66.75
408.002	87.75
408.226	82.75
408.449	83.75
408.673	64.75
408.896	77.75
409.12	96.75
409.344	89.75
409.567	77.75
409.791	88.75
410.014	91.75
410.238	85.75
410.461	86.75
410.685	68.75
410.908	82.75
411.132	84.75
411.355	76.75
411.578	88.75
411.802	83.75
412.025	82.75
412.249	86.75
412.472	73.75
412.695	78.75
412.919	85.75
413.142	90.75
413.365	89.75
413.589	82.75
413.812	86.75
414.035	84.75
414.258	89.75
414.482	85.75
414.705	82.75
414.928	70.75
415.151	78.75
415.374	84.75
415.597	64.75
415.821	89.75
416.044	95.75
416.267	107.75
416.49	87.75
416.713	79.75
416.936	84.75
417.159	75.75
417.382	100.75
417.605	92.75
417.828	76.75
418.051	83.75
418.274	87.75
418.497	80.75
418.72	83.75
418.943	91.75
419.166	100.75
419.389	104.75
419.611	73.75
419.834	87.75
420.057	86.75
420.28	91.75
420.503	92.75
420.726	75.75
420.948	70.75
421.171	74.75
421.394	85.75
421.617	94.75
421.839	94.75
422.062	73.75
422.285	75.75
422.507	77.75
422.73	90.75
422.953	79.75
423.175	82.75
423.398	81.75
423.621	82.75
423.843	83.75
424.066	83.75
424.288	95.75
424.511	76.75
424.733	84.75
424.956	69.75
425.178	86.75
425.401	80.75
425.623	86.75
425.846	88.75
426.068	81.75
426.291	91.75
426.513	90.75
426.735	102.75
426.958	76.75
427.18	86.75
427.402	89.75
427.625	89.75
427.847	83.75
428.069	91.75
428.292	75.75
428.514	95.75
428.736	81.75
428.958	79.75
429.181	79.75
429.403	83.75
429.625	95.75
429.847	88.75
430.069	84.75
430.292	83.75
430.514	80.75
430.736	83.75
430.958	90.75
431.18	81.75
431.402	76.75
431.624	86.75
431.846	82.75
432.068	70.75
432.29	70.75
432.512	78.75
432.734	89.75
432.956	91.75
433.178	74.75
433.4	91.75
433.622	94.75
433.844	91.75
434.066	81.75
434.287	77.75
434.509	73.75
434.731	83.75
434.953	89.75
435.175	85.75
435.397	83.75
435.618	81.75
435.84	89.75
436.062	76.75
436.284	82.75
436.505	88.75
436.727	81.75
436.949	70.75
437.17	91.75
437.392	83.75
437.614	81.75
437.835	87.75
438.057	76.75
438.278	69.75
438.5	90.75
438.721	87.75
438.943	84.75
439.165	90.75
439.386	84.75
439.608	90.75
439.829	85.75
440.05	87.75
440.272	96.75
440.493	77.75
440.715	86.75
440.936	79.75
441.158	94.75
441.379	97.75
441.6	99.75
441.822	97.75
442.043	75.75
442.264	89.75
442.486	86.75
442.707	91.75
442.928	96.75
443.149	93.75
443.371	89.75
443.592	80.75
443.813	81.75
444.034	76.75
444.255	81.75
444.476	77.75
444.698	89.75
444.919	94.75
445.14	231.75
445.361	143.75
445.582	99.75
445.803	87.75
446.024	99.75
446.245	93.75
446.466	88.75
446.687	92.75
446.908	93.75
447.129	91.75
447.35	77.75
447.571	90.75
447.792	101.75
448.013	76.75
448.234	83.75
448.455	87.75
448.675	82.75
448.896	98.75
449.117	73.75
449.338	104.75
449.559	101.75
449.779	96.75
450	63.75
450.221	82.75
450.442	81.75
450.662	92.75
450.883	75.75
451.104	93.75
451.324	84.75
451.545	98.75
451.766	85.75
451.986	94.75
452.207	85.75
452.428	66.75
452.648	82.75
452.869	85.75
453.089	86.75
453.31	81.75
453.53	75.75
453.751	85.75
453.971	78.75
454.192	66.75
454.412	96.75
454.633	83.75
454.853	78.75
455.073	80.75
455.294	71.75
455.514	87.75
455.734	82.75
455.955	71.75
456.175	83.75
456.395	78.75
456.616	89.75
456.836	79.75
457.056	81.75
457.276	86.75
457.497	87.75
457.717	90.75
457.937	88.75
458.157	80.75
458.377	91.75
458.598	90.75
458.818	79.75
459.038	82.75
459.258	92.75
459.478	70.75
459.698	83.75
459.918	62.75
460.138	79.75
460.358	88.75
460.578	81.75
460.798	75.75
461.018	82.75
461.238	76.75
461.458	77.75
461.678	87.75
461.898	73.75
462.118	70.75
462.338	83.75
462.558	94.75
462.777	77.75
462.997	87.75
463.217	79.75
463.437	85.75
463.657	86.75
463.876	84.75
464.096	73.75
464.316	82.75
464.536	87.75
464.755	82.75
464.975	78.75
465.195	84.75
465.414	90.75
465.634	82.75
465.854	92.75
466.073	73.75
466.293	88.75
466.512	82.75
466.732	87.75
466.951	95.75
467.171	95.75
467.391	79.75
467.61	72.75
467.829	91.75
468.049	75.75
468.268	79.75
468.488	96.75
468.707	102.75
468.927	97.75
469.146	89.75
469.365	90.75
469.585	96.75
469.804	87.75
470.023	88.75
470.243	79.75
470.462	110.75
470.681	87.75
470.901	89.75
471.12	91.75
471.339	81.75
471.558	79.75
471.777	88.75
471.997	96.75
472.216	88.75
472.435	88.75
472.654	81.75
472.873	90.75
473.092	75.75
473.311	94.75
473.53	93.75
473.749	91.75
473.968	100.75
474.187	85.75
474.406	102.75
474.625	81.75
474.844	72.75
475.063	90.75
475.282	83.75
475.501	89.75
475.72	84.75
475.939	76.75
476.158	74.75
476.377	79.75
476.596	79.75
476.814	89.75
477.033	74.75
477.252	75.75
477.471	82.75
477.69	96.75
477.908	91.75
478.127	76.75
478.346	82.75
478.564	106.75
478.783	86.75
479.002	83.75
479.22	86.75
479.439	78.75
479.658	76.75
479.876	78.75
480.095	81.75
480.313	91.75
480.532	95.75
480.751	75.75
480.969	83.75
481.188	86.75
481.406	97.75
481.624	80.75
481.843	79.75
482.061	63.75
482.28	87.75
482.498	77.75
482.717	82.75
482.935	75.75
483.153	91.75
483.372	86.75
483.59	85.75
483.808	82.75
484.027	85.75
484.245	100.75
484.463	94.75
484.681	95.75
484.9	86.75
485.118	92.75
485.336	88.75
485.554	83.75
485.772	74.75
485.99	87.75
486.209	90.75
486.427	91.75
486.645	94.75
486.863	90.75
487.081	82.75
487.299	94.75
487.517	85.75
487.735	98.75
487.953	96.75
488.171	98.75
488.389	97.75
488.607	95.75
488.825	100.75
489.043	96.75
489.261	79.75
489.479	106.75
489.696	77.75
489.914	90.75
490.132	84.75
490.35	94.75
490.568	83.75
490.786	92.75
491.003	96.75
491.221	83.75
491.439	99.75
491.657	87.75
491.874	92.75
492.092	98.75
492.31	105.75
492.527	114.75
492.745	105.75
492.963	103.75
493.18	99.75
493.398	98.75
493.615	93.75
493.833	94.75
494.05	107.75
494.268	114.75
494.485	99.75
494.703	93.75
494.92	82.75
495.138	75.75
495.355	75.75
495.573	95.75
495.79	88.75
496.008	95.75
496.225	88.75
496.442	95.75
496.66	100.75
496.877	89.75
497.094	103.75
497.312	89.75
497.529	102.75
497.746	95.75
497.963	85.75
498.181	93.75
498.398	94.75
498.615	95.75
498.832	74.75
499.049	95.75
499.267	74.75
499.484	93.75
499.701	101.75
499.918	95.75
500.135	94.75
500.352	83.75
500.569	89.75
500.786	83.75
501.003	104.75
501.22	82.75
501.437	90.75
501.654	84.75
501.871	82.75
502.088	90.75
502.305	105.75
502.522	93.75
502.739	96.75
502.956	85.75
503.172	83.75
503.389	92.75
503.606	84.75
503.823	91.75
504.04	82.75
504.256	96.75
504.473	80.75
504.69	76.75
504.907	91.75
505.123	100.75
505.34	72.75
505.557	93.75
505.773	96.75
505.99	79.75
506.207	85.75
506.423	89.75
506.64	90.75
506.856	85.75
507.073	77.75
507.289	75.75
507.506	88.75
507.722	89.75
507.939	97.75
508.155	78.75
508.372	69.75
508.588	78.75
508.805	79.75
509.021	93.75
509.238	91.75
509.454	78.75
509.67	80.75
509.887	86.75
510.103	93.75
510.319	77.75
510.536	76.75
510.752	73.75
510.968	75.75
511.184	76.75
511.401	79.75
511.617	88.75
511.833	84.75
512.049	76.75
512.265	97.75
512.481	83.75
512.698	87.75
512.914	96.75
513.13	94.75
513.346	79.75
513.562	81.75
513.778	83.75
513.994	87.75
514.21	88.75
514.426	86.75
514.642	82.75
514.858	72.75
515.074	77.75
515.29	70.75
515.506	79.75
515.721	82.75
515.937	89.75
516.153	69.75
516.369	76.75
516.585	93.75
516.801	92.75
517.016	88.75
517.232	85.75
517.448	93.75
517.664	87.75
517.879	93.75
518.095	71.75
518.311	69.75
518.527	72.75
518.742	93.75
518.958	88.75
519.173	88.75
519.389	84.75
519.605	100.75
519.82	85.75
520.036	64.75
520.251	84.75
520.467	82.75
520.682	94.75
520.898	91.75
521.113	72.75
521.329	87.75
521.544	88.75
521.76	85.75
521.975	75.75
522.19	81.75
522.406	87.75
522.621	83.75
522.836	85.75
523.052	101.75
523.267	92.75
523.482	86.75
523.698	87.75
523.913	87.75
524.128	95.75
524.343	77.75
524.559	81.75
524.774	88.75
524.989	76.75
525.204	100.75
525.419	96.75
525.634	81.75
525.849	96.75
526.064	87.75
526.28	102.75
526.495	91.75
526.71	75.75
526.925	93.75
527.14	75.75
527.355	86.75
527.57	88.75
527.785	83.75
527.999	84.75
528.214	83.75
528.429	84.75
528.644	100.75
528.859	95.75
529.074	101.75
529.289	100.75
529.503	92.75
529.718	92.75
529.933	77.75
530.148	87.75
530.363	71.75
530.577	86.75
530.792	84.75
531.007	82.75
531.221	89.75
531.436	82.75
531.651	86.75
531.865	72.75
532.08	84.75
532.295	86.75
532.509	67.75
532.724	83.75
532.938	79.75
533.153	92.75
533.367	82.75
533.582	99.75
533.796	96.75
534.011	84.75
534.225	83.75
534.44	82.75
534.654	92.75
534.868	100.75
535.083	82.75
535.297	71.75
535.511	82.75
535.726	83.75
535.94	79.75
536.154	95.75
536.369	85.75
536.583	88.75
536.797	94.75
537.011	85.75
537.225	89.75
537.44	67.75
537.654	70.75
537.868	81.75
538.082	85.75
538.296	92.75
538.51	84.75
538.724	85.75
538.938	89.75
539.153	89.75
539.367	88.75
539.581	78.75
539.795	89.75
540.009	99.75
540.222	77.75
540.436	91.75
540.65	88.75
540.864	87.75
541.078	86.75
541.292	90.75
541.506	92.75
541.72	116.75
541.934	94.75
542.147	99.75
542.361	92.75
542.575	85.75
542.789	66.75
543.002	76.75
543.216	70.75
543.43	84.75
543.644	80.75
543.857	95.75
544.071	97.75
544.285	103.75
544.498	92.75
544.712	90.75
544.925	101.75
545.139	83.75
545.352	92.75
545.566	103.75
545.779	88.75
545.993	79.75
546.206	99.75
546.42	78.75
546.633	112.75
546.847	98.75
547.06	90.75
547.274	106.75
547.487	100.75
547.7	100.75
547.914	100.75
548.127	107.75
548.34	98.75
548.554	96.75
548.767	84.75
548.98	94.75
549.193	95.75
549.407	103.75
549.62	90.75
549.833	101.75
550.046	106.75
550.259	98.75
550.473	84.75
550.686	108.75
550.899	104.75
551.112	88.75
551.325	93.75
551.538	97.75
551.751	92.75
551.964	89.75
552.177	78.75
552.39	75.75
552.603	95.75
552.816	104.75
553.029	88.75
553.242	116.75
553.455	103.75
553.667	102.75
553.88	105.75
554.093	96.75
554.306	91.75
554.519	94.75
554.732	99.75
554.944	105.75
555.157	83.75
555.37	98.75
555.583	91.75
555.795	106.75
556.008	83.75
556.221	88.75
556.433	101.75
556.646	79.75
556.859	88.75
557.071	69.75
557.284	99.75
557.496	94.75
557.709	92.75
557.921	94.75
558.134	87.75
558.346	95.75
558.559	91.75
558.771	88.75
558.984	81.75
559.196	80.75
559.409	94.75
559.621	89.75
559.833	87.75
560.046	81.75
560.258	80.75
560.47	97.75
560.683	95.75
560.895	76.75
561.107	96.75
561.32	95.75
561.532	90.75
561.744	74.75
561.956	96.75
562.168	88.75
562.381	99.75
562.593	87.75
562.805	93.75
563.017	104.75
563.229	94.75
563.441	99.75
563.653	89.75
563.865	75.75
564.077	95.75
564.289	101.75
564.501	98.75
564.713	90.75
564.925	102.75
565.137	84.75
565.349	97.75
565.561	90.75
565.773	83.75
565.985	92.75
566.197	75.75
566.408	94.75
566.62	84.75
566.832	96.75
567.044	80.75
567.255	84.75
567.467	85.75
567.679	87.75
567.891	81.75
568.102	84.75
568.314	67.75
568.526	91.75
568.737	85.75
568.949	82.75
569.161	80.75
569.372	84.75
569.584	87.75
569.795	83.75
570.007	86.75
570.218	68.75
570.43	76.75
570.641	83.75
570.853	80.75
571.064	88.75
571.276	81.75
571.487	77.75
571.698	77.75
571.91	89.75
572.121	82.75
572.333	71.75
572.544	92.75
572.755	79.75
572.966	76.75
573.178	83.75
573.389	73.75
573.6	83.75
573.811	92.75
574.023	81.75
574.234	85.75
574.445	69.75
574.656	96.75
574.867	79.75
575.078	85.75
575.289	77.75
575.501	83.75
575.712	88.75
575.923	82.75
576.134	79.75
576.345	89.75
576.556	103.75
576.767	68.75
576.978	83.75
577.188	87.75
577.399	98.75
577.61	83.75
577.821	83.75
578.032	82.75
578.243	87.75
578.454	83.75
578.665	72.75
578.875	79.75
579.086	73.75
579.297	70.75
579.508	72.75
579.718	87.75
579.929	75.75
580.14	85.75
580.35	68.75
580.561	68.75
580.772	79.75
580.982	85.75
581.193	79.75
581.403	82.75
581.614	91.75
581.825	84.75
582.035	88.75
582.246	73.75
582.456	64.75
582.667	71.75
582.877	74.75
583.087	84.75
583.298	82.75
583.508	75.75
583.719	78.75
583.929	79.75
584.139	91.75
584.35	66.75
584.56	80.75
584.77	89.75
584.981	90.75
585.191	100.75
585.401	80.75
585.611	90.75
585.821	79.75
586.032	88.75
586.242	81.75
586.452	96.75
586.662	72.75
586.872	83.75
587.082	90.75
587.292	79.75
587.502	82.75
587.713	75.75
587.923	80.75
588.133	89.75
588.343	81.75
588.553	77.75
588.762	70.75
588.972	98.75
589.182	96.75
589.392	92.75
589.602	85.75
589.812	89.75
590.022	70.75
590.232	82.75
590.441	92.75
590.651	74.75
590.861	80.75
591.071	83.75
591.281	87.75
591.49	83.75
591.7	74.75
591.91	86.75
592.119	88.75
592.329	74.75
592.539	76.75
592.748	83.75
592.958	75.75
593.167	78.75
593.377	82.75
593.587	81.75
593.796	77.75
594.006	67.75
594.215	71.75
594.424	87.75
594.634	82.75
594.843	91.75
595.053	83.75
595.262	93.75
595.472	92.75
595.681	89.75
595.89	72.75
596.1	82.75
596.309	91.75
596.518	78.75
596.727	91.75
596.937	82.75
597.146	88.75
597.355	81.75
597.564	94.75
597.774	84.75
597.983	90.75
598.192	85.75
598.401	78.75
598.61	78.75
598.819	74.75
599.028	84.75
599.237	82.75
599.446	91.75
599.655	84.75
599.864	75.75
600.073	85.75
600.282	86.75
600.491	87.75
600.7	82.75
600.909	75.75
601.118	74.75
601.327	70.75
601.536	83.75
601.745	84.75
601.953	70.75
602.162	82.75
602.371	82.75
602.58	89.75
602.789	76.75
602.997	76.75
603.206	100.75
603.415	84.75
603.623	80.75
603.832	94.75
604.041	91.75
604.249	80.75
604.458	81.75
604.666	98.75
604.875	87.75
605.084	88.75
605.292	87.75
605.501	64.75
605.709	82.75
605.918	75.75
606.126	88.75
606.334	79.75
606.543	82.75
606.751	105.75
606.96	95.75
607.168	73.75
607.376	90.75
607.585	82.75
607.793	91.75
608.001	80.75
608.21	83.75
608.418	83.75
608.626	99.75
608.834	102.75
609.043	79.75
609.251	96.75
609.459	92.75
609.667	81.75
609.875	86.75
610.083	87.75
610.291	96.75
610.499	86.75
610.707	94.75
610.916	91.75
611.124	102.75
611.332	88.75
611.54	72.75
611.748	89.75
611.955	84.75
612.163	94.75
612.371	94.75
612.579	83.75
612.787	89.75
612.995	84.75
613.203	82.75
613.411	79.75
613.618	84.75
613.826	88.75
614.034	96.75
614.242	74.75
614.449	82.75
614.657	81.75
614.865	78.75
615.072	92.75
615.28	87.75
615.488	77.75
615.695	102.75
615.903	80.75
616.111	84.75
616.318	92.75
616.526	88.75
616.733	97.75
616.941	80.75
617.148	82.75
617.356	86.75
617.563	76.75
617.771	93.75
617.978	85.75
618.185	81.75
618.393	75.75
618.6	80.75
618.807	91.75
619.015	85.75
619.222	97.75
619.429	85.75
619.637	81.75
619.844	84.75
620.051	90.75
620.258	90.75
620.466	86.75
620.673	86.75
620.88	80.75
621.087	84.75
621.294	89.75
621.501	87.75
621.708	84.75
621.915	98.75
622.122	73.75
622.329	94.75
622.536	87.75
622.743	92.75
622.95	86.75
623.157	86.75
623.364	80.75
623.571	79.75
623.778	83.75
623.985	91.75
624.192	79.75
624.399	93.75
624.606	88.75
624.812	71.75
625.019	79.75
625.226	97.75
625.433	91.75
625.639	89.75
625.846	81.75
626.053	85.75
626.259	91.75
626.466	86.75
626.673	75.75
626.879	72.75
627.086	86.75
627.293	86.75
627.499	90.75
627.706	83.75
627.912	85.75
628.119	81.75
628.325	88.75
628.532	98.75
628.738	90.75
628.945	82.75
629.151	83.75
629.357	83.75
629.564	76.75
629.77	75.75
629.976	73.75
630.183	88.75
630.389	81.75
630.595	78.75
630.802	72.75
631.008	86.75
631.214	81.75
631.42	84.75
631.627	81.75
631.833	91.75
632.039	86.75
632.245	81.75
632.451	74.75
632.657	82.75
632.863	86.75
633.069	87.75
633.275	82.75
633.481	76.75
633.688	91.75
633.893	86.75
634.099	69.75
634.305	94.75
634.511	85.75
634.717	71.75
634.923	78.75
635.129	87.75
635.335	95.75
635.541	91.75
635.747	89.75
635.952	83.75
636.158	88.75
636.364	87.75
636.57	76.75
636.775	91.75
636.981	90.75
637.187	84.75
637.392	76.75
637.598	77.75
637.804	76.75
638.009	84.75
638.215	85.75
638.421	81.75
638.626	93.75
638.832	91.75
639.037	77.75
639.243	85.75
639.448	82.75
639.654	94.75
639.859	89.75
640.065	71.75
640.27	80.75
640.475	91.75
640.681	76.75
640.886	74.75
641.091	85.75
641.297	84.75
641.502	88.75
641.707	83.75
641.913	75.75
642.118	83.75
642.323	88.75
642.528	96.75
642.733	89.75
642.939	85.75
643.144	74.75
643.349	75.75
643.554	79.75
643.759	82.75
643.964	83.75
644.169	92.75
644.374	80.75
644.579	89.75
644.784	84.75
644.989	86.75
645.194	79.75
645.399	96.75
645.604	98.75
645.809	76.75
646.014	81.75
646.219	90.75
646.423	71.75
646.628	82.75
646.833	87.75
647.038	80.75
647.243	81.75
647.447	72.75
647.652	73.75
647.857	78.75
648.062	71.75
648.266	87.75
648.471	73.75
648.676	80.75
648.88	92.75
649.085	90.75
649.289	75.75
649.494	88.75
649.698	84.75
649.903	84.75
650.107	78.75
650.312	74.75
650.516	88.75
650.721	83.75
650.925	83.75
651.13	88.75
651.334	71.75
651.539	85.75
651.743	72.75
651.947	85.75
652.152	89.75
652.356	83.75
652.56	83.75
652.764	75.75
652.969	91.75
653.173	76.75
653.377	81.75
653.581	80.75
653.785	83.75
653.99	86.75
654.194	74.75
654.398	71.75
654.602	74.75
654.806	75.75
655.01	84.75
655.214	83.75
655.418	82.75
655.622	71.75
655.826	74.75
656.03	86.75
656.234	72.75
656.438	75.75
656.642	75.75
656.846	81.75
657.049	77.75
657.253	75.75
657.457	89.75
657.661	80.75
657.865	71.75
658.068	80.75
658.272	57.75
658.476	74.75
658.68	83.75
658.883	81.75
659.087	78.75
659.291	70.75
659.494	74.75
659.698	81.75
659.901	82.75
660.105	82.75
660.309	86.75
660.512	73.75
660.716	79.75
660.919	82.75
661.123	78.75
661.326	74.75
661.53	77.75
661.733	82.75
661.936	67.75
662.14	84.75
662.343	80.75
662.546	75.75
662.75	74.75
662.953	86.75
663.156	93.75
663.36	75.75
663.563	72.75
663.766	75.75
663.969	82.75
664.173	74.75
664.376	87.75
664.579	94.75
664.782	77.75
664.985	74.75
665.188	76.75
665.391	83.75
665.594	80.75
665.797	86.75
666	79.75
666.203	83.75
666.406	77.75
666.609	75.75
666.812	80.75
667.015	85.75
667.218	70.75
667.421	79.75
667.624	74.75
667.827	80.75
668.03	66.75
668.232	74.75
668.435	77.75
668.638	74.75
668.841	75.75
669.043	90.75
669.246	88.75
669.449	73.75
669.651	70.75
669.854	82.75
670.057	80.75
670.259	69.75
670.462	61.75
670.665	76.75
670.867	74.75
671.07	88.75
671.272	82.75
671.475	88.75
671.677	83.75
671.88	87.75
672.082	70.75
672.284	97.75
672.487	84.75
672.689	87.75
672.892	72.75
