Data from Zn(NO3)2Standard.Agarose3%.GreenCap.LampEnergy10E.O_HRD10591_15-07-09-943.txt Node
Date: Mon Jul 22 15:07:09 EDT 2019
User: cochatt
Spectrometer: HR+D1059
Trigger mode: 1
Integration Time (sec): 1.000000E-1
Scans to average: 1
Electric dark correction enabled: true
Nonlinearity correction enabled: false
Boxcar width: 0
XAxis mode: Wavelengths
Number of Pixels in Spectrum: 2048
>>>>>Begin Spectral Data<<<<<
223.165	-15.94
223.4	-15.94
223.635	-15.94
223.869	-14.94
224.104	-24.94
224.338	-1.94
224.573	-20.94
224.808	-18.94
225.042	0.06
225.277	-5.94
225.511	-9.94
225.746	-0.94
225.98	2.06
226.215	12.06
226.449	25.06
226.683	8.06
226.918	30.06
227.152	37.06
227.387	30.06
227.621	40.06
227.856	34.06
228.09	41.06
228.324	62.06
228.559	52.06
228.793	62.06
229.027	43.06
229.262	53.06
229.496	73.06
229.73	70.06
229.964	69.06
230.199	75.06
230.433	68.06
230.667	82.06
230.901	79.06
231.136	88.06
231.37	81.06
231.604	90.06
231.838	81.06
232.072	93.06
232.306	77.06
232.541	78.06
232.775	71.06
233.009	72.06
233.243	83.06
233.477	80.06
233.711	78.06
233.945	70.06
234.179	82.06
234.413	86.06
234.647	70.06
234.881	84.06
235.115	91.06
235.349	65.06
235.583	74.06
235.817	78.06
236.051	68.06
236.285	82.06
236.519	62.06
236.753	81.06
236.987	81.06
237.221	84.06
237.455	70.06
237.689	79.06
237.922	72.06
238.156	75.06
238.39	76.06
238.624	71.06
238.858	74.06
239.091	72.06
239.325	80.06
239.559	74.06
239.793	62.06
240.027	71.06
240.26	76.06
240.494	63.06
240.728	86.06
240.961	79.06
241.195	76.06
241.429	74.06
241.662	75.06
241.896	76.06
242.13	70.06
242.363	72.06
242.597	76.06
242.83	72.06
243.064	76.06
243.298	81.06
243.531	86.06
243.765	74.06
243.998	77.06
244.232	92.06
244.465	80.06
244.699	63.06
244.932	80.06
245.166	81.06
245.399	70.06
245.633	86.06
245.866	70.06
246.099	70.06
246.333	71.06
246.566	86.06
246.8	79.06
247.033	66.06
247.266	86.06
247.5	81.06
247.733	74.06
247.966	68.06
248.2	76.06
248.433	83.06
248.666	75.06
248.899	55.06
249.133	78.06
249.366	82.06
249.599	77.06
249.832	65.06
250.066	82.06
250.299	84.06
250.532	72.06
250.765	76.06
250.998	78.06
251.231	83.06
251.465	82.06
251.698	82.06
251.931	76.06
252.164	68.06
252.397	82.06
252.63	86.06
252.863	73.06
253.096	80.06
253.329	85.06
253.562	64.06
253.795	94.06
254.028	86.06
254.261	77.06
254.494	75.06
254.727	88.06
254.96	72.06
255.193	78.06
255.426	66.06
255.659	78.06
255.892	83.06
256.124	81.06
256.357	71.06
256.59	84.06
256.823	78.06
257.056	82.06
257.289	75.06
257.521	78.06
257.754	88.06
257.987	72.06
258.22	80.06
258.452	88.06
258.685	85.06
258.918	83.06
259.151	87.06
259.383	80.06
259.616	77.06
259.849	87.06
260.081	70.06
260.314	77.06
260.547	81.06
260.779	86.06
261.012	58.06
261.244	71.06
261.477	82.06
261.71	81.06
261.942	65.06
262.175	86.06
262.407	81.06
262.64	75.06
262.872	87.06
263.105	68.06
263.337	79.06
263.57	79.06
263.802	65.06
264.035	89.06
264.267	69.06
264.499	85.06
264.732	75.06
264.964	75.06
265.197	77.06
265.429	69.06
265.661	79.06
265.894	76.06
266.126	87.06
266.358	79.06
266.591	84.06
266.823	85.06
267.055	72.06
267.287	76.06
267.52	80.06
267.752	69.06
267.984	82.06
268.216	85.06
268.448	80.06
268.681	76.06
268.913	76.06
269.145	82.06
269.377	94.06
269.609	82.06
269.841	69.06
270.073	90.06
270.306	85.06
270.538	71.06
270.77	83.06
271.002	75.06
271.234	82.06
271.466	93.06
271.698	76.06
271.93	82.06
272.162	75.06
272.394	79.06
272.626	89.06
272.858	66.06
273.09	72.06
273.322	79.06
273.553	79.06
273.785	77.06
274.017	83.06
274.249	56.06
274.481	83.06
274.713	82.06
274.945	101.06
275.176	73.06
275.408	73.06
275.64	70.06
275.872	77.06
276.104	66.06
276.335	93.06
276.567	85.06
276.799	90.06
277.031	83.06
277.262	70.06
277.494	77.06
277.726	83.06
277.957	73.06
278.189	81.06
278.421	88.06
278.652	76.06
278.884	78.06
279.115	84.06
279.347	87.06
279.579	79.06
279.81	91.06
280.042	85.06
280.273	76.06
280.505	78.06
280.736	82.06
280.968	78.06
281.199	93.06
281.431	87.06
281.662	69.06
281.894	72.06
282.125	89.06
282.356	82.06
282.588	79.06
282.819	81.06
283.051	82.06
283.282	99.06
283.513	89.06
283.745	72.06
283.976	74.06
284.207	101.06
284.439	97.06
284.67	101.06
284.901	86.06
285.132	75.06
285.364	72.06
285.595	80.06
285.826	88.06
286.057	82.06
286.288	77.06
286.52	82.06
286.751	74.06
286.982	81.06
287.213	93.06
287.444	97.06
287.675	78.06
287.906	82.06
288.138	76.06
288.369	78.06
288.6	72.06
288.831	80.06
289.062	82.06
289.293	71.06
289.524	85.06
289.755	104.06
289.986	88.06
290.217	82.06
290.448	80.06
290.679	80.06
290.91	81.06
291.141	92.06
291.371	75.06
291.602	81.06
291.833	78.06
292.064	95.06
292.295	68.06
292.526	76.06
292.757	82.06
292.987	87.06
293.218	73.06
293.449	82.06
293.68	84.06
293.91	95.06
294.141	81.06
294.372	89.06
294.603	85.06
294.833	86.06
295.064	79.06
295.295	81.06
295.525	85.06
295.756	96.06
295.987	85.06
296.217	83.06
296.448	74.06
296.679	85.06
296.909	90.06
297.14	79.06
297.37	81.06
297.601	75.06
297.831	81.06
298.062	94.06
298.292	70.06
298.523	84.06
298.753	79.06
298.984	85.06
299.214	69.06
299.445	85.06
299.675	81.06
299.905	86.06
300.136	93.06
300.366	88.06
300.597	93.06
300.827	74.06
301.057	81.06
301.288	71.06
301.518	81.06
301.748	82.06
301.979	79.06
302.209	88.06
302.439	82.06
302.669	84.06
302.9	82.06
303.13	75.06
303.36	81.06
303.59	79.06
303.82	82.06
304.051	92.06
304.281	86.06
304.511	84.06
304.741	79.06
304.971	77.06
305.201	82.06
305.431	73.06
305.661	82.06
305.891	70.06
306.121	81.06
306.352	78.06
306.582	90.06
306.812	70.06
307.042	68.06
307.272	85.06
307.502	76.06
307.731	91.06
307.961	81.06
308.191	83.06
308.421	90.06
308.651	70.06
308.881	82.06
309.111	78.06
309.341	78.06
309.571	78.06
309.8	74.06
310.03	84.06
310.26	77.06
310.49	93.06
310.72	77.06
310.949	77.06
311.179	79.06
311.409	76.06
311.639	88.06
311.868	68.06
312.098	86.06
312.328	79.06
312.557	91.06
312.787	88.06
313.017	80.06
313.246	80.06
313.476	67.06
313.706	77.06
313.935	81.06
314.165	84.06
314.394	77.06
314.624	84.06
314.853	84.06
315.083	84.06
315.312	90.06
315.542	94.06
315.771	74.06
316.001	65.06
316.23	81.06
316.46	77.06
316.689	76.06
316.919	76.06
317.148	76.06
317.377	83.06
317.607	59.06
317.836	73.06
318.065	75.06
318.295	76.06
318.524	83.06
318.753	67.06
318.983	88.06
319.212	100.06
319.441	89.06
319.67	74.06
319.9	68.06
320.129	63.06
320.358	83.06
320.587	94.06
320.816	75.06
321.046	97.06
321.275	87.06
321.504	77.06
321.733	91.06
321.962	80.06
322.191	82.06
322.42	79.06
322.649	79.06
322.878	86.06
323.108	86.06
323.337	64.06
323.566	74.06
323.795	71.06
324.024	91.06
324.253	86.06
324.482	92.06
324.71	86.06
324.939	76.06
325.168	87.06
325.397	86.06
325.626	82.06
325.855	76.06
326.084	78.06
326.313	73.06
326.542	88.06
326.77	86.06
326.999	89.06
327.228	105.06
327.457	90.06
327.686	81.06
327.914	87.06
328.143	81.06
328.372	70.06
328.6	87.06
328.829	77.06
329.058	81.06
329.287	82.06
329.515	84.06
329.744	99.06
329.972	85.06
330.201	84.06
330.43	82.06
330.658	81.06
330.887	86.06
331.115	95.06
331.344	97.06
331.572	78.06
331.801	80.06
332.03	70.06
332.258	87.06
332.486	75.06
332.715	97.06
332.943	94.06
333.172	80.06
333.4	89.06
333.629	78.06
333.857	79.06
334.085	86.06
334.314	68.06
334.542	91.06
334.771	82.06
334.999	78.06
335.227	74.06
335.455	83.06
335.684	83.06
335.912	80.06
336.14	80.06
336.369	80.06
336.597	86.06
336.825	91.06
337.053	82.06
337.281	83.06
337.51	78.06
337.738	82.06
337.966	67.06
338.194	81.06
338.422	86.06
338.65	89.06
338.878	100.06
339.106	88.06
339.334	100.06
339.562	65.06
339.79	73.06
340.018	76.06
340.246	81.06
340.474	84.06
340.702	91.06
340.93	69.06
341.158	85.06
341.386	63.06
341.614	77.06
341.842	65.06
342.07	61.06
342.298	87.06
342.526	88.06
342.754	88.06
342.981	80.06
343.209	81.06
343.437	89.06
343.665	91.06
343.893	75.06
344.12	85.06
344.348	83.06
344.576	80.06
344.804	76.06
345.031	74.06
345.259	89.06
345.487	77.06
345.714	90.06
345.942	81.06
346.17	73.06
346.397	69.06
346.625	71.06
346.853	77.06
347.08	66.06
347.308	100.06
347.535	89.06
347.763	72.06
347.99	90.06
348.218	82.06
348.445	88.06
348.673	78.06
348.9	82.06
349.128	77.06
349.355	88.06
349.583	77.06
349.81	87.06
350.037	85.06
350.265	75.06
350.492	90.06
350.72	83.06
350.947	96.06
351.174	86.06
351.402	82.06
351.629	82.06
351.856	90.06
352.083	74.06
352.311	94.06
352.538	80.06
352.765	75.06
352.992	84.06
353.22	69.06
353.447	82.06
353.674	80.06
353.901	86.06
354.128	76.06
354.355	80.06
354.583	82.06
354.81	69.06
355.037	72.06
355.264	90.06
355.491	95.06
355.718	75.06
355.945	67.06
356.172	87.06
356.399	74.06
356.626	96.06
356.853	88.06
357.08	83.06
357.307	79.06
357.534	89.06
357.761	80.06
357.988	68.06
358.215	85.06
358.441	83.06
358.668	80.06
358.895	83.06
359.122	93.06
359.349	80.06
359.576	75.06
359.802	87.06
360.029	72.06
360.256	97.06
360.483	74.06
360.709	74.06
360.936	91.06
361.163	75.06
361.39	73.06
361.616	68.06
361.843	78.06
362.07	82.06
362.296	56.06
362.523	67.06
362.749	73.06
362.976	82.06
363.203	83.06
363.429	78.06
363.656	82.06
363.882	67.06
364.109	79.06
364.335	94.06
364.562	79.06
364.788	78.06
365.015	76.06
365.241	87.06
365.468	84.06
365.694	79.06
365.92	85.06
366.147	76.06
366.373	79.06
366.599	95.06
366.826	80.06
367.052	99.06
367.278	93.06
367.505	86.06
367.731	84.06
367.957	86.06
368.184	87.06
368.41	84.06
368.636	93.06
368.862	91.06
369.089	78.06
369.315	85.06
369.541	85.06
369.767	87.06
369.993	74.06
370.219	69.06
370.445	70.06
370.672	88.06
370.898	88.06
371.124	88.06
371.35	86.06
371.576	92.06
371.802	88.06
372.028	74.06
372.254	91.06
372.48	93.06
372.706	82.06
372.932	88.06
373.158	91.06
373.384	78.06
373.61	80.06
373.835	82.06
374.061	76.06
374.287	77.06
374.513	84.06
374.739	83.06
374.965	93.06
375.191	90.06
375.416	76.06
375.642	73.06
375.868	91.06
376.094	79.06
376.319	93.06
376.545	86.06
376.771	75.06
376.997	85.06
377.222	78.06
377.448	87.06
377.674	90.06
377.899	85.06
378.125	83.06
378.35	90.06
378.576	83.06
378.802	91.06
379.027	102.06
379.253	80.06
379.478	91.06
379.704	91.06
379.929	78.06
380.155	84.06
380.38	78.06
380.606	85.06
380.831	90.06
381.057	80.06
381.282	85.06
381.507	75.06
381.733	73.06
381.958	78.06
382.184	85.06
382.409	88.06
382.634	86.06
382.86	88.06
383.085	75.06
383.31	65.06
383.535	77.06
383.761	91.06
383.986	87.06
384.211	85.06
384.436	89.06
384.662	76.06
384.887	97.06
385.112	82.06
385.337	82.06
385.562	80.06
385.787	83.06
386.013	91.06
386.238	92.06
386.463	81.06
386.688	95.06
386.913	85.06
387.138	86.06
387.363	100.06
387.588	70.06
387.813	88.06
388.038	90.06
388.263	85.06
388.488	79.06
388.713	92.06
388.938	84.06
389.163	92.06
389.387	96.06
389.612	88.06
389.837	90.06
390.062	98.06
390.287	80.06
390.512	95.06
390.736	96.06
390.961	87.06
391.186	87.06
391.411	90.06
391.636	91.06
391.86	97.06
392.085	87.06
392.31	83.06
392.534	90.06
392.759	79.06
392.984	88.06
393.208	95.06
393.433	100.06
393.658	87.06
393.882	91.06
394.107	82.06
394.331	110.06
394.556	98.06
394.78	80.06
395.005	93.06
395.229	93.06
395.454	79.06
395.678	95.06
395.903	83.06
396.127	100.06
396.352	90.06
396.576	77.06
396.801	96.06
397.025	96.06
397.249	94.06
397.474	99.06
397.698	82.06
397.922	89.06
398.147	81.06
398.371	88.06
398.595	82.06
398.82	96.06
399.044	93.06
399.268	96.06
399.492	81.06
399.717	86.06
399.941	102.06
400.165	90.06
400.389	96.06
400.613	102.06
400.837	79.06
401.062	84.06
401.286	100.06
401.51	87.06
401.734	102.06
401.958	102.06
402.182	88.06
402.406	100.06
402.63	103.06
402.854	89.06
403.078	103.06
403.302	79.06
403.526	84.06
403.75	103.06
403.974	100.06
404.198	96.06
404.422	97.06
404.645	94.06
404.869	97.06
405.093	99.06
405.317	99.06
405.541	97.06
405.765	94.06
405.988	101.06
406.212	91.06
406.436	99.06
406.66	91.06
406.883	96.06
407.107	91.06
407.331	89.06
407.555	96.06
407.778	103.06
408.002	97.06
408.226	99.06
408.449	96.06
408.673	97.06
408.896	91.06
409.12	102.06
409.344	113.06
409.567	86.06
409.791	101.06
410.014	107.06
410.238	87.06
410.461	98.06
410.685	104.06
410.908	100.06
411.132	104.06
411.355	106.06
411.578	98.06
411.802	106.06
412.025	105.06
412.249	90.06
412.472	107.06
412.695	111.06
412.919	78.06
413.142	94.06
413.365	87.06
413.589	84.06
413.812	101.06
414.035	102.06
414.258	96.06
414.482	105.06
414.705	89.06
414.928	98.06
415.151	82.06
415.374	110.06
415.597	99.06
415.821	118.06
416.044	88.06
416.267	96.06
416.49	96.06
416.713	90.06
416.936	82.06
417.159	106.06
417.382	105.06
417.605	86.06
417.828	110.06
418.051	91.06
418.274	112.06
418.497	109.06
418.72	101.06
418.943	105.06
419.166	106.06
419.389	119.06
419.611	113.06
419.834	103.06
420.057	107.06
420.28	102.06
420.503	99.06
420.726	102.06
420.948	116.06
421.171	94.06
421.394	96.06
421.617	108.06
421.839	111.06
422.062	96.06
422.285	102.06
422.507	97.06
422.73	102.06
422.953	99.06
423.175	97.06
423.398	98.06
423.621	103.06
423.843	96.06
424.066	106.06
424.288	113.06
424.511	108.06
424.733	110.06
424.956	99.06
425.178	112.06
425.401	110.06
425.623	106.06
425.846	95.06
426.068	104.06
426.291	102.06
426.513	87.06
426.735	111.06
426.958	109.06
427.18	104.06
427.402	100.06
427.625	112.06
427.847	108.06
428.069	94.06
428.292	105.06
428.514	101.06
428.736	107.06
428.958	104.06
429.181	108.06
429.403	100.06
429.625	98.06
429.847	123.06
430.069	102.06
430.292	102.06
430.514	86.06
430.736	123.06
430.958	91.06
431.18	99.06
431.402	91.06
431.624	103.06
431.846	82.06
432.068	86.06
432.29	72.06
432.512	95.06
432.734	107.06
432.956	112.06
433.178	105.06
433.4	103.06
433.622	98.06
433.844	97.06
434.066	103.06
434.287	87.06
434.509	84.06
434.731	82.06
434.953	91.06
435.175	102.06
435.397	102.06
435.618	101.06
435.84	82.06
436.062	98.06
436.284	96.06
436.505	98.06
436.727	96.06
436.949	105.06
437.17	96.06
437.392	102.06
437.614	98.06
437.835	105.06
438.057	99.06
438.278	89.06
438.5	106.06
438.721	106.06
438.943	107.06
439.165	92.06
439.386	93.06
439.608	110.06
439.829	92.06
440.05	93.06
440.272	104.06
440.493	110.06
440.715	112.06
440.936	107.06
441.158	86.06
441.379	108.06
441.6	99.06
441.822	106.06
442.043	99.06
442.264	105.06
442.486	110.06
442.707	102.06
442.928	110.06
443.149	119.06
443.371	107.06
443.592	117.06
443.813	118.06
444.034	114.06
444.255	88.06
444.476	88.06
444.698	123.06
444.919	110.06
445.14	216.06
445.361	159.06
445.582	120.06
445.803	110.06
446.024	125.06
446.245	113.06
446.466	115.06
446.687	104.06
446.908	118.06
447.129	106.06
447.35	117.06
447.571	110.06
447.792	90.06
448.013	102.06
448.234	115.06
448.455	101.06
448.675	112.06
448.896	116.06
449.117	99.06
449.338	110.06
449.559	103.06
449.779	97.06
450	106.06
450.221	116.06
450.442	116.06
450.662	105.06
450.883	87.06
451.104	113.06
451.324	109.06
451.545	102.06
451.766	106.06
451.986	90.06
452.207	107.06
452.428	107.06
452.648	88.06
452.869	88.06
453.089	108.06
453.31	101.06
453.53	81.06
453.751	87.06
453.971	82.06
454.192	105.06
454.412	107.06
454.633	90.06
454.853	108.06
455.073	106.06
455.294	99.06
455.514	104.06
455.734	104.06
455.955	89.06
456.175	92.06
456.395	93.06
456.616	88.06
456.836	117.06
457.056	92.06
457.276	94.06
457.497	80.06
457.717	94.06
457.937	95.06
458.157	94.06
458.377	90.06
458.598	93.06
458.818	83.06
459.038	76.06
459.258	87.06
459.478	96.06
459.698	78.06
459.918	89.06
460.138	82.06
460.358	99.06
460.578	90.06
460.798	91.06
461.018	91.06
461.238	87.06
461.458	105.06
461.678	95.06
461.898	95.06
462.118	99.06
462.338	99.06
462.558	93.06
462.777	105.06
462.997	90.06
463.217	77.06
463.437	99.06
463.657	90.06
463.876	96.06
464.096	80.06
464.316	88.06
464.536	101.06
464.755	83.06
464.975	84.06
465.195	90.06
465.414	96.06
465.634	84.06
465.854	89.06
466.073	84.06
466.293	91.06
466.512	99.06
466.732	98.06
466.951	103.06
467.171	108.06
467.391	89.06
467.61	109.06
467.829	105.06
468.049	104.06
468.268	119.06
468.488	114.06
468.707	100.06
468.927	98.06
469.146	104.06
469.365	122.06
469.585	104.06
469.804	101.06
470.023	104.06
470.243	97.06
470.462	105.06
470.681	114.06
470.901	101.06
471.12	119.06
471.339	95.06
471.558	119.06
471.777	113.06
471.997	118.06
472.216	112.06
472.435	92.06
472.654	76.06
472.873	82.06
473.092	105.06
473.311	112.06
473.53	102.06
473.749	110.06
473.968	87.06
474.187	98.06
474.406	86.06
474.625	87.06
474.844	94.06
475.063	114.06
475.282	96.06
475.501	104.06
475.72	102.06
475.939	109.06
476.158	102.06
476.377	105.06
476.596	99.06
476.814	95.06
477.033	94.06
477.252	94.06
477.471	97.06
477.69	115.06
477.908	110.06
478.127	107.06
478.346	99.06
478.564	112.06
478.783	99.06
479.002	108.06
479.22	98.06
479.439	98.06
479.658	104.06
479.876	108.06
480.095	93.06
480.313	113.06
480.532	106.06
480.751	91.06
480.969	85.06
481.188	95.06
481.406	87.06
481.624	94.06
481.843	85.06
482.061	91.06
482.28	83.06
482.498	99.06
482.717	91.06
482.935	98.06
483.153	111.06
483.372	119.06
483.59	119.06
483.808	128.06
484.027	103.06
484.245	103.06
484.463	124.06
484.681	121.06
484.9	117.06
485.118	111.06
485.336	100.06
485.554	95.06
485.772	90.06
485.99	83.06
486.209	101.06
486.427	97.06
486.645	113.06
486.863	104.06
487.081	105.06
487.299	102.06
487.517	96.06
487.735	131.06
487.953	128.06
488.171	114.06
488.389	116.06
488.607	117.06
488.825	95.06
489.043	103.06
489.261	105.06
489.479	120.06
489.696	114.06
489.914	116.06
490.132	122.06
490.35	118.06
490.568	112.06
490.786	137.06
491.003	132.06
491.221	122.06
491.439	134.06
491.657	122.06
491.874	132.06
492.092	132.06
492.31	150.06
492.527	146.06
492.745	136.06
492.963	139.06
493.18	142.06
493.398	136.06
493.615	130.06
493.833	122.06
494.05	130.06
494.268	128.06
494.485	137.06
494.703	129.06
494.92	118.06
495.138	109.06
495.355	132.06
495.573	143.06
495.79	130.06
496.008	134.06
496.225	123.06
496.442	112.06
496.66	126.06
496.877	127.06
497.094	119.06
497.312	137.06
497.529	132.06
497.746	118.06
497.963	102.06
498.181	97.06
498.398	95.06
498.615	97.06
498.832	91.06
499.049	104.06
499.267	107.06
499.484	113.06
499.701	120.06
499.918	114.06
500.135	111.06
500.352	115.06
500.569	113.06
500.786	104.06
501.003	112.06
501.22	118.06
501.437	109.06
501.654	108.06
501.871	108.06
502.088	119.06
502.305	102.06
502.522	124.06
502.739	104.06
502.956	112.06
503.172	107.06
503.389	96.06
503.606	115.06
503.823	84.06
504.04	96.06
504.256	115.06
504.473	89.06
504.69	97.06
504.907	107.06
505.123	117.06
505.34	110.06
505.557	98.06
505.773	109.06
505.99	99.06
506.207	108.06
506.423	110.06
506.64	104.06
506.856	106.06
507.073	95.06
507.289	86.06
507.506	95.06
507.722	85.06
507.939	114.06
508.155	96.06
508.372	111.06
508.588	93.06
508.805	86.06
509.021	87.06
509.238	95.06
509.454	94.06
509.67	85.06
509.887	86.06
510.103	87.06
510.319	81.06
510.536	82.06
510.752	81.06
510.968	73.06
511.184	86.06
511.401	94.06
511.617	89.06
511.833	88.06
512.049	87.06
512.265	84.06
512.481	91.06
512.698	77.06
512.914	81.06
513.13	85.06
513.346	86.06
513.562	87.06
513.778	105.06
513.994	95.06
514.21	94.06
514.426	98.06
514.642	96.06
514.858	80.06
515.074	80.06
515.29	89.06
515.506	78.06
515.721	91.06
515.937	76.06
516.153	89.06
516.369	89.06
516.585	81.06
516.801	86.06
517.016	94.06
517.232	93.06
517.448	92.06
517.664	66.06
517.879	88.06
518.095	84.06
518.311	92.06
518.527	88.06
518.742	86.06
518.958	98.06
519.173	101.06
519.389	83.06
519.605	81.06
519.82	86.06
520.036	90.06
520.251	84.06
520.467	105.06
520.682	96.06
520.898	82.06
521.113	88.06
521.329	68.06
521.544	84.06
521.76	90.06
521.975	104.06
522.19	96.06
522.406	91.06
522.621	86.06
522.836	91.06
523.052	101.06
523.267	101.06
523.482	93.06
523.698	94.06
523.913	99.06
524.128	96.06
524.343	98.06
524.559	106.06
524.774	93.06
524.989	89.06
525.204	98.06
525.419	94.06
525.634	99.06
525.849	98.06
526.064	107.06
526.28	108.06
526.495	83.06
526.71	87.06
526.925	70.06
527.14	84.06
527.355	89.06
527.57	76.06
527.785	74.06
527.999	87.06
528.214	86.06
528.429	105.06
528.644	93.06
528.859	107.06
529.074	118.06
529.289	106.06
529.503	107.06
529.718	111.06
529.933	96.06
530.148	95.06
530.363	106.06
530.577	82.06
530.792	79.06
531.007	82.06
531.221	84.06
531.436	75.06
531.651	84.06
531.865	75.06
532.08	86.06
532.295	90.06
532.509	95.06
532.724	94.06
532.938	89.06
533.153	79.06
533.367	99.06
533.582	100.06
533.796	99.06
534.011	80.06
534.225	84.06
534.44	92.06
534.654	89.06
534.868	103.06
535.083	92.06
535.297	92.06
535.511	80.06
535.726	95.06
535.94	93.06
536.154	89.06
536.369	86.06
536.583	87.06
536.797	82.06
537.011	79.06
537.225	84.06
537.44	83.06
537.654	103.06
537.868	91.06
538.082	89.06
538.296	89.06
538.51	82.06
538.724	112.06
538.938	89.06
539.153	104.06
539.367	101.06
539.581	101.06
539.795	90.06
540.009	87.06
540.222	85.06
540.436	98.06
540.65	107.06
540.864	98.06
541.078	115.06
541.292	98.06
541.506	117.06
541.72	126.06
541.934	138.06
542.147	138.06
542.361	134.06
542.575	119.06
542.789	107.06
543.002	118.06
543.216	106.06
543.43	97.06
543.644	112.06
543.857	112.06
544.071	130.06
544.285	114.06
544.498	118.06
544.712	122.06
544.925	112.06
545.139	107.06
545.352	110.06
545.566	123.06
545.779	118.06
545.993	118.06
546.206	115.06
546.42	114.06
546.633	118.06
546.847	130.06
547.06	131.06
547.274	110.06
547.487	116.06
547.7	134.06
547.914	122.06
548.127	117.06
548.34	132.06
548.554	129.06
548.767	126.06
548.98	116.06
549.193	121.06
549.407	112.06
549.62	124.06
549.833	122.06
550.046	104.06
550.259	122.06
550.473	112.06
550.686	114.06
550.899	105.06
551.112	116.06
551.325	107.06
551.538	96.06
551.751	111.06
551.964	100.06
552.177	104.06
552.39	102.06
552.603	123.06
552.816	118.06
553.029	120.06
553.242	120.06
553.455	125.06
553.667	112.06
553.88	103.06
554.093	111.06
554.306	112.06
554.519	111.06
554.732	125.06
554.944	119.06
555.157	104.06
555.37	106.06
555.583	109.06
555.795	110.06
556.008	125.06
556.221	97.06
556.433	108.06
556.646	112.06
556.859	106.06
557.071	121.06
557.284	96.06
557.496	124.06
557.709	99.06
557.921	107.06
558.134	117.06
558.346	121.06
558.559	108.06
558.771	113.06
558.984	103.06
559.196	96.06
559.409	101.06
559.621	98.06
559.833	97.06
560.046	108.06
560.258	102.06
560.47	114.06
560.683	98.06
560.895	120.06
561.107	106.06
561.32	110.06
561.532	100.06
561.744	98.06
561.956	104.06
562.168	102.06
562.381	106.06
562.593	95.06
562.805	109.06
563.017	118.06
563.229	89.06
563.441	91.06
563.653	95.06
563.865	102.06
564.077	101.06
564.289	123.06
564.501	108.06
564.713	104.06
564.925	91.06
565.137	112.06
565.349	110.06
565.561	114.06
565.773	99.06
565.985	124.06
566.197	91.06
566.408	103.06
566.62	90.06
566.832	106.06
567.044	100.06
567.255	86.06
567.467	108.06
567.679	94.06
567.891	85.06
568.102	95.06
568.314	95.06
568.526	97.06
568.737	93.06
568.949	77.06
569.161	86.06
569.372	73.06
569.584	89.06
569.795	91.06
570.007	82.06
570.218	86.06
570.43	80.06
570.641	95.06
570.853	98.06
571.064	93.06
571.276	86.06
571.487	83.06
571.698	95.06
571.91	95.06
572.121	95.06
572.333	83.06
572.544	99.06
572.755	87.06
572.966	88.06
573.178	88.06
573.389	105.06
573.6	84.06
573.811	83.06
574.023	94.06
574.234	82.06
574.445	85.06
574.656	73.06
574.867	92.06
575.078	100.06
575.289	85.06
575.501	96.06
575.712	108.06
575.923	91.06
576.134	85.06
576.345	92.06
576.556	90.06
576.767	88.06
576.978	92.06
577.188	82.06
577.399	89.06
577.61	82.06
577.821	90.06
578.032	87.06
578.243	93.06
578.454	97.06
578.665	95.06
578.875	80.06
579.086	90.06
579.297	77.06
579.508	75.06
579.718	93.06
579.929	88.06
580.14	78.06
580.35	86.06
580.561	93.06
580.772	86.06
580.982	81.06
581.193	94.06
581.403	72.06
581.614	95.06
581.825	87.06
582.035	82.06
582.246	82.06
582.456	82.06
582.667	83.06
582.877	89.06
583.087	80.06
583.298	71.06
583.508	85.06
583.719	82.06
583.929	84.06
584.139	77.06
584.35	93.06
584.56	76.06
584.77	87.06
584.981	76.06
585.191	90.06
585.401	67.06
585.611	87.06
585.821	91.06
586.032	78.06
586.242	92.06
586.452	72.06
586.662	85.06
586.872	84.06
587.082	83.06
587.292	79.06
587.502	75.06
587.713	75.06
587.923	79.06
588.133	78.06
588.343	87.06
588.553	88.06
588.762	104.06
588.972	92.06
589.182	69.06
589.392	88.06
589.602	70.06
589.812	88.06
590.022	71.06
590.232	84.06
590.441	86.06
590.651	71.06
590.861	80.06
591.071	97.06
591.281	69.06
591.49	84.06
591.7	92.06
591.91	98.06
592.119	72.06
592.329	85.06
592.539	73.06
592.748	94.06
592.958	83.06
593.167	100.06
593.377	73.06
593.587	88.06
593.796	71.06
594.006	86.06
594.215	76.06
594.424	80.06
594.634	97.06
594.843	94.06
595.053	96.06
595.262	88.06
595.472	89.06
595.681	102.06
595.89	82.06
596.1	85.06
596.309	91.06
596.518	96.06
596.727	99.06
596.937	83.06
597.146	85.06
597.355	97.06
597.564	84.06
597.774	85.06
597.983	72.06
598.192	81.06
598.401	96.06
598.61	68.06
598.819	100.06
599.028	86.06
599.237	88.06
599.446	74.06
599.655	91.06
599.864	86.06
600.073	89.06
600.282	90.06
600.491	85.06
600.7	87.06
600.909	88.06
601.118	91.06
601.327	91.06
601.536	79.06
601.745	91.06
601.953	94.06
602.162	102.06
602.371	89.06
602.58	91.06
602.789	95.06
602.997	97.06
603.206	91.06
603.415	89.06
603.623	87.06
603.832	94.06
604.041	94.06
604.249	82.06
604.458	86.06
604.666	87.06
604.875	98.06
605.084	88.06
605.292	92.06
605.501	109.06
605.709	98.06
605.918	95.06
606.126	99.06
606.334	83.06
606.543	96.06
606.751	90.06
606.96	94.06
607.168	91.06
607.376	72.06
607.585	79.06
607.793	106.06
608.001	72.06
608.21	98.06
608.418	83.06
608.626	94.06
608.834	99.06
609.043	110.06
609.251	110.06
609.459	103.06
609.667	116.06
609.875	100.06
610.083	90.06
610.291	95.06
610.499	90.06
610.707	99.06
610.916	97.06
611.124	99.06
611.332	96.06
611.54	94.06
611.748	84.06
611.955	93.06
612.163	87.06
612.371	101.06
612.579	95.06
612.787	90.06
612.995	100.06
613.203	118.06
613.411	92.06
613.618	110.06
613.826	95.06
614.034	105.06
614.242	85.06
614.449	95.06
614.657	107.06
614.865	98.06
615.072	93.06
615.28	105.06
615.488	99.06
615.695	97.06
615.903	97.06
616.111	107.06
616.318	92.06
616.526	93.06
616.733	105.06
616.941	94.06
617.148	101.06
617.356	101.06
617.563	98.06
617.771	96.06
617.978	106.06
618.185	98.06
618.393	99.06
618.6	93.06
618.807	92.06
619.015	88.06
619.222	85.06
619.429	97.06
619.637	86.06
619.844	106.06
620.051	113.06
620.258	93.06
620.466	103.06
620.673	86.06
620.88	91.06
621.087	96.06
621.294	110.06
621.501	97.06
621.708	90.06
621.915	96.06
622.122	101.06
622.329	98.06
622.536	88.06
622.743	93.06
622.95	106.06
623.157	95.06
623.364	96.06
623.571	102.06
623.778	98.06
623.985	92.06
624.192	95.06
624.399	92.06
624.606	103.06
624.812	73.06
625.019	97.06
625.226	80.06
625.433	105.06
625.639	87.06
625.846	82.06
626.053	86.06
626.259	80.06
626.466	71.06
626.673	81.06
626.879	94.06
627.086	86.06
627.293	87.06
627.499	90.06
627.706	84.06
627.912	92.06
628.119	88.06
628.325	90.06
628.532	84.06
628.738	99.06
628.945	92.06
629.151	93.06
629.357	66.06
629.564	93.06
629.77	83.06
629.976	88.06
630.183	94.06
630.389	91.06
630.595	88.06
630.802	100.06
631.008	82.06
631.214	103.06
631.42	104.06
631.627	89.06
631.833	87.06
632.039	92.06
632.245	93.06
632.451	92.06
632.657	99.06
632.863	91.06
633.069	90.06
633.275	80.06
633.481	97.06
633.688	90.06
633.893	80.06
634.099	86.06
634.305	93.06
634.511	75.06
634.717	94.06
634.923	79.06
635.129	82.06
635.335	92.06
635.541	92.06
635.747	74.06
635.952	89.06
636.158	86.06
636.364	89.06
636.57	87.06
636.775	103.06
636.981	100.06
637.187	99.06
637.392	88.06
637.598	99.06
637.804	84.06
638.009	79.06
638.215	89.06
638.421	88.06
638.626	85.06
638.832	93.06
639.037	88.06
639.243	95.06
639.448	85.06
639.654	85.06
639.859	88.06
640.065	80.06
640.27	81.06
640.475	101.06
640.681	84.06
640.886	81.06
641.091	94.06
641.297	96.06
641.502	98.06
641.707	94.06
641.913	79.06
642.118	92.06
642.323	91.06
642.528	97.06
642.733	87.06
642.939	93.06
643.144	84.06
643.349	86.06
643.554	95.06
643.759	83.06
643.964	97.06
644.169	99.06
644.374	66.06
644.579	82.06
644.784	92.06
644.989	78.06
645.194	65.06
645.399	106.06
645.604	77.06
645.809	85.06
646.014	79.06
646.219	90.06
646.423	82.06
646.628	102.06
646.833	76.06
647.038	81.06
647.243	82.06
647.447	94.06
647.652	101.06
647.857	81.06
648.062	96.06
648.266	92.06
648.471	99.06
648.676	98.06
648.88	82.06
649.085	81.06
649.289	89.06
649.494	73.06
649.698	89.06
649.903	82.06
650.107	83.06
650.312	88.06
650.516	83.06
650.721	77.06
650.925	84.06
651.13	85.06
651.334	79.06
651.539	94.06
651.743	87.06
651.947	82.06
652.152	88.06
652.356	86.06
652.56	89.06
652.764	86.06
652.969	89.06
653.173	71.06
653.377	69.06
653.581	90.06
653.785	99.06
653.99	96.06
654.194	94.06
654.398	83.06
654.602	81.06
654.806	83.06
655.01	98.06
655.214	92.06
655.418	79.06
655.622	93.06
655.826	79.06
656.03	71.06
656.234	82.06
656.438	78.06
656.642	86.06
656.846	85.06
657.049	74.06
657.253	79.06
657.457	81.06
657.661	70.06
657.865	76.06
658.068	82.06
658.272	84.06
658.476	87.06
658.68	85.06
658.883	75.06
659.087	73.06
659.291	86.06
659.494	66.06
659.698	89.06
659.901	94.06
660.105	94.06
660.309	82.06
660.512	82.06
660.716	84.06
660.919	76.06
661.123	95.06
661.326	72.06
661.53	88.06
661.733	86.06
661.936	75.06
662.14	76.06
662.343	87.06
662.546	80.06
662.75	83.06
662.953	81.06
663.156	71.06
663.36	84.06
663.563	86.06
663.766	80.06
663.969	85.06
664.173	84.06
664.376	82.06
664.579	82.06
664.782	80.06
664.985	79.06
665.188	84.06
665.391	82.06
665.594	93.06
665.797	75.06
666	78.06
666.203	69.06
666.406	67.06
666.609	86.06
666.812	71.06
667.015	80.06
667.218	86.06
667.421	71.06
667.624	76.06
667.827	59.06
668.03	77.06
668.232	83.06
668.435	67.06
668.638	79.06
668.841	86.06
669.043	70.06
669.246	71.06
669.449	79.06
669.651	73.06
669.854	73.06
670.057	65.06
670.259	79.06
670.462	74.06
670.665	82.06
670.867	78.06
671.07	89.06
671.272	75.06
671.475	82.06
671.677	70.06
671.88	85.06
672.082	79.06
672.284	83.06
672.487	98.06
672.689	87.06
672.892	83.06
