Data from Zn(NO3)2Standard.Agarose3%.GreenCap.LampEnergy5.5.E.O_HRD10591_15-00-43-769.txt Node
Date: Mon Jul 22 15:00:43 EDT 2019
User: cochatt
Spectrometer: HR+D1059
Trigger mode: 1
Integration Time (sec): 1.000000E-1
Scans to average: 1
Electric dark correction enabled: true
Nonlinearity correction enabled: false
Boxcar width: 0
XAxis mode: Wavelengths
Number of Pixels in Spectrum: 2048
>>>>>Begin Spectral Data<<<<<
223.165	-5.31
223.4	-5.31
223.635	-5.31
223.869	-13.31
224.104	-20.31
224.338	-24.31
224.573	-14.31
224.808	8.69
225.042	-7.31
225.277	-9.31
225.511	1.69
225.746	-1.31
225.98	3.69
226.215	11.69
226.449	2.69
226.683	13.69
226.918	34.69
227.152	18.69
227.387	35.69
227.621	48.69
227.856	27.69
228.09	50.69
228.324	34.69
228.559	51.69
228.793	54.69
229.027	48.69
229.262	61.69
229.496	71.69
229.73	65.69
229.964	66.69
230.199	64.69
230.433	59.69
230.667	64.69
230.901	62.69
231.136	74.69
231.37	79.69
231.604	74.69
231.838	70.69
232.072	80.69
232.306	82.69
232.541	85.69
232.775	72.69
233.009	94.69
233.243	74.69
233.477	76.69
233.711	79.69
233.945	76.69
234.179	74.69
234.413	75.69
234.647	86.69
234.881	72.69
235.115	83.69
235.349	79.69
235.583	84.69
235.817	78.69
236.051	80.69
236.285	67.69
236.519	68.69
236.753	78.69
236.987	71.69
237.221	82.69
237.455	78.69
237.689	73.69
237.922	78.69
238.156	70.69
238.39	65.69
238.624	73.69
238.858	73.69
239.091	65.69
239.325	80.69
239.559	76.69
239.793	57.69
240.027	72.69
240.26	67.69
240.494	58.69
240.728	78.69
240.961	66.69
241.195	59.69
241.429	69.69
241.662	73.69
241.896	71.69
242.13	84.69
242.363	77.69
242.597	75.69
242.83	76.69
243.064	72.69
243.298	70.69
243.531	75.69
243.765	77.69
243.998	76.69
244.232	62.69
244.465	74.69
244.699	80.69
244.932	70.69
245.166	67.69
245.399	70.69
245.633	80.69
245.866	83.69
246.099	70.69
246.333	75.69
246.566	68.69
246.8	70.69
247.033	68.69
247.266	83.69
247.5	80.69
247.733	83.69
247.966	77.69
248.2	83.69
248.433	65.69
248.666	74.69
248.899	93.69
249.133	85.69
249.366	66.69
249.599	79.69
249.832	70.69
250.066	74.69
250.299	78.69
250.532	75.69
250.765	83.69
250.998	83.69
251.231	69.69
251.465	85.69
251.698	78.69
251.931	83.69
252.164	83.69
252.397	82.69
252.63	71.69
252.863	76.69
253.096	80.69
253.329	77.69
253.562	69.69
253.795	85.69
254.028	67.69
254.261	93.69
254.494	83.69
254.727	52.69
254.96	92.69
255.193	84.69
255.426	67.69
255.659	70.69
255.892	67.69
256.124	68.69
256.357	85.69
256.59	80.69
256.823	73.69
257.056	79.69
257.289	69.69
257.521	69.69
257.754	74.69
257.987	66.69
258.22	71.69
258.452	73.69
258.685	90.69
258.918	88.69
259.151	76.69
259.383	84.69
259.616	81.69
259.849	74.69
260.081	80.69
260.314	84.69
260.547	94.69
260.779	71.69
261.012	82.69
261.244	88.69
261.477	77.69
261.71	73.69
261.942	84.69
262.175	76.69
262.407	77.69
262.64	80.69
262.872	80.69
263.105	80.69
263.337	82.69
263.57	85.69
263.802	71.69
264.035	73.69
264.267	91.69
264.499	79.69
264.732	91.69
264.964	62.69
265.197	72.69
265.429	76.69
265.661	82.69
265.894	72.69
266.126	91.69
266.358	97.69
266.591	87.69
266.823	75.69
267.055	83.69
267.287	75.69
267.52	75.69
267.752	77.69
267.984	94.69
268.216	76.69
268.448	81.69
268.681	73.69
268.913	89.69
269.145	86.69
269.377	68.69
269.609	88.69
269.841	73.69
270.073	76.69
270.306	86.69
270.538	77.69
270.77	74.69
271.002	87.69
271.234	77.69
271.466	86.69
271.698	78.69
271.93	84.69
272.162	96.69
272.394	70.69
272.626	82.69
272.858	87.69
273.09	71.69
273.322	78.69
273.553	70.69
273.785	83.69
274.017	86.69
274.249	94.69
274.481	83.69
274.713	83.69
274.945	86.69
275.176	89.69
275.408	86.69
275.64	78.69
275.872	80.69
276.104	100.69
276.335	85.69
276.567	70.69
276.799	82.69
277.031	94.69
277.262	91.69
277.494	81.69
277.726	69.69
277.957	73.69
278.189	80.69
278.421	71.69
278.652	72.69
278.884	79.69
279.115	90.69
279.347	81.69
279.579	80.69
279.81	74.69
280.042	83.69
280.273	78.69
280.505	78.69
280.736	77.69
280.968	86.69
281.199	89.69
281.431	85.69
281.662	72.69
281.894	78.69
282.125	76.69
282.356	84.69
282.588	90.69
282.819	79.69
283.051	96.69
283.282	83.69
283.513	91.69
283.745	89.69
283.976	80.69
284.207	73.69
284.439	77.69
284.67	67.69
284.901	84.69
285.132	87.69
285.364	96.69
285.595	79.69
285.826	69.69
286.057	82.69
286.288	88.69
286.52	87.69
286.751	72.69
286.982	85.69
287.213	74.69
287.444	75.69
287.675	89.69
287.906	85.69
288.138	62.69
288.369	70.69
288.6	84.69
288.831	81.69
289.062	66.69
289.293	71.69
289.524	75.69
289.755	92.69
289.986	78.69
290.217	79.69
290.448	82.69
290.679	85.69
290.91	90.69
291.141	85.69
291.371	83.69
291.602	79.69
291.833	75.69
292.064	90.69
292.295	85.69
292.526	92.69
292.757	79.69
292.987	70.69
293.218	68.69
293.449	70.69
293.68	79.69
293.91	80.69
294.141	93.69
294.372	95.69
294.603	79.69
294.833	90.69
295.064	87.69
295.295	75.69
295.525	83.69
295.756	58.69
295.987	74.69
296.217	82.69
296.448	87.69
296.679	89.69
296.909	83.69
297.14	91.69
297.37	69.69
297.601	81.69
297.831	67.69
298.062	75.69
298.292	74.69
298.523	81.69
298.753	74.69
298.984	81.69
299.214	82.69
299.445	91.69
299.675	83.69
299.905	80.69
300.136	78.69
300.366	89.69
300.597	75.69
300.827	80.69
301.057	67.69
301.288	76.69
301.518	77.69
301.748	99.69
301.979	80.69
302.209	87.69
302.439	66.69
302.669	77.69
302.9	97.69
303.13	93.69
303.36	85.69
303.59	76.69
303.82	80.69
304.051	80.69
304.281	65.69
304.511	90.69
304.741	80.69
304.971	90.69
305.201	82.69
305.431	78.69
305.661	79.69
305.891	94.69
306.121	97.69
306.352	71.69
306.582	86.69
306.812	90.69
307.042	70.69
307.272	90.69
307.502	89.69
307.731	88.69
307.961	89.69
308.191	76.69
308.421	86.69
308.651	91.69
308.881	76.69
309.111	76.69
309.341	76.69
309.571	93.69
309.8	77.69
310.03	82.69
310.26	73.69
310.49	69.69
310.72	95.69
310.949	85.69
311.179	86.69
311.409	83.69
311.639	73.69
311.868	70.69
312.098	79.69
312.328	82.69
312.557	92.69
312.787	90.69
313.017	93.69
313.246	88.69
313.476	86.69
313.706	75.69
313.935	92.69
314.165	76.69
314.394	92.69
314.624	81.69
314.853	97.69
315.083	83.69
315.312	87.69
315.542	86.69
315.771	79.69
316.001	83.69
316.23	87.69
316.46	87.69
316.689	84.69
316.919	79.69
317.148	71.69
317.377	96.69
317.607	90.69
317.836	80.69
318.065	70.69
318.295	86.69
318.524	91.69
318.753	78.69
318.983	80.69
319.212	91.69
319.441	99.69
319.67	98.69
319.9	74.69
320.129	76.69
320.358	87.69
320.587	82.69
320.816	72.69
321.046	85.69
321.275	88.69
321.504	90.69
321.733	82.69
321.962	87.69
322.191	82.69
322.42	81.69
322.649	80.69
322.878	90.69
323.108	86.69
323.337	90.69
323.566	98.69
323.795	77.69
324.024	84.69
324.253	99.69
324.482	84.69
324.71	90.69
324.939	83.69
325.168	91.69
325.397	83.69
325.626	76.69
325.855	91.69
326.084	88.69
326.313	83.69
326.542	75.69
326.77	79.69
326.999	84.69
327.228	82.69
327.457	80.69
327.686	92.69
327.914	91.69
328.143	95.69
328.372	80.69
328.6	83.69
328.829	83.69
329.058	68.69
329.287	87.69
329.515	92.69
329.744	86.69
329.972	72.69
330.201	82.69
330.43	82.69
330.658	81.69
330.887	82.69
331.115	76.69
331.344	81.69
331.572	89.69
331.801	82.69
332.03	91.69
332.258	90.69
332.486	77.69
332.715	90.69
332.943	75.69
333.172	88.69
333.4	91.69
333.629	83.69
333.857	78.69
334.085	90.69
334.314	81.69
334.542	79.69
334.771	60.69
334.999	83.69
335.227	64.69
335.455	70.69
335.684	75.69
335.912	59.69
336.14	76.69
336.369	75.69
336.597	89.69
336.825	82.69
337.053	76.69
337.281	75.69
337.51	59.69
337.738	88.69
337.966	77.69
338.194	77.69
338.422	79.69
338.65	92.69
338.878	84.69
339.106	78.69
339.334	75.69
339.562	102.69
339.79	73.69
340.018	82.69
340.246	94.69
340.474	90.69
340.702	94.69
340.93	76.69
341.158	74.69
341.386	81.69
341.614	79.69
341.842	81.69
342.07	75.69
342.298	81.69
342.526	74.69
342.754	84.69
342.981	80.69
343.209	79.69
343.437	92.69
343.665	89.69
343.893	79.69
344.12	78.69
344.348	78.69
344.576	84.69
344.804	81.69
345.031	78.69
345.259	82.69
345.487	86.69
345.714	71.69
345.942	70.69
346.17	84.69
346.397	79.69
346.625	81.69
346.853	82.69
347.08	62.69
347.308	73.69
347.535	96.69
347.763	89.69
347.99	91.69
348.218	79.69
348.445	82.69
348.673	81.69
348.9	94.69
349.128	86.69
349.355	72.69
349.583	80.69
349.81	67.69
350.037	82.69
350.265	70.69
350.492	82.69
350.72	82.69
350.947	64.69
351.174	84.69
351.402	81.69
351.629	78.69
351.856	91.69
352.083	86.69
352.311	88.69
352.538	76.69
352.765	82.69
352.992	97.69
353.22	77.69
353.447	85.69
353.674	78.69
353.901	71.69
354.128	91.69
354.355	103.69
354.583	83.69
354.81	72.69
355.037	81.69
355.264	74.69
355.491	82.69
355.718	80.69
355.945	85.69
356.172	97.69
356.399	77.69
356.626	84.69
356.853	82.69
357.08	86.69
357.307	77.69
357.534	79.69
357.761	79.69
357.988	75.69
358.215	89.69
358.441	90.69
358.668	70.69
358.895	70.69
359.122	75.69
359.349	71.69
359.576	81.69
359.802	80.69
360.029	79.69
360.256	74.69
360.483	91.69
360.709	84.69
360.936	81.69
361.163	74.69
361.39	91.69
361.616	75.69
361.843	81.69
362.07	81.69
362.296	77.69
362.523	80.69
362.749	75.69
362.976	80.69
363.203	90.69
363.429	76.69
363.656	74.69
363.882	87.69
364.109	100.69
364.335	80.69
364.562	87.69
364.788	85.69
365.015	67.69
365.241	89.69
365.468	90.69
365.694	75.69
365.92	83.69
366.147	68.69
366.373	80.69
366.599	83.69
366.826	83.69
367.052	102.69
367.278	86.69
367.505	75.69
367.731	80.69
367.957	95.69
368.184	71.69
368.41	78.69
368.636	79.69
368.862	93.69
369.089	74.69
369.315	89.69
369.541	78.69
369.767	66.69
369.993	79.69
370.219	82.69
370.445	74.69
370.672	71.69
370.898	71.69
371.124	74.69
371.35	81.69
371.576	77.69
371.802	70.69
372.028	82.69
372.254	68.69
372.48	74.69
372.706	84.69
372.932	74.69
373.158	69.69
373.384	93.69
373.61	74.69
373.835	83.69
374.061	77.69
374.287	70.69
374.513	84.69
374.739	79.69
374.965	88.69
375.191	83.69
375.416	74.69
375.642	81.69
375.868	67.69
376.094	84.69
376.319	73.69
376.545	83.69
376.771	75.69
376.997	77.69
377.222	82.69
377.448	75.69
377.674	85.69
377.899	80.69
378.125	65.69
378.35	81.69
378.576	72.69
378.802	75.69
379.027	68.69
379.253	90.69
379.478	82.69
379.704	81.69
379.929	92.69
380.155	89.69
380.38	85.69
380.606	68.69
380.831	70.69
381.057	100.69
381.282	70.69
381.507	80.69
381.733	73.69
381.958	84.69
382.184	99.69
382.409	86.69
382.634	75.69
382.86	71.69
383.085	79.69
383.31	92.69
383.535	84.69
383.761	84.69
383.986	84.69
384.211	72.69
384.436	82.69
384.662	98.69
384.887	74.69
385.112	87.69
385.337	83.69
385.562	76.69
385.787	85.69
386.013	94.69
386.238	73.69
386.463	90.69
386.688	69.69
386.913	72.69
387.138	88.69
387.363	76.69
387.588	76.69
387.813	83.69
388.038	87.69
388.263	75.69
388.488	95.69
388.713	70.69
388.938	73.69
389.163	79.69
389.387	80.69
389.612	74.69
389.837	80.69
390.062	89.69
390.287	81.69
390.512	91.69
390.736	74.69
390.961	68.69
391.186	72.69
391.411	83.69
391.636	74.69
391.86	75.69
392.085	73.69
392.31	72.69
392.534	85.69
392.759	86.69
392.984	77.69
393.208	79.69
393.433	77.69
393.658	89.69
393.882	79.69
394.107	85.69
394.331	76.69
394.556	78.69
394.78	83.69
395.005	78.69
395.229	81.69
395.454	69.69
395.678	71.69
395.903	90.69
396.127	76.69
396.352	82.69
396.576	85.69
396.801	81.69
397.025	73.69
397.249	90.69
397.474	90.69
397.698	79.69
397.922	90.69
398.147	87.69
398.371	75.69
398.595	76.69
398.82	83.69
399.044	72.69
399.268	72.69
399.492	88.69
399.717	83.69
399.941	89.69
400.165	88.69
400.389	80.69
400.613	81.69
400.837	89.69
401.062	93.69
401.286	79.69
401.51	89.69
401.734	82.69
401.958	69.69
402.182	74.69
402.406	78.69
402.63	78.69
402.854	86.69
403.078	60.69
403.302	77.69
403.526	78.69
403.75	80.69
403.974	90.69
404.198	86.69
404.422	77.69
404.645	82.69
404.869	87.69
405.093	89.69
405.317	82.69
405.541	80.69
405.765	89.69
405.988	75.69
406.212	83.69
406.436	91.69
406.66	79.69
406.883	83.69
407.107	79.69
407.331	80.69
407.555	79.69
407.778	82.69
408.002	90.69
408.226	99.69
408.449	94.69
408.673	85.69
408.896	77.69
409.12	90.69
409.344	62.69
409.567	82.69
409.791	89.69
410.014	76.69
410.238	87.69
410.461	88.69
410.685	65.69
410.908	86.69
411.132	80.69
411.355	87.69
411.578	84.69
411.802	79.69
412.025	66.69
412.249	94.69
412.472	94.69
412.695	81.69
412.919	75.69
413.142	86.69
413.365	86.69
413.589	94.69
413.812	79.69
414.035	87.69
414.258	80.69
414.482	73.69
414.705	87.69
414.928	86.69
415.151	83.69
415.374	87.69
415.597	74.69
415.821	98.69
416.044	76.69
416.267	89.69
416.49	87.69
416.713	87.69
416.936	84.69
417.159	84.69
417.382	80.69
417.605	88.69
417.828	93.69
418.051	80.69
418.274	89.69
418.497	87.69
418.72	94.69
418.943	90.69
419.166	94.69
419.389	95.69
419.611	74.69
419.834	73.69
420.057	91.69
420.28	72.69
420.503	96.69
420.726	77.69
420.948	84.69
421.171	79.69
421.394	82.69
421.617	83.69
421.839	77.69
422.062	89.69
422.285	95.69
422.507	83.69
422.73	79.69
422.953	94.69
423.175	73.69
423.398	81.69
423.621	96.69
423.843	86.69
424.066	79.69
424.288	76.69
424.511	89.69
424.733	75.69
424.956	77.69
425.178	91.69
425.401	78.69
425.623	87.69
425.846	86.69
426.068	81.69
426.291	74.69
426.513	90.69
426.735	96.69
426.958	84.69
427.18	84.69
427.402	76.69
427.625	77.69
427.847	91.69
428.069	94.69
428.292	93.69
428.514	82.69
428.736	83.69
428.958	86.69
429.181	77.69
429.403	90.69
429.625	96.69
429.847	86.69
430.069	82.69
430.292	77.69
430.514	73.69
430.736	82.69
430.958	87.69
431.18	76.69
431.402	62.69
431.624	80.69
431.846	77.69
432.068	76.69
432.29	71.69
432.512	92.69
432.734	84.69
432.956	84.69
433.178	71.69
433.4	85.69
433.622	84.69
433.844	71.69
434.066	66.69
434.287	74.69
434.509	74.69
434.731	82.69
434.953	74.69
435.175	78.69
435.397	89.69
435.618	80.69
435.84	79.69
436.062	83.69
436.284	80.69
436.505	90.69
436.727	57.69
436.949	70.69
437.17	87.69
437.392	87.69
437.614	99.69
437.835	78.69
438.057	74.69
438.278	73.69
438.5	86.69
438.721	84.69
438.943	84.69
439.165	84.69
439.386	80.69
439.608	83.69
439.829	93.69
440.05	83.69
440.272	89.69
440.493	90.69
440.715	82.69
440.936	98.69
441.158	83.69
441.379	84.69
441.6	86.69
441.822	90.69
442.043	91.69
442.264	90.69
442.486	79.69
442.707	81.69
442.928	88.69
443.149	101.69
443.371	95.69
443.592	90.69
443.813	96.69
444.034	83.69
444.255	96.69
444.476	92.69
444.698	84.69
444.919	90.69
445.14	180.69
445.361	125.69
445.582	73.69
445.803	76.69
446.024	86.69
446.245	82.69
446.466	92.69
446.687	89.69
446.908	89.69
447.129	89.69
447.35	92.69
447.571	84.69
447.792	76.69
448.013	88.69
448.234	82.69
448.455	80.69
448.675	91.69
448.896	99.69
449.117	80.69
449.338	88.69
449.559	93.69
449.779	78.69
450	82.69
450.221	88.69
450.442	93.69
450.662	83.69
450.883	74.69
451.104	94.69
451.324	78.69
451.545	87.69
451.766	93.69
451.986	87.69
452.207	98.69
452.428	86.69
452.648	82.69
452.869	87.69
453.089	88.69
453.31	75.69
453.53	86.69
453.751	81.69
453.971	86.69
454.192	75.69
454.412	82.69
454.633	75.69
454.853	96.69
455.073	97.69
455.294	81.69
455.514	82.69
455.734	93.69
455.955	82.69
456.175	88.69
456.395	71.69
456.616	93.69
456.836	67.69
457.056	82.69
457.276	95.69
457.497	82.69
457.717	75.69
457.937	77.69
458.157	79.69
458.377	82.69
458.598	73.69
458.818	79.69
459.038	82.69
459.258	77.69
459.478	75.69
459.698	77.69
459.918	85.69
460.138	71.69
460.358	83.69
460.578	82.69
460.798	75.69
461.018	88.69
461.238	84.69
461.458	82.69
461.678	80.69
461.898	67.69
462.118	77.69
462.338	75.69
462.558	86.69
462.777	92.69
462.997	84.69
463.217	68.69
463.437	80.69
463.657	88.69
463.876	76.69
464.096	76.69
464.316	88.69
464.536	71.69
464.755	74.69
464.975	82.69
465.195	99.69
465.414	89.69
465.634	84.69
465.854	77.69
466.073	84.69
466.293	88.69
466.512	85.69
466.732	88.69
466.951	96.69
467.171	91.69
467.391	103.69
467.61	80.69
467.829	87.69
468.049	79.69
468.268	88.69
468.488	88.69
468.707	99.69
468.927	89.69
469.146	80.69
469.365	84.69
469.585	84.69
469.804	99.69
470.023	87.69
470.243	86.69
470.462	79.69
470.681	85.69
470.901	87.69
471.12	84.69
471.339	85.69
471.558	75.69
471.777	97.69
471.997	88.69
472.216	85.69
472.435	72.69
472.654	73.69
472.873	87.69
473.092	85.69
473.311	99.69
473.53	72.69
473.749	87.69
473.968	91.69
474.187	99.69
474.406	93.69
474.625	99.69
474.844	97.69
475.063	75.69
475.282	79.69
475.501	96.69
475.72	97.69
475.939	91.69
476.158	93.69
476.377	106.69
476.596	78.69
476.814	86.69
477.033	98.69
477.252	90.69
477.471	84.69
477.69	76.69
477.908	86.69
478.127	85.69
478.346	87.69
478.564	81.69
478.783	71.69
479.002	86.69
479.22	83.69
479.439	99.69
479.658	71.69
479.876	83.69
480.095	82.69
480.313	95.69
480.532	77.69
480.751	85.69
480.969	83.69
481.188	75.69
481.406	80.69
481.624	83.69
481.843	83.69
482.061	75.69
482.28	81.69
482.498	87.69
482.717	76.69
482.935	100.69
483.153	106.69
483.372	71.69
483.59	93.69
483.808	81.69
484.027	85.69
484.245	92.69
484.463	84.69
484.681	101.69
484.9	86.69
485.118	88.69
485.336	83.69
485.554	86.69
485.772	84.69
485.99	78.69
486.209	89.69
486.427	77.69
486.645	86.69
486.863	93.69
487.081	97.69
487.299	76.69
487.517	95.69
487.735	100.69
487.953	111.69
488.171	90.69
488.389	98.69
488.607	80.69
488.825	81.69
489.043	83.69
489.261	94.69
489.479	91.69
489.696	82.69
489.914	75.69
490.132	89.69
490.35	82.69
490.568	102.69
490.786	75.69
491.003	97.69
491.221	98.69
491.439	105.69
491.657	87.69
491.874	98.69
492.092	100.69
492.31	123.69
492.527	113.69
492.745	104.69
492.963	94.69
493.18	92.69
493.398	104.69
493.615	98.69
493.833	87.69
494.05	103.69
494.268	104.69
494.485	95.69
494.703	95.69
494.92	89.69
495.138	84.69
495.355	86.69
495.573	90.69
495.79	92.69
496.008	99.69
496.225	90.69
496.442	84.69
496.66	101.69
496.877	95.69
497.094	95.69
497.312	96.69
497.529	97.69
497.746	85.69
497.963	84.69
498.181	91.69
498.398	89.69
498.615	75.69
498.832	99.69
499.049	91.69
499.267	95.69
499.484	89.69
499.701	78.69
499.918	78.69
500.135	98.69
500.352	93.69
500.569	88.69
500.786	101.69
501.003	86.69
501.22	91.69
501.437	94.69
501.654	108.69
501.871	83.69
502.088	92.69
502.305	80.69
502.522	106.69
502.739	94.69
502.956	93.69
503.172	76.69
503.389	89.69
503.606	76.69
503.823	94.69
504.04	79.69
504.256	85.69
504.473	70.69
504.69	85.69
504.907	82.69
505.123	91.69
505.34	97.69
505.557	96.69
505.773	81.69
505.99	100.69
506.207	98.69
506.423	89.69
506.64	92.69
506.856	97.69
507.073	72.69
507.289	79.69
507.506	87.69
507.722	78.69
507.939	98.69
508.155	83.69
508.372	86.69
508.588	83.69
508.805	79.69
509.021	84.69
509.238	89.69
509.454	88.69
509.67	69.69
509.887	79.69
510.103	92.69
510.319	89.69
510.536	88.69
510.752	76.69
510.968	90.69
511.184	78.69
511.401	81.69
511.617	91.69
511.833	96.69
512.049	68.69
512.265	92.69
512.481	80.69
512.698	75.69
512.914	88.69
513.13	83.69
513.346	80.69
513.562	88.69
513.778	81.69
513.994	79.69
514.21	76.69
514.426	74.69
514.642	103.69
514.858	80.69
515.074	73.69
515.29	81.69
515.506	82.69
515.721	83.69
515.937	80.69
516.153	70.69
516.369	85.69
516.585	83.69
516.801	85.69
517.016	87.69
517.232	90.69
517.448	86.69
517.664	81.69
517.879	79.69
518.095	82.69
518.311	79.69
518.527	86.69
518.742	82.69
518.958	94.69
519.173	78.69
519.389	89.69
519.605	93.69
519.82	86.69
520.036	76.69
520.251	88.69
520.467	79.69
520.682	70.69
520.898	84.69
521.113	94.69
521.329	80.69
521.544	73.69
521.76	84.69
521.975	86.69
522.19	91.69
522.406	78.69
522.621	77.69
522.836	96.69
523.052	85.69
523.267	95.69
523.482	87.69
523.698	87.69
523.913	90.69
524.128	100.69
524.343	71.69
524.559	95.69
524.774	102.69
524.989	85.69
525.204	87.69
525.419	89.69
525.634	90.69
525.849	76.69
526.064	90.69
526.28	88.69
526.495	84.69
526.71	86.69
526.925	70.69
527.14	85.69
527.355	83.69
527.57	89.69
527.785	88.69
527.999	74.69
528.214	74.69
528.429	94.69
528.644	96.69
528.859	105.69
529.074	80.69
529.289	97.69
529.503	101.69
529.718	83.69
529.933	82.69
530.148	98.69
530.363	97.69
530.577	72.69
530.792	76.69
531.007	70.69
531.221	76.69
531.436	79.69
531.651	64.69
531.865	74.69
532.08	82.69
532.295	80.69
532.509	83.69
532.724	90.69
532.938	76.69
533.153	90.69
533.367	91.69
533.582	88.69
533.796	79.69
534.011	80.69
534.225	79.69
534.44	80.69
534.654	85.69
534.868	90.69
535.083	91.69
535.297	94.69
535.511	82.69
535.726	78.69
535.94	81.69
536.154	77.69
536.369	73.69
536.583	76.69
536.797	86.69
537.011	96.69
537.225	97.69
537.44	76.69
537.654	82.69
537.868	71.69
538.082	80.69
538.296	87.69
538.51	87.69
538.724	91.69
538.938	90.69
539.153	82.69
539.367	89.69
539.581	82.69
539.795	82.69
540.009	81.69
540.222	107.69
540.436	93.69
540.65	83.69
540.864	87.69
541.078	98.69
541.292	88.69
541.506	85.69
541.72	88.69
541.934	107.69
542.147	97.69
542.361	90.69
542.575	98.69
542.789	77.69
543.002	93.69
543.216	110.69
543.43	76.69
543.644	79.69
543.857	100.69
544.071	98.69
544.285	104.69
544.498	91.69
544.712	94.69
544.925	86.69
545.139	100.69
545.352	87.69
545.566	94.69
545.779	91.69
545.993	86.69
546.206	114.69
546.42	92.69
546.633	92.69
546.847	98.69
547.06	103.69
547.274	99.69
547.487	108.69
547.7	105.69
547.914	107.69
548.127	103.69
548.34	96.69
548.554	94.69
548.767	96.69
548.98	100.69
549.193	97.69
549.407	98.69
549.62	86.69
549.833	96.69
550.046	94.69
550.259	94.69
550.473	90.69
550.686	87.69
550.899	98.69
551.112	82.69
551.325	102.69
551.538	115.69
551.751	96.69
551.964	91.69
552.177	92.69
552.39	74.69
552.603	94.69
552.816	104.69
553.029	104.69
553.242	114.69
553.455	102.69
553.667	90.69
553.88	92.69
554.093	93.69
554.306	88.69
554.519	97.69
554.732	105.69
554.944	79.69
555.157	92.69
555.37	97.69
555.583	108.69
555.795	95.69
556.008	99.69
556.221	89.69
556.433	96.69
556.646	82.69
556.859	96.69
557.071	101.69
557.284	90.69
557.496	98.69
557.709	80.69
557.921	85.69
558.134	107.69
558.346	96.69
558.559	84.69
558.771	84.69
558.984	90.69
559.196	106.69
559.409	95.69
559.621	98.69
559.833	91.69
560.046	74.69
560.258	88.69
560.47	79.69
560.683	83.69
560.895	93.69
561.107	110.69
561.32	90.69
561.532	84.69
561.744	87.69
561.956	97.69
562.168	105.69
562.381	106.69
562.593	86.69
562.805	111.69
563.017	90.69
563.229	88.69
563.441	86.69
563.653	76.69
563.865	82.69
564.077	81.69
564.289	80.69
564.501	104.69
564.713	82.69
564.925	99.69
565.137	72.69
565.349	85.69
565.561	86.69
565.773	92.69
565.985	82.69
566.197	87.69
566.408	72.69
566.62	81.69
566.832	78.69
567.044	83.69
567.255	99.69
567.467	84.69
567.679	82.69
567.891	89.69
568.102	80.69
568.314	85.69
568.526	82.69
568.737	91.69
568.949	78.69
569.161	64.69
569.372	77.69
569.584	77.69
569.795	92.69
570.007	91.69
570.218	88.69
570.43	74.69
570.641	76.69
570.853	85.69
571.064	70.69
571.276	73.69
571.487	91.69
571.698	89.69
571.91	87.69
572.121	92.69
572.333	91.69
572.544	80.69
572.755	96.69
572.966	79.69
573.178	78.69
573.389	80.69
573.6	81.69
573.811	78.69
574.023	99.69
574.234	78.69
574.445	81.69
574.656	83.69
574.867	72.69
575.078	82.69
575.289	95.69
575.501	76.69
575.712	81.69
575.923	83.69
576.134	86.69
576.345	103.69
576.556	95.69
576.767	94.69
576.978	89.69
577.188	83.69
577.399	88.69
577.61	86.69
577.821	85.69
578.032	83.69
578.243	88.69
578.454	91.69
578.665	100.69
578.875	91.69
579.086	82.69
579.297	73.69
579.508	90.69
579.718	81.69
579.929	75.69
580.14	86.69
580.35	82.69
580.561	66.69
580.772	83.69
580.982	70.69
581.193	75.69
581.403	103.69
581.614	84.69
581.825	86.69
582.035	86.69
582.246	90.69
582.456	69.69
582.667	71.69
582.877	82.69
583.087	74.69
583.298	96.69
583.508	80.69
583.719	80.69
583.929	80.69
584.139	91.69
584.35	57.69
584.56	78.69
584.77	77.69
584.981	73.69
585.191	83.69
585.401	88.69
585.611	82.69
585.821	89.69
586.032	79.69
586.242	72.69
586.452	95.69
586.662	79.69
586.872	72.69
587.082	85.69
587.292	94.69
587.502	87.69
587.713	83.69
587.923	75.69
588.133	87.69
588.343	81.69
588.553	67.69
588.762	82.69
588.972	74.69
589.182	82.69
589.392	82.69
589.602	97.69
589.812	80.69
590.022	78.69
590.232	89.69
590.441	76.69
590.651	94.69
590.861	86.69
591.071	83.69
591.281	77.69
591.49	82.69
591.7	69.69
591.91	93.69
592.119	86.69
592.329	79.69
592.539	88.69
592.748	84.69
592.958	78.69
593.167	83.69
593.377	83.69
593.587	83.69
593.796	88.69
594.006	84.69
594.215	84.69
594.424	81.69
594.634	85.69
594.843	75.69
595.053	102.69
595.262	90.69
595.472	102.69
595.681	91.69
595.89	96.69
596.1	77.69
596.309	79.69
596.518	91.69
596.727	98.69
596.937	89.69
597.146	86.69
597.355	90.69
597.564	93.69
597.774	88.69
597.983	85.69
598.192	75.69
598.401	80.69
598.61	78.69
598.819	87.69
599.028	71.69
599.237	89.69
599.446	94.69
599.655	101.69
599.864	81.69
600.073	79.69
600.282	92.69
600.491	89.69
600.7	82.69
600.909	91.69
601.118	75.69
601.327	80.69
601.536	85.69
601.745	76.69
601.953	97.69
602.162	96.69
602.371	83.69
602.58	89.69
602.789	75.69
602.997	84.69
603.206	91.69
603.415	90.69
603.623	80.69
603.832	75.69
604.041	85.69
604.249	91.69
604.458	82.69
604.666	83.69
604.875	77.69
605.084	80.69
605.292	91.69
605.501	95.69
605.709	89.69
605.918	84.69
606.126	85.69
606.334	94.69
606.543	77.69
606.751	92.69
606.96	71.69
607.168	82.69
607.376	85.69
607.585	80.69
607.793	94.69
608.001	90.69
608.21	88.69
608.418	87.69
608.626	71.69
608.834	80.69
609.043	79.69
609.251	89.69
609.459	79.69
609.667	98.69
609.875	81.69
610.083	88.69
610.291	90.69
610.499	83.69
610.707	84.69
610.916	105.69
611.124	80.69
611.332	74.69
611.54	82.69
611.748	95.69
611.955	87.69
612.163	91.69
612.371	92.69
612.579	69.69
612.787	83.69
612.995	93.69
613.203	90.69
613.411	95.69
613.618	80.69
613.826	93.69
614.034	82.69
614.242	70.69
614.449	88.69
614.657	87.69
614.865	75.69
615.072	79.69
615.28	100.69
615.488	83.69
615.695	82.69
615.903	77.69
616.111	73.69
616.318	88.69
616.526	88.69
616.733	92.69
616.941	84.69
617.148	88.69
617.356	100.69
617.563	98.69
617.771	94.69
617.978	86.69
618.185	84.69
618.393	88.69
618.6	96.69
618.807	93.69
619.015	95.69
619.222	88.69
619.429	75.69
619.637	71.69
619.844	94.69
620.051	80.69
620.258	83.69
620.466	84.69
620.673	79.69
620.88	84.69
621.087	104.69
621.294	75.69
621.501	98.69
621.708	86.69
621.915	85.69
622.122	90.69
622.329	76.69
622.536	82.69
622.743	74.69
622.95	87.69
623.157	89.69
623.364	92.69
623.571	85.69
623.778	91.69
623.985	87.69
624.192	87.69
624.399	90.69
624.606	95.69
624.812	88.69
625.019	86.69
625.226	76.69
625.433	68.69
625.639	89.69
625.846	99.69
626.053	79.69
626.259	92.69
626.466	83.69
626.673	86.69
626.879	88.69
627.086	71.69
627.293	83.69
627.499	98.69
627.706	91.69
627.912	97.69
628.119	84.69
628.325	83.69
628.532	76.69
628.738	85.69
628.945	87.69
629.151	83.69
629.357	81.69
629.564	82.69
629.77	83.69
629.976	80.69
630.183	88.69
630.389	79.69
630.595	74.69
630.802	97.69
631.008	80.69
631.214	96.69
631.42	90.69
631.627	86.69
631.833	81.69
632.039	73.69
632.245	86.69
632.451	76.69
632.657	82.69
632.863	89.69
633.069	94.69
633.275	76.69
633.481	80.69
633.688	72.69
633.893	85.69
634.099	89.69
634.305	95.69
634.511	78.69
634.717	94.69
634.923	77.69
635.129	93.69
635.335	92.69
635.541	93.69
635.747	86.69
635.952	85.69
636.158	66.69
636.364	83.69
636.57	79.69
636.775	87.69
636.981	88.69
637.187	85.69
637.392	77.69
637.598	89.69
637.804	82.69
638.009	76.69
638.215	94.69
638.421	80.69
638.626	104.69
638.832	91.69
639.037	84.69
639.243	78.69
639.448	76.69
639.654	80.69
639.859	70.69
640.065	77.69
640.27	90.69
640.475	85.69
640.681	88.69
640.886	74.69
641.091	82.69
641.297	73.69
641.502	96.69
641.707	94.69
641.913	103.69
642.118	75.69
642.323	88.69
642.528	78.69
642.733	86.69
642.939	91.69
643.144	93.69
643.349	75.69
643.554	100.69
643.759	72.69
643.964	80.69
644.169	83.69
644.374	70.69
644.579	68.69
644.784	83.69
644.989	77.69
645.194	79.69
645.399	88.69
645.604	91.69
645.809	80.69
646.014	89.69
646.219	75.69
646.423	83.69
646.628	88.69
646.833	91.69
647.038	101.69
647.243	74.69
647.447	87.69
647.652	86.69
647.857	78.69
648.062	90.69
648.266	75.69
648.471	78.69
648.676	82.69
648.88	84.69
649.085	84.69
649.289	73.69
649.494	87.69
649.698	83.69
649.903	73.69
650.107	79.69
650.312	73.69
650.516	67.69
650.721	71.69
650.925	86.69
651.13	67.69
651.334	74.69
651.539	88.69
651.743	88.69
651.947	88.69
652.152	89.69
652.356	87.69
652.56	69.69
652.764	85.69
652.969	83.69
653.173	81.69
653.377	80.69
653.581	80.69
653.785	88.69
653.99	87.69
654.194	82.69
654.398	77.69
654.602	79.69
654.806	89.69
655.01	90.69
655.214	88.69
655.418	79.69
655.622	79.69
655.826	76.69
656.03	84.69
656.234	80.69
656.438	96.69
656.642	88.69
656.846	92.69
657.049	88.69
657.253	85.69
657.457	76.69
657.661	80.69
657.865	86.69
658.068	75.69
658.272	79.69
658.476	74.69
658.68	67.69
658.883	69.69
659.087	81.69
659.291	84.69
659.494	63.69
659.698	72.69
659.901	86.69
660.105	79.69
660.309	92.69
660.512	78.69
660.716	76.69
660.919	79.69
661.123	82.69
661.326	70.69
661.53	80.69
661.733	78.69
661.936	82.69
662.14	91.69
662.343	78.69
662.546	79.69
662.75	93.69
662.953	86.69
663.156	74.69
663.36	87.69
663.563	72.69
663.766	67.69
663.969	82.69
664.173	83.69
664.376	85.69
664.579	87.69
664.782	77.69
664.985	63.69
665.188	76.69
665.391	68.69
665.594	74.69
665.797	84.69
666	82.69
666.203	68.69
666.406	86.69
666.609	66.69
666.812	71.69
667.015	75.69
667.218	80.69
667.421	86.69
667.624	76.69
667.827	92.69
668.03	81.69
668.232	84.69
668.435	88.69
668.638	74.69
668.841	89.69
669.043	80.69
669.246	78.69
669.449	79.69
669.651	86.69
669.854	76.69
670.057	78.69
670.259	84.69
670.462	76.69
670.665	87.69
670.867	80.69
671.07	76.69
671.272	79.69
671.475	82.69
671.677	83.69
671.88	71.69
672.082	75.69
672.284	82.69
672.487	74.69
672.689	92.69
672.892	76.69
