Data from Zn(NO3)2Standard.Agarose3%.GreenCap.LampEnergy5.5.E.O_HRD10591_15-01-11-767.txt Node
Date: Mon Jul 22 15:01:11 EDT 2019
User: cochatt
Spectrometer: HR+D1059
Trigger mode: 1
Integration Time (sec): 1.000000E-1
Scans to average: 1
Electric dark correction enabled: true
Nonlinearity correction enabled: false
Boxcar width: 0
XAxis mode: Wavelengths
Number of Pixels in Spectrum: 2048
>>>>>Begin Spectral Data<<<<<
223.165	-11.62
223.4	-11.62
223.635	-11.62
223.869	-20.62
224.104	-22.62
224.338	-5.62
224.573	-17.62
224.808	-21.62
225.042	-13.62
225.277	-5.62
225.511	-4.62
225.746	10.38
225.98	7.38
226.215	9.38
226.449	21.38
226.683	11.38
226.918	29.38
227.152	34.38
227.387	36.38
227.621	44.38
227.856	31.38
228.09	55.38
228.324	47.38
228.559	62.38
228.793	57.38
229.027	67.38
229.262	74.38
229.496	70.38
229.73	76.38
229.964	84.38
230.199	58.38
230.433	82.38
230.667	70.38
230.901	75.38
231.136	80.38
231.37	80.38
231.604	86.38
231.838	74.38
232.072	80.38
232.306	89.38
232.541	87.38
232.775	71.38
233.009	92.38
233.243	81.38
233.477	97.38
233.711	92.38
233.945	85.38
234.179	94.38
234.413	83.38
234.647	86.38
234.881	86.38
235.115	79.38
235.349	83.38
235.583	87.38
235.817	83.38
236.051	94.38
236.285	87.38
236.519	69.38
236.753	72.38
236.987	75.38
237.221	81.38
237.455	82.38
237.689	68.38
237.922	79.38
238.156	87.38
238.39	73.38
238.624	77.38
238.858	80.38
239.091	80.38
239.325	74.38
239.559	79.38
239.793	88.38
240.027	86.38
240.26	81.38
240.494	92.38
240.728	70.38
240.961	71.38
241.195	83.38
241.429	82.38
241.662	75.38
241.896	91.38
242.13	76.38
242.363	86.38
242.597	99.38
242.83	90.38
243.064	71.38
243.298	94.38
243.531	84.38
243.765	79.38
243.998	87.38
244.232	74.38
244.465	79.38
244.699	73.38
244.932	73.38
245.166	82.38
245.399	78.38
245.633	88.38
245.866	88.38
246.099	77.38
246.333	82.38
246.566	81.38
246.8	88.38
247.033	77.38
247.266	81.38
247.5	87.38
247.733	90.38
247.966	78.38
248.2	76.38
248.433	85.38
248.666	78.38
248.899	83.38
249.133	71.38
249.366	88.38
249.599	88.38
249.832	81.38
250.066	86.38
250.299	82.38
250.532	77.38
250.765	85.38
250.998	79.38
251.231	74.38
251.465	75.38
251.698	76.38
251.931	65.38
252.164	71.38
252.397	92.38
252.63	96.38
252.863	76.38
253.096	85.38
253.329	77.38
253.562	97.38
253.795	77.38
254.028	92.38
254.261	71.38
254.494	89.38
254.727	81.38
254.96	78.38
255.193	77.38
255.426	78.38
255.659	86.38
255.892	88.38
256.124	72.38
256.357	71.38
256.59	72.38
256.823	77.38
257.056	90.38
257.289	84.38
257.521	76.38
257.754	82.38
257.987	89.38
258.22	90.38
258.452	84.38
258.685	87.38
258.918	82.38
259.151	95.38
259.383	90.38
259.616	88.38
259.849	90.38
260.081	80.38
260.314	95.38
260.547	89.38
260.779	89.38
261.012	98.38
261.244	81.38
261.477	81.38
261.71	75.38
261.942	90.38
262.175	86.38
262.407	82.38
262.64	82.38
262.872	82.38
263.105	63.38
263.337	74.38
263.57	81.38
263.802	98.38
264.035	86.38
264.267	76.38
264.499	97.38
264.732	97.38
264.964	81.38
265.197	84.38
265.429	86.38
265.661	88.38
265.894	85.38
266.126	70.38
266.358	83.38
266.591	95.38
266.823	74.38
267.055	93.38
267.287	82.38
267.52	91.38
267.752	86.38
267.984	92.38
268.216	83.38
268.448	87.38
268.681	90.38
268.913	88.38
269.145	93.38
269.377	92.38
269.609	77.38
269.841	95.38
270.073	96.38
270.306	85.38
270.538	88.38
270.77	84.38
271.002	75.38
271.234	89.38
271.466	81.38
271.698	85.38
271.93	83.38
272.162	82.38
272.394	82.38
272.626	77.38
272.858	87.38
273.09	96.38
273.322	79.38
273.553	82.38
273.785	91.38
274.017	92.38
274.249	71.38
274.481	74.38
274.713	80.38
274.945	97.38
275.176	86.38
275.408	89.38
275.64	89.38
275.872	85.38
276.104	105.38
276.335	75.38
276.567	73.38
276.799	94.38
277.031	93.38
277.262	84.38
277.494	85.38
277.726	78.38
277.957	95.38
278.189	78.38
278.421	82.38
278.652	86.38
278.884	101.38
279.115	83.38
279.347	87.38
279.579	72.38
279.81	86.38
280.042	92.38
280.273	89.38
280.505	87.38
280.736	96.38
280.968	94.38
281.199	91.38
281.431	80.38
281.662	83.38
281.894	82.38
282.125	80.38
282.356	85.38
282.588	90.38
282.819	76.38
283.051	88.38
283.282	86.38
283.513	94.38
283.745	90.38
283.976	86.38
284.207	80.38
284.439	90.38
284.67	82.38
284.901	101.38
285.132	101.38
285.364	88.38
285.595	86.38
285.826	89.38
286.057	104.38
286.288	84.38
286.52	73.38
286.751	93.38
286.982	85.38
287.213	83.38
287.444	105.38
287.675	94.38
287.906	75.38
288.138	86.38
288.369	92.38
288.6	90.38
288.831	79.38
289.062	91.38
289.293	86.38
289.524	82.38
289.755	99.38
289.986	96.38
290.217	86.38
290.448	85.38
290.679	78.38
290.91	97.38
291.141	102.38
291.371	81.38
291.602	101.38
291.833	102.38
292.064	97.38
292.295	72.38
292.526	84.38
292.757	87.38
292.987	93.38
293.218	94.38
293.449	90.38
293.68	89.38
293.91	96.38
294.141	90.38
294.372	78.38
294.603	80.38
294.833	91.38
295.064	97.38
295.295	93.38
295.525	76.38
295.756	91.38
295.987	91.38
296.217	101.38
296.448	91.38
296.679	74.38
296.909	96.38
297.14	103.38
297.37	88.38
297.601	93.38
297.831	90.38
298.062	81.38
298.292	86.38
298.523	88.38
298.753	83.38
298.984	84.38
299.214	99.38
299.445	84.38
299.675	93.38
299.905	88.38
300.136	90.38
300.366	89.38
300.597	85.38
300.827	88.38
301.057	100.38
301.288	94.38
301.518	92.38
301.748	91.38
301.979	93.38
302.209	82.38
302.439	98.38
302.669	80.38
302.9	86.38
303.13	89.38
303.36	105.38
303.59	89.38
303.82	93.38
304.051	82.38
304.281	83.38
304.511	92.38
304.741	105.38
304.971	97.38
305.201	83.38
305.431	95.38
305.661	91.38
305.891	88.38
306.121	92.38
306.352	87.38
306.582	90.38
306.812	93.38
307.042	82.38
307.272	85.38
307.502	80.38
307.731	98.38
307.961	77.38
308.191	83.38
308.421	84.38
308.651	77.38
308.881	85.38
309.111	79.38
309.341	93.38
309.571	98.38
309.8	80.38
310.03	77.38
310.26	87.38
310.49	102.38
310.72	77.38
310.949	87.38
311.179	89.38
311.409	92.38
311.639	96.38
311.868	89.38
312.098	78.38
312.328	76.38
312.557	94.38
312.787	84.38
313.017	104.38
313.246	109.38
313.476	105.38
313.706	94.38
313.935	87.38
314.165	96.38
314.394	97.38
314.624	83.38
314.853	74.38
315.083	85.38
315.312	77.38
315.542	88.38
315.771	87.38
316.001	81.38
316.23	87.38
316.46	88.38
316.689	89.38
316.919	97.38
317.148	93.38
317.377	82.38
317.607	85.38
317.836	86.38
318.065	84.38
318.295	86.38
318.524	85.38
318.753	99.38
318.983	64.38
319.212	84.38
319.441	90.38
319.67	102.38
319.9	95.38
320.129	87.38
320.358	84.38
320.587	85.38
320.816	90.38
321.046	81.38
321.275	81.38
321.504	88.38
321.733	98.38
321.962	84.38
322.191	89.38
322.42	96.38
322.649	101.38
322.878	87.38
323.108	89.38
323.337	88.38
323.566	94.38
323.795	102.38
324.024	88.38
324.253	95.38
324.482	92.38
324.71	96.38
324.939	89.38
325.168	86.38
325.397	96.38
325.626	82.38
325.855	73.38
326.084	78.38
326.313	96.38
326.542	85.38
326.77	97.38
326.999	91.38
327.228	98.38
327.457	105.38
327.686	80.38
327.914	91.38
328.143	95.38
328.372	88.38
328.6	90.38
328.829	89.38
329.058	81.38
329.287	97.38
329.515	90.38
329.744	94.38
329.972	81.38
330.201	93.38
330.43	106.38
330.658	81.38
330.887	92.38
331.115	95.38
331.344	82.38
331.572	96.38
331.801	98.38
332.03	109.38
332.258	88.38
332.486	90.38
332.715	75.38
332.943	90.38
333.172	86.38
333.4	78.38
333.629	77.38
333.857	96.38
334.085	80.38
334.314	85.38
334.542	86.38
334.771	91.38
334.999	100.38
335.227	87.38
335.455	89.38
335.684	97.38
335.912	97.38
336.14	81.38
336.369	89.38
336.597	94.38
336.825	102.38
337.053	95.38
337.281	82.38
337.51	77.38
337.738	103.38
337.966	95.38
338.194	87.38
338.422	87.38
338.65	106.38
338.878	88.38
339.106	75.38
339.334	92.38
339.562	102.38
339.79	82.38
340.018	81.38
340.246	89.38
340.474	88.38
340.702	97.38
340.93	87.38
341.158	94.38
341.386	90.38
341.614	87.38
341.842	102.38
342.07	94.38
342.298	92.38
342.526	84.38
342.754	96.38
342.981	96.38
343.209	82.38
343.437	88.38
343.665	94.38
343.893	88.38
344.12	108.38
344.348	95.38
344.576	89.38
344.804	72.38
345.031	92.38
345.259	91.38
345.487	93.38
345.714	79.38
345.942	82.38
346.17	82.38
346.397	81.38
346.625	75.38
346.853	81.38
347.08	80.38
347.308	89.38
347.535	86.38
347.763	83.38
347.99	78.38
348.218	97.38
348.445	96.38
348.673	101.38
348.9	88.38
349.128	80.38
349.355	77.38
349.583	99.38
349.81	92.38
350.037	90.38
350.265	94.38
350.492	89.38
350.72	82.38
350.947	96.38
351.174	93.38
351.402	90.38
351.629	95.38
351.856	93.38
352.083	92.38
352.311	79.38
352.538	92.38
352.765	110.38
352.992	95.38
353.22	86.38
353.447	86.38
353.674	89.38
353.901	93.38
354.128	98.38
354.355	97.38
354.583	95.38
354.81	87.38
355.037	89.38
355.264	85.38
355.491	82.38
355.718	78.38
355.945	80.38
356.172	100.38
356.399	93.38
356.626	80.38
356.853	90.38
357.08	88.38
357.307	88.38
357.534	85.38
357.761	73.38
357.988	88.38
358.215	90.38
358.441	92.38
358.668	86.38
358.895	92.38
359.122	77.38
359.349	90.38
359.576	100.38
359.802	90.38
360.029	91.38
360.256	82.38
360.483	79.38
360.709	88.38
360.936	92.38
361.163	90.38
361.39	78.38
361.616	94.38
361.843	94.38
362.07	86.38
362.296	79.38
362.523	90.38
362.749	93.38
362.976	96.38
363.203	102.38
363.429	78.38
363.656	90.38
363.882	91.38
364.109	100.38
364.335	101.38
364.562	83.38
364.788	96.38
365.015	95.38
365.241	83.38
365.468	86.38
365.694	89.38
365.92	86.38
366.147	90.38
366.373	80.38
366.599	89.38
366.826	94.38
367.052	86.38
367.278	89.38
367.505	95.38
367.731	83.38
367.957	88.38
368.184	97.38
368.41	89.38
368.636	85.38
368.862	93.38
369.089	88.38
369.315	87.38
369.541	95.38
369.767	88.38
369.993	82.38
370.219	89.38
370.445	79.38
370.672	92.38
370.898	90.38
371.124	81.38
371.35	98.38
371.576	81.38
371.802	92.38
372.028	82.38
372.254	83.38
372.48	92.38
372.706	76.38
372.932	95.38
373.158	87.38
373.384	93.38
373.61	81.38
373.835	86.38
374.061	81.38
374.287	88.38
374.513	82.38
374.739	100.38
374.965	96.38
375.191	74.38
375.416	78.38
375.642	91.38
375.868	81.38
376.094	74.38
376.319	85.38
376.545	90.38
376.771	88.38
376.997	84.38
377.222	89.38
377.448	95.38
377.674	85.38
377.899	105.38
378.125	82.38
378.35	85.38
378.576	76.38
378.802	95.38
379.027	103.38
379.253	79.38
379.478	78.38
379.704	86.38
379.929	85.38
380.155	94.38
380.38	89.38
380.606	84.38
380.831	86.38
381.057	88.38
381.282	89.38
381.507	82.38
381.733	95.38
381.958	89.38
382.184	84.38
382.409	92.38
382.634	99.38
382.86	82.38
383.085	89.38
383.31	77.38
383.535	92.38
383.761	90.38
383.986	83.38
384.211	74.38
384.436	88.38
384.662	97.38
384.887	85.38
385.112	95.38
385.337	86.38
385.562	107.38
385.787	97.38
386.013	106.38
386.238	91.38
386.463	92.38
386.688	92.38
386.913	94.38
387.138	86.38
387.363	93.38
387.588	84.38
387.813	95.38
388.038	89.38
388.263	82.38
388.488	82.38
388.713	96.38
388.938	90.38
389.163	100.38
389.387	78.38
389.612	80.38
389.837	86.38
390.062	98.38
390.287	72.38
390.512	87.38
390.736	95.38
390.961	81.38
391.186	73.38
391.411	90.38
391.636	85.38
391.86	92.38
392.085	92.38
392.31	83.38
392.534	77.38
392.759	88.38
392.984	75.38
393.208	90.38
393.433	94.38
393.658	91.38
393.882	88.38
394.107	94.38
394.331	98.38
394.556	94.38
394.78	81.38
395.005	89.38
395.229	82.38
395.454	83.38
395.678	81.38
395.903	83.38
396.127	79.38
396.352	87.38
396.576	92.38
396.801	84.38
397.025	81.38
397.249	74.38
397.474	86.38
397.698	95.38
397.922	96.38
398.147	93.38
398.371	80.38
398.595	78.38
398.82	94.38
399.044	81.38
399.268	103.38
399.492	91.38
399.717	78.38
399.941	89.38
400.165	88.38
400.389	100.38
400.613	83.38
400.837	88.38
401.062	85.38
401.286	93.38
401.51	90.38
401.734	79.38
401.958	79.38
402.182	88.38
402.406	79.38
402.63	91.38
402.854	87.38
403.078	86.38
403.302	95.38
403.526	82.38
403.75	90.38
403.974	88.38
404.198	100.38
404.422	97.38
404.645	74.38
404.869	99.38
405.093	94.38
405.317	93.38
405.541	89.38
405.765	90.38
405.988	82.38
406.212	86.38
406.436	85.38
406.66	99.38
406.883	84.38
407.107	77.38
407.331	101.38
407.555	86.38
407.778	85.38
408.002	96.38
408.226	104.38
408.449	92.38
408.673	88.38
408.896	89.38
409.12	82.38
409.344	77.38
409.567	93.38
409.791	92.38
410.014	86.38
410.238	87.38
410.461	86.38
410.685	93.38
410.908	88.38
411.132	88.38
411.355	86.38
411.578	94.38
411.802	71.38
412.025	90.38
412.249	109.38
412.472	89.38
412.695	85.38
412.919	88.38
413.142	90.38
413.365	75.38
413.589	88.38
413.812	97.38
414.035	95.38
414.258	81.38
414.482	99.38
414.705	86.38
414.928	88.38
415.151	102.38
415.374	80.38
415.597	93.38
415.821	86.38
416.044	88.38
416.267	82.38
416.49	82.38
416.713	95.38
416.936	97.38
417.159	98.38
417.382	84.38
417.605	96.38
417.828	91.38
418.051	86.38
418.274	88.38
418.497	67.38
418.72	85.38
418.943	87.38
419.166	95.38
419.389	80.38
419.611	86.38
419.834	86.38
420.057	99.38
420.28	86.38
420.503	86.38
420.726	78.38
420.948	91.38
421.171	90.38
421.394	91.38
421.617	80.38
421.839	73.38
422.062	80.38
422.285	86.38
422.507	96.38
422.73	99.38
422.953	92.38
423.175	81.38
423.398	92.38
423.621	80.38
423.843	76.38
424.066	79.38
424.288	95.38
424.511	89.38
424.733	94.38
424.956	90.38
425.178	92.38
425.401	77.38
425.623	102.38
425.846	91.38
426.068	104.38
426.291	87.38
426.513	105.38
426.735	96.38
426.958	87.38
427.18	94.38
427.402	85.38
427.625	96.38
427.847	90.38
428.069	79.38
428.292	88.38
428.514	97.38
428.736	85.38
428.958	83.38
429.181	92.38
429.403	95.38
429.625	93.38
429.847	82.38
430.069	92.38
430.292	100.38
430.514	89.38
430.736	93.38
430.958	89.38
431.18	90.38
431.402	90.38
431.624	101.38
431.846	96.38
432.068	97.38
432.29	90.38
432.512	95.38
432.734	91.38
432.956	89.38
433.178	89.38
433.4	94.38
433.622	96.38
433.844	104.38
434.066	96.38
434.287	85.38
434.509	84.38
434.731	89.38
434.953	90.38
435.175	86.38
435.397	94.38
435.618	94.38
435.84	95.38
436.062	90.38
436.284	88.38
436.505	90.38
436.727	84.38
436.949	89.38
437.17	89.38
437.392	82.38
437.614	88.38
437.835	77.38
438.057	86.38
438.278	90.38
438.5	87.38
438.721	93.38
438.943	87.38
439.165	89.38
439.386	102.38
439.608	90.38
439.829	87.38
440.05	98.38
440.272	84.38
440.493	101.38
440.715	79.38
440.936	101.38
441.158	89.38
441.379	94.38
441.6	107.38
441.822	104.38
442.043	98.38
442.264	112.38
442.486	91.38
442.707	96.38
442.928	83.38
443.149	100.38
443.371	91.38
443.592	97.38
443.813	89.38
444.034	91.38
444.255	100.38
444.476	90.38
444.698	77.38
444.919	86.38
445.14	191.38
445.361	134.38
445.582	97.38
445.803	88.38
446.024	97.38
446.245	100.38
446.466	89.38
446.687	90.38
446.908	101.38
447.129	89.38
447.35	97.38
447.571	93.38
447.792	98.38
448.013	94.38
448.234	88.38
448.455	96.38
448.675	99.38
448.896	104.38
449.117	91.38
449.338	79.38
449.559	88.38
449.779	88.38
450	88.38
450.221	90.38
450.442	87.38
450.662	93.38
450.883	99.38
451.104	95.38
451.324	77.38
451.545	91.38
451.766	93.38
451.986	94.38
452.207	95.38
452.428	96.38
452.648	87.38
452.869	90.38
453.089	100.38
453.31	94.38
453.53	93.38
453.751	89.38
453.971	81.38
454.192	78.38
454.412	81.38
454.633	88.38
454.853	92.38
455.073	85.38
455.294	90.38
455.514	92.38
455.734	86.38
455.955	69.38
456.175	91.38
456.395	77.38
456.616	80.38
456.836	77.38
457.056	99.38
457.276	93.38
457.497	97.38
457.717	81.38
457.937	81.38
458.157	92.38
458.377	91.38
458.598	83.38
458.818	79.38
459.038	91.38
459.258	78.38
459.478	86.38
459.698	82.38
459.918	88.38
460.138	77.38
460.358	85.38
460.578	84.38
460.798	97.38
461.018	106.38
461.238	93.38
461.458	100.38
461.678	82.38
461.898	88.38
462.118	85.38
462.338	78.38
462.558	81.38
462.777	79.38
462.997	93.38
463.217	97.38
463.437	86.38
463.657	86.38
463.876	84.38
464.096	103.38
464.316	79.38
464.536	93.38
464.755	92.38
464.975	89.38
465.195	97.38
465.414	96.38
465.634	98.38
465.854	101.38
466.073	82.38
466.293	92.38
466.512	95.38
466.732	98.38
466.951	89.38
467.171	89.38
467.391	92.38
467.61	96.38
467.829	90.38
468.049	86.38
468.268	100.38
468.488	81.38
468.707	103.38
468.927	106.38
469.146	96.38
469.365	94.38
469.585	81.38
469.804	80.38
470.023	102.38
470.243	99.38
470.462	83.38
470.681	120.38
470.901	101.38
471.12	102.38
471.339	85.38
471.558	92.38
471.777	86.38
471.997	92.38
472.216	79.38
472.435	98.38
472.654	80.38
472.873	93.38
473.092	86.38
473.311	87.38
473.53	81.38
473.749	93.38
473.968	103.38
474.187	84.38
474.406	93.38
474.625	88.38
474.844	99.38
475.063	109.38
475.282	94.38
475.501	107.38
475.72	102.38
475.939	88.38
476.158	82.38
476.377	80.38
476.596	88.38
476.814	102.38
477.033	94.38
477.252	98.38
477.471	91.38
477.69	88.38
477.908	92.38
478.127	93.38
478.346	88.38
478.564	83.38
478.783	87.38
479.002	89.38
479.22	92.38
479.439	105.38
479.658	95.38
479.876	96.38
480.095	72.38
480.313	97.38
480.532	105.38
480.751	90.38
480.969	79.38
481.188	76.38
481.406	69.38
481.624	77.38
481.843	89.38
482.061	76.38
482.28	89.38
482.498	92.38
482.717	101.38
482.935	91.38
483.153	109.38
483.372	97.38
483.59	110.38
483.808	99.38
484.027	85.38
484.245	88.38
484.463	99.38
484.681	103.38
484.9	81.38
485.118	94.38
485.336	95.38
485.554	99.38
485.772	91.38
485.99	79.38
486.209	102.38
486.427	92.38
486.645	82.38
486.863	94.38
487.081	86.38
487.299	81.38
487.517	103.38
487.735	106.38
487.953	112.38
488.171	95.38
488.389	104.38
488.607	87.38
488.825	98.38
489.043	107.38
489.261	96.38
489.479	95.38
489.696	108.38
489.914	104.38
490.132	92.38
490.35	88.38
490.568	87.38
490.786	83.38
491.003	101.38
491.221	111.38
491.439	109.38
491.657	120.38
491.874	116.38
492.092	100.38
492.31	108.38
492.527	112.38
492.745	108.38
492.963	98.38
493.18	83.38
493.398	100.38
493.615	100.38
493.833	88.38
494.05	85.38
494.268	95.38
494.485	102.38
494.703	85.38
494.92	106.38
495.138	97.38
495.355	110.38
495.573	108.38
495.79	110.38
496.008	99.38
496.225	104.38
496.442	108.38
496.66	95.38
496.877	106.38
497.094	90.38
497.312	87.38
497.529	84.38
497.746	103.38
497.963	97.38
498.181	96.38
498.398	87.38
498.615	92.38
498.832	84.38
499.049	91.38
499.267	82.38
499.484	98.38
499.701	105.38
499.918	78.38
500.135	97.38
500.352	88.38
500.569	95.38
500.786	98.38
501.003	99.38
501.22	93.38
501.437	101.38
501.654	88.38
501.871	92.38
502.088	99.38
502.305	97.38
502.522	94.38
502.739	87.38
502.956	82.38
503.172	99.38
503.389	95.38
503.606	98.38
503.823	84.38
504.04	96.38
504.256	96.38
504.473	93.38
504.69	102.38
504.907	98.38
505.123	89.38
505.34	88.38
505.557	86.38
505.773	98.38
505.99	90.38
506.207	87.38
506.423	95.38
506.64	93.38
506.856	92.38
507.073	99.38
507.289	103.38
507.506	97.38
507.722	93.38
507.939	90.38
508.155	86.38
508.372	87.38
508.588	84.38
508.805	96.38
509.021	84.38
509.238	93.38
509.454	96.38
509.67	88.38
509.887	88.38
510.103	97.38
510.319	85.38
510.536	78.38
510.752	88.38
510.968	94.38
511.184	94.38
511.401	90.38
511.617	78.38
511.833	82.38
512.049	92.38
512.265	86.38
512.481	86.38
512.698	86.38
512.914	96.38
513.13	86.38
513.346	82.38
513.562	97.38
513.778	85.38
513.994	81.38
514.21	88.38
514.426	88.38
514.642	87.38
514.858	86.38
515.074	72.38
515.29	96.38
515.506	90.38
515.721	77.38
515.937	88.38
516.153	73.38
516.369	87.38
516.585	89.38
516.801	85.38
517.016	79.38
517.232	94.38
517.448	95.38
517.664	84.38
517.879	88.38
518.095	93.38
518.311	80.38
518.527	92.38
518.742	79.38
518.958	85.38
519.173	90.38
519.389	84.38
519.605	77.38
519.82	81.38
520.036	92.38
520.251	86.38
520.467	92.38
520.682	78.38
520.898	72.38
521.113	104.38
521.329	88.38
521.544	90.38
521.76	95.38
521.975	82.38
522.19	77.38
522.406	82.38
522.621	95.38
522.836	92.38
523.052	87.38
523.267	84.38
523.482	81.38
523.698	89.38
523.913	99.38
524.128	95.38
524.343	90.38
524.559	92.38
524.774	97.38
524.989	79.38
525.204	98.38
525.419	103.38
525.634	81.38
525.849	84.38
526.064	79.38
526.28	94.38
526.495	96.38
526.71	95.38
526.925	84.38
527.14	80.38
527.355	96.38
527.57	88.38
527.785	79.38
527.999	96.38
528.214	81.38
528.429	87.38
528.644	90.38
528.859	97.38
529.074	88.38
529.289	85.38
529.503	91.38
529.718	89.38
529.933	81.38
530.148	88.38
530.363	99.38
530.577	83.38
530.792	91.38
531.007	89.38
531.221	88.38
531.436	85.38
531.651	82.38
531.865	89.38
532.08	77.38
532.295	105.38
532.509	88.38
532.724	92.38
532.938	103.38
533.153	93.38
533.367	86.38
533.582	92.38
533.796	84.38
534.011	103.38
534.225	89.38
534.44	84.38
534.654	95.38
534.868	89.38
535.083	88.38
535.297	86.38
535.511	84.38
535.726	97.38
535.94	95.38
536.154	89.38
536.369	79.38
536.583	87.38
536.797	79.38
537.011	93.38
537.225	89.38
537.44	92.38
537.654	77.38
537.868	82.38
538.082	100.38
538.296	86.38
538.51	98.38
538.724	85.38
538.938	100.38
539.153	116.38
539.367	106.38
539.581	90.38
539.795	88.38
540.009	82.38
540.222	79.38
540.436	82.38
540.65	82.38
540.864	66.38
541.078	105.38
541.292	109.38
541.506	95.38
541.72	83.38
541.934	103.38
542.147	102.38
542.361	118.38
542.575	107.38
542.789	82.38
543.002	89.38
543.216	86.38
543.43	91.38
543.644	95.38
543.857	92.38
544.071	102.38
544.285	103.38
544.498	105.38
544.712	108.38
544.925	88.38
545.139	117.38
545.352	102.38
545.566	102.38
545.779	101.38
545.993	90.38
546.206	103.38
546.42	97.38
546.633	106.38
546.847	93.38
547.06	101.38
547.274	101.38
547.487	100.38
547.7	103.38
547.914	93.38
548.127	90.38
548.34	108.38
548.554	100.38
548.767	94.38
548.98	98.38
549.193	100.38
549.407	110.38
549.62	114.38
549.833	112.38
550.046	100.38
550.259	113.38
550.473	112.38
550.686	101.38
550.899	103.38
551.112	102.38
551.325	101.38
551.538	100.38
551.751	91.38
551.964	92.38
552.177	104.38
552.39	100.38
552.603	107.38
552.816	89.38
553.029	97.38
553.242	95.38
553.455	90.38
553.667	110.38
553.88	97.38
554.093	102.38
554.306	108.38
554.519	97.38
554.732	94.38
554.944	97.38
555.157	104.38
555.37	110.38
555.583	114.38
555.795	90.38
556.008	101.38
556.221	90.38
556.433	100.38
556.646	112.38
556.859	102.38
557.071	106.38
557.284	98.38
557.496	102.38
557.709	105.38
557.921	105.38
558.134	95.38
558.346	102.38
558.559	94.38
558.771	90.38
558.984	89.38
559.196	95.38
559.409	106.38
559.621	104.38
559.833	89.38
560.046	94.38
560.258	97.38
560.47	107.38
560.683	97.38
560.895	94.38
561.107	87.38
561.32	89.38
561.532	100.38
561.744	99.38
561.956	91.38
562.168	93.38
562.381	95.38
562.593	100.38
562.805	100.38
563.017	102.38
563.229	97.38
563.441	84.38
563.653	89.38
563.865	100.38
564.077	94.38
564.289	94.38
564.501	94.38
564.713	96.38
564.925	88.38
565.137	96.38
565.349	96.38
565.561	85.38
565.773	88.38
565.985	92.38
566.197	105.38
566.408	93.38
566.62	96.38
566.832	101.38
567.044	104.38
567.255	91.38
567.467	102.38
567.679	86.38
567.891	98.38
568.102	96.38
568.314	91.38
568.526	96.38
568.737	95.38
568.949	88.38
569.161	100.38
569.372	77.38
569.584	82.38
569.795	81.38
570.007	87.38
570.218	95.38
570.43	80.38
570.641	93.38
570.853	81.38
571.064	93.38
571.276	92.38
571.487	94.38
571.698	80.38
571.91	93.38
572.121	86.38
572.333	100.38
572.544	93.38
572.755	96.38
572.966	85.38
573.178	93.38
573.389	95.38
573.6	79.38
573.811	90.38
574.023	93.38
574.234	95.38
574.445	101.38
574.656	99.38
574.867	82.38
575.078	96.38
575.289	90.38
575.501	98.38
575.712	81.38
575.923	89.38
576.134	89.38
576.345	89.38
576.556	89.38
576.767	98.38
576.978	93.38
577.188	81.38
577.399	92.38
577.61	101.38
577.821	94.38
578.032	87.38
578.243	85.38
578.454	93.38
578.665	94.38
578.875	95.38
579.086	95.38
579.297	89.38
579.508	91.38
579.718	77.38
579.929	92.38
580.14	85.38
580.35	93.38
580.561	99.38
580.772	83.38
580.982	91.38
581.193	103.38
581.403	98.38
581.614	87.38
581.825	83.38
582.035	74.38
582.246	82.38
582.456	94.38
582.667	94.38
582.877	77.38
583.087	105.38
583.298	97.38
583.508	84.38
583.719	77.38
583.929	93.38
584.139	89.38
584.35	72.38
584.56	80.38
584.77	92.38
584.981	86.38
585.191	90.38
585.401	93.38
585.611	96.38
585.821	94.38
586.032	98.38
586.242	78.38
586.452	79.38
586.662	86.38
586.872	94.38
587.082	87.38
587.292	87.38
587.502	81.38
587.713	76.38
587.923	107.38
588.133	98.38
588.343	94.38
588.553	94.38
588.762	90.38
588.972	100.38
589.182	95.38
589.392	90.38
589.602	93.38
589.812	92.38
590.022	80.38
590.232	83.38
590.441	78.38
590.651	80.38
590.861	88.38
591.071	95.38
591.281	99.38
591.49	86.38
591.7	87.38
591.91	84.38
592.119	86.38
592.329	89.38
592.539	85.38
592.748	80.38
592.958	82.38
593.167	89.38
593.377	86.38
593.587	105.38
593.796	86.38
594.006	79.38
594.215	88.38
594.424	84.38
594.634	89.38
594.843	87.38
595.053	97.38
595.262	98.38
595.472	81.38
595.681	84.38
595.89	95.38
596.1	93.38
596.309	79.38
596.518	68.38
596.727	84.38
596.937	89.38
597.146	88.38
597.355	100.38
597.564	100.38
597.774	82.38
597.983	78.38
598.192	85.38
598.401	93.38
598.61	93.38
598.819	94.38
599.028	90.38
599.237	90.38
599.446	99.38
599.655	87.38
599.864	92.38
600.073	86.38
600.282	90.38
600.491	110.38
600.7	97.38
600.909	93.38
601.118	100.38
601.327	88.38
601.536	83.38
601.745	99.38
601.953	89.38
602.162	97.38
602.371	87.38
602.58	92.38
602.789	80.38
602.997	100.38
603.206	96.38
603.415	97.38
603.623	95.38
603.832	106.38
604.041	87.38
604.249	92.38
604.458	84.38
604.666	85.38
604.875	95.38
605.084	101.38
605.292	102.38
605.501	83.38
605.709	85.38
605.918	81.38
606.126	100.38
606.334	103.38
606.543	113.38
606.751	113.38
606.96	87.38
607.168	80.38
607.376	86.38
607.585	91.38
607.793	96.38
608.001	91.38
608.21	101.38
608.418	87.38
608.626	82.38
608.834	88.38
609.043	85.38
609.251	109.38
609.459	88.38
609.667	104.38
609.875	85.38
610.083	90.38
610.291	92.38
610.499	90.38
610.707	95.38
610.916	106.38
611.124	90.38
611.332	93.38
611.54	94.38
611.748	98.38
611.955	102.38
612.163	96.38
612.371	93.38
612.579	93.38
612.787	95.38
612.995	94.38
613.203	104.38
613.411	80.38
613.618	91.38
613.826	93.38
614.034	85.38
614.242	106.38
614.449	105.38
614.657	88.38
614.865	100.38
615.072	93.38
615.28	97.38
615.488	85.38
615.695	101.38
615.903	88.38
616.111	86.38
616.318	89.38
616.526	94.38
616.733	97.38
616.941	86.38
617.148	92.38
617.356	97.38
617.563	96.38
617.771	92.38
617.978	85.38
618.185	95.38
618.393	91.38
618.6	90.38
618.807	108.38
619.015	89.38
619.222	96.38
619.429	101.38
619.637	91.38
619.844	96.38
620.051	72.38
620.258	82.38
620.466	95.38
620.673	86.38
620.88	78.38
621.087	89.38
621.294	97.38
621.501	99.38
621.708	93.38
621.915	94.38
622.122	91.38
622.329	123.38
622.536	90.38
622.743	81.38
622.95	83.38
623.157	107.38
623.364	95.38
623.571	91.38
623.778	106.38
623.985	87.38
624.192	99.38
624.399	84.38
624.606	92.38
624.812	79.38
625.019	103.38
625.226	75.38
625.433	96.38
625.639	86.38
625.846	105.38
626.053	87.38
626.259	95.38
626.466	101.38
626.673	94.38
626.879	83.38
627.086	97.38
627.293	100.38
627.499	94.38
627.706	86.38
627.912	98.38
628.119	95.38
628.325	93.38
628.532	99.38
628.738	79.38
628.945	96.38
629.151	90.38
629.357	86.38
629.564	99.38
629.77	90.38
629.976	89.38
630.183	83.38
630.389	86.38
630.595	97.38
630.802	95.38
631.008	98.38
631.214	93.38
631.42	84.38
631.627	100.38
631.833	105.38
632.039	94.38
632.245	81.38
632.451	87.38
632.657	76.38
632.863	67.38
633.069	86.38
633.275	87.38
633.481	83.38
633.688	93.38
633.893	83.38
634.099	78.38
634.305	93.38
634.511	85.38
634.717	78.38
634.923	94.38
635.129	99.38
635.335	92.38
635.541	82.38
635.747	106.38
635.952	88.38
636.158	80.38
636.364	90.38
636.57	72.38
636.775	85.38
636.981	82.38
637.187	82.38
637.392	89.38
637.598	92.38
637.804	89.38
638.009	92.38
638.215	91.38
638.421	90.38
638.626	104.38
638.832	95.38
639.037	116.38
639.243	96.38
639.448	94.38
639.654	91.38
639.859	79.38
640.065	75.38
640.27	89.38
640.475	84.38
640.681	97.38
640.886	91.38
641.091	81.38
641.297	89.38
641.502	90.38
641.707	90.38
641.913	97.38
642.118	94.38
642.323	99.38
642.528	91.38
642.733	88.38
642.939	87.38
643.144	90.38
643.349	89.38
643.554	93.38
643.759	101.38
643.964	70.38
644.169	93.38
644.374	87.38
644.579	100.38
644.784	83.38
644.989	101.38
645.194	88.38
645.399	92.38
645.604	80.38
645.809	82.38
646.014	93.38
646.219	84.38
646.423	96.38
646.628	85.38
646.833	93.38
647.038	86.38
647.243	92.38
647.447	99.38
647.652	92.38
647.857	92.38
648.062	87.38
648.266	82.38
648.471	93.38
648.676	92.38
648.88	93.38
649.085	85.38
649.289	95.38
649.494	83.38
649.698	80.38
649.903	84.38
650.107	81.38
650.312	98.38
650.516	88.38
650.721	81.38
650.925	81.38
651.13	88.38
651.334	92.38
651.539	89.38
651.743	101.38
651.947	78.38
652.152	107.38
652.356	94.38
652.56	87.38
652.764	88.38
652.969	88.38
653.173	87.38
653.377	96.38
653.581	79.38
653.785	87.38
653.99	96.38
654.194	94.38
654.398	88.38
654.602	85.38
654.806	77.38
655.01	86.38
655.214	85.38
655.418	82.38
655.622	89.38
655.826	86.38
656.03	84.38
656.234	101.38
656.438	91.38
656.642	90.38
656.846	87.38
657.049	94.38
657.253	88.38
657.457	102.38
657.661	83.38
657.865	80.38
658.068	81.38
658.272	95.38
658.476	88.38
658.68	83.38
658.883	90.38
659.087	98.38
659.291	94.38
659.494	85.38
659.698	84.38
659.901	88.38
660.105	79.38
660.309	102.38
660.512	88.38
660.716	82.38
660.919	95.38
661.123	80.38
661.326	85.38
661.53	95.38
661.733	82.38
661.936	80.38
662.14	79.38
662.343	105.38
662.546	81.38
662.75	96.38
662.953	89.38
663.156	84.38
663.36	109.38
663.563	91.38
663.766	80.38
663.969	84.38
664.173	85.38
664.376	82.38
664.579	81.38
664.782	74.38
664.985	89.38
665.188	94.38
665.391	87.38
665.594	76.38
665.797	81.38
666	88.38
666.203	86.38
666.406	78.38
666.609	81.38
666.812	83.38
667.015	85.38
667.218	85.38
667.421	78.38
667.624	84.38
667.827	90.38
668.03	90.38
668.232	80.38
668.435	85.38
668.638	86.38
668.841	91.38
669.043	72.38
669.246	76.38
669.449	77.38
669.651	88.38
669.854	91.38
670.057	97.38
670.259	87.38
670.462	77.38
670.665	75.38
670.867	88.38
671.07	90.38
671.272	75.38
671.475	72.38
671.677	84.38
671.88	88.38
672.082	86.38
672.284	91.38
672.487	94.38
672.689	92.38
672.892	90.38
