Data from Zn(NO3)2Standard.Agarose3%.GreenCap.LampEnergy5.5.E.O_HRD10591_15-01-25-767.txt Node
Date: Mon Jul 22 15:01:25 EDT 2019
User: cochatt
Spectrometer: HR+D1059
Trigger mode: 1
Integration Time (sec): 1.000000E-1
Scans to average: 1
Electric dark correction enabled: true
Nonlinearity correction enabled: false
Boxcar width: 0
XAxis mode: Wavelengths
Number of Pixels in Spectrum: 2048
>>>>>Begin Spectral Data<<<<<
223.165	-22.25
223.4	-22.25
223.635	-22.25
223.869	-15.25
224.104	-9.25
224.338	-7.25
224.573	-4.25
224.808	-6.25
225.042	-11.25
225.277	-8.25
225.511	-5.25
225.746	-9.25
225.98	5.75
226.215	9.75
226.449	7.75
226.683	19.75
226.918	25.75
227.152	29.75
227.387	34.75
227.621	43.75
227.856	40.75
228.09	49.75
228.324	49.75
228.559	52.75
228.793	55.75
229.027	58.75
229.262	53.75
229.496	71.75
229.73	53.75
229.964	68.75
230.199	77.75
230.433	61.75
230.667	75.75
230.901	66.75
231.136	78.75
231.37	77.75
231.604	72.75
231.838	72.75
232.072	78.75
232.306	88.75
232.541	95.75
232.775	89.75
233.009	76.75
233.243	78.75
233.477	68.75
233.711	98.75
233.945	88.75
234.179	69.75
234.413	80.75
234.647	74.75
234.881	78.75
235.115	67.75
235.349	80.75
235.583	82.75
235.817	77.75
236.051	71.75
236.285	73.75
236.519	67.75
236.753	88.75
236.987	79.75
237.221	84.75
237.455	80.75
237.689	79.75
237.922	77.75
238.156	75.75
238.39	61.75
238.624	69.75
238.858	72.75
239.091	85.75
239.325	79.75
239.559	90.75
239.793	69.75
240.027	78.75
240.26	80.75
240.494	74.75
240.728	77.75
240.961	75.75
241.195	76.75
241.429	66.75
241.662	75.75
241.896	83.75
242.13	66.75
242.363	68.75
242.597	66.75
242.83	85.75
243.064	89.75
243.298	76.75
243.531	65.75
243.765	90.75
243.998	73.75
244.232	81.75
244.465	90.75
244.699	68.75
244.932	74.75
245.166	81.75
245.399	68.75
245.633	80.75
245.866	92.75
246.099	81.75
246.333	60.75
246.566	69.75
246.8	82.75
247.033	70.75
247.266	82.75
247.5	88.75
247.733	69.75
247.966	71.75
248.2	78.75
248.433	78.75
248.666	72.75
248.899	76.75
249.133	92.75
249.366	91.75
249.599	85.75
249.832	92.75
250.066	66.75
250.299	79.75
250.532	76.75
250.765	71.75
250.998	73.75
251.231	89.75
251.465	86.75
251.698	82.75
251.931	82.75
252.164	82.75
252.397	74.75
252.63	84.75
252.863	88.75
253.096	76.75
253.329	81.75
253.562	86.75
253.795	89.75
254.028	83.75
254.261	74.75
254.494	79.75
254.727	81.75
254.96	71.75
255.193	81.75
255.426	91.75
255.659	78.75
255.892	77.75
256.124	84.75
256.357	97.75
256.59	81.75
256.823	81.75
257.056	80.75
257.289	86.75
257.521	79.75
257.754	87.75
257.987	77.75
258.22	76.75
258.452	76.75
258.685	80.75
258.918	91.75
259.151	88.75
259.383	77.75
259.616	85.75
259.849	73.75
260.081	78.75
260.314	61.75
260.547	84.75
260.779	75.75
261.012	76.75
261.244	83.75
261.477	88.75
261.71	82.75
261.942	76.75
262.175	95.75
262.407	82.75
262.64	85.75
262.872	86.75
263.105	94.75
263.337	93.75
263.57	67.75
263.802	88.75
264.035	85.75
264.267	83.75
264.499	82.75
264.732	92.75
264.964	76.75
265.197	91.75
265.429	85.75
265.661	85.75
265.894	85.75
266.126	77.75
266.358	81.75
266.591	87.75
266.823	78.75
267.055	78.75
267.287	77.75
267.52	69.75
267.752	101.75
267.984	91.75
268.216	85.75
268.448	84.75
268.681	63.75
268.913	77.75
269.145	91.75
269.377	73.75
269.609	82.75
269.841	91.75
270.073	91.75
270.306	75.75
270.538	80.75
270.77	75.75
271.002	84.75
271.234	75.75
271.466	83.75
271.698	86.75
271.93	82.75
272.162	93.75
272.394	89.75
272.626	85.75
272.858	77.75
273.09	77.75
273.322	81.75
273.553	70.75
273.785	75.75
274.017	89.75
274.249	78.75
274.481	79.75
274.713	73.75
274.945	69.75
275.176	66.75
275.408	88.75
275.64	69.75
275.872	69.75
276.104	85.75
276.335	91.75
276.567	89.75
276.799	80.75
277.031	78.75
277.262	86.75
277.494	78.75
277.726	90.75
277.957	105.75
278.189	76.75
278.421	84.75
278.652	79.75
278.884	76.75
279.115	76.75
279.347	76.75
279.579	74.75
279.81	95.75
280.042	82.75
280.273	91.75
280.505	83.75
280.736	94.75
280.968	78.75
281.199	72.75
281.431	87.75
281.662	93.75
281.894	92.75
282.125	85.75
282.356	77.75
282.588	92.75
282.819	71.75
283.051	86.75
283.282	100.75
283.513	97.75
283.745	83.75
283.976	78.75
284.207	101.75
284.439	92.75
284.67	87.75
284.901	64.75
285.132	77.75
285.364	81.75
285.595	81.75
285.826	85.75
286.057	80.75
286.288	84.75
286.52	77.75
286.751	86.75
286.982	86.75
287.213	84.75
287.444	81.75
287.675	82.75
287.906	85.75
288.138	88.75
288.369	97.75
288.6	88.75
288.831	77.75
289.062	90.75
289.293	81.75
289.524	68.75
289.755	82.75
289.986	74.75
290.217	93.75
290.448	88.75
290.679	107.75
290.91	90.75
291.141	76.75
291.371	82.75
291.602	76.75
291.833	89.75
292.064	72.75
292.295	77.75
292.526	75.75
292.757	67.75
292.987	75.75
293.218	70.75
293.449	87.75
293.68	84.75
293.91	92.75
294.141	99.75
294.372	82.75
294.603	77.75
294.833	77.75
295.064	82.75
295.295	80.75
295.525	88.75
295.756	80.75
295.987	66.75
296.217	85.75
296.448	67.75
296.679	76.75
296.909	101.75
297.14	75.75
297.37	92.75
297.601	81.75
297.831	82.75
298.062	78.75
298.292	87.75
298.523	80.75
298.753	79.75
298.984	96.75
299.214	77.75
299.445	93.75
299.675	97.75
299.905	81.75
300.136	82.75
300.366	96.75
300.597	83.75
300.827	93.75
301.057	78.75
301.288	96.75
301.518	94.75
301.748	77.75
301.979	89.75
302.209	75.75
302.439	87.75
302.669	85.75
302.9	74.75
303.13	70.75
303.36	78.75
303.59	83.75
303.82	79.75
304.051	86.75
304.281	77.75
304.511	93.75
304.741	88.75
304.971	65.75
305.201	89.75
305.431	92.75
305.661	86.75
305.891	78.75
306.121	73.75
306.352	89.75
306.582	85.75
306.812	77.75
307.042	85.75
307.272	73.75
307.502	83.75
307.731	86.75
307.961	87.75
308.191	79.75
308.421	76.75
308.651	67.75
308.881	78.75
309.111	84.75
309.341	83.75
309.571	76.75
309.8	88.75
310.03	88.75
310.26	81.75
310.49	84.75
310.72	86.75
310.949	86.75
311.179	71.75
311.409	78.75
311.639	85.75
311.868	74.75
312.098	89.75
312.328	86.75
312.557	85.75
312.787	78.75
313.017	74.75
313.246	87.75
313.476	77.75
313.706	87.75
313.935	90.75
314.165	85.75
314.394	85.75
314.624	82.75
314.853	101.75
315.083	73.75
315.312	69.75
315.542	76.75
315.771	81.75
316.001	81.75
316.23	92.75
316.46	74.75
316.689	89.75
316.919	80.75
317.148	96.75
317.377	91.75
317.607	90.75
317.836	97.75
318.065	73.75
318.295	86.75
318.524	78.75
318.753	84.75
318.983	86.75
319.212	88.75
319.441	84.75
319.67	80.75
319.9	84.75
320.129	84.75
320.358	78.75
320.587	82.75
320.816	85.75
321.046	79.75
321.275	88.75
321.504	78.75
321.733	61.75
321.962	82.75
322.191	78.75
322.42	86.75
322.649	80.75
322.878	81.75
323.108	84.75
323.337	76.75
323.566	83.75
323.795	83.75
324.024	96.75
324.253	77.75
324.482	87.75
324.71	78.75
324.939	101.75
325.168	88.75
325.397	77.75
325.626	89.75
325.855	70.75
326.084	84.75
326.313	82.75
326.542	74.75
326.77	86.75
326.999	88.75
327.228	68.75
327.457	72.75
327.686	80.75
327.914	82.75
328.143	72.75
328.372	70.75
328.6	82.75
328.829	73.75
329.058	83.75
329.287	91.75
329.515	92.75
329.744	93.75
329.972	85.75
330.201	77.75
330.43	77.75
330.658	81.75
330.887	86.75
331.115	86.75
331.344	83.75
331.572	84.75
331.801	87.75
332.03	94.75
332.258	78.75
332.486	89.75
332.715	88.75
332.943	96.75
333.172	94.75
333.4	89.75
333.629	78.75
333.857	86.75
334.085	92.75
334.314	88.75
334.542	92.75
334.771	68.75
334.999	88.75
335.227	67.75
335.455	87.75
335.684	92.75
335.912	85.75
336.14	82.75
336.369	88.75
336.597	77.75
336.825	89.75
337.053	83.75
337.281	83.75
337.51	90.75
337.738	75.75
337.966	84.75
338.194	70.75
338.422	99.75
338.65	88.75
338.878	69.75
339.106	70.75
339.334	84.75
339.562	86.75
339.79	81.75
340.018	76.75
340.246	74.75
340.474	83.75
340.702	75.75
340.93	76.75
341.158	82.75
341.386	87.75
341.614	68.75
341.842	69.75
342.07	72.75
342.298	76.75
342.526	83.75
342.754	76.75
342.981	69.75
343.209	79.75
343.437	102.75
343.665	85.75
343.893	87.75
344.12	75.75
344.348	72.75
344.576	84.75
344.804	84.75
345.031	75.75
345.259	83.75
345.487	74.75
345.714	90.75
345.942	71.75
346.17	75.75
346.397	76.75
346.625	77.75
346.853	71.75
347.08	89.75
347.308	82.75
347.535	79.75
347.763	91.75
347.99	74.75
348.218	83.75
348.445	82.75
348.673	77.75
348.9	101.75
349.128	86.75
349.355	84.75
349.583	94.75
349.81	88.75
350.037	74.75
350.265	83.75
350.492	82.75
350.72	74.75
350.947	77.75
351.174	93.75
351.402	92.75
351.629	88.75
351.856	82.75
352.083	78.75
352.311	83.75
352.538	76.75
352.765	99.75
352.992	95.75
353.22	87.75
353.447	73.75
353.674	80.75
353.901	86.75
354.128	68.75
354.355	67.75
354.583	74.75
354.81	95.75
355.037	75.75
355.264	96.75
355.491	100.75
355.718	77.75
355.945	79.75
356.172	68.75
356.399	77.75
356.626	90.75
356.853	93.75
357.08	83.75
357.307	97.75
357.534	72.75
357.761	74.75
357.988	77.75
358.215	94.75
358.441	85.75
358.668	86.75
358.895	77.75
359.122	72.75
359.349	79.75
359.576	78.75
359.802	72.75
360.029	88.75
360.256	81.75
360.483	76.75
360.709	80.75
360.936	86.75
361.163	92.75
361.39	81.75
361.616	102.75
361.843	93.75
362.07	81.75
362.296	74.75
362.523	84.75
362.749	90.75
362.976	76.75
363.203	76.75
363.429	86.75
363.656	84.75
363.882	82.75
364.109	90.75
364.335	72.75
364.562	85.75
364.788	80.75
365.015	83.75
365.241	82.75
365.468	85.75
365.694	83.75
365.92	83.75
366.147	76.75
366.373	76.75
366.599	76.75
366.826	71.75
367.052	89.75
367.278	84.75
367.505	93.75
367.731	90.75
367.957	78.75
368.184	89.75
368.41	77.75
368.636	70.75
368.862	76.75
369.089	80.75
369.315	86.75
369.541	95.75
369.767	80.75
369.993	81.75
370.219	65.75
370.445	82.75
370.672	84.75
370.898	88.75
371.124	69.75
371.35	77.75
371.576	93.75
371.802	87.75
372.028	83.75
372.254	77.75
372.48	84.75
372.706	76.75
372.932	81.75
373.158	84.75
373.384	79.75
373.61	81.75
373.835	71.75
374.061	87.75
374.287	81.75
374.513	79.75
374.739	90.75
374.965	91.75
375.191	85.75
375.416	67.75
375.642	72.75
375.868	91.75
376.094	85.75
376.319	97.75
376.545	67.75
376.771	89.75
376.997	90.75
377.222	75.75
377.448	82.75
377.674	89.75
377.899	85.75
378.125	78.75
378.35	90.75
378.576	77.75
378.802	84.75
379.027	78.75
379.253	84.75
379.478	68.75
379.704	85.75
379.929	93.75
380.155	80.75
380.38	85.75
380.606	78.75
380.831	79.75
381.057	93.75
381.282	82.75
381.507	76.75
381.733	85.75
381.958	91.75
382.184	92.75
382.409	91.75
382.634	88.75
382.86	90.75
383.085	79.75
383.31	79.75
383.535	86.75
383.761	78.75
383.986	83.75
384.211	78.75
384.436	88.75
384.662	66.75
384.887	77.75
385.112	78.75
385.337	87.75
385.562	83.75
385.787	79.75
386.013	84.75
386.238	69.75
386.463	80.75
386.688	81.75
386.913	67.75
387.138	83.75
387.363	85.75
387.588	79.75
387.813	71.75
388.038	82.75
388.263	97.75
388.488	91.75
388.713	75.75
388.938	78.75
389.163	82.75
389.387	84.75
389.612	77.75
389.837	80.75
390.062	78.75
390.287	77.75
390.512	73.75
390.736	82.75
390.961	87.75
391.186	78.75
391.411	94.75
391.636	81.75
391.86	90.75
392.085	92.75
392.31	83.75
392.534	78.75
392.759	81.75
392.984	82.75
393.208	77.75
393.433	79.75
393.658	93.75
393.882	85.75
394.107	80.75
394.331	79.75
394.556	65.75
394.78	79.75
395.005	90.75
395.229	66.75
395.454	84.75
395.678	83.75
395.903	86.75
396.127	84.75
396.352	90.75
396.576	75.75
396.801	89.75
397.025	72.75
397.249	85.75
397.474	88.75
397.698	92.75
397.922	92.75
398.147	75.75
398.371	89.75
398.595	89.75
398.82	86.75
399.044	78.75
399.268	91.75
399.492	81.75
399.717	78.75
399.941	86.75
400.165	86.75
400.389	75.75
400.613	81.75
400.837	75.75
401.062	74.75
401.286	86.75
401.51	82.75
401.734	84.75
401.958	90.75
402.182	81.75
402.406	86.75
402.63	93.75
402.854	88.75
403.078	82.75
403.302	79.75
403.526	78.75
403.75	76.75
403.974	83.75
404.198	84.75
404.422	81.75
404.645	81.75
404.869	79.75
405.093	93.75
405.317	83.75
405.541	75.75
405.765	91.75
405.988	89.75
406.212	92.75
406.436	78.75
406.66	89.75
406.883	82.75
407.107	85.75
407.331	84.75
407.555	80.75
407.778	84.75
408.002	90.75
408.226	72.75
408.449	68.75
408.673	86.75
408.896	90.75
409.12	100.75
409.344	93.75
409.567	84.75
409.791	102.75
410.014	94.75
410.238	82.75
410.461	71.75
410.685	102.75
410.908	74.75
411.132	82.75
411.355	98.75
411.578	78.75
411.802	78.75
412.025	87.75
412.249	84.75
412.472	66.75
412.695	102.75
412.919	90.75
413.142	102.75
413.365	85.75
413.589	89.75
413.812	85.75
414.035	88.75
414.258	91.75
414.482	78.75
414.705	94.75
414.928	93.75
415.151	102.75
415.374	94.75
415.597	80.75
415.821	94.75
416.044	82.75
416.267	101.75
416.49	80.75
416.713	88.75
416.936	89.75
417.159	84.75
417.382	78.75
417.605	86.75
417.828	94.75
418.051	78.75
418.274	84.75
418.497	83.75
418.72	78.75
418.943	90.75
419.166	71.75
419.389	98.75
419.611	85.75
419.834	81.75
420.057	87.75
420.28	79.75
420.503	84.75
420.726	84.75
420.948	83.75
421.171	80.75
421.394	89.75
421.617	94.75
421.839	80.75
422.062	84.75
422.285	89.75
422.507	76.75
422.73	76.75
422.953	71.75
423.175	90.75
423.398	92.75
423.621	86.75
423.843	91.75
424.066	87.75
424.288	89.75
424.511	91.75
424.733	93.75
424.956	91.75
425.178	99.75
425.401	92.75
425.623	96.75
425.846	90.75
426.068	86.75
426.291	76.75
426.513	83.75
426.735	85.75
426.958	83.75
427.18	92.75
427.402	86.75
427.625	81.75
427.847	79.75
428.069	87.75
428.292	83.75
428.514	85.75
428.736	77.75
428.958	100.75
429.181	88.75
429.403	91.75
429.625	81.75
429.847	95.75
430.069	99.75
430.292	91.75
430.514	86.75
430.736	83.75
430.958	93.75
431.18	101.75
431.402	83.75
431.624	90.75
431.846	72.75
432.068	95.75
432.29	81.75
432.512	93.75
432.734	93.75
432.956	80.75
433.178	78.75
433.4	83.75
433.622	84.75
433.844	81.75
434.066	88.75
434.287	91.75
434.509	87.75
434.731	70.75
434.953	95.75
435.175	97.75
435.397	77.75
435.618	80.75
435.84	94.75
436.062	71.75
436.284	74.75
436.505	82.75
436.727	97.75
436.949	91.75
437.17	84.75
437.392	89.75
437.614	82.75
437.835	90.75
438.057	83.75
438.278	84.75
438.5	85.75
438.721	88.75
438.943	98.75
439.165	86.75
439.386	98.75
439.608	82.75
439.829	98.75
440.05	75.75
440.272	94.75
440.493	99.75
440.715	82.75
440.936	89.75
441.158	93.75
441.379	80.75
441.6	77.75
441.822	86.75
442.043	106.75
442.264	75.75
442.486	88.75
442.707	96.75
442.928	87.75
443.149	94.75
443.371	98.75
443.592	86.75
443.813	75.75
444.034	66.75
444.255	85.75
444.476	95.75
444.698	93.75
444.919	93.75
445.14	205.75
445.361	136.75
445.582	84.75
445.803	98.75
446.024	85.75
446.245	111.75
446.466	112.75
446.687	85.75
446.908	87.75
447.129	84.75
447.35	86.75
447.571	93.75
447.792	95.75
448.013	78.75
448.234	78.75
448.455	85.75
448.675	99.75
448.896	85.75
449.117	88.75
449.338	85.75
449.559	76.75
449.779	71.75
450	87.75
450.221	95.75
450.442	80.75
450.662	92.75
450.883	83.75
451.104	90.75
451.324	90.75
451.545	74.75
451.766	87.75
451.986	66.75
452.207	89.75
452.428	89.75
452.648	81.75
452.869	94.75
453.089	83.75
453.31	94.75
453.53	80.75
453.751	71.75
453.971	76.75
454.192	88.75
454.412	76.75
454.633	96.75
454.853	78.75
455.073	85.75
455.294	84.75
455.514	84.75
455.734	102.75
455.955	88.75
456.175	85.75
456.395	85.75
456.616	92.75
456.836	80.75
457.056	80.75
457.276	86.75
457.497	82.75
457.717	78.75
457.937	83.75
458.157	86.75
458.377	87.75
458.598	89.75
458.818	82.75
459.038	78.75
459.258	78.75
459.478	74.75
459.698	70.75
459.918	93.75
460.138	90.75
460.358	88.75
460.578	91.75
460.798	83.75
461.018	82.75
461.238	89.75
461.458	80.75
461.678	90.75
461.898	79.75
462.118	77.75
462.338	80.75
462.558	84.75
462.777	85.75
462.997	91.75
463.217	94.75
463.437	88.75
463.657	100.75
463.876	78.75
464.096	86.75
464.316	90.75
464.536	81.75
464.755	79.75
464.975	87.75
465.195	97.75
465.414	88.75
465.634	89.75
465.854	83.75
466.073	81.75
466.293	106.75
466.512	97.75
466.732	91.75
466.951	82.75
467.171	88.75
467.391	87.75
467.61	75.75
467.829	108.75
468.049	84.75
468.268	90.75
468.488	93.75
468.707	90.75
468.927	90.75
469.146	92.75
469.365	65.75
469.585	98.75
469.804	88.75
470.023	97.75
470.243	83.75
470.462	95.75
470.681	91.75
470.901	77.75
471.12	91.75
471.339	78.75
471.558	81.75
471.777	87.75
471.997	91.75
472.216	86.75
472.435	73.75
472.654	88.75
472.873	76.75
473.092	83.75
473.311	75.75
473.53	79.75
473.749	97.75
473.968	86.75
474.187	82.75
474.406	89.75
474.625	89.75
474.844	87.75
475.063	83.75
475.282	87.75
475.501	98.75
475.72	92.75
475.939	84.75
476.158	77.75
476.377	90.75
476.596	77.75
476.814	78.75
477.033	87.75
477.252	73.75
477.471	79.75
477.69	84.75
477.908	94.75
478.127	99.75
478.346	89.75
478.564	82.75
478.783	84.75
479.002	85.75
479.22	92.75
479.439	89.75
479.658	87.75
479.876	79.75
480.095	76.75
480.313	77.75
480.532	82.75
480.751	88.75
480.969	75.75
481.188	92.75
481.406	91.75
481.624	82.75
481.843	81.75
482.061	81.75
482.28	92.75
482.498	87.75
482.717	79.75
482.935	81.75
483.153	99.75
483.372	104.75
483.59	94.75
483.808	93.75
484.027	84.75
484.245	86.75
484.463	75.75
484.681	87.75
484.9	78.75
485.118	108.75
485.336	89.75
485.554	81.75
485.772	79.75
485.99	83.75
486.209	96.75
486.427	76.75
486.645	96.75
486.863	92.75
487.081	87.75
487.299	85.75
487.517	101.75
487.735	104.75
487.953	89.75
488.171	104.75
488.389	94.75
488.607	88.75
488.825	95.75
489.043	91.75
489.261	92.75
489.479	85.75
489.696	100.75
489.914	95.75
490.132	86.75
490.35	85.75
490.568	73.75
490.786	90.75
491.003	91.75
491.221	109.75
491.439	100.75
491.657	82.75
491.874	101.75
492.092	108.75
492.31	111.75
492.527	106.75
492.745	110.75
492.963	114.75
493.18	105.75
493.398	99.75
493.615	105.75
493.833	97.75
494.05	109.75
494.268	106.75
494.485	88.75
494.703	92.75
494.92	109.75
495.138	93.75
495.355	97.75
495.573	107.75
495.79	99.75
496.008	93.75
496.225	109.75
496.442	92.75
496.66	97.75
496.877	98.75
497.094	95.75
497.312	102.75
497.529	101.75
497.746	97.75
497.963	103.75
498.181	85.75
498.398	90.75
498.615	77.75
498.832	91.75
499.049	79.75
499.267	75.75
499.484	85.75
499.701	92.75
499.918	95.75
500.135	99.75
500.352	97.75
500.569	96.75
500.786	93.75
501.003	100.75
501.22	97.75
501.437	111.75
501.654	89.75
501.871	98.75
502.088	100.75
502.305	82.75
502.522	87.75
502.739	81.75
502.956	98.75
503.172	86.75
503.389	91.75
503.606	102.75
503.823	90.75
504.04	93.75
504.256	95.75
504.473	98.75
504.69	73.75
504.907	88.75
505.123	77.75
505.34	82.75
505.557	93.75
505.773	76.75
505.99	99.75
506.207	82.75
506.423	81.75
506.64	78.75
506.856	94.75
507.073	80.75
507.289	89.75
507.506	73.75
507.722	84.75
507.939	80.75
508.155	85.75
508.372	98.75
508.588	99.75
508.805	96.75
509.021	84.75
509.238	92.75
509.454	83.75
509.67	89.75
509.887	87.75
510.103	78.75
510.319	88.75
510.536	97.75
510.752	83.75
510.968	81.75
511.184	88.75
511.401	86.75
511.617	82.75
511.833	90.75
512.049	94.75
512.265	69.75
512.481	75.75
512.698	82.75
512.914	82.75
513.13	84.75
513.346	97.75
513.562	90.75
513.778	88.75
513.994	95.75
514.21	78.75
514.426	87.75
514.642	86.75
514.858	88.75
515.074	98.75
515.29	105.75
515.506	81.75
515.721	80.75
515.937	88.75
516.153	94.75
516.369	75.75
516.585	79.75
516.801	87.75
517.016	98.75
517.232	85.75
517.448	84.75
517.664	85.75
517.879	79.75
518.095	94.75
518.311	100.75
518.527	84.75
518.742	90.75
518.958	80.75
519.173	87.75
519.389	76.75
519.605	79.75
519.82	84.75
520.036	79.75
520.251	78.75
520.467	103.75
520.682	74.75
520.898	76.75
521.113	78.75
521.329	75.75
521.544	73.75
521.76	69.75
521.975	83.75
522.19	79.75
522.406	69.75
522.621	89.75
522.836	88.75
523.052	67.75
523.267	75.75
523.482	88.75
523.698	90.75
523.913	84.75
524.128	95.75
524.343	91.75
524.559	89.75
524.774	93.75
524.989	81.75
525.204	94.75
525.419	108.75
525.634	90.75
525.849	90.75
526.064	92.75
526.28	84.75
526.495	78.75
526.71	88.75
526.925	90.75
527.14	87.75
527.355	73.75
527.57	77.75
527.785	93.75
527.999	74.75
528.214	78.75
528.429	78.75
528.644	87.75
528.859	77.75
529.074	106.75
529.289	82.75
529.503	94.75
529.718	79.75
529.933	86.75
530.148	89.75
530.363	89.75
530.577	87.75
530.792	91.75
531.007	88.75
531.221	78.75
531.436	80.75
531.651	96.75
531.865	86.75
532.08	77.75
532.295	80.75
532.509	87.75
532.724	92.75
532.938	82.75
533.153	86.75
533.367	92.75
533.582	98.75
533.796	96.75
534.011	94.75
534.225	81.75
534.44	82.75
534.654	91.75
534.868	83.75
535.083	97.75
535.297	99.75
535.511	101.75
535.726	85.75
535.94	91.75
536.154	79.75
536.369	85.75
536.583	81.75
536.797	87.75
537.011	74.75
537.225	92.75
537.44	77.75
537.654	82.75
537.868	89.75
538.082	85.75
538.296	72.75
538.51	102.75
538.724	85.75
538.938	81.75
539.153	97.75
539.367	85.75
539.581	90.75
539.795	98.75
540.009	78.75
540.222	88.75
540.436	80.75
540.65	89.75
540.864	100.75
541.078	99.75
541.292	99.75
541.506	101.75
541.72	97.75
541.934	99.75
542.147	101.75
542.361	98.75
542.575	94.75
542.789	107.75
543.002	92.75
543.216	79.75
543.43	92.75
543.644	95.75
543.857	107.75
544.071	104.75
544.285	93.75
544.498	103.75
544.712	94.75
544.925	97.75
545.139	102.75
545.352	89.75
545.566	99.75
545.779	105.75
545.993	107.75
546.206	102.75
546.42	95.75
546.633	86.75
546.847	107.75
547.06	89.75
547.274	99.75
547.487	94.75
547.7	108.75
547.914	100.75
548.127	100.75
548.34	96.75
548.554	97.75
548.767	107.75
548.98	94.75
549.193	101.75
549.407	92.75
549.62	93.75
549.833	84.75
550.046	94.75
550.259	88.75
550.473	94.75
550.686	100.75
550.899	102.75
551.112	112.75
551.325	96.75
551.538	92.75
551.751	86.75
551.964	92.75
552.177	91.75
552.39	93.75
552.603	112.75
552.816	102.75
553.029	105.75
553.242	96.75
553.455	114.75
553.667	102.75
553.88	109.75
554.093	107.75
554.306	89.75
554.519	87.75
554.732	97.75
554.944	110.75
555.157	84.75
555.37	89.75
555.583	78.75
555.795	99.75
556.008	97.75
556.221	87.75
556.433	100.75
556.646	88.75
556.859	94.75
557.071	99.75
557.284	80.75
557.496	85.75
557.709	109.75
557.921	106.75
558.134	83.75
558.346	97.75
558.559	102.75
558.771	89.75
558.984	99.75
559.196	95.75
559.409	98.75
559.621	88.75
559.833	101.75
560.046	101.75
560.258	84.75
560.47	90.75
560.683	97.75
560.895	91.75
561.107	82.75
561.32	98.75
561.532	95.75
561.744	89.75
561.956	86.75
562.168	104.75
562.381	93.75
562.593	93.75
562.805	84.75
563.017	85.75
563.229	93.75
563.441	97.75
563.653	97.75
563.865	79.75
564.077	80.75
564.289	94.75
564.501	89.75
564.713	98.75
564.925	96.75
565.137	92.75
565.349	84.75
565.561	102.75
565.773	89.75
565.985	98.75
566.197	80.75
566.408	106.75
566.62	88.75
566.832	88.75
567.044	80.75
567.255	97.75
567.467	83.75
567.679	80.75
567.891	84.75
568.102	92.75
568.314	90.75
568.526	85.75
568.737	89.75
568.949	78.75
569.161	87.75
569.372	87.75
569.584	92.75
569.795	73.75
570.007	85.75
570.218	83.75
570.43	78.75
570.641	87.75
570.853	93.75
571.064	94.75
571.276	89.75
571.487	92.75
571.698	87.75
571.91	83.75
572.121	96.75
572.333	78.75
572.544	74.75
572.755	64.75
572.966	77.75
573.178	93.75
573.389	94.75
573.6	94.75
573.811	73.75
574.023	90.75
574.234	83.75
574.445	84.75
574.656	78.75
574.867	80.75
575.078	88.75
575.289	95.75
575.501	80.75
575.712	92.75
575.923	82.75
576.134	87.75
576.345	95.75
576.556	92.75
576.767	93.75
576.978	92.75
577.188	84.75
577.399	86.75
577.61	78.75
577.821	84.75
578.032	82.75
578.243	78.75
578.454	82.75
578.665	74.75
578.875	76.75
579.086	85.75
579.297	91.75
579.508	83.75
579.718	100.75
579.929	80.75
580.14	73.75
580.35	90.75
580.561	84.75
580.772	85.75
580.982	92.75
581.193	78.75
581.403	93.75
581.614	89.75
581.825	103.75
582.035	77.75
582.246	73.75
582.456	89.75
582.667	87.75
582.877	82.75
583.087	92.75
583.298	92.75
583.508	91.75
583.719	70.75
583.929	84.75
584.139	84.75
584.35	80.75
584.56	85.75
584.77	104.75
584.981	94.75
585.191	75.75
585.401	91.75
585.611	92.75
585.821	79.75
586.032	86.75
586.242	69.75
586.452	86.75
586.662	78.75
586.872	90.75
587.082	97.75
587.292	76.75
587.502	72.75
587.713	84.75
587.923	88.75
588.133	89.75
588.343	78.75
588.553	86.75
588.762	90.75
588.972	92.75
589.182	80.75
589.392	92.75
589.602	85.75
589.812	78.75
590.022	81.75
590.232	82.75
590.441	84.75
590.651	85.75
590.861	78.75
591.071	76.75
591.281	85.75
591.49	87.75
591.7	82.75
591.91	86.75
592.119	100.75
592.329	89.75
592.539	88.75
592.748	80.75
592.958	90.75
593.167	82.75
593.377	84.75
593.587	79.75
593.796	97.75
594.006	84.75
594.215	88.75
594.424	77.75
594.634	90.75
594.843	83.75
595.053	82.75
595.262	79.75
595.472	63.75
595.681	86.75
595.89	87.75
596.1	79.75
596.309	87.75
596.518	81.75
596.727	84.75
596.937	77.75
597.146	72.75
597.355	95.75
597.564	90.75
597.774	84.75
597.983	86.75
598.192	81.75
598.401	93.75
598.61	88.75
598.819	81.75
599.028	93.75
599.237	76.75
599.446	93.75
599.655	87.75
599.864	95.75
600.073	99.75
600.282	92.75
600.491	85.75
600.7	83.75
600.909	78.75
601.118	91.75
601.327	100.75
601.536	86.75
601.745	84.75
601.953	84.75
602.162	87.75
602.371	84.75
602.58	75.75
602.789	72.75
602.997	104.75
603.206	86.75
603.415	93.75
603.623	103.75
603.832	98.75
604.041	83.75
604.249	82.75
604.458	71.75
604.666	93.75
604.875	91.75
605.084	81.75
605.292	91.75
605.501	89.75
605.709	86.75
605.918	98.75
606.126	86.75
606.334	100.75
606.543	81.75
606.751	91.75
606.96	101.75
607.168	100.75
607.376	94.75
607.585	89.75
607.793	84.75
608.001	84.75
608.21	81.75
608.418	85.75
608.626	99.75
608.834	83.75
609.043	92.75
609.251	98.75
609.459	96.75
609.667	86.75
609.875	92.75
610.083	86.75
610.291	86.75
610.499	80.75
610.707	84.75
610.916	91.75
611.124	85.75
611.332	86.75
611.54	90.75
611.748	95.75
611.955	81.75
612.163	85.75
612.371	92.75
612.579	84.75
612.787	86.75
612.995	103.75
613.203	76.75
613.411	88.75
613.618	98.75
613.826	91.75
614.034	84.75
614.242	99.75
614.449	104.75
614.657	78.75
614.865	100.75
615.072	102.75
615.28	89.75
615.488	102.75
615.695	80.75
615.903	94.75
616.111	84.75
616.318	96.75
616.526	78.75
616.733	98.75
616.941	90.75
617.148	69.75
617.356	100.75
617.563	83.75
617.771	84.75
617.978	99.75
618.185	90.75
618.393	96.75
618.6	87.75
618.807	85.75
619.015	76.75
619.222	88.75
619.429	86.75
619.637	80.75
619.844	86.75
620.051	71.75
620.258	84.75
620.466	92.75
620.673	80.75
620.88	79.75
621.087	87.75
621.294	94.75
621.501	82.75
621.708	77.75
621.915	90.75
622.122	101.75
622.329	88.75
622.536	87.75
622.743	96.75
622.95	89.75
623.157	93.75
623.364	100.75
623.571	77.75
623.778	84.75
623.985	95.75
624.192	103.75
624.399	90.75
624.606	93.75
624.812	97.75
625.019	86.75
625.226	87.75
625.433	87.75
625.639	86.75
625.846	88.75
626.053	71.75
626.259	85.75
626.466	80.75
626.673	86.75
626.879	100.75
627.086	90.75
627.293	90.75
627.499	83.75
627.706	101.75
627.912	92.75
628.119	76.75
628.325	78.75
628.532	92.75
628.738	82.75
628.945	81.75
629.151	74.75
629.357	82.75
629.564	98.75
629.77	96.75
629.976	89.75
630.183	69.75
630.389	77.75
630.595	79.75
630.802	82.75
631.008	91.75
631.214	89.75
631.42	89.75
631.627	87.75
631.833	89.75
632.039	89.75
632.245	71.75
632.451	83.75
632.657	90.75
632.863	80.75
633.069	89.75
633.275	67.75
633.481	90.75
633.688	94.75
633.893	88.75
634.099	76.75
634.305	73.75
634.511	89.75
634.717	101.75
634.923	88.75
635.129	69.75
635.335	76.75
635.541	81.75
635.747	79.75
635.952	86.75
636.158	89.75
636.364	92.75
636.57	88.75
636.775	96.75
636.981	84.75
637.187	75.75
637.392	77.75
637.598	88.75
637.804	108.75
638.009	81.75
638.215	77.75
638.421	101.75
638.626	84.75
638.832	87.75
639.037	93.75
639.243	88.75
639.448	83.75
639.654	83.75
639.859	85.75
640.065	87.75
640.27	92.75
640.475	84.75
640.681	83.75
640.886	76.75
641.091	85.75
641.297	84.75
641.502	78.75
641.707	84.75
641.913	92.75
642.118	82.75
642.323	87.75
642.528	91.75
642.733	98.75
642.939	90.75
643.144	81.75
643.349	90.75
643.554	82.75
643.759	91.75
643.964	86.75
644.169	96.75
644.374	86.75
644.579	83.75
644.784	75.75
644.989	91.75
645.194	77.75
645.399	82.75
645.604	81.75
645.809	87.75
646.014	96.75
646.219	83.75
646.423	95.75
646.628	99.75
646.833	97.75
647.038	94.75
647.243	87.75
647.447	74.75
647.652	83.75
647.857	82.75
648.062	81.75
648.266	90.75
648.471	84.75
648.676	85.75
648.88	82.75
649.085	102.75
649.289	85.75
649.494	83.75
649.698	84.75
649.903	89.75
650.107	88.75
650.312	77.75
650.516	95.75
650.721	86.75
650.925	95.75
651.13	89.75
651.334	90.75
651.539	83.75
651.743	82.75
651.947	76.75
652.152	78.75
652.356	91.75
652.56	87.75
652.764	107.75
652.969	92.75
653.173	97.75
653.377	71.75
653.581	73.75
653.785	75.75
653.99	63.75
654.194	78.75
654.398	88.75
654.602	89.75
654.806	105.75
655.01	76.75
655.214	67.75
655.418	88.75
655.622	73.75
655.826	77.75
656.03	82.75
656.234	92.75
656.438	90.75
656.642	94.75
656.846	82.75
657.049	90.75
657.253	77.75
657.457	69.75
657.661	84.75
657.865	77.75
658.068	94.75
658.272	90.75
658.476	88.75
658.68	97.75
658.883	80.75
659.087	93.75
659.291	85.75
659.494	93.75
659.698	82.75
659.901	86.75
660.105	88.75
660.309	83.75
660.512	70.75
660.716	72.75
660.919	70.75
661.123	73.75
661.326	79.75
661.53	89.75
661.733	84.75
661.936	87.75
662.14	81.75
662.343	75.75
662.546	72.75
662.75	78.75
662.953	88.75
663.156	78.75
663.36	71.75
663.563	90.75
663.766	71.75
663.969	72.75
664.173	96.75
664.376	76.75
664.579	81.75
664.782	80.75
664.985	90.75
665.188	79.75
665.391	85.75
665.594	71.75
665.797	74.75
666	86.75
666.203	83.75
666.406	86.75
666.609	77.75
666.812	79.75
667.015	76.75
667.218	79.75
667.421	89.75
667.624	76.75
667.827	72.75
668.03	84.75
668.232	75.75
668.435	85.75
668.638	74.75
668.841	76.75
669.043	83.75
669.246	77.75
669.449	76.75
669.651	81.75
669.854	80.75
670.057	80.75
670.259	90.75
670.462	79.75
670.665	89.75
670.867	87.75
671.07	90.75
671.272	84.75
671.475	77.75
671.677	86.75
671.88	86.75
672.082	81.75
672.284	84.75
672.487	78.75
672.689	87.75
672.892	88.75
