Data from Zn(NO3)2Standard.Agarose3%.GreenCap.LampEnergy5.5.E.O_HRD10591_15-03-45-768.txt Node
Date: Mon Jul 22 15:03:45 EDT 2019
User: cochatt
Spectrometer: HR+D1059
Trigger mode: 1
Integration Time (sec): 1.000000E-1
Scans to average: 1
Electric dark correction enabled: true
Nonlinearity correction enabled: false
Boxcar width: 0
XAxis mode: Wavelengths
Number of Pixels in Spectrum: 2048
>>>>>Begin Spectral Data<<<<<
223.165	-14.31
223.4	-14.31
223.635	-14.31
223.869	-15.31
224.104	-20.31
224.338	2.69
224.573	-5.31
224.808	-17.31
225.042	-5.31
225.277	-9.31
225.511	1.69
225.746	-9.31
225.98	5.69
226.215	8.69
226.449	16.69
226.683	19.69
226.918	22.69
227.152	18.69
227.387	34.69
227.621	29.69
227.856	43.69
228.09	43.69
228.324	51.69
228.559	46.69
228.793	60.69
229.027	60.69
229.262	42.69
229.496	61.69
229.73	59.69
229.964	74.69
230.199	78.69
230.433	80.69
230.667	73.69
230.901	95.69
231.136	78.69
231.37	77.69
231.604	72.69
231.838	77.69
232.072	86.69
232.306	74.69
232.541	88.69
232.775	75.69
233.009	74.69
233.243	80.69
233.477	77.69
233.711	79.69
233.945	77.69
234.179	72.69
234.413	78.69
234.647	82.69
234.881	96.69
235.115	86.69
235.349	75.69
235.583	70.69
235.817	73.69
236.051	76.69
236.285	80.69
236.519	82.69
236.753	87.69
236.987	66.69
237.221	75.69
237.455	86.69
237.689	88.69
237.922	80.69
238.156	69.69
238.39	75.69
238.624	75.69
238.858	68.69
239.091	70.69
239.325	74.69
239.559	77.69
239.793	74.69
240.027	73.69
240.26	82.69
240.494	66.69
240.728	72.69
240.961	79.69
241.195	85.69
241.429	73.69
241.662	80.69
241.896	70.69
242.13	78.69
242.363	72.69
242.597	96.69
242.83	64.69
243.064	83.69
243.298	82.69
243.531	81.69
243.765	82.69
243.998	84.69
244.232	85.69
244.465	79.69
244.699	74.69
244.932	80.69
245.166	92.69
245.399	82.69
245.633	73.69
245.866	66.69
246.099	71.69
246.333	71.69
246.566	87.69
246.8	77.69
247.033	66.69
247.266	85.69
247.5	82.69
247.733	80.69
247.966	78.69
248.2	85.69
248.433	75.69
248.666	83.69
248.899	74.69
249.133	79.69
249.366	91.69
249.599	82.69
249.832	85.69
250.066	78.69
250.299	60.69
250.532	91.69
250.765	80.69
250.998	95.69
251.231	75.69
251.465	78.69
251.698	82.69
251.931	81.69
252.164	86.69
252.397	66.69
252.63	78.69
252.863	88.69
253.096	75.69
253.329	83.69
253.562	74.69
253.795	88.69
254.028	78.69
254.261	85.69
254.494	89.69
254.727	69.69
254.96	82.69
255.193	75.69
255.426	76.69
255.659	80.69
255.892	70.69
256.124	74.69
256.357	86.69
256.59	76.69
256.823	82.69
257.056	88.69
257.289	89.69
257.521	87.69
257.754	60.69
257.987	82.69
258.22	66.69
258.452	72.69
258.685	75.69
258.918	86.69
259.151	84.69
259.383	75.69
259.616	74.69
259.849	80.69
260.081	68.69
260.314	84.69
260.547	79.69
260.779	83.69
261.012	70.69
261.244	90.69
261.477	85.69
261.71	76.69
261.942	84.69
262.175	75.69
262.407	93.69
262.64	84.69
262.872	87.69
263.105	90.69
263.337	75.69
263.57	83.69
263.802	74.69
264.035	68.69
264.267	88.69
264.499	71.69
264.732	77.69
264.964	97.69
265.197	77.69
265.429	87.69
265.661	87.69
265.894	79.69
266.126	88.69
266.358	75.69
266.591	63.69
266.823	81.69
267.055	82.69
267.287	81.69
267.52	73.69
267.752	90.69
267.984	69.69
268.216	76.69
268.448	73.69
268.681	80.69
268.913	92.69
269.145	83.69
269.377	73.69
269.609	73.69
269.841	98.69
270.073	75.69
270.306	72.69
270.538	73.69
270.77	65.69
271.002	84.69
271.234	78.69
271.466	92.69
271.698	60.69
271.93	87.69
272.162	83.69
272.394	80.69
272.626	74.69
272.858	75.69
273.09	84.69
273.322	88.69
273.553	79.69
273.785	76.69
274.017	80.69
274.249	85.69
274.481	75.69
274.713	82.69
274.945	63.69
275.176	82.69
275.408	82.69
275.64	76.69
275.872	93.69
276.104	88.69
276.335	82.69
276.567	70.69
276.799	92.69
277.031	67.69
277.262	94.69
277.494	90.69
277.726	82.69
277.957	79.69
278.189	72.69
278.421	77.69
278.652	84.69
278.884	91.69
279.115	81.69
279.347	96.69
279.579	77.69
279.81	83.69
280.042	91.69
280.273	85.69
280.505	88.69
280.736	86.69
280.968	80.69
281.199	81.69
281.431	73.69
281.662	72.69
281.894	68.69
282.125	66.69
282.356	91.69
282.588	89.69
282.819	78.69
283.051	91.69
283.282	97.69
283.513	93.69
283.745	84.69
283.976	80.69
284.207	88.69
284.439	88.69
284.67	81.69
284.901	87.69
285.132	84.69
285.364	66.69
285.595	73.69
285.826	89.69
286.057	79.69
286.288	77.69
286.52	93.69
286.751	90.69
286.982	70.69
287.213	91.69
287.444	91.69
287.675	85.69
287.906	87.69
288.138	73.69
288.369	71.69
288.6	85.69
288.831	94.69
289.062	87.69
289.293	85.69
289.524	84.69
289.755	73.69
289.986	86.69
290.217	95.69
290.448	83.69
290.679	86.69
290.91	81.69
291.141	79.69
291.371	100.69
291.602	95.69
291.833	90.69
292.064	87.69
292.295	87.69
292.526	72.69
292.757	69.69
292.987	90.69
293.218	74.69
293.449	84.69
293.68	73.69
293.91	94.69
294.141	86.69
294.372	86.69
294.603	73.69
294.833	85.69
295.064	84.69
295.295	87.69
295.525	83.69
295.756	84.69
295.987	77.69
296.217	86.69
296.448	99.69
296.679	78.69
296.909	85.69
297.14	79.69
297.37	74.69
297.601	80.69
297.831	84.69
298.062	86.69
298.292	73.69
298.523	81.69
298.753	88.69
298.984	92.69
299.214	85.69
299.445	88.69
299.675	87.69
299.905	82.69
300.136	78.69
300.366	83.69
300.597	88.69
300.827	78.69
301.057	81.69
301.288	90.69
301.518	59.69
301.748	89.69
301.979	77.69
302.209	73.69
302.439	83.69
302.669	86.69
302.9	87.69
303.13	89.69
303.36	75.69
303.59	64.69
303.82	91.69
304.051	86.69
304.281	66.69
304.511	82.69
304.741	105.69
304.971	83.69
305.201	92.69
305.431	86.69
305.661	81.69
305.891	76.69
306.121	84.69
306.352	87.69
306.582	84.69
306.812	82.69
307.042	87.69
307.272	95.69
307.502	86.69
307.731	85.69
307.961	93.69
308.191	68.69
308.421	95.69
308.651	80.69
308.881	96.69
309.111	101.69
309.341	94.69
309.571	83.69
309.8	84.69
310.03	85.69
310.26	90.69
310.49	87.69
310.72	89.69
310.949	84.69
311.179	76.69
311.409	92.69
311.639	85.69
311.868	88.69
312.098	76.69
312.328	93.69
312.557	94.69
312.787	91.69
313.017	91.69
313.246	72.69
313.476	82.69
313.706	88.69
313.935	85.69
314.165	83.69
314.394	71.69
314.624	83.69
314.853	82.69
315.083	77.69
315.312	71.69
315.542	74.69
315.771	81.69
316.001	84.69
316.23	84.69
316.46	78.69
316.689	70.69
316.919	78.69
317.148	92.69
317.377	78.69
317.607	89.69
317.836	79.69
318.065	77.69
318.295	83.69
318.524	92.69
318.753	85.69
318.983	88.69
319.212	79.69
319.441	93.69
319.67	99.69
319.9	102.69
320.129	89.69
320.358	74.69
320.587	84.69
320.816	78.69
321.046	78.69
321.275	89.69
321.504	83.69
321.733	85.69
321.962	70.69
322.191	88.69
322.42	73.69
322.649	99.69
322.878	82.69
323.108	94.69
323.337	83.69
323.566	91.69
323.795	85.69
324.024	90.69
324.253	78.69
324.482	81.69
324.71	86.69
324.939	92.69
325.168	81.69
325.397	80.69
325.626	94.69
325.855	80.69
326.084	83.69
326.313	82.69
326.542	93.69
326.77	81.69
326.999	86.69
327.228	80.69
327.457	80.69
327.686	87.69
327.914	64.69
328.143	78.69
328.372	83.69
328.6	82.69
328.829	82.69
329.058	101.69
329.287	83.69
329.515	70.69
329.744	95.69
329.972	76.69
330.201	89.69
330.43	88.69
330.658	83.69
330.887	81.69
331.115	85.69
331.344	88.69
331.572	86.69
331.801	81.69
332.03	81.69
332.258	78.69
332.486	73.69
332.715	94.69
332.943	85.69
333.172	75.69
333.4	67.69
333.629	87.69
333.857	80.69
334.085	77.69
334.314	87.69
334.542	74.69
334.771	98.69
334.999	75.69
335.227	79.69
335.455	62.69
335.684	64.69
335.912	84.69
336.14	70.69
336.369	78.69
336.597	82.69
336.825	91.69
337.053	75.69
337.281	85.69
337.51	80.69
337.738	89.69
337.966	71.69
338.194	98.69
338.422	80.69
338.65	89.69
338.878	82.69
339.106	76.69
339.334	96.69
339.562	88.69
339.79	94.69
340.018	85.69
340.246	81.69
340.474	91.69
340.702	66.69
340.93	91.69
341.158	84.69
341.386	84.69
341.614	90.69
341.842	82.69
342.07	78.69
342.298	82.69
342.526	91.69
342.754	92.69
342.981	82.69
343.209	89.69
343.437	75.69
343.665	81.69
343.893	96.69
344.12	92.69
344.348	84.69
344.576	83.69
344.804	93.69
345.031	79.69
345.259	91.69
345.487	90.69
345.714	72.69
345.942	83.69
346.17	64.69
346.397	81.69
346.625	78.69
346.853	77.69
347.08	76.69
347.308	93.69
347.535	85.69
347.763	74.69
347.99	77.69
348.218	81.69
348.445	89.69
348.673	87.69
348.9	83.69
349.128	70.69
349.355	87.69
349.583	82.69
349.81	84.69
350.037	91.69
350.265	79.69
350.492	74.69
350.72	91.69
350.947	87.69
351.174	88.69
351.402	88.69
351.629	83.69
351.856	93.69
352.083	87.69
352.311	70.69
352.538	80.69
352.765	84.69
352.992	91.69
353.22	71.69
353.447	84.69
353.674	88.69
353.901	100.69
354.128	85.69
354.355	94.69
354.583	91.69
354.81	81.69
355.037	88.69
355.264	81.69
355.491	82.69
355.718	77.69
355.945	77.69
356.172	76.69
356.399	81.69
356.626	85.69
356.853	102.69
357.08	95.69
357.307	93.69
357.534	75.69
357.761	90.69
357.988	79.69
358.215	72.69
358.441	74.69
358.668	92.69
358.895	87.69
359.122	84.69
359.349	84.69
359.576	81.69
359.802	91.69
360.029	86.69
360.256	71.69
360.483	77.69
360.709	85.69
360.936	92.69
361.163	82.69
361.39	61.69
361.616	84.69
361.843	90.69
362.07	88.69
362.296	74.69
362.523	83.69
362.749	94.69
362.976	85.69
363.203	77.69
363.429	88.69
363.656	76.69
363.882	80.69
364.109	80.69
364.335	80.69
364.562	75.69
364.788	69.69
365.015	85.69
365.241	90.69
365.468	87.69
365.694	80.69
365.92	77.69
366.147	83.69
366.373	79.69
366.599	83.69
366.826	74.69
367.052	88.69
367.278	90.69
367.505	76.69
367.731	92.69
367.957	73.69
368.184	72.69
368.41	88.69
368.636	67.69
368.862	90.69
369.089	87.69
369.315	90.69
369.541	82.69
369.767	70.69
369.993	74.69
370.219	67.69
370.445	74.69
370.672	83.69
370.898	80.69
371.124	91.69
371.35	72.69
371.576	79.69
371.802	81.69
372.028	85.69
372.254	87.69
372.48	79.69
372.706	81.69
372.932	90.69
373.158	92.69
373.384	77.69
373.61	92.69
373.835	95.69
374.061	84.69
374.287	97.69
374.513	66.69
374.739	74.69
374.965	91.69
375.191	89.69
375.416	86.69
375.642	85.69
375.868	70.69
376.094	78.69
376.319	85.69
376.545	77.69
376.771	74.69
376.997	86.69
377.222	77.69
377.448	87.69
377.674	69.69
377.899	83.69
378.125	76.69
378.35	82.69
378.576	72.69
378.802	74.69
379.027	74.69
379.253	81.69
379.478	76.69
379.704	77.69
379.929	77.69
380.155	75.69
380.38	74.69
380.606	85.69
380.831	91.69
381.057	84.69
381.282	80.69
381.507	86.69
381.733	90.69
381.958	81.69
382.184	84.69
382.409	74.69
382.634	96.69
382.86	83.69
383.085	87.69
383.31	98.69
383.535	92.69
383.761	78.69
383.986	80.69
384.211	77.69
384.436	85.69
384.662	84.69
384.887	85.69
385.112	81.69
385.337	97.69
385.562	80.69
385.787	77.69
386.013	94.69
386.238	87.69
386.463	78.69
386.688	97.69
386.913	76.69
387.138	85.69
387.363	85.69
387.588	83.69
387.813	92.69
388.038	81.69
388.263	86.69
388.488	83.69
388.713	94.69
388.938	89.69
389.163	91.69
389.387	104.69
389.612	89.69
389.837	82.69
390.062	93.69
390.287	81.69
390.512	71.69
390.736	69.69
390.961	61.69
391.186	98.69
391.411	82.69
391.636	94.69
391.86	97.69
392.085	93.69
392.31	76.69
392.534	89.69
392.759	77.69
392.984	72.69
393.208	85.69
393.433	94.69
393.658	91.69
393.882	75.69
394.107	75.69
394.331	81.69
394.556	86.69
394.78	81.69
395.005	80.69
395.229	86.69
395.454	84.69
395.678	85.69
395.903	90.69
396.127	81.69
396.352	64.69
396.576	71.69
396.801	74.69
397.025	81.69
397.249	90.69
397.474	95.69
397.698	79.69
397.922	90.69
398.147	79.69
398.371	67.69
398.595	86.69
398.82	88.69
399.044	72.69
399.268	73.69
399.492	75.69
399.717	102.69
399.941	78.69
400.165	69.69
400.389	83.69
400.613	80.69
400.837	82.69
401.062	93.69
401.286	89.69
401.51	81.69
401.734	86.69
401.958	85.69
402.182	79.69
402.406	100.69
402.63	83.69
402.854	84.69
403.078	88.69
403.302	67.69
403.526	93.69
403.75	85.69
403.974	88.69
404.198	86.69
404.422	89.69
404.645	75.69
404.869	82.69
405.093	94.69
405.317	80.69
405.541	88.69
405.765	77.69
405.988	94.69
406.212	79.69
406.436	85.69
406.66	81.69
406.883	86.69
407.107	88.69
407.331	78.69
407.555	87.69
407.778	80.69
408.002	74.69
408.226	74.69
408.449	84.69
408.673	93.69
408.896	89.69
409.12	86.69
409.344	90.69
409.567	84.69
409.791	79.69
410.014	86.69
410.238	82.69
410.461	79.69
410.685	98.69
410.908	80.69
411.132	82.69
411.355	73.69
411.578	101.69
411.802	86.69
412.025	90.69
412.249	88.69
412.472	82.69
412.695	83.69
412.919	88.69
413.142	85.69
413.365	99.69
413.589	92.69
413.812	87.69
414.035	93.69
414.258	80.69
414.482	85.69
414.705	85.69
414.928	94.69
415.151	87.69
415.374	93.69
415.597	89.69
415.821	87.69
416.044	78.69
416.267	96.69
416.49	85.69
416.713	85.69
416.936	85.69
417.159	92.69
417.382	85.69
417.605	82.69
417.828	77.69
418.051	90.69
418.274	98.69
418.497	87.69
418.72	82.69
418.943	90.69
419.166	87.69
419.389	83.69
419.611	81.69
419.834	87.69
420.057	72.69
420.28	84.69
420.503	84.69
420.726	87.69
420.948	80.69
421.171	87.69
421.394	97.69
421.617	88.69
421.839	78.69
422.062	96.69
422.285	86.69
422.507	92.69
422.73	87.69
422.953	100.69
423.175	105.69
423.398	101.69
423.621	92.69
423.843	87.69
424.066	79.69
424.288	87.69
424.511	90.69
424.733	89.69
424.956	89.69
425.178	101.69
425.401	90.69
425.623	90.69
425.846	82.69
426.068	85.69
426.291	90.69
426.513	86.69
426.735	86.69
426.958	83.69
427.18	91.69
427.402	79.69
427.625	84.69
427.847	73.69
428.069	84.69
428.292	94.69
428.514	94.69
428.736	93.69
428.958	88.69
429.181	85.69
429.403	80.69
429.625	82.69
429.847	84.69
430.069	92.69
430.292	81.69
430.514	84.69
430.736	91.69
430.958	90.69
431.18	84.69
431.402	82.69
431.624	92.69
431.846	86.69
432.068	71.69
432.29	86.69
432.512	95.69
432.734	75.69
432.956	87.69
433.178	101.69
433.4	92.69
433.622	96.69
433.844	82.69
434.066	95.69
434.287	69.69
434.509	81.69
434.731	90.69
434.953	90.69
435.175	100.69
435.397	75.69
435.618	96.69
435.84	82.69
436.062	89.69
436.284	88.69
436.505	95.69
436.727	93.69
436.949	78.69
437.17	92.69
437.392	94.69
437.614	104.69
437.835	91.69
438.057	84.69
438.278	86.69
438.5	85.69
438.721	99.69
438.943	94.69
439.165	102.69
439.386	96.69
439.608	105.69
439.829	89.69
440.05	90.69
440.272	98.69
440.493	88.69
440.715	90.69
440.936	91.69
441.158	95.69
441.379	90.69
441.6	85.69
441.822	90.69
442.043	86.69
442.264	90.69
442.486	88.69
442.707	84.69
442.928	89.69
443.149	74.69
443.371	75.69
443.592	85.69
443.813	95.69
444.034	88.69
444.255	94.69
444.476	83.69
444.698	84.69
444.919	85.69
445.14	214.69
445.361	158.69
445.582	90.69
445.803	106.69
446.024	83.69
446.245	92.69
446.466	89.69
446.687	79.69
446.908	93.69
447.129	87.69
447.35	91.69
447.571	89.69
447.792	98.69
448.013	95.69
448.234	82.69
448.455	100.69
448.675	94.69
448.896	92.69
449.117	91.69
449.338	97.69
449.559	84.69
449.779	94.69
450	87.69
450.221	92.69
450.442	88.69
450.662	92.69
450.883	81.69
451.104	93.69
451.324	80.69
451.545	86.69
451.766	81.69
451.986	84.69
452.207	96.69
452.428	87.69
452.648	84.69
452.869	76.69
453.089	82.69
453.31	95.69
453.53	88.69
453.751	89.69
453.971	73.69
454.192	87.69
454.412	85.69
454.633	77.69
454.853	77.69
455.073	84.69
455.294	69.69
455.514	96.69
455.734	87.69
455.955	92.69
456.175	75.69
456.395	90.69
456.616	89.69
456.836	92.69
457.056	94.69
457.276	83.69
457.497	75.69
457.717	78.69
457.937	96.69
458.157	77.69
458.377	85.69
458.598	86.69
458.818	86.69
459.038	82.69
459.258	79.69
459.478	93.69
459.698	94.69
459.918	81.69
460.138	82.69
460.358	83.69
460.578	99.69
460.798	78.69
461.018	96.69
461.238	85.69
461.458	91.69
461.678	75.69
461.898	101.69
462.118	82.69
462.338	88.69
462.558	85.69
462.777	91.69
462.997	91.69
463.217	90.69
463.437	77.69
463.657	93.69
463.876	81.69
464.096	76.69
464.316	76.69
464.536	83.69
464.755	81.69
464.975	92.69
465.195	86.69
465.414	85.69
465.634	84.69
465.854	78.69
466.073	90.69
466.293	100.69
466.512	93.69
466.732	94.69
466.951	82.69
467.171	86.69
467.391	78.69
467.61	82.69
467.829	89.69
468.049	81.69
468.268	100.69
468.488	89.69
468.707	84.69
468.927	90.69
469.146	95.69
469.365	95.69
469.585	92.69
469.804	85.69
470.023	93.69
470.243	87.69
470.462	104.69
470.681	83.69
470.901	78.69
471.12	82.69
471.339	84.69
471.558	86.69
471.777	94.69
471.997	101.69
472.216	73.69
472.435	69.69
472.654	84.69
472.873	80.69
473.092	97.69
473.311	87.69
473.53	86.69
473.749	79.69
473.968	86.69
474.187	87.69
474.406	98.69
474.625	90.69
474.844	95.69
475.063	81.69
475.282	85.69
475.501	99.69
475.72	86.69
475.939	76.69
476.158	95.69
476.377	95.69
476.596	86.69
476.814	89.69
477.033	73.69
477.252	84.69
477.471	94.69
477.69	89.69
477.908	93.69
478.127	96.69
478.346	98.69
478.564	91.69
478.783	92.69
479.002	86.69
479.22	87.69
479.439	102.69
479.658	96.69
479.876	73.69
480.095	85.69
480.313	91.69
480.532	87.69
480.751	90.69
480.969	69.69
481.188	86.69
481.406	81.69
481.624	90.69
481.843	86.69
482.061	83.69
482.28	81.69
482.498	87.69
482.717	90.69
482.935	87.69
483.153	85.69
483.372	78.69
483.59	81.69
483.808	73.69
484.027	91.69
484.245	76.69
484.463	89.69
484.681	102.69
484.9	85.69
485.118	86.69
485.336	93.69
485.554	91.69
485.772	80.69
485.99	84.69
486.209	66.69
486.427	90.69
486.645	73.69
486.863	86.69
487.081	89.69
487.299	76.69
487.517	99.69
487.735	96.69
487.953	102.69
488.171	109.69
488.389	91.69
488.607	100.69
488.825	98.69
489.043	79.69
489.261	94.69
489.479	93.69
489.696	93.69
489.914	93.69
490.132	86.69
490.35	72.69
490.568	100.69
490.786	106.69
491.003	96.69
491.221	99.69
491.439	95.69
491.657	112.69
491.874	109.69
492.092	111.69
492.31	111.69
492.527	93.69
492.745	101.69
492.963	113.69
493.18	109.69
493.398	110.69
493.615	97.69
493.833	96.69
494.05	93.69
494.268	99.69
494.485	96.69
494.703	106.69
494.92	98.69
495.138	96.69
495.355	102.69
495.573	92.69
495.79	102.69
496.008	115.69
496.225	99.69
496.442	110.69
496.66	100.69
496.877	104.69
497.094	84.69
497.312	98.69
497.529	89.69
497.746	109.69
497.963	104.69
498.181	84.69
498.398	80.69
498.615	110.69
498.832	97.69
499.049	79.69
499.267	93.69
499.484	87.69
499.701	91.69
499.918	89.69
500.135	95.69
500.352	84.69
500.569	89.69
500.786	78.69
501.003	110.69
501.22	96.69
501.437	86.69
501.654	104.69
501.871	90.69
502.088	96.69
502.305	97.69
502.522	82.69
502.739	84.69
502.956	86.69
503.172	78.69
503.389	90.69
503.606	82.69
503.823	78.69
504.04	84.69
504.256	68.69
504.473	76.69
504.69	88.69
504.907	85.69
505.123	96.69
505.34	89.69
505.557	81.69
505.773	94.69
505.99	93.69
506.207	83.69
506.423	78.69
506.64	93.69
506.856	87.69
507.073	88.69
507.289	88.69
507.506	90.69
507.722	100.69
507.939	85.69
508.155	86.69
508.372	83.69
508.588	86.69
508.805	85.69
509.021	84.69
509.238	72.69
509.454	77.69
509.67	98.69
509.887	87.69
510.103	84.69
510.319	78.69
510.536	86.69
510.752	79.69
510.968	85.69
511.184	95.69
511.401	94.69
511.617	99.69
511.833	93.69
512.049	85.69
512.265	90.69
512.481	88.69
512.698	74.69
512.914	74.69
513.13	83.69
513.346	88.69
513.562	92.69
513.778	83.69
513.994	89.69
514.21	79.69
514.426	73.69
514.642	84.69
514.858	83.69
515.074	83.69
515.29	86.69
515.506	78.69
515.721	82.69
515.937	107.69
516.153	84.69
516.369	81.69
516.585	82.69
516.801	81.69
517.016	85.69
517.232	77.69
517.448	90.69
517.664	82.69
517.879	86.69
518.095	104.69
518.311	84.69
518.527	87.69
518.742	82.69
518.958	78.69
519.173	89.69
519.389	78.69
519.605	75.69
519.82	86.69
520.036	96.69
520.251	84.69
520.467	83.69
520.682	86.69
520.898	85.69
521.113	87.69
521.329	94.69
521.544	87.69
521.76	80.69
521.975	90.69
522.19	92.69
522.406	89.69
522.621	77.69
522.836	78.69
523.052	85.69
523.267	87.69
523.482	71.69
523.698	86.69
523.913	90.69
524.128	69.69
524.343	75.69
524.559	85.69
524.774	85.69
524.989	81.69
525.204	91.69
525.419	72.69
525.634	79.69
525.849	70.69
526.064	91.69
526.28	82.69
526.495	87.69
526.71	90.69
526.925	79.69
527.14	71.69
527.355	74.69
527.57	78.69
527.785	77.69
527.999	78.69
528.214	94.69
528.429	92.69
528.644	96.69
528.859	97.69
529.074	90.69
529.289	82.69
529.503	103.69
529.718	94.69
529.933	82.69
530.148	86.69
530.363	78.69
530.577	93.69
530.792	90.69
531.007	84.69
531.221	76.69
531.436	73.69
531.651	72.69
531.865	81.69
532.08	78.69
532.295	88.69
532.509	84.69
532.724	79.69
532.938	88.69
533.153	88.69
533.367	83.69
533.582	98.69
533.796	83.69
534.011	89.69
534.225	93.69
534.44	73.69
534.654	81.69
534.868	80.69
535.083	87.69
535.297	89.69
535.511	87.69
535.726	99.69
535.94	85.69
536.154	69.69
536.369	87.69
536.583	80.69
536.797	78.69
537.011	76.69
537.225	80.69
537.44	86.69
537.654	92.69
537.868	83.69
538.082	80.69
538.296	67.69
538.51	84.69
538.724	85.69
538.938	96.69
539.153	82.69
539.367	82.69
539.581	76.69
539.795	81.69
540.009	100.69
540.222	77.69
540.436	80.69
540.65	78.69
540.864	73.69
541.078	79.69
541.292	90.69
541.506	114.69
541.72	103.69
541.934	116.69
542.147	114.69
542.361	104.69
542.575	121.69
542.789	84.69
543.002	88.69
543.216	92.69
543.43	81.69
543.644	94.69
543.857	105.69
544.071	94.69
544.285	93.69
544.498	81.69
544.712	97.69
544.925	92.69
545.139	91.69
545.352	116.69
545.566	107.69
545.779	95.69
545.993	84.69
546.206	96.69
546.42	95.69
546.633	112.69
546.847	98.69
547.06	104.69
547.274	105.69
547.487	97.69
547.7	98.69
547.914	80.69
548.127	106.69
548.34	97.69
548.554	88.69
548.767	98.69
548.98	73.69
549.193	105.69
549.407	96.69
549.62	83.69
549.833	94.69
550.046	95.69
550.259	96.69
550.473	95.69
550.686	94.69
550.899	95.69
551.112	97.69
551.325	89.69
551.538	95.69
551.751	102.69
551.964	93.69
552.177	103.69
552.39	78.69
552.603	92.69
552.816	85.69
553.029	106.69
553.242	103.69
553.455	97.69
553.667	106.69
553.88	81.69
554.093	99.69
554.306	98.69
554.519	96.69
554.732	83.69
554.944	106.69
555.157	100.69
555.37	91.69
555.583	101.69
555.795	104.69
556.008	83.69
556.221	84.69
556.433	90.69
556.646	96.69
556.859	90.69
557.071	83.69
557.284	93.69
557.496	88.69
557.709	101.69
557.921	80.69
558.134	105.69
558.346	86.69
558.559	95.69
558.771	90.69
558.984	104.69
559.196	89.69
559.409	85.69
559.621	89.69
559.833	95.69
560.046	87.69
560.258	97.69
560.47	87.69
560.683	105.69
560.895	92.69
561.107	98.69
561.32	99.69
561.532	91.69
561.744	94.69
561.956	92.69
562.168	97.69
562.381	88.69
562.593	85.69
562.805	97.69
563.017	94.69
563.229	93.69
563.441	94.69
563.653	87.69
563.865	85.69
564.077	108.69
564.289	89.69
564.501	95.69
564.713	99.69
564.925	86.69
565.137	78.69
565.349	92.69
565.561	78.69
565.773	78.69
565.985	88.69
566.197	97.69
566.408	77.69
566.62	99.69
566.832	87.69
567.044	86.69
567.255	85.69
567.467	94.69
567.679	86.69
567.891	89.69
568.102	89.69
568.314	90.69
568.526	90.69
568.737	85.69
568.949	85.69
569.161	79.69
569.372	71.69
569.584	97.69
569.795	74.69
570.007	75.69
570.218	89.69
570.43	81.69
570.641	83.69
570.853	83.69
571.064	90.69
571.276	83.69
571.487	104.69
571.698	88.69
571.91	85.69
572.121	80.69
572.333	86.69
572.544	88.69
572.755	97.69
572.966	84.69
573.178	92.69
573.389	75.69
573.6	67.69
573.811	77.69
574.023	88.69
574.234	73.69
574.445	91.69
574.656	77.69
574.867	75.69
575.078	83.69
575.289	92.69
575.501	88.69
575.712	74.69
575.923	68.69
576.134	73.69
576.345	100.69
576.556	77.69
576.767	79.69
576.978	86.69
577.188	74.69
577.399	75.69
577.61	73.69
577.821	69.69
578.032	79.69
578.243	82.69
578.454	91.69
578.665	76.69
578.875	91.69
579.086	86.69
579.297	80.69
579.508	97.69
579.718	84.69
579.929	79.69
580.14	83.69
580.35	74.69
580.561	86.69
580.772	74.69
580.982	85.69
581.193	87.69
581.403	94.69
581.614	91.69
581.825	73.69
582.035	83.69
582.246	85.69
582.456	71.69
582.667	93.69
582.877	76.69
583.087	87.69
583.298	95.69
583.508	85.69
583.719	87.69
583.929	74.69
584.139	70.69
584.35	87.69
584.56	81.69
584.77	105.69
584.981	85.69
585.191	81.69
585.401	79.69
585.611	82.69
585.821	82.69
586.032	88.69
586.242	69.69
586.452	103.69
586.662	93.69
586.872	82.69
587.082	83.69
587.292	85.69
587.502	95.69
587.713	96.69
587.923	75.69
588.133	86.69
588.343	83.69
588.553	78.69
588.762	94.69
588.972	90.69
589.182	90.69
589.392	92.69
589.602	83.69
589.812	79.69
590.022	86.69
590.232	80.69
590.441	57.69
590.651	87.69
590.861	72.69
591.071	91.69
591.281	67.69
591.49	76.69
591.7	89.69
591.91	83.69
592.119	81.69
592.329	81.69
592.539	85.69
592.748	83.69
592.958	87.69
593.167	90.69
593.377	93.69
593.587	88.69
593.796	90.69
594.006	92.69
594.215	80.69
594.424	84.69
594.634	82.69
594.843	88.69
595.053	83.69
595.262	69.69
595.472	80.69
595.681	65.69
595.89	110.69
596.1	100.69
596.309	93.69
596.518	83.69
596.727	88.69
596.937	72.69
597.146	81.69
597.355	97.69
597.564	100.69
597.774	82.69
597.983	92.69
598.192	86.69
598.401	82.69
598.61	73.69
598.819	83.69
599.028	83.69
599.237	83.69
599.446	85.69
599.655	95.69
599.864	78.69
600.073	84.69
600.282	89.69
600.491	91.69
600.7	67.69
600.909	73.69
601.118	85.69
601.327	92.69
601.536	77.69
601.745	97.69
601.953	97.69
602.162	89.69
602.371	88.69
602.58	85.69
602.789	90.69
602.997	83.69
603.206	84.69
603.415	85.69
603.623	93.69
603.832	88.69
604.041	93.69
604.249	87.69
604.458	87.69
604.666	69.69
604.875	88.69
605.084	92.69
605.292	96.69
605.501	87.69
605.709	107.69
605.918	82.69
606.126	86.69
606.334	93.69
606.543	98.69
606.751	86.69
606.96	91.69
607.168	96.69
607.376	80.69
607.585	90.69
607.793	87.69
608.001	76.69
608.21	90.69
608.418	86.69
608.626	86.69
608.834	84.69
609.043	92.69
609.251	86.69
609.459	82.69
609.667	88.69
609.875	88.69
610.083	91.69
610.291	98.69
610.499	98.69
610.707	93.69
610.916	84.69
611.124	88.69
611.332	89.69
611.54	79.69
611.748	89.69
611.955	88.69
612.163	72.69
612.371	92.69
612.579	85.69
612.787	89.69
612.995	87.69
613.203	87.69
613.411	85.69
613.618	100.69
613.826	104.69
614.034	93.69
614.242	83.69
614.449	74.69
614.657	79.69
614.865	96.69
615.072	94.69
615.28	96.69
615.488	105.69
615.695	94.69
615.903	94.69
616.111	90.69
616.318	91.69
616.526	91.69
616.733	83.69
616.941	78.69
617.148	78.69
617.356	90.69
617.563	86.69
617.771	92.69
617.978	95.69
618.185	89.69
618.393	93.69
618.6	81.69
618.807	92.69
619.015	88.69
619.222	95.69
619.429	90.69
619.637	77.69
619.844	80.69
620.051	84.69
620.258	95.69
620.466	87.69
620.673	79.69
620.88	81.69
621.087	96.69
621.294	81.69
621.501	86.69
621.708	88.69
621.915	92.69
622.122	93.69
622.329	97.69
622.536	87.69
622.743	81.69
622.95	94.69
623.157	100.69
623.364	94.69
623.571	86.69
623.778	93.69
623.985	102.69
624.192	84.69
624.399	90.69
624.606	93.69
624.812	82.69
625.019	88.69
625.226	99.69
625.433	80.69
625.639	83.69
625.846	79.69
626.053	77.69
626.259	82.69
626.466	92.69
626.673	82.69
626.879	70.69
627.086	88.69
627.293	100.69
627.499	92.69
627.706	101.69
627.912	87.69
628.119	84.69
628.325	78.69
628.532	84.69
628.738	98.69
628.945	92.69
629.151	79.69
629.357	92.69
629.564	73.69
629.77	90.69
629.976	79.69
630.183	73.69
630.389	82.69
630.595	92.69
630.802	89.69
631.008	85.69
631.214	94.69
631.42	95.69
631.627	92.69
631.833	98.69
632.039	75.69
632.245	70.69
632.451	82.69
632.657	96.69
632.863	99.69
633.069	95.69
633.275	77.69
633.481	96.69
633.688	75.69
633.893	80.69
634.099	104.69
634.305	98.69
634.511	97.69
634.717	97.69
634.923	91.69
635.129	84.69
635.335	91.69
635.541	72.69
635.747	69.69
635.952	98.69
636.158	68.69
636.364	85.69
636.57	89.69
636.775	93.69
636.981	91.69
637.187	84.69
637.392	82.69
637.598	82.69
637.804	96.69
638.009	92.69
638.215	76.69
638.421	102.69
638.626	94.69
638.832	92.69
639.037	92.69
639.243	84.69
639.448	94.69
639.654	101.69
639.859	91.69
640.065	105.69
640.27	89.69
640.475	105.69
640.681	82.69
640.886	75.69
641.091	90.69
641.297	91.69
641.502	87.69
641.707	87.69
641.913	77.69
642.118	87.69
642.323	90.69
642.528	91.69
642.733	96.69
642.939	82.69
643.144	82.69
643.349	100.69
643.554	89.69
643.759	101.69
643.964	80.69
644.169	85.69
644.374	86.69
644.579	79.69
644.784	83.69
644.989	91.69
645.194	84.69
645.399	87.69
645.604	109.69
645.809	90.69
646.014	82.69
646.219	92.69
646.423	92.69
646.628	86.69
646.833	97.69
647.038	82.69
647.243	93.69
647.447	89.69
647.652	91.69
647.857	88.69
648.062	83.69
648.266	89.69
648.471	91.69
648.676	81.69
648.88	91.69
649.085	89.69
649.289	82.69
649.494	85.69
649.698	82.69
649.903	83.69
650.107	97.69
650.312	95.69
650.516	75.69
650.721	82.69
650.925	79.69
651.13	91.69
651.334	90.69
651.539	93.69
651.743	75.69
651.947	72.69
652.152	82.69
652.356	83.69
652.56	91.69
652.764	81.69
652.969	77.69
653.173	81.69
653.377	71.69
653.581	78.69
653.785	84.69
653.99	81.69
654.194	76.69
654.398	83.69
654.602	73.69
654.806	91.69
655.01	95.69
655.214	100.69
655.418	90.69
655.622	80.69
655.826	81.69
656.03	81.69
656.234	78.69
656.438	95.69
656.642	80.69
656.846	87.69
657.049	93.69
657.253	88.69
657.457	76.69
657.661	73.69
657.865	76.69
658.068	72.69
658.272	88.69
658.476	84.69
658.68	79.69
658.883	83.69
659.087	83.69
659.291	85.69
659.494	87.69
659.698	77.69
659.901	83.69
660.105	74.69
660.309	84.69
660.512	77.69
660.716	80.69
660.919	92.69
661.123	71.69
661.326	80.69
661.53	75.69
661.733	84.69
661.936	93.69
662.14	88.69
662.343	85.69
662.546	88.69
662.75	81.69
662.953	84.69
663.156	78.69
663.36	91.69
663.563	89.69
663.766	86.69
663.969	84.69
664.173	67.69
664.376	71.69
664.579	67.69
664.782	83.69
664.985	97.69
665.188	75.69
665.391	80.69
665.594	81.69
665.797	77.69
666	78.69
666.203	88.69
666.406	88.69
666.609	84.69
666.812	90.69
667.015	83.69
667.218	92.69
667.421	79.69
667.624	86.69
667.827	82.69
668.03	87.69
668.232	80.69
668.435	77.69
668.638	80.69
668.841	79.69
669.043	89.69
669.246	84.69
669.449	89.69
669.651	77.69
669.854	78.69
670.057	100.69
670.259	66.69
670.462	75.69
670.665	81.69
670.867	80.69
671.07	100.69
671.272	93.69
671.475	82.69
671.677	85.69
671.88	92.69
672.082	80.69
672.284	74.69
672.487	84.69
672.689	69.69
672.892	95.69
