Data from Zn(NO3)2Standard.Agarose3%.GreenCap.LampEnergy5.5.E.O_HRD10591_15-04-00-768.txt Node
Date: Mon Jul 22 15:04:00 EDT 2019
User: cochatt
Spectrometer: HR+D1059
Trigger mode: 1
Integration Time (sec): 1.000000E-1
Scans to average: 1
Electric dark correction enabled: true
Nonlinearity correction enabled: false
Boxcar width: 0
XAxis mode: Wavelengths
Number of Pixels in Spectrum: 2048
>>>>>Begin Spectral Data<<<<<
223.165	-20.94
223.4	-20.94
223.635	-20.94
223.869	-16.94
224.104	-18.94
224.338	-10.94
224.573	-11.94
224.808	-10.94
225.042	-11.94
225.277	-8.94
225.511	-3.94
225.746	2.06
225.98	21.06
226.215	18.06
226.449	25.06
226.683	10.06
226.918	20.06
227.152	19.06
227.387	47.06
227.621	31.06
227.856	41.06
228.09	42.06
228.324	54.06
228.559	78.06
228.793	68.06
229.027	71.06
229.262	75.06
229.496	64.06
229.73	69.06
229.964	82.06
230.199	75.06
230.433	82.06
230.667	83.06
230.901	78.06
231.136	84.06
231.37	76.06
231.604	80.06
231.838	89.06
232.072	78.06
232.306	73.06
232.541	86.06
232.775	105.06
233.009	82.06
233.243	72.06
233.477	89.06
233.711	82.06
233.945	88.06
234.179	88.06
234.413	102.06
234.647	74.06
234.881	80.06
235.115	76.06
235.349	71.06
235.583	72.06
235.817	76.06
236.051	84.06
236.285	73.06
236.519	80.06
236.753	81.06
236.987	79.06
237.221	62.06
237.455	80.06
237.689	88.06
237.922	87.06
238.156	77.06
238.39	79.06
238.624	81.06
238.858	95.06
239.091	82.06
239.325	76.06
239.559	79.06
239.793	82.06
240.027	76.06
240.26	78.06
240.494	78.06
240.728	57.06
240.961	77.06
241.195	99.06
241.429	82.06
241.662	80.06
241.896	71.06
242.13	78.06
242.363	80.06
242.597	76.06
242.83	74.06
243.064	87.06
243.298	72.06
243.531	70.06
243.765	78.06
243.998	79.06
244.232	78.06
244.465	79.06
244.699	71.06
244.932	84.06
245.166	89.06
245.399	85.06
245.633	79.06
245.866	94.06
246.099	81.06
246.333	88.06
246.566	78.06
246.8	90.06
247.033	75.06
247.266	61.06
247.5	77.06
247.733	75.06
247.966	79.06
248.2	74.06
248.433	86.06
248.666	80.06
248.899	90.06
249.133	73.06
249.366	90.06
249.599	92.06
249.832	68.06
250.066	92.06
250.299	79.06
250.532	87.06
250.765	72.06
250.998	87.06
251.231	73.06
251.465	99.06
251.698	93.06
251.931	74.06
252.164	80.06
252.397	77.06
252.63	91.06
252.863	93.06
253.096	89.06
253.329	66.06
253.562	87.06
253.795	80.06
254.028	81.06
254.261	84.06
254.494	73.06
254.727	82.06
254.96	96.06
255.193	90.06
255.426	89.06
255.659	80.06
255.892	85.06
256.124	74.06
256.357	88.06
256.59	84.06
256.823	83.06
257.056	81.06
257.289	72.06
257.521	70.06
257.754	81.06
257.987	84.06
258.22	77.06
258.452	78.06
258.685	90.06
258.918	87.06
259.151	88.06
259.383	87.06
259.616	86.06
259.849	97.06
260.081	90.06
260.314	79.06
260.547	85.06
260.779	77.06
261.012	83.06
261.244	91.06
261.477	87.06
261.71	90.06
261.942	87.06
262.175	85.06
262.407	93.06
262.64	78.06
262.872	77.06
263.105	85.06
263.337	81.06
263.57	68.06
263.802	92.06
264.035	96.06
264.267	85.06
264.499	64.06
264.732	97.06
264.964	84.06
265.197	86.06
265.429	68.06
265.661	89.06
265.894	97.06
266.126	86.06
266.358	79.06
266.591	81.06
266.823	85.06
267.055	92.06
267.287	76.06
267.52	96.06
267.752	92.06
267.984	76.06
268.216	71.06
268.448	92.06
268.681	75.06
268.913	81.06
269.145	74.06
269.377	80.06
269.609	84.06
269.841	87.06
270.073	86.06
270.306	85.06
270.538	100.06
270.77	75.06
271.002	78.06
271.234	120.06
271.466	73.06
271.698	89.06
271.93	85.06
272.162	78.06
272.394	79.06
272.626	82.06
272.858	75.06
273.09	87.06
273.322	84.06
273.553	90.06
273.785	92.06
274.017	93.06
274.249	83.06
274.481	85.06
274.713	93.06
274.945	88.06
275.176	95.06
275.408	92.06
275.64	80.06
275.872	77.06
276.104	80.06
276.335	82.06
276.567	79.06
276.799	80.06
277.031	79.06
277.262	97.06
277.494	90.06
277.726	83.06
277.957	90.06
278.189	88.06
278.421	81.06
278.652	88.06
278.884	84.06
279.115	81.06
279.347	93.06
279.579	83.06
279.81	94.06
280.042	80.06
280.273	88.06
280.505	87.06
280.736	89.06
280.968	87.06
281.199	85.06
281.431	89.06
281.662	80.06
281.894	93.06
282.125	87.06
282.356	95.06
282.588	74.06
282.819	84.06
283.051	77.06
283.282	83.06
283.513	73.06
283.745	101.06
283.976	80.06
284.207	87.06
284.439	82.06
284.67	86.06
284.901	72.06
285.132	81.06
285.364	86.06
285.595	77.06
285.826	89.06
286.057	90.06
286.288	87.06
286.52	82.06
286.751	95.06
286.982	80.06
287.213	95.06
287.444	84.06
287.675	93.06
287.906	93.06
288.138	84.06
288.369	80.06
288.6	85.06
288.831	100.06
289.062	88.06
289.293	82.06
289.524	79.06
289.755	81.06
289.986	90.06
290.217	92.06
290.448	86.06
290.679	97.06
290.91	89.06
291.141	80.06
291.371	71.06
291.602	65.06
291.833	80.06
292.064	93.06
292.295	81.06
292.526	87.06
292.757	88.06
292.987	81.06
293.218	93.06
293.449	80.06
293.68	79.06
293.91	92.06
294.141	93.06
294.372	93.06
294.603	76.06
294.833	97.06
295.064	85.06
295.295	74.06
295.525	87.06
295.756	93.06
295.987	78.06
296.217	84.06
296.448	76.06
296.679	72.06
296.909	85.06
297.14	80.06
297.37	85.06
297.601	95.06
297.831	86.06
298.062	78.06
298.292	94.06
298.523	88.06
298.753	90.06
298.984	74.06
299.214	96.06
299.445	76.06
299.675	85.06
299.905	88.06
300.136	83.06
300.366	89.06
300.597	88.06
300.827	92.06
301.057	96.06
301.288	88.06
301.518	91.06
301.748	88.06
301.979	85.06
302.209	66.06
302.439	88.06
302.669	83.06
302.9	82.06
303.13	95.06
303.36	84.06
303.59	94.06
303.82	70.06
304.051	92.06
304.281	95.06
304.511	82.06
304.741	87.06
304.971	86.06
305.201	80.06
305.431	88.06
305.661	88.06
305.891	102.06
306.121	87.06
306.352	89.06
306.582	78.06
306.812	93.06
307.042	95.06
307.272	91.06
307.502	88.06
307.731	87.06
307.961	96.06
308.191	103.06
308.421	97.06
308.651	86.06
308.881	95.06
309.111	82.06
309.341	85.06
309.571	86.06
309.8	96.06
310.03	93.06
310.26	76.06
310.49	93.06
310.72	100.06
310.949	91.06
311.179	77.06
311.409	76.06
311.639	93.06
311.868	76.06
312.098	86.06
312.328	76.06
312.557	81.06
312.787	89.06
313.017	90.06
313.246	79.06
313.476	87.06
313.706	85.06
313.935	85.06
314.165	81.06
314.394	91.06
314.624	81.06
314.853	90.06
315.083	88.06
315.312	79.06
315.542	80.06
315.771	87.06
316.001	94.06
316.23	88.06
316.46	72.06
316.689	79.06
316.919	91.06
317.148	89.06
317.377	90.06
317.607	88.06
317.836	96.06
318.065	100.06
318.295	84.06
318.524	84.06
318.753	88.06
318.983	85.06
319.212	86.06
319.441	86.06
319.67	86.06
319.9	84.06
320.129	87.06
320.358	94.06
320.587	83.06
320.816	84.06
321.046	103.06
321.275	103.06
321.504	96.06
321.733	88.06
321.962	73.06
322.191	91.06
322.42	105.06
322.649	86.06
322.878	85.06
323.108	97.06
323.337	87.06
323.566	90.06
323.795	94.06
324.024	95.06
324.253	91.06
324.482	59.06
324.71	82.06
324.939	84.06
325.168	96.06
325.397	94.06
325.626	90.06
325.855	88.06
326.084	81.06
326.313	89.06
326.542	91.06
326.77	84.06
326.999	81.06
327.228	76.06
327.457	95.06
327.686	98.06
327.914	81.06
328.143	90.06
328.372	74.06
328.6	80.06
328.829	86.06
329.058	77.06
329.287	79.06
329.515	89.06
329.744	95.06
329.972	82.06
330.201	87.06
330.43	82.06
330.658	73.06
330.887	98.06
331.115	80.06
331.344	97.06
331.572	93.06
331.801	92.06
332.03	79.06
332.258	81.06
332.486	97.06
332.715	95.06
332.943	89.06
333.172	81.06
333.4	89.06
333.629	92.06
333.857	85.06
334.085	85.06
334.314	72.06
334.542	80.06
334.771	91.06
334.999	85.06
335.227	83.06
335.455	91.06
335.684	89.06
335.912	92.06
336.14	70.06
336.369	83.06
336.597	92.06
336.825	83.06
337.053	84.06
337.281	87.06
337.51	93.06
337.738	82.06
337.966	82.06
338.194	82.06
338.422	85.06
338.65	90.06
338.878	81.06
339.106	89.06
339.334	87.06
339.562	78.06
339.79	96.06
340.018	70.06
340.246	86.06
340.474	97.06
340.702	91.06
340.93	74.06
341.158	79.06
341.386	77.06
341.614	97.06
341.842	88.06
342.07	91.06
342.298	85.06
342.526	90.06
342.754	86.06
342.981	90.06
343.209	80.06
343.437	87.06
343.665	82.06
343.893	82.06
344.12	82.06
344.348	94.06
344.576	88.06
344.804	96.06
345.031	97.06
345.259	78.06
345.487	92.06
345.714	89.06
345.942	91.06
346.17	89.06
346.397	84.06
346.625	82.06
346.853	89.06
347.08	77.06
347.308	82.06
347.535	95.06
347.763	71.06
347.99	89.06
348.218	79.06
348.445	74.06
348.673	94.06
348.9	99.06
349.128	89.06
349.355	86.06
349.583	86.06
349.81	73.06
350.037	94.06
350.265	92.06
350.492	83.06
350.72	93.06
350.947	73.06
351.174	89.06
351.402	85.06
351.629	91.06
351.856	88.06
352.083	87.06
352.311	84.06
352.538	95.06
352.765	91.06
352.992	82.06
353.22	87.06
353.447	84.06
353.674	90.06
353.901	82.06
354.128	86.06
354.355	89.06
354.583	103.06
354.81	76.06
355.037	96.06
355.264	88.06
355.491	76.06
355.718	85.06
355.945	87.06
356.172	86.06
356.399	77.06
356.626	84.06
356.853	86.06
357.08	89.06
357.307	85.06
357.534	97.06
357.761	94.06
357.988	83.06
358.215	84.06
358.441	80.06
358.668	88.06
358.895	70.06
359.122	95.06
359.349	96.06
359.576	73.06
359.802	96.06
360.029	94.06
360.256	84.06
360.483	90.06
360.709	91.06
360.936	96.06
361.163	83.06
361.39	83.06
361.616	93.06
361.843	92.06
362.07	84.06
362.296	91.06
362.523	78.06
362.749	94.06
362.976	70.06
363.203	80.06
363.429	81.06
363.656	91.06
363.882	97.06
364.109	89.06
364.335	85.06
364.562	94.06
364.788	84.06
365.015	87.06
365.241	81.06
365.468	94.06
365.694	92.06
365.92	78.06
366.147	91.06
366.373	81.06
366.599	89.06
366.826	82.06
367.052	86.06
367.278	100.06
367.505	93.06
367.731	91.06
367.957	88.06
368.184	94.06
368.41	78.06
368.636	90.06
368.862	97.06
369.089	89.06
369.315	73.06
369.541	89.06
369.767	92.06
369.993	94.06
370.219	91.06
370.445	83.06
370.672	79.06
370.898	90.06
371.124	84.06
371.35	92.06
371.576	91.06
371.802	93.06
372.028	84.06
372.254	90.06
372.48	81.06
372.706	90.06
372.932	86.06
373.158	85.06
373.384	91.06
373.61	91.06
373.835	96.06
374.061	70.06
374.287	77.06
374.513	82.06
374.739	91.06
374.965	88.06
375.191	85.06
375.416	69.06
375.642	95.06
375.868	79.06
376.094	81.06
376.319	76.06
376.545	85.06
376.771	82.06
376.997	89.06
377.222	83.06
377.448	93.06
377.674	85.06
377.899	88.06
378.125	80.06
378.35	85.06
378.576	90.06
378.802	101.06
379.027	88.06
379.253	76.06
379.478	89.06
379.704	83.06
379.929	80.06
380.155	102.06
380.38	88.06
380.606	79.06
380.831	76.06
381.057	101.06
381.282	85.06
381.507	93.06
381.733	86.06
381.958	88.06
382.184	91.06
382.409	93.06
382.634	82.06
382.86	80.06
383.085	83.06
383.31	83.06
383.535	87.06
383.761	88.06
383.986	84.06
384.211	84.06
384.436	77.06
384.662	85.06
384.887	81.06
385.112	88.06
385.337	80.06
385.562	79.06
385.787	84.06
386.013	100.06
386.238	85.06
386.463	84.06
386.688	88.06
386.913	93.06
387.138	89.06
387.363	89.06
387.588	89.06
387.813	85.06
388.038	90.06
388.263	87.06
388.488	92.06
388.713	89.06
388.938	84.06
389.163	86.06
389.387	83.06
389.612	82.06
389.837	97.06
390.062	77.06
390.287	93.06
390.512	86.06
390.736	88.06
390.961	91.06
391.186	87.06
391.411	75.06
391.636	98.06
391.86	92.06
392.085	86.06
392.31	87.06
392.534	100.06
392.759	93.06
392.984	94.06
393.208	84.06
393.433	89.06
393.658	86.06
393.882	103.06
394.107	97.06
394.331	86.06
394.556	96.06
394.78	90.06
395.005	89.06
395.229	76.06
395.454	72.06
395.678	77.06
395.903	82.06
396.127	86.06
396.352	87.06
396.576	86.06
396.801	88.06
397.025	92.06
397.249	79.06
397.474	92.06
397.698	73.06
397.922	92.06
398.147	94.06
398.371	93.06
398.595	76.06
398.82	78.06
399.044	92.06
399.268	93.06
399.492	84.06
399.717	86.06
399.941	100.06
400.165	82.06
400.389	86.06
400.613	101.06
400.837	90.06
401.062	87.06
401.286	92.06
401.51	86.06
401.734	80.06
401.958	85.06
402.182	106.06
402.406	91.06
402.63	92.06
402.854	89.06
403.078	104.06
403.302	94.06
403.526	87.06
403.75	70.06
403.974	87.06
404.198	103.06
404.422	85.06
404.645	81.06
404.869	90.06
405.093	78.06
405.317	96.06
405.541	90.06
405.765	88.06
405.988	87.06
406.212	79.06
406.436	80.06
406.66	82.06
406.883	85.06
407.107	101.06
407.331	93.06
407.555	90.06
407.778	97.06
408.002	94.06
408.226	92.06
408.449	82.06
408.673	92.06
408.896	82.06
409.12	79.06
409.344	81.06
409.567	89.06
409.791	87.06
410.014	78.06
410.238	75.06
410.461	82.06
410.685	91.06
410.908	82.06
411.132	82.06
411.355	89.06
411.578	90.06
411.802	83.06
412.025	99.06
412.249	80.06
412.472	76.06
412.695	92.06
412.919	77.06
413.142	101.06
413.365	85.06
413.589	85.06
413.812	98.06
414.035	82.06
414.258	89.06
414.482	87.06
414.705	92.06
414.928	93.06
415.151	87.06
415.374	90.06
415.597	88.06
415.821	98.06
416.044	93.06
416.267	82.06
416.49	68.06
416.713	107.06
416.936	99.06
417.159	81.06
417.382	93.06
417.605	91.06
417.828	82.06
418.051	92.06
418.274	96.06
418.497	85.06
418.72	97.06
418.943	92.06
419.166	102.06
419.389	104.06
419.611	96.06
419.834	95.06
420.057	96.06
420.28	86.06
420.503	87.06
420.726	96.06
420.948	97.06
421.171	86.06
421.394	81.06
421.617	94.06
421.839	80.06
422.062	96.06
422.285	93.06
422.507	94.06
422.73	102.06
422.953	87.06
423.175	96.06
423.398	99.06
423.621	97.06
423.843	89.06
424.066	88.06
424.288	91.06
424.511	104.06
424.733	101.06
424.956	82.06
425.178	97.06
425.401	94.06
425.623	94.06
425.846	95.06
426.068	89.06
426.291	91.06
426.513	101.06
426.735	90.06
426.958	84.06
427.18	88.06
427.402	95.06
427.625	94.06
427.847	103.06
428.069	91.06
428.292	96.06
428.514	93.06
428.736	95.06
428.958	89.06
429.181	97.06
429.403	86.06
429.625	88.06
429.847	97.06
430.069	98.06
430.292	94.06
430.514	93.06
430.736	99.06
430.958	104.06
431.18	90.06
431.402	91.06
431.624	88.06
431.846	90.06
432.068	78.06
432.29	85.06
432.512	82.06
432.734	87.06
432.956	94.06
433.178	89.06
433.4	96.06
433.622	88.06
433.844	90.06
434.066	85.06
434.287	75.06
434.509	90.06
434.731	82.06
434.953	87.06
435.175	100.06
435.397	93.06
435.618	104.06
435.84	113.06
436.062	94.06
436.284	92.06
436.505	80.06
436.727	78.06
436.949	85.06
437.17	107.06
437.392	98.06
437.614	96.06
437.835	96.06
438.057	81.06
438.278	80.06
438.5	83.06
438.721	96.06
438.943	98.06
439.165	85.06
439.386	101.06
439.608	103.06
439.829	90.06
440.05	91.06
440.272	92.06
440.493	88.06
440.715	80.06
440.936	98.06
441.158	89.06
441.379	80.06
441.6	87.06
441.822	101.06
442.043	92.06
442.264	90.06
442.486	104.06
442.707	90.06
442.928	109.06
443.149	97.06
443.371	86.06
443.592	96.06
443.813	92.06
444.034	83.06
444.255	86.06
444.476	86.06
444.698	90.06
444.919	94.06
445.14	200.06
445.361	151.06
445.582	99.06
445.803	82.06
446.024	87.06
446.245	101.06
446.466	99.06
446.687	98.06
446.908	105.06
447.129	97.06
447.35	90.06
447.571	100.06
447.792	93.06
448.013	82.06
448.234	84.06
448.455	109.06
448.675	98.06
448.896	86.06
449.117	77.06
449.338	75.06
449.559	86.06
449.779	91.06
450	82.06
450.221	90.06
450.442	87.06
450.662	92.06
450.883	84.06
451.104	98.06
451.324	105.06
451.545	95.06
451.766	101.06
451.986	80.06
452.207	89.06
452.428	111.06
452.648	79.06
452.869	100.06
453.089	88.06
453.31	100.06
453.53	75.06
453.751	81.06
453.971	87.06
454.192	88.06
454.412	96.06
454.633	94.06
454.853	81.06
455.073	92.06
455.294	80.06
455.514	96.06
455.734	100.06
455.955	90.06
456.175	82.06
456.395	76.06
456.616	95.06
456.836	90.06
457.056	96.06
457.276	85.06
457.497	84.06
457.717	90.06
457.937	86.06
458.157	93.06
458.377	89.06
458.598	85.06
458.818	82.06
459.038	98.06
459.258	91.06
459.478	91.06
459.698	88.06
459.918	93.06
460.138	82.06
460.358	98.06
460.578	88.06
460.798	105.06
461.018	107.06
461.238	91.06
461.458	83.06
461.678	103.06
461.898	82.06
462.118	89.06
462.338	98.06
462.558	100.06
462.777	79.06
462.997	88.06
463.217	90.06
463.437	88.06
463.657	90.06
463.876	93.06
464.096	88.06
464.316	96.06
464.536	95.06
464.755	88.06
464.975	88.06
465.195	79.06
465.414	86.06
465.634	90.06
465.854	90.06
466.073	80.06
466.293	85.06
466.512	99.06
466.732	84.06
466.951	88.06
467.171	86.06
467.391	83.06
467.61	104.06
467.829	93.06
468.049	92.06
468.268	94.06
468.488	99.06
468.707	88.06
468.927	91.06
469.146	93.06
469.365	98.06
469.585	98.06
469.804	91.06
470.023	104.06
470.243	94.06
470.462	98.06
470.681	97.06
470.901	85.06
471.12	90.06
471.339	109.06
471.558	85.06
471.777	93.06
471.997	94.06
472.216	94.06
472.435	100.06
472.654	93.06
472.873	95.06
473.092	95.06
473.311	94.06
473.53	85.06
473.749	84.06
473.968	90.06
474.187	96.06
474.406	98.06
474.625	95.06
474.844	93.06
475.063	86.06
475.282	93.06
475.501	82.06
475.72	87.06
475.939	88.06
476.158	107.06
476.377	89.06
476.596	97.06
476.814	99.06
477.033	88.06
477.252	98.06
477.471	106.06
477.69	93.06
477.908	85.06
478.127	98.06
478.346	91.06
478.564	89.06
478.783	83.06
479.002	90.06
479.22	91.06
479.439	103.06
479.658	93.06
479.876	86.06
480.095	86.06
480.313	92.06
480.532	94.06
480.751	89.06
480.969	90.06
481.188	81.06
481.406	75.06
481.624	98.06
481.843	93.06
482.061	95.06
482.28	92.06
482.498	86.06
482.717	86.06
482.935	88.06
483.153	100.06
483.372	94.06
483.59	96.06
483.808	97.06
484.027	117.06
484.245	90.06
484.463	100.06
484.681	110.06
484.9	91.06
485.118	89.06
485.336	105.06
485.554	91.06
485.772	94.06
485.99	93.06
486.209	81.06
486.427	96.06
486.645	98.06
486.863	95.06
487.081	95.06
487.299	85.06
487.517	91.06
487.735	95.06
487.953	103.06
488.171	112.06
488.389	113.06
488.607	103.06
488.825	80.06
489.043	82.06
489.261	89.06
489.479	93.06
489.696	86.06
489.914	100.06
490.132	104.06
490.35	103.06
490.568	92.06
490.786	106.06
491.003	107.06
491.221	98.06
491.439	101.06
491.657	93.06
491.874	104.06
492.092	135.06
492.31	114.06
492.527	112.06
492.745	113.06
492.963	106.06
493.18	126.06
493.398	102.06
493.615	96.06
493.833	96.06
494.05	103.06
494.268	96.06
494.485	103.06
494.703	93.06
494.92	101.06
495.138	101.06
495.355	108.06
495.573	98.06
495.79	91.06
496.008	88.06
496.225	100.06
496.442	96.06
496.66	100.06
496.877	103.06
497.094	111.06
497.312	97.06
497.529	109.06
497.746	101.06
497.963	110.06
498.181	103.06
498.398	91.06
498.615	88.06
498.832	94.06
499.049	96.06
499.267	99.06
499.484	78.06
499.701	96.06
499.918	105.06
500.135	111.06
500.352	87.06
500.569	87.06
500.786	89.06
501.003	104.06
501.22	96.06
501.437	101.06
501.654	96.06
501.871	101.06
502.088	95.06
502.305	74.06
502.522	85.06
502.739	97.06
502.956	103.06
503.172	92.06
503.389	92.06
503.606	99.06
503.823	97.06
504.04	93.06
504.256	101.06
504.473	87.06
504.69	97.06
504.907	100.06
505.123	97.06
505.34	85.06
505.557	105.06
505.773	100.06
505.99	95.06
506.207	81.06
506.423	93.06
506.64	102.06
506.856	92.06
507.073	78.06
507.289	92.06
507.506	96.06
507.722	106.06
507.939	96.06
508.155	81.06
508.372	94.06
508.588	85.06
508.805	77.06
509.021	94.06
509.238	109.06
509.454	97.06
509.67	88.06
509.887	86.06
510.103	84.06
510.319	82.06
510.536	87.06
510.752	81.06
510.968	88.06
511.184	73.06
511.401	86.06
511.617	91.06
511.833	96.06
512.049	85.06
512.265	81.06
512.481	100.06
512.698	95.06
512.914	92.06
513.13	89.06
513.346	87.06
513.562	90.06
513.778	94.06
513.994	83.06
514.21	90.06
514.426	84.06
514.642	87.06
514.858	72.06
515.074	96.06
515.29	83.06
515.506	89.06
515.721	91.06
515.937	90.06
516.153	93.06
516.369	86.06
516.585	94.06
516.801	98.06
517.016	90.06
517.232	99.06
517.448	77.06
517.664	87.06
517.879	86.06
518.095	90.06
518.311	84.06
518.527	91.06
518.742	82.06
518.958	84.06
519.173	91.06
519.389	83.06
519.605	88.06
519.82	86.06
520.036	86.06
520.251	83.06
520.467	95.06
520.682	99.06
520.898	85.06
521.113	84.06
521.329	93.06
521.544	104.06
521.76	77.06
521.975	84.06
522.19	91.06
522.406	97.06
522.621	97.06
522.836	94.06
523.052	90.06
523.267	94.06
523.482	79.06
523.698	80.06
523.913	86.06
524.128	94.06
524.343	89.06
524.559	85.06
524.774	97.06
524.989	88.06
525.204	100.06
525.419	94.06
525.634	87.06
525.849	88.06
526.064	89.06
526.28	80.06
526.495	82.06
526.71	96.06
526.925	83.06
527.14	99.06
527.355	78.06
527.57	86.06
527.785	88.06
527.999	85.06
528.214	103.06
528.429	87.06
528.644	92.06
528.859	97.06
529.074	97.06
529.289	97.06
529.503	93.06
529.718	84.06
529.933	91.06
530.148	83.06
530.363	83.06
530.577	91.06
530.792	92.06
531.007	79.06
531.221	77.06
531.436	81.06
531.651	91.06
531.865	89.06
532.08	89.06
532.295	90.06
532.509	93.06
532.724	89.06
532.938	91.06
533.153	102.06
533.367	76.06
533.582	85.06
533.796	73.06
534.011	95.06
534.225	102.06
534.44	87.06
534.654	95.06
534.868	95.06
535.083	87.06
535.297	96.06
535.511	96.06
535.726	92.06
535.94	77.06
536.154	92.06
536.369	100.06
536.583	97.06
536.797	83.06
537.011	73.06
537.225	90.06
537.44	92.06
537.654	106.06
537.868	81.06
538.082	92.06
538.296	80.06
538.51	93.06
538.724	95.06
538.938	101.06
539.153	99.06
539.367	104.06
539.581	94.06
539.795	92.06
540.009	88.06
540.222	84.06
540.436	95.06
540.65	86.06
540.864	93.06
541.078	113.06
541.292	93.06
541.506	114.06
541.72	109.06
541.934	106.06
542.147	99.06
542.361	104.06
542.575	109.06
542.789	86.06
543.002	93.06
543.216	92.06
543.43	97.06
543.644	100.06
543.857	97.06
544.071	102.06
544.285	102.06
544.498	101.06
544.712	104.06
544.925	100.06
545.139	111.06
545.352	94.06
545.566	114.06
545.779	100.06
545.993	89.06
546.206	102.06
546.42	86.06
546.633	112.06
546.847	97.06
547.06	95.06
547.274	96.06
547.487	102.06
547.7	99.06
547.914	100.06
548.127	104.06
548.34	105.06
548.554	95.06
548.767	100.06
548.98	95.06
549.193	108.06
549.407	107.06
549.62	121.06
549.833	108.06
550.046	97.06
550.259	96.06
550.473	88.06
550.686	101.06
550.899	110.06
551.112	110.06
551.325	99.06
551.538	91.06
551.751	90.06
551.964	87.06
552.177	102.06
552.39	94.06
552.603	96.06
552.816	108.06
553.029	108.06
553.242	96.06
553.455	102.06
553.667	112.06
553.88	94.06
554.093	93.06
554.306	88.06
554.519	98.06
554.732	102.06
554.944	99.06
555.157	104.06
555.37	106.06
555.583	96.06
555.795	93.06
556.008	102.06
556.221	93.06
556.433	102.06
556.646	106.06
556.859	100.06
557.071	112.06
557.284	114.06
557.496	107.06
557.709	84.06
557.921	84.06
558.134	93.06
558.346	93.06
558.559	104.06
558.771	106.06
558.984	97.06
559.196	89.06
559.409	94.06
559.621	99.06
559.833	96.06
560.046	81.06
560.258	82.06
560.47	95.06
560.683	101.06
560.895	101.06
561.107	102.06
561.32	100.06
561.532	87.06
561.744	85.06
561.956	97.06
562.168	93.06
562.381	105.06
562.593	90.06
562.805	88.06
563.017	99.06
563.229	94.06
563.441	109.06
563.653	98.06
563.865	100.06
564.077	92.06
564.289	111.06
564.501	108.06
564.713	109.06
564.925	102.06
565.137	97.06
565.349	96.06
565.561	94.06
565.773	89.06
565.985	98.06
566.197	104.06
566.408	101.06
566.62	87.06
566.832	92.06
567.044	77.06
567.255	98.06
567.467	86.06
567.679	91.06
567.891	95.06
568.102	70.06
568.314	81.06
568.526	84.06
568.737	88.06
568.949	87.06
569.161	95.06
569.372	82.06
569.584	97.06
569.795	88.06
570.007	89.06
570.218	103.06
570.43	84.06
570.641	84.06
570.853	81.06
571.064	90.06
571.276	92.06
571.487	98.06
571.698	87.06
571.91	86.06
572.121	97.06
572.333	101.06
572.544	94.06
572.755	88.06
572.966	90.06
573.178	95.06
573.389	100.06
573.6	82.06
573.811	91.06
574.023	91.06
574.234	84.06
574.445	92.06
574.656	100.06
574.867	91.06
575.078	76.06
575.289	95.06
575.501	90.06
575.712	93.06
575.923	94.06
576.134	85.06
576.345	93.06
576.556	85.06
576.767	78.06
576.978	90.06
577.188	84.06
577.399	93.06
577.61	82.06
577.821	85.06
578.032	102.06
578.243	92.06
578.454	93.06
578.665	86.06
578.875	76.06
579.086	78.06
579.297	90.06
579.508	89.06
579.718	78.06
579.929	80.06
580.14	82.06
580.35	79.06
580.561	83.06
580.772	78.06
580.982	82.06
581.193	100.06
581.403	73.06
581.614	75.06
581.825	77.06
582.035	97.06
582.246	98.06
582.456	84.06
582.667	92.06
582.877	95.06
583.087	94.06
583.298	90.06
583.508	72.06
583.719	94.06
583.929	94.06
584.139	71.06
584.35	89.06
584.56	89.06
584.77	89.06
584.981	91.06
585.191	90.06
585.401	83.06
585.611	100.06
585.821	77.06
586.032	70.06
586.242	73.06
586.452	94.06
586.662	93.06
586.872	85.06
587.082	72.06
587.292	84.06
587.502	82.06
587.713	82.06
587.923	84.06
588.133	95.06
588.343	97.06
588.553	76.06
588.762	95.06
588.972	92.06
589.182	85.06
589.392	82.06
589.602	99.06
589.812	67.06
590.022	105.06
590.232	87.06
590.441	88.06
590.651	84.06
590.861	90.06
591.071	79.06
591.281	83.06
591.49	88.06
591.7	94.06
591.91	103.06
592.119	89.06
592.329	96.06
592.539	93.06
592.748	94.06
592.958	91.06
593.167	83.06
593.377	91.06
593.587	82.06
593.796	86.06
594.006	87.06
594.215	92.06
594.424	97.06
594.634	89.06
594.843	70.06
595.053	86.06
595.262	80.06
595.472	88.06
595.681	89.06
595.89	102.06
596.1	89.06
596.309	93.06
596.518	100.06
596.727	100.06
596.937	87.06
597.146	74.06
597.355	84.06
597.564	89.06
597.774	92.06
597.983	70.06
598.192	96.06
598.401	91.06
598.61	95.06
598.819	90.06
599.028	95.06
599.237	91.06
599.446	87.06
599.655	99.06
599.864	90.06
600.073	89.06
600.282	89.06
600.491	77.06
600.7	89.06
600.909	101.06
601.118	74.06
601.327	88.06
601.536	90.06
601.745	96.06
601.953	103.06
602.162	73.06
602.371	105.06
602.58	98.06
602.789	73.06
602.997	100.06
603.206	89.06
603.415	88.06
603.623	85.06
603.832	97.06
604.041	107.06
604.249	101.06
604.458	89.06
604.666	87.06
604.875	85.06
605.084	82.06
605.292	92.06
605.501	99.06
605.709	100.06
605.918	107.06
606.126	108.06
606.334	90.06
606.543	101.06
606.751	94.06
606.96	99.06
607.168	89.06
607.376	90.06
607.585	97.06
607.793	97.06
608.001	90.06
608.21	95.06
608.418	98.06
608.626	105.06
608.834	92.06
609.043	80.06
609.251	105.06
609.459	90.06
609.667	91.06
609.875	92.06
610.083	88.06
610.291	88.06
610.499	83.06
610.707	88.06
610.916	93.06
611.124	78.06
611.332	94.06
611.54	93.06
611.748	76.06
611.955	85.06
612.163	97.06
612.371	88.06
612.579	88.06
612.787	87.06
612.995	95.06
613.203	100.06
613.411	96.06
613.618	102.06
613.826	99.06
614.034	90.06
614.242	98.06
614.449	102.06
614.657	106.06
614.865	91.06
615.072	96.06
615.28	101.06
615.488	77.06
615.695	94.06
615.903	106.06
616.111	86.06
616.318	105.06
616.526	90.06
616.733	88.06
616.941	107.06
617.148	104.06
617.356	94.06
617.563	81.06
617.771	92.06
617.978	89.06
618.185	87.06
618.393	93.06
618.6	99.06
618.807	87.06
619.015	101.06
619.222	88.06
619.429	89.06
619.637	92.06
619.844	87.06
620.051	93.06
620.258	101.06
620.466	100.06
620.673	95.06
620.88	94.06
621.087	70.06
621.294	102.06
621.501	93.06
621.708	95.06
621.915	81.06
622.122	87.06
622.329	84.06
622.536	86.06
622.743	97.06
622.95	86.06
623.157	92.06
623.364	92.06
623.571	102.06
623.778	84.06
623.985	104.06
624.192	104.06
624.399	97.06
624.606	100.06
624.812	89.06
625.019	77.06
625.226	92.06
625.433	84.06
625.639	79.06
625.846	79.06
626.053	92.06
626.259	95.06
626.466	101.06
626.673	85.06
626.879	81.06
627.086	74.06
627.293	88.06
627.499	86.06
627.706	95.06
627.912	83.06
628.119	91.06
628.325	110.06
628.532	101.06
628.738	91.06
628.945	90.06
629.151	83.06
629.357	87.06
629.564	83.06
629.77	103.06
629.976	97.06
630.183	80.06
630.389	78.06
630.595	77.06
630.802	95.06
631.008	99.06
631.214	96.06
631.42	104.06
631.627	88.06
631.833	77.06
632.039	94.06
632.245	84.06
632.451	100.06
632.657	100.06
632.863	96.06
633.069	96.06
633.275	96.06
633.481	84.06
633.688	90.06
633.893	77.06
634.099	90.06
634.305	80.06
634.511	96.06
634.717	97.06
634.923	89.06
635.129	79.06
635.335	82.06
635.541	81.06
635.747	101.06
635.952	74.06
636.158	94.06
636.364	72.06
636.57	85.06
636.775	95.06
636.981	103.06
637.187	92.06
637.392	83.06
637.598	88.06
637.804	88.06
638.009	75.06
638.215	94.06
638.421	86.06
638.626	98.06
638.832	89.06
639.037	102.06
639.243	100.06
639.448	87.06
639.654	82.06
639.859	95.06
640.065	108.06
640.27	105.06
640.475	94.06
640.681	97.06
640.886	100.06
641.091	80.06
641.297	89.06
641.502	76.06
641.707	95.06
641.913	98.06
642.118	79.06
642.323	88.06
642.528	101.06
642.733	95.06
642.939	83.06
643.144	86.06
643.349	92.06
643.554	101.06
643.759	97.06
643.964	82.06
644.169	92.06
644.374	102.06
644.579	85.06
644.784	87.06
644.989	91.06
645.194	90.06
645.399	98.06
645.604	74.06
645.809	92.06
646.014	102.06
646.219	75.06
646.423	94.06
646.628	89.06
646.833	94.06
647.038	95.06
647.243	88.06
647.447	85.06
647.652	83.06
647.857	92.06
648.062	101.06
648.266	92.06
648.471	86.06
648.676	82.06
648.88	80.06
649.085	92.06
649.289	89.06
649.494	97.06
649.698	86.06
649.903	86.06
650.107	106.06
650.312	94.06
650.516	96.06
650.721	88.06
650.925	86.06
651.13	79.06
651.334	79.06
651.539	97.06
651.743	90.06
651.947	104.06
652.152	94.06
652.356	88.06
652.56	87.06
652.764	86.06
652.969	96.06
653.173	95.06
653.377	85.06
653.581	88.06
653.785	86.06
653.99	74.06
654.194	90.06
654.398	83.06
654.602	90.06
654.806	84.06
655.01	108.06
655.214	82.06
655.418	81.06
655.622	90.06
655.826	96.06
656.03	71.06
656.234	79.06
656.438	80.06
656.642	92.06
656.846	92.06
657.049	94.06
657.253	85.06
657.457	87.06
657.661	87.06
657.865	93.06
658.068	90.06
658.272	82.06
658.476	88.06
658.68	99.06
658.883	87.06
659.087	79.06
659.291	97.06
659.494	83.06
659.698	78.06
659.901	95.06
660.105	89.06
660.309	96.06
660.512	76.06
660.716	90.06
660.919	86.06
661.123	97.06
661.326	88.06
661.53	90.06
661.733	77.06
661.936	72.06
662.14	81.06
662.343	82.06
662.546	71.06
662.75	93.06
662.953	81.06
663.156	79.06
663.36	79.06
663.563	84.06
663.766	86.06
663.969	89.06
664.173	96.06
664.376	83.06
664.579	88.06
664.782	98.06
664.985	85.06
665.188	95.06
665.391	96.06
665.594	81.06
665.797	68.06
666	85.06
666.203	96.06
666.406	100.06
666.609	90.06
666.812	76.06
667.015	88.06
667.218	98.06
667.421	71.06
667.624	87.06
667.827	88.06
668.03	82.06
668.232	90.06
668.435	71.06
668.638	86.06
668.841	77.06
669.043	97.06
669.246	92.06
669.449	93.06
669.651	94.06
669.854	89.06
670.057	88.06
670.259	87.06
670.462	93.06
670.665	88.06
670.867	90.06
671.07	90.06
671.272	96.06
671.475	88.06
671.677	92.06
671.88	87.06
672.082	79.06
672.284	80.06
672.487	80.06
672.689	75.06
672.892	96.06
