Data from Zn(NO3)2Standard.Agarose3%.GreenCap.LampEnergy10E.O_HRD10591_15-08-18-948.txt Node
Date: Mon Jul 22 15:08:18 EDT 2019
User: cochatt
Spectrometer: HR+D1059
Trigger mode: 1
Integration Time (sec): 1.000000E-1
Scans to average: 1
Electric dark correction enabled: true
Nonlinearity correction enabled: false
Boxcar width: 0
XAxis mode: Wavelengths
Number of Pixels in Spectrum: 2048
>>>>>Begin Spectral Data<<<<<
223.165	-13.94
223.4	-13.94
223.635	-13.94
223.869	-11.94
224.104	-9.94
224.338	-12.94
224.573	-10.94
224.808	-17.94
225.042	-7.94
225.277	-11.94
225.511	-4.94
225.746	5.06
225.98	1.06
226.215	24.06
226.449	6.06
226.683	20.06
226.918	19.06
227.152	27.06
227.387	38.06
227.621	44.06
227.856	51.06
228.09	42.06
228.324	61.06
228.559	49.06
228.793	65.06
229.027	74.06
229.262	56.06
229.496	71.06
229.73	67.06
229.964	74.06
230.199	73.06
230.433	82.06
230.667	79.06
230.901	77.06
231.136	86.06
231.37	81.06
231.604	79.06
231.838	77.06
232.072	88.06
232.306	85.06
232.541	76.06
232.775	77.06
233.009	85.06
233.243	79.06
233.477	72.06
233.711	80.06
233.945	78.06
234.179	78.06
234.413	81.06
234.647	79.06
234.881	89.06
235.115	87.06
235.349	94.06
235.583	73.06
235.817	75.06
236.051	89.06
236.285	82.06
236.519	63.06
236.753	86.06
236.987	74.06
237.221	77.06
237.455	84.06
237.689	71.06
237.922	68.06
238.156	78.06
238.39	81.06
238.624	77.06
238.858	84.06
239.091	93.06
239.325	74.06
239.559	88.06
239.793	81.06
240.027	82.06
240.26	88.06
240.494	76.06
240.728	78.06
240.961	64.06
241.195	87.06
241.429	87.06
241.662	78.06
241.896	78.06
242.13	83.06
242.363	79.06
242.597	90.06
242.83	74.06
243.064	90.06
243.298	82.06
243.531	82.06
243.765	94.06
243.998	77.06
244.232	72.06
244.465	67.06
244.699	74.06
244.932	63.06
245.166	75.06
245.399	79.06
245.633	62.06
245.866	69.06
246.099	83.06
246.333	78.06
246.566	70.06
246.8	73.06
247.033	75.06
247.266	88.06
247.5	81.06
247.733	86.06
247.966	99.06
248.2	72.06
248.433	78.06
248.666	70.06
248.899	72.06
249.133	71.06
249.366	62.06
249.599	85.06
249.832	70.06
250.066	87.06
250.299	76.06
250.532	90.06
250.765	82.06
250.998	63.06
251.231	78.06
251.465	79.06
251.698	99.06
251.931	80.06
252.164	85.06
252.397	79.06
252.63	68.06
252.863	86.06
253.096	82.06
253.329	76.06
253.562	85.06
253.795	85.06
254.028	102.06
254.261	96.06
254.494	86.06
254.727	79.06
254.96	84.06
255.193	78.06
255.426	76.06
255.659	89.06
255.892	99.06
256.124	88.06
256.357	87.06
256.59	75.06
256.823	87.06
257.056	74.06
257.289	74.06
257.521	70.06
257.754	93.06
257.987	85.06
258.22	93.06
258.452	98.06
258.685	90.06
258.918	89.06
259.151	76.06
259.383	91.06
259.616	76.06
259.849	81.06
260.081	82.06
260.314	87.06
260.547	96.06
260.779	82.06
261.012	83.06
261.244	69.06
261.477	94.06
261.71	77.06
261.942	90.06
262.175	75.06
262.407	88.06
262.64	89.06
262.872	88.06
263.105	83.06
263.337	77.06
263.57	75.06
263.802	86.06
264.035	83.06
264.267	76.06
264.499	79.06
264.732	80.06
264.964	83.06
265.197	83.06
265.429	94.06
265.661	80.06
265.894	86.06
266.126	83.06
266.358	86.06
266.591	94.06
266.823	92.06
267.055	69.06
267.287	85.06
267.52	74.06
267.752	72.06
267.984	73.06
268.216	92.06
268.448	92.06
268.681	87.06
268.913	85.06
269.145	81.06
269.377	89.06
269.609	76.06
269.841	78.06
270.073	96.06
270.306	81.06
270.538	92.06
270.77	86.06
271.002	93.06
271.234	79.06
271.466	75.06
271.698	102.06
271.93	83.06
272.162	99.06
272.394	96.06
272.626	79.06
272.858	108.06
273.09	77.06
273.322	84.06
273.553	85.06
273.785	82.06
274.017	93.06
274.249	75.06
274.481	91.06
274.713	86.06
274.945	89.06
275.176	98.06
275.408	74.06
275.64	90.06
275.872	84.06
276.104	84.06
276.335	92.06
276.567	93.06
276.799	92.06
277.031	78.06
277.262	77.06
277.494	87.06
277.726	77.06
277.957	88.06
278.189	90.06
278.421	82.06
278.652	80.06
278.884	98.06
279.115	99.06
279.347	76.06
279.579	87.06
279.81	91.06
280.042	91.06
280.273	86.06
280.505	87.06
280.736	88.06
280.968	95.06
281.199	83.06
281.431	97.06
281.662	84.06
281.894	72.06
282.125	84.06
282.356	87.06
282.588	82.06
282.819	84.06
283.051	99.06
283.282	80.06
283.513	88.06
283.745	88.06
283.976	82.06
284.207	75.06
284.439	92.06
284.67	90.06
284.901	85.06
285.132	85.06
285.364	76.06
285.595	90.06
285.826	76.06
286.057	88.06
286.288	74.06
286.52	90.06
286.751	85.06
286.982	93.06
287.213	76.06
287.444	83.06
287.675	87.06
287.906	77.06
288.138	79.06
288.369	86.06
288.6	81.06
288.831	100.06
289.062	90.06
289.293	77.06
289.524	94.06
289.755	64.06
289.986	86.06
290.217	84.06
290.448	83.06
290.679	76.06
290.91	90.06
291.141	91.06
291.371	79.06
291.602	78.06
291.833	89.06
292.064	85.06
292.295	72.06
292.526	91.06
292.757	75.06
292.987	85.06
293.218	86.06
293.449	97.06
293.68	98.06
293.91	67.06
294.141	96.06
294.372	68.06
294.603	85.06
294.833	78.06
295.064	85.06
295.295	85.06
295.525	90.06
295.756	93.06
295.987	80.06
296.217	80.06
296.448	96.06
296.679	74.06
296.909	90.06
297.14	88.06
297.37	96.06
297.601	84.06
297.831	82.06
298.062	102.06
298.292	95.06
298.523	70.06
298.753	83.06
298.984	92.06
299.214	102.06
299.445	91.06
299.675	98.06
299.905	86.06
300.136	94.06
300.366	95.06
300.597	88.06
300.827	84.06
301.057	90.06
301.288	76.06
301.518	86.06
301.748	93.06
301.979	85.06
302.209	75.06
302.439	78.06
302.669	83.06
302.9	81.06
303.13	85.06
303.36	88.06
303.59	91.06
303.82	90.06
304.051	77.06
304.281	74.06
304.511	94.06
304.741	89.06
304.971	80.06
305.201	88.06
305.431	90.06
305.661	84.06
305.891	82.06
306.121	90.06
306.352	92.06
306.582	77.06
306.812	74.06
307.042	87.06
307.272	71.06
307.502	68.06
307.731	84.06
307.961	77.06
308.191	84.06
308.421	84.06
308.651	84.06
308.881	89.06
309.111	113.06
309.341	90.06
309.571	101.06
309.8	86.06
310.03	106.06
310.26	95.06
310.49	82.06
310.72	75.06
310.949	89.06
311.179	93.06
311.409	81.06
311.639	68.06
311.868	82.06
312.098	92.06
312.328	94.06
312.557	83.06
312.787	73.06
313.017	94.06
313.246	86.06
313.476	84.06
313.706	100.06
313.935	78.06
314.165	75.06
314.394	94.06
314.624	93.06
314.853	84.06
315.083	98.06
315.312	95.06
315.542	84.06
315.771	88.06
316.001	79.06
316.23	90.06
316.46	94.06
316.689	82.06
316.919	87.06
317.148	102.06
317.377	82.06
317.607	77.06
317.836	97.06
318.065	102.06
318.295	95.06
318.524	89.06
318.753	85.06
318.983	65.06
319.212	91.06
319.441	80.06
319.67	85.06
319.9	79.06
320.129	99.06
320.358	89.06
320.587	84.06
320.816	90.06
321.046	80.06
321.275	92.06
321.504	97.06
321.733	85.06
321.962	82.06
322.191	93.06
322.42	76.06
322.649	83.06
322.878	86.06
323.108	87.06
323.337	93.06
323.566	90.06
323.795	103.06
324.024	100.06
324.253	96.06
324.482	82.06
324.71	82.06
324.939	78.06
325.168	76.06
325.397	87.06
325.626	108.06
325.855	89.06
326.084	90.06
326.313	83.06
326.542	89.06
326.77	80.06
326.999	87.06
327.228	75.06
327.457	69.06
327.686	78.06
327.914	98.06
328.143	87.06
328.372	93.06
328.6	85.06
328.829	82.06
329.058	90.06
329.287	91.06
329.515	81.06
329.744	81.06
329.972	72.06
330.201	80.06
330.43	89.06
330.658	85.06
330.887	90.06
331.115	93.06
331.344	86.06
331.572	89.06
331.801	92.06
332.03	96.06
332.258	89.06
332.486	102.06
332.715	85.06
332.943	92.06
333.172	78.06
333.4	83.06
333.629	93.06
333.857	87.06
334.085	75.06
334.314	83.06
334.542	89.06
334.771	81.06
334.999	83.06
335.227	90.06
335.455	90.06
335.684	85.06
335.912	82.06
336.14	84.06
336.369	113.06
336.597	89.06
336.825	87.06
337.053	81.06
337.281	91.06
337.51	81.06
337.738	100.06
337.966	93.06
338.194	89.06
338.422	78.06
338.65	92.06
338.878	85.06
339.106	84.06
339.334	84.06
339.562	81.06
339.79	86.06
340.018	84.06
340.246	91.06
340.474	87.06
340.702	88.06
340.93	77.06
341.158	80.06
341.386	100.06
341.614	83.06
341.842	79.06
342.07	85.06
342.298	85.06
342.526	88.06
342.754	77.06
342.981	88.06
343.209	77.06
343.437	76.06
343.665	91.06
343.893	90.06
344.12	85.06
344.348	88.06
344.576	84.06
344.804	92.06
345.031	89.06
345.259	78.06
345.487	95.06
345.714	77.06
345.942	77.06
346.17	84.06
346.397	92.06
346.625	85.06
346.853	94.06
347.08	95.06
347.308	82.06
347.535	100.06
347.763	84.06
347.99	92.06
348.218	96.06
348.445	86.06
348.673	73.06
348.9	89.06
349.128	77.06
349.355	85.06
349.583	86.06
349.81	72.06
350.037	89.06
350.265	100.06
350.492	71.06
350.72	67.06
350.947	79.06
351.174	98.06
351.402	75.06
351.629	80.06
351.856	84.06
352.083	82.06
352.311	90.06
352.538	84.06
352.765	93.06
352.992	97.06
353.22	68.06
353.447	77.06
353.674	91.06
353.901	87.06
354.128	86.06
354.355	94.06
354.583	85.06
354.81	70.06
355.037	78.06
355.264	94.06
355.491	64.06
355.718	74.06
355.945	77.06
356.172	71.06
356.399	87.06
356.626	85.06
356.853	103.06
357.08	74.06
357.307	88.06
357.534	72.06
357.761	84.06
357.988	80.06
358.215	89.06
358.441	81.06
358.668	87.06
358.895	98.06
359.122	82.06
359.349	71.06
359.576	78.06
359.802	85.06
360.029	89.06
360.256	88.06
360.483	84.06
360.709	96.06
360.936	95.06
361.163	80.06
361.39	85.06
361.616	84.06
361.843	66.06
362.07	78.06
362.296	77.06
362.523	83.06
362.749	76.06
362.976	85.06
363.203	76.06
363.429	76.06
363.656	77.06
363.882	78.06
364.109	81.06
364.335	86.06
364.562	93.06
364.788	103.06
365.015	85.06
365.241	92.06
365.468	85.06
365.694	72.06
365.92	90.06
366.147	93.06
366.373	79.06
366.599	93.06
366.826	89.06
367.052	80.06
367.278	84.06
367.505	91.06
367.731	80.06
367.957	86.06
368.184	89.06
368.41	87.06
368.636	77.06
368.862	98.06
369.089	80.06
369.315	79.06
369.541	84.06
369.767	88.06
369.993	76.06
370.219	79.06
370.445	95.06
370.672	79.06
370.898	76.06
371.124	90.06
371.35	83.06
371.576	85.06
371.802	69.06
372.028	85.06
372.254	96.06
372.48	84.06
372.706	83.06
372.932	87.06
373.158	91.06
373.384	97.06
373.61	89.06
373.835	99.06
374.061	81.06
374.287	91.06
374.513	96.06
374.739	90.06
374.965	83.06
375.191	73.06
375.416	80.06
375.642	73.06
375.868	85.06
376.094	90.06
376.319	86.06
376.545	80.06
376.771	91.06
376.997	88.06
377.222	84.06
377.448	82.06
377.674	81.06
377.899	78.06
378.125	88.06
378.35	90.06
378.576	97.06
378.802	82.06
379.027	89.06
379.253	96.06
379.478	82.06
379.704	85.06
379.929	81.06
380.155	89.06
380.38	85.06
380.606	89.06
380.831	94.06
381.057	91.06
381.282	84.06
381.507	79.06
381.733	77.06
381.958	81.06
382.184	96.06
382.409	75.06
382.634	90.06
382.86	85.06
383.085	96.06
383.31	96.06
383.535	83.06
383.761	84.06
383.986	76.06
384.211	87.06
384.436	89.06
384.662	84.06
384.887	75.06
385.112	101.06
385.337	84.06
385.562	77.06
385.787	84.06
386.013	89.06
386.238	93.06
386.463	94.06
386.688	102.06
386.913	92.06
387.138	91.06
387.363	94.06
387.588	91.06
387.813	93.06
388.038	83.06
388.263	87.06
388.488	88.06
388.713	86.06
388.938	82.06
389.163	78.06
389.387	86.06
389.612	97.06
389.837	99.06
390.062	101.06
390.287	89.06
390.512	112.06
390.736	108.06
390.961	87.06
391.186	102.06
391.411	99.06
391.636	88.06
391.86	97.06
392.085	101.06
392.31	106.06
392.534	90.06
392.759	87.06
392.984	78.06
393.208	91.06
393.433	89.06
393.658	100.06
393.882	81.06
394.107	108.06
394.331	99.06
394.556	86.06
394.78	95.06
395.005	96.06
395.229	84.06
395.454	97.06
395.678	101.06
395.903	90.06
396.127	85.06
396.352	98.06
396.576	101.06
396.801	97.06
397.025	103.06
397.249	99.06
397.474	94.06
397.698	93.06
397.922	93.06
398.147	66.06
398.371	96.06
398.595	95.06
398.82	79.06
399.044	93.06
399.268	98.06
399.492	85.06
399.717	108.06
399.941	104.06
400.165	84.06
400.389	92.06
400.613	93.06
400.837	89.06
401.062	109.06
401.286	87.06
401.51	92.06
401.734	88.06
401.958	90.06
402.182	93.06
402.406	96.06
402.63	92.06
402.854	89.06
403.078	88.06
403.302	96.06
403.526	108.06
403.75	82.06
403.974	89.06
404.198	90.06
404.422	96.06
404.645	80.06
404.869	94.06
405.093	92.06
405.317	112.06
405.541	94.06
405.765	94.06
405.988	114.06
406.212	100.06
406.436	91.06
406.66	98.06
406.883	95.06
407.107	90.06
407.331	93.06
407.555	88.06
407.778	81.06
408.002	96.06
408.226	91.06
408.449	102.06
408.673	109.06
408.896	101.06
409.12	91.06
409.344	94.06
409.567	99.06
409.791	95.06
410.014	114.06
410.238	107.06
410.461	91.06
410.685	92.06
410.908	109.06
411.132	112.06
411.355	102.06
411.578	92.06
411.802	117.06
412.025	110.06
412.249	79.06
412.472	99.06
412.695	87.06
412.919	93.06
413.142	98.06
413.365	107.06
413.589	92.06
413.812	89.06
414.035	110.06
414.258	107.06
414.482	101.06
414.705	92.06
414.928	90.06
415.151	110.06
415.374	107.06
415.597	84.06
415.821	93.06
416.044	99.06
416.267	103.06
416.49	109.06
416.713	120.06
416.936	102.06
417.159	116.06
417.382	106.06
417.605	100.06
417.828	95.06
418.051	98.06
418.274	110.06
418.497	99.06
418.72	105.06
418.943	102.06
419.166	115.06
419.389	103.06
419.611	118.06
419.834	102.06
420.057	115.06
420.28	108.06
420.503	105.06
420.726	112.06
420.948	101.06
421.171	110.06
421.394	106.06
421.617	101.06
421.839	113.06
422.062	118.06
422.285	106.06
422.507	104.06
422.73	116.06
422.953	107.06
423.175	106.06
423.398	99.06
423.621	111.06
423.843	102.06
424.066	101.06
424.288	108.06
424.511	114.06
424.733	113.06
424.956	110.06
425.178	113.06
425.401	111.06
425.623	105.06
425.846	103.06
426.068	106.06
426.291	99.06
426.513	93.06
426.735	110.06
426.958	114.06
427.18	103.06
427.402	93.06
427.625	118.06
427.847	103.06
428.069	92.06
428.292	104.06
428.514	101.06
428.736	103.06
428.958	112.06
429.181	99.06
429.403	85.06
429.625	107.06
429.847	98.06
430.069	110.06
430.292	101.06
430.514	117.06
430.736	105.06
430.958	100.06
431.18	112.06
431.402	118.06
431.624	96.06
431.846	100.06
432.068	76.06
432.29	94.06
432.512	107.06
432.734	99.06
432.956	109.06
433.178	102.06
433.4	97.06
433.622	109.06
433.844	107.06
434.066	106.06
434.287	100.06
434.509	82.06
434.731	88.06
434.953	93.06
435.175	106.06
435.397	99.06
435.618	101.06
435.84	92.06
436.062	93.06
436.284	87.06
436.505	117.06
436.727	110.06
436.949	121.06
437.17	103.06
437.392	84.06
437.614	92.06
437.835	83.06
438.057	88.06
438.278	91.06
438.5	104.06
438.721	102.06
438.943	108.06
439.165	117.06
439.386	106.06
439.608	120.06
439.829	109.06
440.05	108.06
440.272	119.06
440.493	121.06
440.715	119.06
440.936	105.06
441.158	110.06
441.379	114.06
441.6	114.06
441.822	126.06
442.043	117.06
442.264	117.06
442.486	104.06
442.707	89.06
442.928	106.06
443.149	114.06
443.371	107.06
443.592	116.06
443.813	107.06
444.034	108.06
444.255	101.06
444.476	107.06
444.698	110.06
444.919	116.06
445.14	182.06
445.361	146.06
445.582	109.06
445.803	113.06
446.024	125.06
446.245	112.06
446.466	116.06
446.687	119.06
446.908	98.06
447.129	98.06
447.35	112.06
447.571	118.06
447.792	100.06
448.013	117.06
448.234	111.06
448.455	109.06
448.675	98.06
448.896	111.06
449.117	116.06
449.338	102.06
449.559	99.06
449.779	101.06
450	113.06
450.221	85.06
450.442	105.06
450.662	118.06
450.883	105.06
451.104	112.06
451.324	95.06
451.545	104.06
451.766	98.06
451.986	94.06
452.207	103.06
452.428	98.06
452.648	107.06
452.869	107.06
453.089	104.06
453.31	81.06
453.53	95.06
453.751	85.06
453.971	107.06
454.192	89.06
454.412	95.06
454.633	100.06
454.853	98.06
455.073	103.06
455.294	96.06
455.514	93.06
455.734	98.06
455.955	97.06
456.175	102.06
456.395	98.06
456.616	94.06
456.836	94.06
457.056	96.06
457.276	95.06
457.497	90.06
457.717	96.06
457.937	89.06
458.157	101.06
458.377	93.06
458.598	76.06
458.818	75.06
459.038	91.06
459.258	83.06
459.478	81.06
459.698	88.06
459.918	89.06
460.138	102.06
460.358	89.06
460.578	92.06
460.798	102.06
461.018	101.06
461.238	103.06
461.458	103.06
461.678	93.06
461.898	94.06
462.118	99.06
462.338	85.06
462.558	82.06
462.777	81.06
462.997	99.06
463.217	97.06
463.437	110.06
463.657	98.06
463.876	96.06
464.096	100.06
464.316	101.06
464.536	95.06
464.755	96.06
464.975	96.06
465.195	108.06
465.414	102.06
465.634	108.06
465.854	108.06
466.073	108.06
466.293	106.06
466.512	117.06
466.732	98.06
466.951	118.06
467.171	117.06
467.391	100.06
467.61	112.06
467.829	122.06
468.049	107.06
468.268	108.06
468.488	114.06
468.707	120.06
468.927	110.06
469.146	102.06
469.365	106.06
469.585	112.06
469.804	92.06
470.023	109.06
470.243	111.06
470.462	112.06
470.681	104.06
470.901	106.06
471.12	108.06
471.339	120.06
471.558	106.06
471.777	123.06
471.997	109.06
472.216	108.06
472.435	96.06
472.654	106.06
472.873	91.06
473.092	111.06
473.311	101.06
473.53	99.06
473.749	107.06
473.968	85.06
474.187	104.06
474.406	102.06
474.625	101.06
474.844	113.06
475.063	99.06
475.282	90.06
475.501	98.06
475.72	112.06
475.939	110.06
476.158	113.06
476.377	102.06
476.596	103.06
476.814	90.06
477.033	106.06
477.252	85.06
477.471	93.06
477.69	107.06
477.908	110.06
478.127	113.06
478.346	109.06
478.564	114.06
478.783	112.06
479.002	124.06
479.22	102.06
479.439	96.06
479.658	109.06
479.876	92.06
480.095	86.06
480.313	108.06
480.532	90.06
480.751	97.06
480.969	100.06
481.188	92.06
481.406	81.06
481.624	101.06
481.843	86.06
482.061	86.06
482.28	102.06
482.498	107.06
482.717	89.06
482.935	104.06
483.153	114.06
483.372	128.06
483.59	122.06
483.808	107.06
484.027	112.06
484.245	101.06
484.463	107.06
484.681	105.06
484.9	120.06
485.118	112.06
485.336	108.06
485.554	104.06
485.772	92.06
485.99	101.06
486.209	93.06
486.427	90.06
486.645	116.06
486.863	109.06
487.081	104.06
487.299	114.06
487.517	112.06
487.735	116.06
487.953	115.06
488.171	140.06
488.389	136.06
488.607	118.06
488.825	104.06
489.043	98.06
489.261	105.06
489.479	120.06
489.696	118.06
489.914	98.06
490.132	128.06
490.35	116.06
490.568	125.06
490.786	124.06
491.003	130.06
491.221	144.06
491.439	132.06
491.657	135.06
491.874	153.06
492.092	130.06
492.31	154.06
492.527	160.06
492.745	159.06
492.963	131.06
493.18	130.06
493.398	129.06
493.615	131.06
493.833	144.06
494.05	125.06
494.268	126.06
494.485	116.06
494.703	126.06
494.92	132.06
495.138	138.06
495.355	128.06
495.573	140.06
495.79	122.06
496.008	128.06
496.225	117.06
496.442	132.06
496.66	122.06
496.877	130.06
497.094	134.06
497.312	130.06
497.529	126.06
497.746	123.06
497.963	105.06
498.181	110.06
498.398	118.06
498.615	105.06
498.832	109.06
499.049	91.06
499.267	97.06
499.484	101.06
499.701	93.06
499.918	104.06
500.135	113.06
500.352	101.06
500.569	125.06
500.786	107.06
501.003	109.06
501.22	121.06
501.437	128.06
501.654	126.06
501.871	102.06
502.088	112.06
502.305	106.06
502.522	112.06
502.739	104.06
502.956	103.06
503.172	89.06
503.389	98.06
503.606	95.06
503.823	104.06
504.04	112.06
504.256	115.06
504.473	115.06
504.69	112.06
504.907	106.06
505.123	106.06
505.34	99.06
505.557	102.06
505.773	102.06
505.99	92.06
506.207	98.06
506.423	105.06
506.64	108.06
506.856	106.06
507.073	105.06
507.289	90.06
507.506	92.06
507.722	108.06
507.939	101.06
508.155	112.06
508.372	107.06
508.588	96.06
508.805	105.06
509.021	93.06
509.238	101.06
509.454	91.06
509.67	82.06
509.887	78.06
510.103	86.06
510.319	87.06
510.536	92.06
510.752	79.06
510.968	75.06
511.184	88.06
511.401	83.06
511.617	94.06
511.833	89.06
512.049	88.06
512.265	93.06
512.481	103.06
512.698	82.06
512.914	96.06
513.13	109.06
513.346	87.06
513.562	85.06
513.778	95.06
513.994	94.06
514.21	77.06
514.426	92.06
514.642	82.06
514.858	102.06
515.074	88.06
515.29	98.06
515.506	90.06
515.721	70.06
515.937	63.06
516.153	74.06
516.369	92.06
516.585	87.06
516.801	84.06
517.016	92.06
517.232	83.06
517.448	104.06
517.664	83.06
517.879	99.06
518.095	92.06
518.311	104.06
518.527	92.06
518.742	108.06
518.958	104.06
519.173	98.06
519.389	86.06
519.605	87.06
519.82	94.06
520.036	94.06
520.251	97.06
520.467	99.06
520.682	72.06
520.898	93.06
521.113	78.06
521.329	87.06
521.544	87.06
521.76	86.06
521.975	84.06
522.19	83.06
522.406	96.06
522.621	86.06
522.836	84.06
523.052	100.06
523.267	101.06
523.482	97.06
523.698	105.06
523.913	105.06
524.128	116.06
524.343	109.06
524.559	110.06
524.774	105.06
524.989	86.06
525.204	100.06
525.419	94.06
525.634	100.06
525.849	93.06
526.064	85.06
526.28	108.06
526.495	89.06
526.71	84.06
526.925	88.06
527.14	89.06
527.355	91.06
527.57	87.06
527.785	88.06
527.999	89.06
528.214	98.06
528.429	100.06
528.644	90.06
528.859	115.06
529.074	116.06
529.289	140.06
529.503	132.06
529.718	122.06
529.933	121.06
530.148	97.06
530.363	93.06
530.577	90.06
530.792	76.06
531.007	84.06
531.221	76.06
531.436	96.06
531.651	72.06
531.865	90.06
532.08	77.06
532.295	70.06
532.509	92.06
532.724	74.06
532.938	90.06
533.153	98.06
533.367	98.06
533.582	117.06
533.796	95.06
534.011	102.06
534.225	84.06
534.44	91.06
534.654	83.06
534.868	83.06
535.083	83.06
535.297	96.06
535.511	104.06
535.726	87.06
535.94	99.06
536.154	91.06
536.369	88.06
536.583	83.06
536.797	89.06
537.011	78.06
537.225	104.06
537.44	80.06
537.654	104.06
537.868	96.06
538.082	93.06
538.296	84.06
538.51	87.06
538.724	99.06
538.938	110.06
539.153	104.06
539.367	104.06
539.581	97.06
539.795	104.06
540.009	92.06
540.222	85.06
540.436	90.06
540.65	107.06
540.864	103.06
541.078	105.06
541.292	107.06
541.506	119.06
541.72	116.06
541.934	133.06
542.147	131.06
542.361	120.06
542.575	110.06
542.789	109.06
543.002	114.06
543.216	112.06
543.43	95.06
543.644	106.06
543.857	115.06
544.071	110.06
544.285	126.06
544.498	122.06
544.712	124.06
544.925	120.06
545.139	128.06
545.352	112.06
545.566	127.06
545.779	117.06
545.993	121.06
546.206	129.06
546.42	128.06
546.633	132.06
546.847	132.06
547.06	126.06
547.274	124.06
547.487	137.06
547.7	139.06
547.914	124.06
548.127	124.06
548.34	128.06
548.554	112.06
548.767	129.06
548.98	121.06
549.193	125.06
549.407	123.06
549.62	121.06
549.833	127.06
550.046	109.06
550.259	136.06
550.473	116.06
550.686	114.06
550.899	109.06
551.112	121.06
551.325	96.06
551.538	107.06
551.751	103.06
551.964	96.06
552.177	101.06
552.39	115.06
552.603	114.06
552.816	121.06
553.029	117.06
553.242	116.06
553.455	117.06
553.667	118.06
553.88	128.06
554.093	121.06
554.306	121.06
554.519	115.06
554.732	110.06
554.944	113.06
555.157	115.06
555.37	117.06
555.583	128.06
555.795	114.06
556.008	121.06
556.221	103.06
556.433	115.06
556.646	102.06
556.859	109.06
557.071	114.06
557.284	108.06
557.496	114.06
557.709	124.06
557.921	100.06
558.134	124.06
558.346	128.06
558.559	108.06
558.771	114.06
558.984	125.06
559.196	114.06
559.409	106.06
559.621	124.06
559.833	99.06
560.046	85.06
560.258	110.06
560.47	118.06
560.683	132.06
560.895	109.06
561.107	105.06
561.32	109.06
561.532	106.06
561.744	109.06
561.956	115.06
562.168	112.06
562.381	117.06
562.593	110.06
562.805	89.06
563.017	90.06
563.229	101.06
563.441	113.06
563.653	109.06
563.865	114.06
564.077	116.06
564.289	100.06
564.501	93.06
564.713	107.06
564.925	97.06
565.137	105.06
565.349	103.06
565.561	116.06
565.773	100.06
565.985	96.06
566.197	115.06
566.408	97.06
566.62	95.06
566.832	107.06
567.044	95.06
567.255	111.06
567.467	106.06
567.679	90.06
567.891	88.06
568.102	81.06
568.314	97.06
568.526	86.06
568.737	85.06
568.949	71.06
569.161	86.06
569.372	87.06
569.584	85.06
569.795	93.06
570.007	91.06
570.218	84.06
570.43	94.06
570.641	88.06
570.853	87.06
571.064	94.06
571.276	97.06
571.487	96.06
571.698	98.06
571.91	98.06
572.121	85.06
572.333	73.06
572.544	80.06
572.755	102.06
572.966	92.06
573.178	85.06
573.389	85.06
573.6	83.06
573.811	93.06
574.023	81.06
574.234	95.06
574.445	92.06
574.656	85.06
574.867	88.06
575.078	86.06
575.289	88.06
575.501	84.06
575.712	92.06
575.923	96.06
576.134	83.06
576.345	93.06
576.556	83.06
576.767	91.06
576.978	88.06
577.188	81.06
577.399	86.06
577.61	89.06
577.821	96.06
578.032	79.06
578.243	92.06
578.454	80.06
578.665	87.06
578.875	84.06
579.086	96.06
579.297	87.06
579.508	80.06
579.718	68.06
579.929	85.06
580.14	72.06
580.35	76.06
580.561	97.06
580.772	91.06
580.982	85.06
581.193	86.06
581.403	83.06
581.614	92.06
581.825	96.06
582.035	80.06
582.246	95.06
582.456	100.06
582.667	85.06
582.877	101.06
583.087	66.06
583.298	85.06
583.508	98.06
583.719	84.06
583.929	102.06
584.139	99.06
584.35	86.06
584.56	94.06
584.77	97.06
584.981	89.06
585.191	89.06
585.401	95.06
585.611	71.06
585.821	90.06
586.032	78.06
586.242	82.06
586.452	89.06
586.662	94.06
586.872	80.06
587.082	71.06
587.292	88.06
587.502	84.06
587.713	76.06
587.923	94.06
588.133	93.06
588.343	85.06
588.553	77.06
588.762	80.06
588.972	84.06
589.182	88.06
589.392	84.06
589.602	95.06
589.812	84.06
590.022	85.06
590.232	88.06
590.441	87.06
590.651	86.06
590.861	76.06
591.071	86.06
591.281	86.06
591.49	86.06
591.7	102.06
591.91	91.06
592.119	103.06
592.329	89.06
592.539	91.06
592.748	82.06
592.958	72.06
593.167	93.06
593.377	83.06
593.587	96.06
593.796	83.06
594.006	85.06
594.215	81.06
594.424	78.06
594.634	109.06
594.843	94.06
595.053	100.06
595.262	92.06
595.472	93.06
595.681	88.06
595.89	83.06
596.1	90.06
596.309	98.06
596.518	92.06
596.727	85.06
596.937	79.06
597.146	92.06
597.355	90.06
597.564	90.06
597.774	81.06
597.983	90.06
598.192	90.06
598.401	100.06
598.61	84.06
598.819	68.06
599.028	91.06
599.237	98.06
599.446	100.06
599.655	86.06
599.864	90.06
600.073	78.06
600.282	73.06
600.491	80.06
600.7	100.06
600.909	88.06
601.118	93.06
601.327	104.06
601.536	87.06
601.745	98.06
601.953	85.06
602.162	96.06
602.371	96.06
602.58	100.06
602.789	94.06
602.997	95.06
603.206	108.06
603.415	92.06
603.623	105.06
603.832	75.06
604.041	84.06
604.249	94.06
604.458	89.06
604.666	96.06
604.875	92.06
605.084	85.06
605.292	94.06
605.501	100.06
605.709	93.06
605.918	114.06
606.126	93.06
606.334	94.06
606.543	104.06
606.751	99.06
606.96	96.06
607.168	109.06
607.376	100.06
607.585	99.06
607.793	107.06
608.001	100.06
608.21	97.06
608.418	102.06
608.626	98.06
608.834	86.06
609.043	109.06
609.251	112.06
609.459	94.06
609.667	110.06
609.875	103.06
610.083	100.06
610.291	107.06
610.499	115.06
610.707	105.06
610.916	103.06
611.124	106.06
611.332	82.06
611.54	114.06
611.748	101.06
611.955	91.06
612.163	100.06
612.371	97.06
612.579	97.06
612.787	87.06
612.995	101.06
613.203	96.06
613.411	86.06
613.618	101.06
613.826	97.06
614.034	110.06
614.242	89.06
614.449	102.06
614.657	112.06
614.865	100.06
615.072	102.06
615.28	97.06
615.488	90.06
615.695	98.06
615.903	100.06
616.111	109.06
616.318	85.06
616.526	94.06
616.733	99.06
616.941	100.06
617.148	94.06
617.356	88.06
617.563	90.06
617.771	79.06
617.978	87.06
618.185	101.06
618.393	94.06
618.6	85.06
618.807	83.06
619.015	99.06
619.222	96.06
619.429	101.06
619.637	101.06
619.844	106.06
620.051	93.06
620.258	92.06
620.466	98.06
620.673	77.06
620.88	88.06
621.087	89.06
621.294	107.06
621.501	86.06
621.708	95.06
621.915	94.06
622.122	88.06
622.329	95.06
622.536	88.06
622.743	93.06
622.95	97.06
623.157	92.06
623.364	106.06
623.571	100.06
623.778	106.06
623.985	103.06
624.192	102.06
624.399	105.06
624.606	88.06
624.812	89.06
625.019	89.06
625.226	93.06
625.433	87.06
625.639	87.06
625.846	86.06
626.053	91.06
626.259	91.06
626.466	86.06
626.673	98.06
626.879	97.06
627.086	91.06
627.293	94.06
627.499	111.06
627.706	93.06
627.912	110.06
628.119	98.06
628.325	98.06
628.532	98.06
628.738	91.06
628.945	96.06
629.151	108.06
629.357	91.06
629.564	107.06
629.77	89.06
629.976	98.06
630.183	84.06
630.389	97.06
630.595	94.06
630.802	88.06
631.008	90.06
631.214	113.06
631.42	84.06
631.627	96.06
631.833	84.06
632.039	81.06
632.245	112.06
632.451	100.06
632.657	102.06
632.863	101.06
633.069	86.06
633.275	90.06
633.481	88.06
633.688	94.06
633.893	104.06
634.099	95.06
634.305	91.06
634.511	91.06
634.717	102.06
634.923	82.06
635.129	69.06
635.335	85.06
635.541	97.06
635.747	86.06
635.952	96.06
636.158	106.06
636.364	89.06
636.57	95.06
636.775	89.06
636.981	93.06
637.187	102.06
637.392	90.06
637.598	82.06
637.804	98.06
638.009	98.06
638.215	94.06
638.421	75.06
638.626	104.06
638.832	91.06
639.037	98.06
639.243	88.06
639.448	84.06
639.654	87.06
639.859	90.06
640.065	86.06
640.27	104.06
640.475	93.06
640.681	95.06
640.886	78.06
641.091	102.06
641.297	98.06
641.502	85.06
641.707	88.06
641.913	96.06
642.118	96.06
642.323	91.06
642.528	93.06
642.733	93.06
642.939	103.06
643.144	103.06
643.349	98.06
643.554	92.06
643.759	82.06
643.964	91.06
644.169	90.06
644.374	84.06
644.579	94.06
644.784	94.06
644.989	81.06
645.194	89.06
645.399	89.06
645.604	81.06
645.809	109.06
646.014	97.06
646.219	115.06
646.423	73.06
646.628	86.06
646.833	90.06
647.038	112.06
647.243	96.06
647.447	92.06
647.652	93.06
647.857	84.06
648.062	91.06
648.266	109.06
648.471	89.06
648.676	92.06
648.88	85.06
649.085	81.06
649.289	97.06
649.494	97.06
649.698	85.06
649.903	92.06
650.107	98.06
650.312	91.06
650.516	99.06
650.721	78.06
650.925	98.06
651.13	89.06
651.334	95.06
651.539	87.06
651.743	85.06
651.947	95.06
652.152	90.06
652.356	101.06
652.56	87.06
652.764	104.06
652.969	92.06
653.173	86.06
653.377	92.06
653.581	83.06
653.785	85.06
653.99	97.06
654.194	84.06
654.398	93.06
654.602	91.06
654.806	79.06
655.01	85.06
655.214	87.06
655.418	78.06
655.622	70.06
655.826	83.06
656.03	83.06
656.234	86.06
656.438	91.06
656.642	77.06
656.846	85.06
657.049	93.06
657.253	74.06
657.457	94.06
657.661	80.06
657.865	94.06
658.068	91.06
658.272	79.06
658.476	89.06
658.68	75.06
658.883	94.06
659.087	80.06
659.291	89.06
659.494	88.06
659.698	89.06
659.901	79.06
660.105	88.06
660.309	84.06
660.512	70.06
660.716	93.06
660.919	89.06
661.123	89.06
661.326	82.06
661.53	86.06
661.733	88.06
661.936	92.06
662.14	86.06
662.343	87.06
662.546	89.06
662.75	84.06
662.953	74.06
663.156	76.06
663.36	90.06
663.563	78.06
663.766	83.06
663.969	82.06
664.173	77.06
664.376	84.06
664.579	78.06
664.782	97.06
664.985	86.06
665.188	84.06
665.391	95.06
665.594	97.06
665.797	94.06
666	76.06
666.203	88.06
666.406	84.06
666.609	83.06
666.812	89.06
667.015	74.06
667.218	98.06
667.421	94.06
667.624	92.06
667.827	79.06
668.03	90.06
668.232	81.06
668.435	86.06
668.638	73.06
668.841	82.06
669.043	76.06
669.246	88.06
669.449	74.06
669.651	70.06
669.854	85.06
670.057	72.06
670.259	75.06
670.462	89.06
670.665	87.06
670.867	83.06
671.07	88.06
671.272	90.06
671.475	89.06
671.677	91.06
671.88	86.06
672.082	88.06
672.284	78.06
672.487	96.06
672.689	84.06
672.892	76.06
