Data from Zn(NO3)2Standard.Agarose3%.GreenCap.LampEnergy5.5.E.O_HRD10591_15-00-14-767.txt Node
Date: Mon Jul 22 15:00:14 EDT 2019
User: cochatt
Spectrometer: HR+D1059
Trigger mode: 1
Integration Time (sec): 1.000000E-1
Scans to average: 1
Electric dark correction enabled: true
Nonlinearity correction enabled: false
Boxcar width: 0
XAxis mode: Wavelengths
Number of Pixels in Spectrum: 2048
>>>>>Begin Spectral Data<<<<<
223.165	-0.62
223.4	-0.62
223.635	-0.62
223.869	-16.62
224.104	-19.62
224.338	-9.62
224.573	-20.62
224.808	-16.62
225.042	2.38
225.277	-0.62
225.511	-4.62
225.746	4.38
225.98	-1.62
226.215	4.38
226.449	3.38
226.683	10.38
226.918	34.38
227.152	31.38
227.387	34.38
227.621	47.38
227.856	42.38
228.09	31.38
228.324	44.38
228.559	58.38
228.793	51.38
229.027	61.38
229.262	70.38
229.496	63.38
229.73	65.38
229.964	68.38
230.199	71.38
230.433	81.38
230.667	68.38
230.901	64.38
231.136	87.38
231.37	79.38
231.604	80.38
231.838	81.38
232.072	70.38
232.306	82.38
232.541	89.38
232.775	79.38
233.009	89.38
233.243	81.38
233.477	76.38
233.711	83.38
233.945	78.38
234.179	83.38
234.413	71.38
234.647	75.38
234.881	76.38
235.115	73.38
235.349	70.38
235.583	71.38
235.817	76.38
236.051	79.38
236.285	75.38
236.519	89.38
236.753	88.38
236.987	83.38
237.221	77.38
237.455	75.38
237.689	77.38
237.922	79.38
238.156	71.38
238.39	63.38
238.624	88.38
238.858	75.38
239.091	91.38
239.325	77.38
239.559	80.38
239.793	76.38
240.027	84.38
240.26	74.38
240.494	77.38
240.728	80.38
240.961	82.38
241.195	63.38
241.429	83.38
241.662	83.38
241.896	61.38
242.13	75.38
242.363	65.38
242.597	72.38
242.83	62.38
243.064	80.38
243.298	74.38
243.531	77.38
243.765	68.38
243.998	77.38
244.232	85.38
244.465	71.38
244.699	75.38
244.932	65.38
245.166	77.38
245.399	69.38
245.633	80.38
245.866	78.38
246.099	75.38
246.333	81.38
246.566	73.38
246.8	74.38
247.033	89.38
247.266	72.38
247.5	82.38
247.733	76.38
247.966	84.38
248.2	78.38
248.433	72.38
248.666	65.38
248.899	75.38
249.133	66.38
249.366	74.38
249.599	72.38
249.832	68.38
250.066	75.38
250.299	76.38
250.532	72.38
250.765	75.38
250.998	87.38
251.231	70.38
251.465	65.38
251.698	68.38
251.931	77.38
252.164	82.38
252.397	77.38
252.63	72.38
252.863	73.38
253.096	85.38
253.329	72.38
253.562	82.38
253.795	74.38
254.028	79.38
254.261	67.38
254.494	71.38
254.727	83.38
254.96	74.38
255.193	83.38
255.426	80.38
255.659	87.38
255.892	94.38
256.124	68.38
256.357	83.38
256.59	74.38
256.823	83.38
257.056	74.38
257.289	81.38
257.521	67.38
257.754	84.38
257.987	84.38
258.22	77.38
258.452	73.38
258.685	82.38
258.918	86.38
259.151	80.38
259.383	81.38
259.616	83.38
259.849	89.38
260.081	68.38
260.314	79.38
260.547	78.38
260.779	81.38
261.012	79.38
261.244	86.38
261.477	79.38
261.71	78.38
261.942	75.38
262.175	69.38
262.407	66.38
262.64	77.38
262.872	66.38
263.105	73.38
263.337	64.38
263.57	85.38
263.802	87.38
264.035	85.38
264.267	98.38
264.499	74.38
264.732	61.38
264.964	75.38
265.197	83.38
265.429	77.38
265.661	79.38
265.894	73.38
266.126	83.38
266.358	76.38
266.591	82.38
266.823	54.38
267.055	86.38
267.287	67.38
267.52	75.38
267.752	100.38
267.984	82.38
268.216	69.38
268.448	86.38
268.681	92.38
268.913	89.38
269.145	73.38
269.377	79.38
269.609	79.38
269.841	76.38
270.073	78.38
270.306	78.38
270.538	78.38
270.77	78.38
271.002	65.38
271.234	86.38
271.466	93.38
271.698	87.38
271.93	80.38
272.162	80.38
272.394	73.38
272.626	73.38
272.858	86.38
273.09	97.38
273.322	81.38
273.553	79.38
273.785	84.38
274.017	85.38
274.249	86.38
274.481	82.38
274.713	92.38
274.945	85.38
275.176	78.38
275.408	73.38
275.64	92.38
275.872	82.38
276.104	84.38
276.335	89.38
276.567	67.38
276.799	81.38
277.031	82.38
277.262	86.38
277.494	79.38
277.726	86.38
277.957	67.38
278.189	89.38
278.421	86.38
278.652	82.38
278.884	74.38
279.115	81.38
279.347	72.38
279.579	80.38
279.81	82.38
280.042	85.38
280.273	79.38
280.505	92.38
280.736	75.38
280.968	73.38
281.199	72.38
281.431	76.38
281.662	84.38
281.894	82.38
282.125	82.38
282.356	95.38
282.588	75.38
282.819	83.38
283.051	92.38
283.282	69.38
283.513	80.38
283.745	71.38
283.976	70.38
284.207	74.38
284.439	82.38
284.67	84.38
284.901	93.38
285.132	86.38
285.364	78.38
285.595	77.38
285.826	78.38
286.057	79.38
286.288	77.38
286.52	81.38
286.751	87.38
286.982	98.38
287.213	81.38
287.444	82.38
287.675	81.38
287.906	94.38
288.138	84.38
288.369	88.38
288.6	87.38
288.831	91.38
289.062	84.38
289.293	79.38
289.524	78.38
289.755	74.38
289.986	73.38
290.217	68.38
290.448	74.38
290.679	96.38
290.91	87.38
291.141	90.38
291.371	87.38
291.602	82.38
291.833	73.38
292.064	64.38
292.295	76.38
292.526	85.38
292.757	85.38
292.987	92.38
293.218	79.38
293.449	84.38
293.68	76.38
293.91	84.38
294.141	76.38
294.372	90.38
294.603	89.38
294.833	80.38
295.064	91.38
295.295	86.38
295.525	79.38
295.756	88.38
295.987	74.38
296.217	95.38
296.448	84.38
296.679	73.38
296.909	90.38
297.14	95.38
297.37	96.38
297.601	79.38
297.831	66.38
298.062	88.38
298.292	81.38
298.523	83.38
298.753	84.38
298.984	76.38
299.214	83.38
299.445	64.38
299.675	65.38
299.905	89.38
300.136	79.38
300.366	76.38
300.597	107.38
300.827	72.38
301.057	83.38
301.288	87.38
301.518	73.38
301.748	69.38
301.979	73.38
302.209	86.38
302.439	84.38
302.669	80.38
302.9	76.38
303.13	68.38
303.36	84.38
303.59	81.38
303.82	83.38
304.051	88.38
304.281	80.38
304.511	86.38
304.741	85.38
304.971	73.38
305.201	88.38
305.431	91.38
305.661	75.38
305.891	81.38
306.121	85.38
306.352	80.38
306.582	76.38
306.812	92.38
307.042	89.38
307.272	78.38
307.502	81.38
307.731	88.38
307.961	86.38
308.191	82.38
308.421	89.38
308.651	66.38
308.881	87.38
309.111	73.38
309.341	70.38
309.571	79.38
309.8	89.38
310.03	76.38
310.26	94.38
310.49	89.38
310.72	76.38
310.949	91.38
311.179	80.38
311.409	94.38
311.639	78.38
311.868	79.38
312.098	91.38
312.328	75.38
312.557	86.38
312.787	82.38
313.017	79.38
313.246	84.38
313.476	93.38
313.706	84.38
313.935	94.38
314.165	89.38
314.394	88.38
314.624	68.38
314.853	71.38
315.083	60.38
315.312	80.38
315.542	84.38
315.771	73.38
316.001	88.38
316.23	86.38
316.46	89.38
316.689	87.38
316.919	67.38
317.148	62.38
317.377	95.38
317.607	81.38
317.836	82.38
318.065	72.38
318.295	70.38
318.524	86.38
318.753	90.38
318.983	83.38
319.212	84.38
319.441	88.38
319.67	89.38
319.9	79.38
320.129	84.38
320.358	90.38
320.587	68.38
320.816	84.38
321.046	89.38
321.275	96.38
321.504	90.38
321.733	84.38
321.962	78.38
322.191	83.38
322.42	76.38
322.649	89.38
322.878	85.38
323.108	99.38
323.337	86.38
323.566	84.38
323.795	79.38
324.024	79.38
324.253	92.38
324.482	83.38
324.71	75.38
324.939	80.38
325.168	86.38
325.397	91.38
325.626	84.38
325.855	94.38
326.084	82.38
326.313	99.38
326.542	88.38
326.77	75.38
326.999	80.38
327.228	77.38
327.457	79.38
327.686	87.38
327.914	84.38
328.143	74.38
328.372	90.38
328.6	88.38
328.829	89.38
329.058	86.38
329.287	70.38
329.515	74.38
329.744	73.38
329.972	101.38
330.201	82.38
330.43	91.38
330.658	77.38
330.887	91.38
331.115	71.38
331.344	84.38
331.572	98.38
331.801	83.38
332.03	80.38
332.258	91.38
332.486	90.38
332.715	93.38
332.943	80.38
333.172	82.38
333.4	86.38
333.629	90.38
333.857	100.38
334.085	92.38
334.314	94.38
334.542	86.38
334.771	88.38
334.999	77.38
335.227	71.38
335.455	90.38
335.684	82.38
335.912	79.38
336.14	85.38
336.369	81.38
336.597	87.38
336.825	81.38
337.053	59.38
337.281	81.38
337.51	91.38
337.738	102.38
337.966	97.38
338.194	107.38
338.422	83.38
338.65	84.38
338.878	87.38
339.106	70.38
339.334	94.38
339.562	81.38
339.79	62.38
340.018	82.38
340.246	82.38
340.474	95.38
340.702	85.38
340.93	82.38
341.158	91.38
341.386	82.38
341.614	75.38
341.842	78.38
342.07	82.38
342.298	89.38
342.526	77.38
342.754	80.38
342.981	84.38
343.209	79.38
343.437	72.38
343.665	85.38
343.893	83.38
344.12	83.38
344.348	91.38
344.576	94.38
344.804	76.38
345.031	93.38
345.259	77.38
345.487	86.38
345.714	88.38
345.942	80.38
346.17	71.38
346.397	83.38
346.625	69.38
346.853	82.38
347.08	87.38
347.308	80.38
347.535	80.38
347.763	86.38
347.99	75.38
348.218	79.38
348.445	72.38
348.673	71.38
348.9	86.38
349.128	81.38
349.355	76.38
349.583	96.38
349.81	92.38
350.037	90.38
350.265	68.38
350.492	90.38
350.72	72.38
350.947	90.38
351.174	78.38
351.402	87.38
351.629	73.38
351.856	75.38
352.083	68.38
352.311	81.38
352.538	76.38
352.765	70.38
352.992	86.38
353.22	78.38
353.447	79.38
353.674	77.38
353.901	82.38
354.128	80.38
354.355	89.38
354.583	80.38
354.81	83.38
355.037	69.38
355.264	90.38
355.491	80.38
355.718	101.38
355.945	86.38
356.172	80.38
356.399	75.38
356.626	81.38
356.853	82.38
357.08	90.38
357.307	82.38
357.534	82.38
357.761	67.38
357.988	82.38
358.215	92.38
358.441	88.38
358.668	75.38
358.895	82.38
359.122	76.38
359.349	74.38
359.576	83.38
359.802	91.38
360.029	79.38
360.256	89.38
360.483	87.38
360.709	91.38
360.936	83.38
361.163	81.38
361.39	92.38
361.616	84.38
361.843	84.38
362.07	85.38
362.296	84.38
362.523	91.38
362.749	89.38
362.976	89.38
363.203	90.38
363.429	76.38
363.656	79.38
363.882	75.38
364.109	91.38
364.335	85.38
364.562	76.38
364.788	84.38
365.015	68.38
365.241	82.38
365.468	81.38
365.694	81.38
365.92	82.38
366.147	81.38
366.373	94.38
366.599	86.38
366.826	80.38
367.052	78.38
367.278	91.38
367.505	92.38
367.731	72.38
367.957	78.38
368.184	79.38
368.41	87.38
368.636	83.38
368.862	85.38
369.089	76.38
369.315	79.38
369.541	81.38
369.767	87.38
369.993	77.38
370.219	88.38
370.445	76.38
370.672	82.38
370.898	77.38
371.124	64.38
371.35	79.38
371.576	77.38
371.802	76.38
372.028	88.38
372.254	83.38
372.48	91.38
372.706	85.38
372.932	88.38
373.158	91.38
373.384	89.38
373.61	81.38
373.835	85.38
374.061	81.38
374.287	69.38
374.513	85.38
374.739	84.38
374.965	86.38
375.191	82.38
375.416	75.38
375.642	80.38
375.868	82.38
376.094	95.38
376.319	76.38
376.545	82.38
376.771	82.38
376.997	86.38
377.222	79.38
377.448	79.38
377.674	82.38
377.899	74.38
378.125	84.38
378.35	72.38
378.576	70.38
378.802	83.38
379.027	70.38
379.253	81.38
379.478	80.38
379.704	82.38
379.929	82.38
380.155	82.38
380.38	89.38
380.606	75.38
380.831	82.38
381.057	88.38
381.282	85.38
381.507	76.38
381.733	90.38
381.958	79.38
382.184	73.38
382.409	84.38
382.634	82.38
382.86	77.38
383.085	89.38
383.31	75.38
383.535	80.38
383.761	71.38
383.986	70.38
384.211	75.38
384.436	78.38
384.662	75.38
384.887	78.38
385.112	79.38
385.337	90.38
385.562	73.38
385.787	77.38
386.013	90.38
386.238	90.38
386.463	73.38
386.688	82.38
386.913	72.38
387.138	74.38
387.363	76.38
387.588	88.38
387.813	86.38
388.038	74.38
388.263	93.38
388.488	82.38
388.713	84.38
388.938	75.38
389.163	98.38
389.387	83.38
389.612	82.38
389.837	87.38
390.062	86.38
390.287	90.38
390.512	82.38
390.736	75.38
390.961	102.38
391.186	89.38
391.411	88.38
391.636	78.38
391.86	93.38
392.085	68.38
392.31	88.38
392.534	95.38
392.759	87.38
392.984	74.38
393.208	82.38
393.433	84.38
393.658	80.38
393.882	87.38
394.107	79.38
394.331	75.38
394.556	74.38
394.78	83.38
395.005	80.38
395.229	70.38
395.454	79.38
395.678	79.38
395.903	78.38
396.127	86.38
396.352	79.38
396.576	85.38
396.801	79.38
397.025	79.38
397.249	85.38
397.474	94.38
397.698	92.38
397.922	83.38
398.147	80.38
398.371	92.38
398.595	95.38
398.82	89.38
399.044	86.38
399.268	91.38
399.492	90.38
399.717	84.38
399.941	79.38
400.165	71.38
400.389	74.38
400.613	90.38
400.837	85.38
401.062	80.38
401.286	80.38
401.51	88.38
401.734	91.38
401.958	84.38
402.182	103.38
402.406	88.38
402.63	77.38
402.854	94.38
403.078	75.38
403.302	82.38
403.526	76.38
403.75	76.38
403.974	84.38
404.198	84.38
404.422	81.38
404.645	74.38
404.869	86.38
405.093	87.38
405.317	80.38
405.541	79.38
405.765	81.38
405.988	91.38
406.212	86.38
406.436	86.38
406.66	82.38
406.883	72.38
407.107	84.38
407.331	69.38
407.555	89.38
407.778	94.38
408.002	74.38
408.226	72.38
408.449	86.38
408.673	79.38
408.896	89.38
409.12	78.38
409.344	83.38
409.567	79.38
409.791	79.38
410.014	73.38
410.238	74.38
410.461	82.38
410.685	86.38
410.908	87.38
411.132	91.38
411.355	76.38
411.578	87.38
411.802	77.38
412.025	92.38
412.249	90.38
412.472	83.38
412.695	90.38
412.919	74.38
413.142	78.38
413.365	84.38
413.589	74.38
413.812	84.38
414.035	83.38
414.258	77.38
414.482	98.38
414.705	86.38
414.928	87.38
415.151	83.38
415.374	74.38
415.597	83.38
415.821	80.38
416.044	81.38
416.267	96.38
416.49	83.38
416.713	70.38
416.936	77.38
417.159	80.38
417.382	70.38
417.605	84.38
417.828	100.38
418.051	90.38
418.274	83.38
418.497	77.38
418.72	79.38
418.943	81.38
419.166	78.38
419.389	81.38
419.611	70.38
419.834	73.38
420.057	80.38
420.28	88.38
420.503	79.38
420.726	75.38
420.948	80.38
421.171	85.38
421.394	82.38
421.617	79.38
421.839	75.38
422.062	76.38
422.285	92.38
422.507	91.38
422.73	92.38
422.953	75.38
423.175	91.38
423.398	89.38
423.621	72.38
423.843	90.38
424.066	76.38
424.288	83.38
424.511	83.38
424.733	76.38
424.956	77.38
425.178	78.38
425.401	73.38
425.623	67.38
425.846	85.38
426.068	79.38
426.291	90.38
426.513	91.38
426.735	87.38
426.958	76.38
427.18	75.38
427.402	78.38
427.625	85.38
427.847	79.38
428.069	82.38
428.292	82.38
428.514	82.38
428.736	79.38
428.958	64.38
429.181	92.38
429.403	77.38
429.625	72.38
429.847	87.38
430.069	73.38
430.292	84.38
430.514	82.38
430.736	70.38
430.958	87.38
431.18	86.38
431.402	68.38
431.624	67.38
431.846	67.38
432.068	83.38
432.29	72.38
432.512	100.38
432.734	97.38
432.956	80.38
433.178	93.38
433.4	79.38
433.622	84.38
433.844	92.38
434.066	83.38
434.287	73.38
434.509	62.38
434.731	82.38
434.953	64.38
435.175	81.38
435.397	88.38
435.618	88.38
435.84	74.38
436.062	78.38
436.284	80.38
436.505	70.38
436.727	72.38
436.949	72.38
437.17	87.38
437.392	75.38
437.614	85.38
437.835	80.38
438.057	84.38
438.278	72.38
438.5	79.38
438.721	70.38
438.943	79.38
439.165	83.38
439.386	73.38
439.608	77.38
439.829	88.38
440.05	83.38
440.272	81.38
440.493	83.38
440.715	79.38
440.936	77.38
441.158	87.38
441.379	98.38
441.6	88.38
441.822	82.38
442.043	77.38
442.264	84.38
442.486	80.38
442.707	78.38
442.928	83.38
443.149	77.38
443.371	88.38
443.592	88.38
443.813	78.38
444.034	82.38
444.255	76.38
444.476	85.38
444.698	90.38
444.919	75.38
445.14	170.38
445.361	130.38
445.582	91.38
445.803	75.38
446.024	72.38
446.245	85.38
446.466	102.38
446.687	92.38
446.908	75.38
447.129	75.38
447.35	71.38
447.571	76.38
447.792	84.38
448.013	82.38
448.234	74.38
448.455	73.38
448.675	72.38
448.896	82.38
449.117	73.38
449.338	68.38
449.559	103.38
449.779	82.38
450	84.38
450.221	83.38
450.442	90.38
450.662	89.38
450.883	71.38
451.104	84.38
451.324	91.38
451.545	76.38
451.766	71.38
451.986	79.38
452.207	91.38
452.428	102.38
452.648	78.38
452.869	81.38
453.089	96.38
453.31	78.38
453.53	72.38
453.751	81.38
453.971	78.38
454.192	81.38
454.412	89.38
454.633	88.38
454.853	80.38
455.073	71.38
455.294	82.38
455.514	90.38
455.734	75.38
455.955	90.38
456.175	80.38
456.395	78.38
456.616	88.38
456.836	74.38
457.056	75.38
457.276	80.38
457.497	94.38
457.717	79.38
457.937	80.38
458.157	83.38
458.377	72.38
458.598	84.38
458.818	71.38
459.038	70.38
459.258	86.38
459.478	59.38
459.698	70.38
459.918	83.38
460.138	88.38
460.358	80.38
460.578	76.38
460.798	73.38
461.018	73.38
461.238	79.38
461.458	78.38
461.678	83.38
461.898	98.38
462.118	70.38
462.338	84.38
462.558	83.38
462.777	87.38
462.997	84.38
463.217	83.38
463.437	90.38
463.657	72.38
463.876	76.38
464.096	79.38
464.316	98.38
464.536	94.38
464.755	79.38
464.975	83.38
465.195	98.38
465.414	83.38
465.634	78.38
465.854	71.38
466.073	98.38
466.293	88.38
466.512	87.38
466.732	84.38
466.951	81.38
467.171	84.38
467.391	91.38
467.61	73.38
467.829	67.38
468.049	84.38
468.268	83.38
468.488	78.38
468.707	92.38
468.927	77.38
469.146	72.38
469.365	83.38
469.585	80.38
469.804	83.38
470.023	74.38
470.243	74.38
470.462	79.38
470.681	82.38
470.901	80.38
471.12	89.38
471.339	80.38
471.558	78.38
471.777	92.38
471.997	81.38
472.216	79.38
472.435	79.38
472.654	86.38
472.873	77.38
473.092	75.38
473.311	87.38
473.53	84.38
473.749	67.38
473.968	88.38
474.187	85.38
474.406	76.38
474.625	88.38
474.844	88.38
475.063	77.38
475.282	94.38
475.501	93.38
475.72	84.38
475.939	90.38
476.158	76.38
476.377	95.38
476.596	88.38
476.814	79.38
477.033	86.38
477.252	78.38
477.471	85.38
477.69	87.38
477.908	84.38
478.127	71.38
478.346	96.38
478.564	87.38
478.783	77.38
479.002	95.38
479.22	96.38
479.439	81.38
479.658	72.38
479.876	74.38
480.095	79.38
480.313	75.38
480.532	74.38
480.751	78.38
480.969	63.38
481.188	85.38
481.406	77.38
481.624	84.38
481.843	91.38
482.061	76.38
482.28	70.38
482.498	69.38
482.717	79.38
482.935	74.38
483.153	79.38
483.372	75.38
483.59	84.38
483.808	78.38
484.027	75.38
484.245	78.38
484.463	76.38
484.681	96.38
484.9	87.38
485.118	86.38
485.336	89.38
485.554	78.38
485.772	86.38
485.99	85.38
486.209	79.38
486.427	77.38
486.645	71.38
486.863	84.38
487.081	84.38
487.299	75.38
487.517	80.38
487.735	86.38
487.953	84.38
488.171	78.38
488.389	97.38
488.607	80.38
488.825	80.38
489.043	82.38
489.261	80.38
489.479	85.38
489.696	87.38
489.914	78.38
490.132	80.38
490.35	86.38
490.568	69.38
490.786	85.38
491.003	99.38
491.221	86.38
491.439	91.38
491.657	82.38
491.874	86.38
492.092	89.38
492.31	102.38
492.527	84.38
492.745	104.38
492.963	85.38
493.18	74.38
493.398	85.38
493.615	81.38
493.833	81.38
494.05	77.38
494.268	88.38
494.485	82.38
494.703	78.38
494.92	86.38
495.138	88.38
495.355	76.38
495.573	92.38
495.79	90.38
496.008	83.38
496.225	88.38
496.442	76.38
496.66	82.38
496.877	76.38
497.094	95.38
497.312	71.38
497.529	84.38
497.746	90.38
497.963	71.38
498.181	82.38
498.398	83.38
498.615	83.38
498.832	84.38
499.049	79.38
499.267	84.38
499.484	86.38
499.701	87.38
499.918	88.38
500.135	83.38
500.352	84.38
500.569	83.38
500.786	88.38
501.003	71.38
501.22	70.38
501.437	88.38
501.654	80.38
501.871	78.38
502.088	85.38
502.305	80.38
502.522	83.38
502.739	68.38
502.956	80.38
503.172	61.38
503.389	82.38
503.606	71.38
503.823	82.38
504.04	82.38
504.256	106.38
504.473	60.38
504.69	81.38
504.907	93.38
505.123	81.38
505.34	86.38
505.557	100.38
505.773	80.38
505.99	76.38
506.207	87.38
506.423	86.38
506.64	75.38
506.856	77.38
507.073	72.38
507.289	88.38
507.506	82.38
507.722	71.38
507.939	81.38
508.155	94.38
508.372	86.38
508.588	88.38
508.805	77.38
509.021	87.38
509.238	96.38
509.454	101.38
509.67	68.38
509.887	98.38
510.103	88.38
510.319	74.38
510.536	75.38
510.752	75.38
510.968	95.38
511.184	95.38
511.401	87.38
511.617	91.38
511.833	98.38
512.049	96.38
512.265	82.38
512.481	81.38
512.698	78.38
512.914	79.38
513.13	75.38
513.346	79.38
513.562	67.38
513.778	85.38
513.994	78.38
514.21	88.38
514.426	89.38
514.642	80.38
514.858	74.38
515.074	83.38
515.29	84.38
515.506	81.38
515.721	85.38
515.937	84.38
516.153	82.38
516.369	75.38
516.585	79.38
516.801	79.38
517.016	84.38
517.232	69.38
517.448	80.38
517.664	79.38
517.879	82.38
518.095	76.38
518.311	85.38
518.527	96.38
518.742	81.38
518.958	80.38
519.173	80.38
519.389	76.38
519.605	94.38
519.82	78.38
520.036	92.38
520.251	67.38
520.467	80.38
520.682	72.38
520.898	90.38
521.113	91.38
521.329	80.38
521.544	74.38
521.76	86.38
521.975	81.38
522.19	78.38
522.406	75.38
522.621	71.38
522.836	81.38
523.052	75.38
523.267	86.38
523.482	90.38
523.698	81.38
523.913	99.38
524.128	85.38
524.343	84.38
524.559	82.38
524.774	78.38
524.989	84.38
525.204	79.38
525.419	78.38
525.634	82.38
525.849	79.38
526.064	88.38
526.28	82.38
526.495	80.38
526.71	85.38
526.925	89.38
527.14	91.38
527.355	102.38
527.57	98.38
527.785	102.38
527.999	85.38
528.214	88.38
528.429	103.38
528.644	77.38
528.859	87.38
529.074	91.38
529.289	96.38
529.503	85.38
529.718	87.38
529.933	86.38
530.148	81.38
530.363	74.38
530.577	85.38
530.792	87.38
531.007	89.38
531.221	84.38
531.436	74.38
531.651	82.38
531.865	71.38
532.08	81.38
532.295	78.38
532.509	92.38
532.724	89.38
532.938	98.38
533.153	98.38
533.367	77.38
533.582	80.38
533.796	64.38
534.011	90.38
534.225	72.38
534.44	76.38
534.654	72.38
534.868	87.38
535.083	78.38
535.297	79.38
535.511	72.38
535.726	79.38
535.94	84.38
536.154	87.38
536.369	74.38
536.583	85.38
536.797	72.38
537.011	64.38
537.225	64.38
537.44	87.38
537.654	84.38
537.868	80.38
538.082	80.38
538.296	72.38
538.51	79.38
538.724	86.38
538.938	82.38
539.153	79.38
539.367	96.38
539.581	79.38
539.795	78.38
540.009	70.38
540.222	85.38
540.436	94.38
540.65	74.38
540.864	75.38
541.078	85.38
541.292	89.38
541.506	76.38
541.72	84.38
541.934	90.38
542.147	79.38
542.361	83.38
542.575	83.38
542.789	77.38
543.002	88.38
543.216	88.38
543.43	76.38
543.644	89.38
543.857	87.38
544.071	81.38
544.285	94.38
544.498	97.38
544.712	83.38
544.925	91.38
545.139	84.38
545.352	68.38
545.566	87.38
545.779	104.38
545.993	95.38
546.206	80.38
546.42	75.38
546.633	70.38
546.847	85.38
547.06	79.38
547.274	91.38
547.487	77.38
547.7	79.38
547.914	88.38
548.127	74.38
548.34	80.38
548.554	74.38
548.767	84.38
548.98	83.38
549.193	72.38
549.407	80.38
549.62	100.38
549.833	88.38
550.046	85.38
550.259	90.38
550.473	95.38
550.686	84.38
550.899	92.38
551.112	85.38
551.325	94.38
551.538	94.38
551.751	81.38
551.964	76.38
552.177	87.38
552.39	73.38
552.603	90.38
552.816	82.38
553.029	91.38
553.242	87.38
553.455	94.38
553.667	88.38
553.88	84.38
554.093	84.38
554.306	79.38
554.519	88.38
554.732	80.38
554.944	91.38
555.157	89.38
555.37	79.38
555.583	75.38
555.795	96.38
556.008	86.38
556.221	85.38
556.433	81.38
556.646	95.38
556.859	83.38
557.071	82.38
557.284	84.38
557.496	87.38
557.709	78.38
557.921	111.38
558.134	94.38
558.346	92.38
558.559	79.38
558.771	77.38
558.984	81.38
559.196	98.38
559.409	86.38
559.621	74.38
559.833	73.38
560.046	76.38
560.258	71.38
560.47	86.38
560.683	86.38
560.895	90.38
561.107	82.38
561.32	87.38
561.532	77.38
561.744	75.38
561.956	86.38
562.168	88.38
562.381	99.38
562.593	83.38
562.805	81.38
563.017	78.38
563.229	84.38
563.441	88.38
563.653	99.38
563.865	91.38
564.077	73.38
564.289	89.38
564.501	77.38
564.713	97.38
564.925	87.38
565.137	90.38
565.349	92.38
565.561	100.38
565.773	79.38
565.985	84.38
566.197	97.38
566.408	98.38
566.62	103.38
566.832	92.38
567.044	84.38
567.255	91.38
567.467	86.38
567.679	79.38
567.891	79.38
568.102	81.38
568.314	87.38
568.526	84.38
568.737	82.38
568.949	81.38
569.161	69.38
569.372	88.38
569.584	90.38
569.795	99.38
570.007	85.38
570.218	69.38
570.43	76.38
570.641	86.38
570.853	81.38
571.064	82.38
571.276	91.38
571.487	77.38
571.698	78.38
571.91	78.38
572.121	87.38
572.333	73.38
572.544	104.38
572.755	80.38
572.966	91.38
573.178	80.38
573.389	96.38
573.6	72.38
573.811	98.38
574.023	78.38
574.234	81.38
574.445	82.38
574.656	74.38
574.867	94.38
575.078	77.38
575.289	79.38
575.501	83.38
575.712	72.38
575.923	83.38
576.134	82.38
576.345	86.38
576.556	89.38
576.767	86.38
576.978	88.38
577.188	79.38
577.399	77.38
577.61	80.38
577.821	86.38
578.032	72.38
578.243	89.38
578.454	99.38
578.665	80.38
578.875	84.38
579.086	82.38
579.297	74.38
579.508	84.38
579.718	99.38
579.929	86.38
580.14	97.38
580.35	85.38
580.561	87.38
580.772	82.38
580.982	82.38
581.193	69.38
581.403	80.38
581.614	87.38
581.825	63.38
582.035	79.38
582.246	91.38
582.456	81.38
582.667	93.38
582.877	84.38
583.087	81.38
583.298	80.38
583.508	70.38
583.719	74.38
583.929	76.38
584.139	96.38
584.35	82.38
584.56	89.38
584.77	80.38
584.981	88.38
585.191	75.38
585.401	71.38
585.611	97.38
585.821	91.38
586.032	91.38
586.242	85.38
586.452	107.38
586.662	89.38
586.872	80.38
587.082	76.38
587.292	84.38
587.502	83.38
587.713	86.38
587.923	86.38
588.133	75.38
588.343	92.38
588.553	74.38
588.762	81.38
588.972	94.38
589.182	72.38
589.392	85.38
589.602	82.38
589.812	67.38
590.022	85.38
590.232	71.38
590.441	85.38
590.651	79.38
590.861	79.38
591.071	77.38
591.281	89.38
591.49	80.38
591.7	81.38
591.91	88.38
592.119	87.38
592.329	88.38
592.539	81.38
592.748	94.38
592.958	87.38
593.167	79.38
593.377	68.38
593.587	79.38
593.796	84.38
594.006	85.38
594.215	91.38
594.424	87.38
594.634	78.38
594.843	86.38
595.053	90.38
595.262	82.38
595.472	90.38
595.681	75.38
595.89	79.38
596.1	81.38
596.309	80.38
596.518	88.38
596.727	91.38
596.937	98.38
597.146	93.38
597.355	81.38
597.564	91.38
597.774	88.38
597.983	95.38
598.192	82.38
598.401	90.38
598.61	79.38
598.819	107.38
599.028	93.38
599.237	77.38
599.446	94.38
599.655	87.38
599.864	83.38
600.073	89.38
600.282	81.38
600.491	87.38
600.7	84.38
600.909	83.38
601.118	84.38
601.327	85.38
601.536	75.38
601.745	97.38
601.953	80.38
602.162	66.38
602.371	79.38
602.58	85.38
602.789	77.38
602.997	68.38
603.206	90.38
603.415	87.38
603.623	92.38
603.832	77.38
604.041	72.38
604.249	78.38
604.458	82.38
604.666	80.38
604.875	89.38
605.084	90.38
605.292	84.38
605.501	94.38
605.709	90.38
605.918	82.38
606.126	90.38
606.334	82.38
606.543	85.38
606.751	90.38
606.96	86.38
607.168	77.38
607.376	87.38
607.585	80.38
607.793	79.38
608.001	79.38
608.21	90.38
608.418	81.38
608.626	94.38
608.834	86.38
609.043	75.38
609.251	83.38
609.459	85.38
609.667	82.38
609.875	85.38
610.083	83.38
610.291	90.38
610.499	89.38
610.707	89.38
610.916	84.38
611.124	74.38
611.332	90.38
611.54	92.38
611.748	84.38
611.955	83.38
612.163	77.38
612.371	92.38
612.579	82.38
612.787	83.38
612.995	73.38
613.203	86.38
613.411	84.38
613.618	73.38
613.826	88.38
614.034	82.38
614.242	88.38
614.449	81.38
614.657	86.38
614.865	79.38
615.072	78.38
615.28	87.38
615.488	83.38
615.695	102.38
615.903	77.38
616.111	73.38
616.318	74.38
616.526	81.38
616.733	82.38
616.941	84.38
617.148	85.38
617.356	87.38
617.563	78.38
617.771	82.38
617.978	76.38
618.185	67.38
618.393	68.38
618.6	90.38
618.807	83.38
619.015	87.38
619.222	79.38
619.429	96.38
619.637	81.38
619.844	77.38
620.051	72.38
620.258	78.38
620.466	67.38
620.673	85.38
620.88	85.38
621.087	83.38
621.294	83.38
621.501	90.38
621.708	76.38
621.915	101.38
622.122	102.38
622.329	79.38
622.536	99.38
622.743	100.38
622.95	75.38
623.157	71.38
623.364	83.38
623.571	89.38
623.778	86.38
623.985	75.38
624.192	84.38
624.399	79.38
624.606	87.38
624.812	70.38
625.019	75.38
625.226	87.38
625.433	89.38
625.639	76.38
625.846	88.38
626.053	91.38
626.259	83.38
626.466	92.38
626.673	91.38
626.879	90.38
627.086	90.38
627.293	79.38
627.499	97.38
627.706	88.38
627.912	89.38
628.119	79.38
628.325	88.38
628.532	90.38
628.738	69.38
628.945	89.38
629.151	89.38
629.357	90.38
629.564	91.38
629.77	87.38
629.976	75.38
630.183	82.38
630.389	78.38
630.595	83.38
630.802	82.38
631.008	70.38
631.214	80.38
631.42	76.38
631.627	84.38
631.833	85.38
632.039	89.38
632.245	88.38
632.451	91.38
632.657	86.38
632.863	72.38
633.069	99.38
633.275	74.38
633.481	77.38
633.688	74.38
633.893	78.38
634.099	90.38
634.305	79.38
634.511	74.38
634.717	104.38
634.923	80.38
635.129	93.38
635.335	91.38
635.541	82.38
635.747	86.38
635.952	78.38
636.158	72.38
636.364	76.38
636.57	81.38
636.775	82.38
636.981	89.38
637.187	89.38
637.392	82.38
637.598	82.38
637.804	78.38
638.009	74.38
638.215	86.38
638.421	76.38
638.626	100.38
638.832	85.38
639.037	82.38
639.243	82.38
639.448	88.38
639.654	87.38
639.859	78.38
640.065	70.38
640.27	87.38
640.475	92.38
640.681	86.38
640.886	72.38
641.091	77.38
641.297	81.38
641.502	88.38
641.707	74.38
641.913	79.38
642.118	80.38
642.323	79.38
642.528	83.38
642.733	88.38
642.939	95.38
643.144	94.38
643.349	97.38
643.554	92.38
643.759	79.38
643.964	78.38
644.169	71.38
644.374	85.38
644.579	88.38
644.784	95.38
644.989	101.38
645.194	62.38
645.399	77.38
645.604	80.38
645.809	81.38
646.014	81.38
646.219	87.38
646.423	86.38
646.628	81.38
646.833	96.38
647.038	93.38
647.243	87.38
647.447	62.38
647.652	82.38
647.857	90.38
648.062	84.38
648.266	87.38
648.471	82.38
648.676	82.38
648.88	91.38
649.085	82.38
649.289	91.38
649.494	86.38
649.698	76.38
649.903	90.38
650.107	80.38
650.312	99.38
650.516	90.38
650.721	76.38
650.925	84.38
651.13	82.38
651.334	87.38
651.539	84.38
651.743	71.38
651.947	91.38
652.152	82.38
652.356	79.38
652.56	85.38
652.764	69.38
652.969	69.38
653.173	89.38
653.377	85.38
653.581	82.38
653.785	86.38
653.99	82.38
654.194	75.38
654.398	84.38
654.602	76.38
654.806	67.38
655.01	78.38
655.214	85.38
655.418	81.38
655.622	72.38
655.826	95.38
656.03	88.38
656.234	81.38
656.438	85.38
656.642	90.38
656.846	75.38
657.049	78.38
657.253	86.38
657.457	89.38
657.661	88.38
657.865	83.38
658.068	82.38
658.272	72.38
658.476	67.38
658.68	83.38
658.883	90.38
659.087	71.38
659.291	84.38
659.494	85.38
659.698	69.38
659.901	97.38
660.105	92.38
660.309	88.38
660.512	85.38
660.716	92.38
660.919	73.38
661.123	82.38
661.326	78.38
661.53	79.38
661.733	87.38
661.936	87.38
662.14	64.38
662.343	66.38
662.546	65.38
662.75	83.38
662.953	100.38
663.156	86.38
663.36	83.38
663.563	73.38
663.766	88.38
663.969	97.38
664.173	86.38
664.376	87.38
664.579	89.38
664.782	96.38
664.985	74.38
665.188	76.38
665.391	99.38
665.594	93.38
665.797	90.38
666	80.38
666.203	76.38
666.406	86.38
666.609	84.38
666.812	78.38
667.015	80.38
667.218	72.38
667.421	71.38
667.624	80.38
667.827	83.38
668.03	66.38
668.232	83.38
668.435	85.38
668.638	80.38
668.841	97.38
669.043	94.38
669.246	83.38
669.449	78.38
669.651	76.38
669.854	81.38
670.057	84.38
670.259	74.38
670.462	90.38
670.665	94.38
670.867	80.38
671.07	69.38
671.272	84.38
671.475	79.38
671.677	84.38
671.88	75.38
672.082	80.38
672.284	68.38
672.487	89.38
672.689	89.38
672.892	80.38
