Data from Zn(NO3)2Standard.Agarose3%.GreenCap.LampEnergy5.5.E.O_HRD10591_15-00-51-767.txt Node
Date: Mon Jul 22 15:00:51 EDT 2019
User: cochatt
Spectrometer: HR+D1059
Trigger mode: 1
Integration Time (sec): 1.000000E-1
Scans to average: 1
Electric dark correction enabled: true
Nonlinearity correction enabled: false
Boxcar width: 0
XAxis mode: Wavelengths
Number of Pixels in Spectrum: 2048
>>>>>Begin Spectral Data<<<<<
223.165	-17.06
223.4	-17.06
223.635	-17.06
223.869	-13.06
224.104	-7.06
224.338	-5.06
224.573	-15.06
224.808	-13.06
225.042	-13.06
225.277	1.94
225.511	2.94
225.746	6.94
225.98	-20.06
226.215	1.94
226.449	8.94
226.683	16.94
226.918	24.94
227.152	38.94
227.387	33.94
227.621	47.94
227.856	49.94
228.09	39.94
228.324	47.94
228.559	57.94
228.793	71.94
229.027	57.94
229.262	57.94
229.496	63.94
229.73	67.94
229.964	75.94
230.199	84.94
230.433	74.94
230.667	83.94
230.901	73.94
231.136	64.94
231.37	75.94
231.604	77.94
231.838	91.94
232.072	93.94
232.306	72.94
232.541	88.94
232.775	90.94
233.009	81.94
233.243	83.94
233.477	84.94
233.711	84.94
233.945	70.94
234.179	82.94
234.413	83.94
234.647	84.94
234.881	85.94
235.115	82.94
235.349	72.94
235.583	66.94
235.817	81.94
236.051	81.94
236.285	78.94
236.519	81.94
236.753	79.94
236.987	78.94
237.221	72.94
237.455	76.94
237.689	69.94
237.922	64.94
238.156	67.94
238.39	76.94
238.624	63.94
238.858	83.94
239.091	81.94
239.325	75.94
239.559	78.94
239.793	75.94
240.027	82.94
240.26	78.94
240.494	83.94
240.728	73.94
240.961	80.94
241.195	80.94
241.429	88.94
241.662	79.94
241.896	79.94
242.13	80.94
242.363	71.94
242.597	67.94
242.83	82.94
243.064	63.94
243.298	86.94
243.531	72.94
243.765	68.94
243.998	73.94
244.232	78.94
244.465	60.94
244.699	73.94
244.932	73.94
245.166	62.94
245.399	66.94
245.633	87.94
245.866	86.94
246.099	65.94
246.333	57.94
246.566	65.94
246.8	84.94
247.033	83.94
247.266	70.94
247.5	65.94
247.733	78.94
247.966	90.94
248.2	80.94
248.433	83.94
248.666	80.94
248.899	75.94
249.133	85.94
249.366	75.94
249.599	88.94
249.832	80.94
250.066	84.94
250.299	57.94
250.532	71.94
250.765	85.94
250.998	90.94
251.231	78.94
251.465	66.94
251.698	71.94
251.931	82.94
252.164	91.94
252.397	74.94
252.63	74.94
252.863	81.94
253.096	77.94
253.329	73.94
253.562	82.94
253.795	96.94
254.028	66.94
254.261	71.94
254.494	83.94
254.727	83.94
254.96	71.94
255.193	81.94
255.426	81.94
255.659	79.94
255.892	81.94
256.124	91.94
256.357	83.94
256.59	76.94
256.823	89.94
257.056	73.94
257.289	85.94
257.521	70.94
257.754	80.94
257.987	66.94
258.22	74.94
258.452	76.94
258.685	86.94
258.918	80.94
259.151	81.94
259.383	88.94
259.616	76.94
259.849	74.94
260.081	77.94
260.314	91.94
260.547	76.94
260.779	82.94
261.012	65.94
261.244	76.94
261.477	77.94
261.71	76.94
261.942	85.94
262.175	86.94
262.407	75.94
262.64	81.94
262.872	74.94
263.105	80.94
263.337	74.94
263.57	88.94
263.802	82.94
264.035	79.94
264.267	86.94
264.499	77.94
264.732	84.94
264.964	89.94
265.197	78.94
265.429	82.94
265.661	79.94
265.894	82.94
266.126	84.94
266.358	79.94
266.591	79.94
266.823	73.94
267.055	86.94
267.287	88.94
267.52	87.94
267.752	82.94
267.984	85.94
268.216	87.94
268.448	83.94
268.681	76.94
268.913	80.94
269.145	73.94
269.377	87.94
269.609	86.94
269.841	91.94
270.073	73.94
270.306	76.94
270.538	78.94
270.77	66.94
271.002	70.94
271.234	91.94
271.466	84.94
271.698	83.94
271.93	69.94
272.162	75.94
272.394	72.94
272.626	73.94
272.858	66.94
273.09	82.94
273.322	80.94
273.553	72.94
273.785	88.94
274.017	93.94
274.249	79.94
274.481	81.94
274.713	76.94
274.945	82.94
275.176	73.94
275.408	87.94
275.64	81.94
275.872	80.94
276.104	88.94
276.335	84.94
276.567	81.94
276.799	75.94
277.031	76.94
277.262	84.94
277.494	86.94
277.726	89.94
277.957	81.94
278.189	75.94
278.421	81.94
278.652	86.94
278.884	89.94
279.115	83.94
279.347	68.94
279.579	76.94
279.81	91.94
280.042	80.94
280.273	69.94
280.505	87.94
280.736	88.94
280.968	84.94
281.199	71.94
281.431	73.94
281.662	80.94
281.894	75.94
282.125	80.94
282.356	95.94
282.588	74.94
282.819	75.94
283.051	87.94
283.282	74.94
283.513	86.94
283.745	73.94
283.976	83.94
284.207	86.94
284.439	78.94
284.67	71.94
284.901	73.94
285.132	74.94
285.364	82.94
285.595	65.94
285.826	72.94
286.057	82.94
286.288	90.94
286.52	77.94
286.751	69.94
286.982	83.94
287.213	81.94
287.444	79.94
287.675	74.94
287.906	78.94
288.138	75.94
288.369	81.94
288.6	85.94
288.831	72.94
289.062	92.94
289.293	85.94
289.524	67.94
289.755	78.94
289.986	76.94
290.217	72.94
290.448	90.94
290.679	87.94
290.91	87.94
291.141	89.94
291.371	76.94
291.602	95.94
291.833	85.94
292.064	77.94
292.295	91.94
292.526	78.94
292.757	87.94
292.987	95.94
293.218	86.94
293.449	75.94
293.68	82.94
293.91	82.94
294.141	79.94
294.372	69.94
294.603	89.94
294.833	76.94
295.064	75.94
295.295	75.94
295.525	86.94
295.756	81.94
295.987	71.94
296.217	85.94
296.448	69.94
296.679	76.94
296.909	89.94
297.14	94.94
297.37	84.94
297.601	92.94
297.831	78.94
298.062	75.94
298.292	85.94
298.523	92.94
298.753	74.94
298.984	82.94
299.214	81.94
299.445	89.94
299.675	76.94
299.905	84.94
300.136	102.94
300.366	84.94
300.597	90.94
300.827	73.94
301.057	90.94
301.288	71.94
301.518	89.94
301.748	90.94
301.979	91.94
302.209	87.94
302.439	81.94
302.669	83.94
302.9	87.94
303.13	87.94
303.36	85.94
303.59	80.94
303.82	78.94
304.051	87.94
304.281	94.94
304.511	76.94
304.741	89.94
304.971	82.94
305.201	83.94
305.431	96.94
305.661	80.94
305.891	88.94
306.121	90.94
306.352	81.94
306.582	86.94
306.812	81.94
307.042	83.94
307.272	87.94
307.502	93.94
307.731	83.94
307.961	89.94
308.191	77.94
308.421	72.94
308.651	78.94
308.881	92.94
309.111	66.94
309.341	81.94
309.571	93.94
309.8	90.94
310.03	73.94
310.26	77.94
310.49	80.94
310.72	92.94
310.949	91.94
311.179	95.94
311.409	86.94
311.639	75.94
311.868	64.94
312.098	79.94
312.328	85.94
312.557	100.94
312.787	100.94
313.017	89.94
313.246	84.94
313.476	82.94
313.706	88.94
313.935	80.94
314.165	76.94
314.394	86.94
314.624	93.94
314.853	80.94
315.083	76.94
315.312	72.94
315.542	91.94
315.771	87.94
316.001	70.94
316.23	71.94
316.46	81.94
316.689	75.94
316.919	79.94
317.148	72.94
317.377	94.94
317.607	84.94
317.836	88.94
318.065	87.94
318.295	83.94
318.524	81.94
318.753	91.94
318.983	86.94
319.212	86.94
319.441	81.94
319.67	86.94
319.9	67.94
320.129	88.94
320.358	93.94
320.587	83.94
320.816	85.94
321.046	65.94
321.275	82.94
321.504	96.94
321.733	88.94
321.962	83.94
322.191	84.94
322.42	67.94
322.649	88.94
322.878	93.94
323.108	81.94
323.337	95.94
323.566	91.94
323.795	86.94
324.024	91.94
324.253	74.94
324.482	74.94
324.71	79.94
324.939	81.94
325.168	75.94
325.397	83.94
325.626	91.94
325.855	67.94
326.084	83.94
326.313	87.94
326.542	76.94
326.77	78.94
326.999	85.94
327.228	83.94
327.457	74.94
327.686	90.94
327.914	79.94
328.143	107.94
328.372	94.94
328.6	68.94
328.829	92.94
329.058	89.94
329.287	87.94
329.515	57.94
329.744	82.94
329.972	84.94
330.201	81.94
330.43	78.94
330.658	87.94
330.887	90.94
331.115	76.94
331.344	88.94
331.572	88.94
331.801	85.94
332.03	72.94
332.258	90.94
332.486	75.94
332.715	78.94
332.943	88.94
333.172	90.94
333.4	82.94
333.629	86.94
333.857	82.94
334.085	93.94
334.314	86.94
334.542	73.94
334.771	82.94
334.999	82.94
335.227	88.94
335.455	88.94
335.684	90.94
335.912	73.94
336.14	90.94
336.369	87.94
336.597	83.94
336.825	82.94
337.053	76.94
337.281	89.94
337.51	83.94
337.738	80.94
337.966	77.94
338.194	64.94
338.422	66.94
338.65	80.94
338.878	85.94
339.106	75.94
339.334	88.94
339.562	74.94
339.79	90.94
340.018	78.94
340.246	74.94
340.474	73.94
340.702	85.94
340.93	84.94
341.158	88.94
341.386	88.94
341.614	89.94
341.842	80.94
342.07	72.94
342.298	81.94
342.526	86.94
342.754	76.94
342.981	80.94
343.209	87.94
343.437	72.94
343.665	71.94
343.893	81.94
344.12	82.94
344.348	89.94
344.576	86.94
344.804	80.94
345.031	74.94
345.259	88.94
345.487	78.94
345.714	80.94
345.942	79.94
346.17	75.94
346.397	64.94
346.625	87.94
346.853	62.94
347.08	79.94
347.308	77.94
347.535	89.94
347.763	72.94
347.99	69.94
348.218	81.94
348.445	79.94
348.673	76.94
348.9	84.94
349.128	85.94
349.355	84.94
349.583	75.94
349.81	77.94
350.037	88.94
350.265	85.94
350.492	74.94
350.72	83.94
350.947	76.94
351.174	87.94
351.402	81.94
351.629	64.94
351.856	79.94
352.083	98.94
352.311	82.94
352.538	66.94
352.765	80.94
352.992	95.94
353.22	82.94
353.447	87.94
353.674	87.94
353.901	81.94
354.128	80.94
354.355	70.94
354.583	84.94
354.81	81.94
355.037	82.94
355.264	87.94
355.491	76.94
355.718	95.94
355.945	86.94
356.172	71.94
356.399	76.94
356.626	81.94
356.853	71.94
357.08	85.94
357.307	86.94
357.534	83.94
357.761	76.94
357.988	96.94
358.215	78.94
358.441	87.94
358.668	84.94
358.895	79.94
359.122	93.94
359.349	75.94
359.576	79.94
359.802	87.94
360.029	75.94
360.256	75.94
360.483	89.94
360.709	78.94
360.936	89.94
361.163	97.94
361.39	85.94
361.616	79.94
361.843	78.94
362.07	79.94
362.296	81.94
362.523	99.94
362.749	92.94
362.976	65.94
363.203	82.94
363.429	86.94
363.656	90.94
363.882	88.94
364.109	89.94
364.335	89.94
364.562	75.94
364.788	75.94
365.015	67.94
365.241	88.94
365.468	89.94
365.694	95.94
365.92	70.94
366.147	82.94
366.373	82.94
366.599	103.94
366.826	78.94
367.052	89.94
367.278	77.94
367.505	81.94
367.731	88.94
367.957	68.94
368.184	72.94
368.41	59.94
368.636	76.94
368.862	74.94
369.089	92.94
369.315	90.94
369.541	75.94
369.767	87.94
369.993	80.94
370.219	95.94
370.445	71.94
370.672	85.94
370.898	84.94
371.124	79.94
371.35	81.94
371.576	95.94
371.802	79.94
372.028	86.94
372.254	76.94
372.48	89.94
372.706	78.94
372.932	76.94
373.158	90.94
373.384	91.94
373.61	77.94
373.835	84.94
374.061	83.94
374.287	89.94
374.513	89.94
374.739	85.94
374.965	70.94
375.191	71.94
375.416	97.94
375.642	103.94
375.868	83.94
376.094	75.94
376.319	88.94
376.545	77.94
376.771	71.94
376.997	86.94
377.222	88.94
377.448	100.94
377.674	79.94
377.899	97.94
378.125	91.94
378.35	88.94
378.576	72.94
378.802	88.94
379.027	78.94
379.253	86.94
379.478	80.94
379.704	93.94
379.929	77.94
380.155	90.94
380.38	93.94
380.606	66.94
380.831	79.94
381.057	101.94
381.282	70.94
381.507	81.94
381.733	80.94
381.958	72.94
382.184	77.94
382.409	76.94
382.634	77.94
382.86	75.94
383.085	82.94
383.31	92.94
383.535	92.94
383.761	78.94
383.986	77.94
384.211	79.94
384.436	84.94
384.662	95.94
384.887	80.94
385.112	74.94
385.337	73.94
385.562	84.94
385.787	99.94
386.013	86.94
386.238	91.94
386.463	92.94
386.688	83.94
386.913	84.94
387.138	78.94
387.363	76.94
387.588	79.94
387.813	90.94
388.038	88.94
388.263	94.94
388.488	88.94
388.713	85.94
388.938	73.94
389.163	76.94
389.387	99.94
389.612	95.94
389.837	80.94
390.062	76.94
390.287	70.94
390.512	61.94
390.736	96.94
390.961	87.94
391.186	90.94
391.411	67.94
391.636	79.94
391.86	72.94
392.085	82.94
392.31	94.94
392.534	78.94
392.759	71.94
392.984	83.94
393.208	81.94
393.433	81.94
393.658	90.94
393.882	91.94
394.107	90.94
394.331	90.94
394.556	81.94
394.78	80.94
395.005	89.94
395.229	83.94
395.454	84.94
395.678	71.94
395.903	90.94
396.127	88.94
396.352	88.94
396.576	83.94
396.801	79.94
397.025	78.94
397.249	77.94
397.474	80.94
397.698	74.94
397.922	76.94
398.147	80.94
398.371	74.94
398.595	73.94
398.82	70.94
399.044	82.94
399.268	92.94
399.492	76.94
399.717	76.94
399.941	88.94
400.165	89.94
400.389	84.94
400.613	99.94
400.837	82.94
401.062	97.94
401.286	107.94
401.51	82.94
401.734	91.94
401.958	75.94
402.182	76.94
402.406	85.94
402.63	91.94
402.854	91.94
403.078	95.94
403.302	80.94
403.526	87.94
403.75	80.94
403.974	88.94
404.198	75.94
404.422	82.94
404.645	86.94
404.869	87.94
405.093	75.94
405.317	93.94
405.541	94.94
405.765	89.94
405.988	85.94
406.212	88.94
406.436	80.94
406.66	80.94
406.883	77.94
407.107	79.94
407.331	94.94
407.555	88.94
407.778	89.94
408.002	86.94
408.226	81.94
408.449	74.94
408.673	97.94
408.896	94.94
409.12	72.94
409.344	98.94
409.567	90.94
409.791	81.94
410.014	95.94
410.238	84.94
410.461	70.94
410.685	75.94
410.908	82.94
411.132	71.94
411.355	96.94
411.578	82.94
411.802	82.94
412.025	83.94
412.249	85.94
412.472	74.94
412.695	76.94
412.919	87.94
413.142	79.94
413.365	83.94
413.589	89.94
413.812	101.94
414.035	101.94
414.258	89.94
414.482	93.94
414.705	96.94
414.928	82.94
415.151	80.94
415.374	91.94
415.597	74.94
415.821	85.94
416.044	86.94
416.267	89.94
416.49	87.94
416.713	78.94
416.936	95.94
417.159	73.94
417.382	88.94
417.605	87.94
417.828	87.94
418.051	84.94
418.274	83.94
418.497	68.94
418.72	66.94
418.943	82.94
419.166	74.94
419.389	81.94
419.611	106.94
419.834	85.94
420.057	86.94
420.28	95.94
420.503	92.94
420.726	86.94
420.948	86.94
421.171	92.94
421.394	81.94
421.617	88.94
421.839	88.94
422.062	87.94
422.285	70.94
422.507	95.94
422.73	96.94
422.953	86.94
423.175	92.94
423.398	88.94
423.621	97.94
423.843	99.94
424.066	102.94
424.288	88.94
424.511	78.94
424.733	76.94
424.956	86.94
425.178	91.94
425.401	86.94
425.623	86.94
425.846	82.94
426.068	75.94
426.291	72.94
426.513	92.94
426.735	92.94
426.958	91.94
427.18	87.94
427.402	98.94
427.625	87.94
427.847	78.94
428.069	98.94
428.292	91.94
428.514	98.94
428.736	88.94
428.958	96.94
429.181	75.94
429.403	77.94
429.625	89.94
429.847	90.94
430.069	94.94
430.292	91.94
430.514	81.94
430.736	74.94
430.958	80.94
431.18	80.94
431.402	82.94
431.624	87.94
431.846	77.94
432.068	91.94
432.29	86.94
432.512	83.94
432.734	85.94
432.956	77.94
433.178	84.94
433.4	87.94
433.622	93.94
433.844	91.94
434.066	79.94
434.287	62.94
434.509	80.94
434.731	94.94
434.953	86.94
435.175	82.94
435.397	100.94
435.618	94.94
435.84	99.94
436.062	83.94
436.284	93.94
436.505	75.94
436.727	79.94
436.949	82.94
437.17	76.94
437.392	97.94
437.614	80.94
437.835	91.94
438.057	80.94
438.278	86.94
438.5	94.94
438.721	76.94
438.943	85.94
439.165	82.94
439.386	90.94
439.608	84.94
439.829	87.94
440.05	76.94
440.272	82.94
440.493	91.94
440.715	88.94
440.936	88.94
441.158	86.94
441.379	94.94
441.6	92.94
441.822	82.94
442.043	83.94
442.264	87.94
442.486	94.94
442.707	75.94
442.928	84.94
443.149	91.94
443.371	82.94
443.592	83.94
443.813	88.94
444.034	87.94
444.255	100.94
444.476	85.94
444.698	85.94
444.919	91.94
445.14	169.94
445.361	128.94
445.582	91.94
445.803	91.94
446.024	84.94
446.245	91.94
446.466	79.94
446.687	90.94
446.908	84.94
447.129	94.94
447.35	84.94
447.571	84.94
447.792	79.94
448.013	85.94
448.234	81.94
448.455	80.94
448.675	85.94
448.896	101.94
449.117	98.94
449.338	79.94
449.559	72.94
449.779	84.94
450	77.94
450.221	73.94
450.442	100.94
450.662	66.94
450.883	86.94
451.104	98.94
451.324	90.94
451.545	98.94
451.766	88.94
451.986	86.94
452.207	90.94
452.428	84.94
452.648	90.94
452.869	80.94
453.089	101.94
453.31	80.94
453.53	77.94
453.751	84.94
453.971	82.94
454.192	82.94
454.412	84.94
454.633	82.94
454.853	88.94
455.073	80.94
455.294	93.94
455.514	91.94
455.734	84.94
455.955	79.94
456.175	70.94
456.395	78.94
456.616	69.94
456.836	82.94
457.056	95.94
457.276	84.94
457.497	75.94
457.717	83.94
457.937	86.94
458.157	78.94
458.377	83.94
458.598	74.94
458.818	85.94
459.038	72.94
459.258	68.94
459.478	84.94
459.698	80.94
459.918	94.94
460.138	82.94
460.358	72.94
460.578	97.94
460.798	94.94
461.018	103.94
461.238	93.94
461.458	74.94
461.678	79.94
461.898	90.94
462.118	81.94
462.338	80.94
462.558	77.94
462.777	80.94
462.997	95.94
463.217	76.94
463.437	73.94
463.657	92.94
463.876	77.94
464.096	83.94
464.316	98.94
464.536	78.94
464.755	82.94
464.975	83.94
465.195	84.94
465.414	77.94
465.634	96.94
465.854	93.94
466.073	80.94
466.293	79.94
466.512	80.94
466.732	89.94
466.951	94.94
467.171	83.94
467.391	85.94
467.61	84.94
467.829	87.94
468.049	76.94
468.268	95.94
468.488	101.94
468.707	88.94
468.927	111.94
469.146	104.94
469.365	79.94
469.585	71.94
469.804	82.94
470.023	84.94
470.243	84.94
470.462	90.94
470.681	78.94
470.901	84.94
471.12	111.94
471.339	84.94
471.558	86.94
471.777	84.94
471.997	89.94
472.216	74.94
472.435	80.94
472.654	67.94
472.873	89.94
473.092	91.94
473.311	74.94
473.53	92.94
473.749	85.94
473.968	95.94
474.187	82.94
474.406	82.94
474.625	91.94
474.844	84.94
475.063	95.94
475.282	92.94
475.501	88.94
475.72	99.94
475.939	88.94
476.158	79.94
476.377	78.94
476.596	97.94
476.814	93.94
477.033	90.94
477.252	93.94
477.471	78.94
477.69	86.94
477.908	95.94
478.127	92.94
478.346	101.94
478.564	81.94
478.783	94.94
479.002	82.94
479.22	76.94
479.439	89.94
479.658	82.94
479.876	72.94
480.095	83.94
480.313	87.94
480.532	81.94
480.751	85.94
480.969	83.94
481.188	80.94
481.406	75.94
481.624	74.94
481.843	88.94
482.061	80.94
482.28	89.94
482.498	92.94
482.717	81.94
482.935	94.94
483.153	82.94
483.372	84.94
483.59	98.94
483.808	83.94
484.027	96.94
484.245	97.94
484.463	76.94
484.681	85.94
484.9	83.94
485.118	78.94
485.336	88.94
485.554	101.94
485.772	78.94
485.99	85.94
486.209	88.94
486.427	84.94
486.645	70.94
486.863	92.94
487.081	73.94
487.299	80.94
487.517	97.94
487.735	96.94
487.953	92.94
488.171	112.94
488.389	89.94
488.607	84.94
488.825	83.94
489.043	94.94
489.261	85.94
489.479	98.94
489.696	95.94
489.914	107.94
490.132	96.94
490.35	100.94
490.568	93.94
490.786	84.94
491.003	89.94
491.221	96.94
491.439	91.94
491.657	106.94
491.874	100.94
492.092	111.94
492.31	107.94
492.527	107.94
492.745	104.94
492.963	107.94
493.18	99.94
493.398	106.94
493.615	89.94
493.833	112.94
494.05	112.94
494.268	100.94
494.485	99.94
494.703	109.94
494.92	91.94
495.138	91.94
495.355	90.94
495.573	92.94
495.79	94.94
496.008	97.94
496.225	90.94
496.442	80.94
496.66	96.94
496.877	91.94
497.094	94.94
497.312	95.94
497.529	99.94
497.746	90.94
497.963	93.94
498.181	87.94
498.398	85.94
498.615	63.94
498.832	84.94
499.049	89.94
499.267	89.94
499.484	79.94
499.701	93.94
499.918	92.94
500.135	90.94
500.352	75.94
500.569	97.94
500.786	85.94
501.003	96.94
501.22	83.94
501.437	84.94
501.654	92.94
501.871	88.94
502.088	87.94
502.305	84.94
502.522	84.94
502.739	83.94
502.956	79.94
503.172	87.94
503.389	105.94
503.606	83.94
503.823	84.94
504.04	88.94
504.256	87.94
504.473	83.94
504.69	83.94
504.907	102.94
505.123	72.94
505.34	85.94
505.557	85.94
505.773	86.94
505.99	66.94
506.207	91.94
506.423	76.94
506.64	83.94
506.856	70.94
507.073	90.94
507.289	99.94
507.506	73.94
507.722	92.94
507.939	101.94
508.155	80.94
508.372	72.94
508.588	99.94
508.805	90.94
509.021	83.94
509.238	80.94
509.454	75.94
509.67	96.94
509.887	92.94
510.103	95.94
510.319	84.94
510.536	89.94
510.752	75.94
510.968	83.94
511.184	91.94
511.401	84.94
511.617	83.94
511.833	87.94
512.049	67.94
512.265	79.94
512.481	90.94
512.698	92.94
512.914	77.94
513.13	97.94
513.346	94.94
513.562	81.94
513.778	83.94
513.994	82.94
514.21	80.94
514.426	79.94
514.642	73.94
514.858	81.94
515.074	83.94
515.29	92.94
515.506	80.94
515.721	75.94
515.937	94.94
516.153	84.94
516.369	74.94
516.585	68.94
516.801	83.94
517.016	81.94
517.232	74.94
517.448	79.94
517.664	72.94
517.879	87.94
518.095	82.94
518.311	72.94
518.527	73.94
518.742	84.94
518.958	86.94
519.173	82.94
519.389	80.94
519.605	75.94
519.82	86.94
520.036	81.94
520.251	88.94
520.467	89.94
520.682	83.94
520.898	94.94
521.113	74.94
521.329	89.94
521.544	82.94
521.76	88.94
521.975	89.94
522.19	94.94
522.406	76.94
522.621	82.94
522.836	84.94
523.052	88.94
523.267	91.94
523.482	85.94
523.698	76.94
523.913	82.94
524.128	86.94
524.343	102.94
524.559	89.94
524.774	85.94
524.989	92.94
525.204	98.94
525.419	92.94
525.634	96.94
525.849	94.94
526.064	72.94
526.28	82.94
526.495	75.94
526.71	86.94
526.925	80.94
527.14	75.94
527.355	75.94
527.57	89.94
527.785	81.94
527.999	76.94
528.214	89.94
528.429	80.94
528.644	88.94
528.859	99.94
529.074	108.94
529.289	113.94
529.503	101.94
529.718	98.94
529.933	84.94
530.148	89.94
530.363	86.94
530.577	89.94
530.792	71.94
531.007	81.94
531.221	90.94
531.436	76.94
531.651	80.94
531.865	85.94
532.08	98.94
532.295	80.94
532.509	82.94
532.724	79.94
532.938	91.94
533.153	86.94
533.367	87.94
533.582	81.94
533.796	92.94
534.011	69.94
534.225	77.94
534.44	75.94
534.654	86.94
534.868	84.94
535.083	75.94
535.297	81.94
535.511	93.94
535.726	101.94
535.94	93.94
536.154	71.94
536.369	88.94
536.583	73.94
536.797	82.94
537.011	77.94
537.225	77.94
537.44	81.94
537.654	79.94
537.868	84.94
538.082	87.94
538.296	104.94
538.51	78.94
538.724	73.94
538.938	75.94
539.153	85.94
539.367	84.94
539.581	86.94
539.795	91.94
540.009	74.94
540.222	86.94
540.436	80.94
540.65	87.94
540.864	94.94
541.078	96.94
541.292	102.94
541.506	94.94
541.72	93.94
541.934	104.94
542.147	108.94
542.361	113.94
542.575	104.94
542.789	100.94
543.002	104.94
543.216	98.94
543.43	95.94
543.644	98.94
543.857	92.94
544.071	92.94
544.285	79.94
544.498	92.94
544.712	100.94
544.925	91.94
545.139	103.94
545.352	92.94
545.566	110.94
545.779	98.94
545.993	87.94
546.206	99.94
546.42	95.94
546.633	97.94
546.847	102.94
547.06	80.94
547.274	104.94
547.487	105.94
547.7	97.94
547.914	112.94
548.127	99.94
548.34	86.94
548.554	94.94
548.767	99.94
548.98	96.94
549.193	97.94
549.407	94.94
549.62	96.94
549.833	87.94
550.046	88.94
550.259	98.94
550.473	110.94
550.686	94.94
550.899	87.94
551.112	87.94
551.325	96.94
551.538	84.94
551.751	90.94
551.964	92.94
552.177	99.94
552.39	105.94
552.603	98.94
552.816	97.94
553.029	92.94
553.242	88.94
553.455	76.94
553.667	99.94
553.88	114.94
554.093	83.94
554.306	108.94
554.519	85.94
554.732	98.94
554.944	111.94
555.157	98.94
555.37	104.94
555.583	99.94
555.795	107.94
556.008	98.94
556.221	91.94
556.433	98.94
556.646	101.94
556.859	94.94
557.071	104.94
557.284	104.94
557.496	97.94
557.709	95.94
557.921	92.94
558.134	110.94
558.346	107.94
558.559	102.94
558.771	93.94
558.984	106.94
559.196	87.94
559.409	80.94
559.621	88.94
559.833	95.94
560.046	88.94
560.258	88.94
560.47	92.94
560.683	101.94
560.895	90.94
561.107	97.94
561.32	92.94
561.532	102.94
561.744	102.94
561.956	101.94
562.168	104.94
562.381	94.94
562.593	84.94
562.805	102.94
563.017	102.94
563.229	84.94
563.441	84.94
563.653	88.94
563.865	86.94
564.077	75.94
564.289	92.94
564.501	96.94
564.713	104.94
564.925	91.94
565.137	74.94
565.349	79.94
565.561	89.94
565.773	94.94
565.985	77.94
566.197	97.94
566.408	84.94
566.62	81.94
566.832	78.94
567.044	74.94
567.255	97.94
567.467	86.94
567.679	71.94
567.891	101.94
568.102	95.94
568.314	80.94
568.526	90.94
568.737	89.94
568.949	64.94
569.161	84.94
569.372	92.94
569.584	86.94
569.795	83.94
570.007	87.94
570.218	78.94
570.43	86.94
570.641	93.94
570.853	84.94
571.064	88.94
571.276	80.94
571.487	95.94
571.698	94.94
571.91	103.94
572.121	83.94
572.333	81.94
572.544	97.94
572.755	87.94
572.966	90.94
573.178	87.94
573.389	88.94
573.6	74.94
573.811	86.94
574.023	79.94
574.234	81.94
574.445	83.94
574.656	78.94
574.867	81.94
575.078	96.94
575.289	79.94
575.501	85.94
575.712	68.94
575.923	79.94
576.134	80.94
576.345	83.94
576.556	79.94
576.767	84.94
576.978	80.94
577.188	70.94
577.399	88.94
577.61	82.94
577.821	90.94
578.032	82.94
578.243	76.94
578.454	79.94
578.665	78.94
578.875	77.94
579.086	85.94
579.297	91.94
579.508	95.94
579.718	79.94
579.929	76.94
580.14	87.94
580.35	76.94
580.561	91.94
580.772	82.94
580.982	83.94
581.193	84.94
581.403	78.94
581.614	91.94
581.825	84.94
582.035	77.94
582.246	79.94
582.456	78.94
582.667	72.94
582.877	70.94
583.087	91.94
583.298	89.94
583.508	80.94
583.719	71.94
583.929	97.94
584.139	87.94
584.35	79.94
584.56	80.94
584.77	94.94
584.981	82.94
585.191	83.94
585.401	73.94
585.611	77.94
585.821	87.94
586.032	79.94
586.242	75.94
586.452	95.94
586.662	73.94
586.872	89.94
587.082	83.94
587.292	92.94
587.502	77.94
587.713	78.94
587.923	68.94
588.133	74.94
588.343	84.94
588.553	84.94
588.762	89.94
588.972	78.94
589.182	80.94
589.392	95.94
589.602	95.94
589.812	88.94
590.022	85.94
590.232	88.94
590.441	91.94
590.651	90.94
590.861	87.94
591.071	95.94
591.281	75.94
591.49	80.94
591.7	85.94
591.91	85.94
592.119	92.94
592.329	88.94
592.539	89.94
592.748	98.94
592.958	75.94
593.167	76.94
593.377	84.94
593.587	91.94
593.796	86.94
594.006	93.94
594.215	77.94
594.424	82.94
594.634	84.94
594.843	88.94
595.053	72.94
595.262	75.94
595.472	75.94
595.681	89.94
595.89	78.94
596.1	84.94
596.309	83.94
596.518	78.94
596.727	99.94
596.937	83.94
597.146	91.94
597.355	95.94
597.564	87.94
597.774	84.94
597.983	76.94
598.192	80.94
598.401	70.94
598.61	92.94
598.819	86.94
599.028	94.94
599.237	82.94
599.446	85.94
599.655	86.94
599.864	74.94
600.073	90.94
600.282	75.94
600.491	71.94
600.7	72.94
600.909	91.94
601.118	99.94
601.327	88.94
601.536	75.94
601.745	89.94
601.953	83.94
602.162	97.94
602.371	78.94
602.58	85.94
602.789	82.94
602.997	91.94
603.206	103.94
603.415	98.94
603.623	86.94
603.832	87.94
604.041	80.94
604.249	75.94
604.458	75.94
604.666	94.94
604.875	86.94
605.084	96.94
605.292	95.94
605.501	85.94
605.709	80.94
605.918	94.94
606.126	93.94
606.334	81.94
606.543	83.94
606.751	80.94
606.96	83.94
607.168	92.94
607.376	83.94
607.585	94.94
607.793	83.94
608.001	85.94
608.21	76.94
608.418	103.94
608.626	86.94
608.834	89.94
609.043	86.94
609.251	90.94
609.459	88.94
609.667	103.94
609.875	91.94
610.083	86.94
610.291	103.94
610.499	86.94
610.707	114.94
610.916	81.94
611.124	89.94
611.332	87.94
611.54	78.94
611.748	72.94
611.955	82.94
612.163	91.94
612.371	94.94
612.579	87.94
612.787	72.94
612.995	92.94
613.203	91.94
613.411	94.94
613.618	93.94
613.826	81.94
614.034	88.94
614.242	87.94
614.449	89.94
614.657	100.94
614.865	81.94
615.072	72.94
615.28	80.94
615.488	96.94
615.695	77.94
615.903	90.94
616.111	80.94
616.318	92.94
616.526	87.94
616.733	84.94
616.941	92.94
617.148	84.94
617.356	86.94
617.563	102.94
617.771	94.94
617.978	97.94
618.185	96.94
618.393	86.94
618.6	102.94
618.807	97.94
619.015	79.94
619.222	94.94
619.429	91.94
619.637	82.94
619.844	82.94
620.051	92.94
620.258	78.94
620.466	84.94
620.673	88.94
620.88	81.94
621.087	99.94
621.294	95.94
621.501	86.94
621.708	87.94
621.915	87.94
622.122	99.94
622.329	83.94
622.536	95.94
622.743	81.94
622.95	95.94
623.157	76.94
623.364	89.94
623.571	80.94
623.778	85.94
623.985	79.94
624.192	82.94
624.399	94.94
624.606	78.94
624.812	80.94
625.019	88.94
625.226	82.94
625.433	95.94
625.639	84.94
625.846	86.94
626.053	81.94
626.259	86.94
626.466	86.94
626.673	74.94
626.879	78.94
627.086	95.94
627.293	84.94
627.499	82.94
627.706	82.94
627.912	85.94
628.119	87.94
628.325	88.94
628.532	86.94
628.738	81.94
628.945	89.94
629.151	86.94
629.357	98.94
629.564	97.94
629.77	96.94
629.976	91.94
630.183	69.94
630.389	82.94
630.595	73.94
630.802	89.94
631.008	87.94
631.214	66.94
631.42	77.94
631.627	82.94
631.833	96.94
632.039	82.94
632.245	79.94
632.451	95.94
632.657	90.94
632.863	80.94
633.069	84.94
633.275	79.94
633.481	87.94
633.688	81.94
633.893	87.94
634.099	84.94
634.305	76.94
634.511	93.94
634.717	86.94
634.923	86.94
635.129	82.94
635.335	75.94
635.541	77.94
635.747	94.94
635.952	90.94
636.158	82.94
636.364	74.94
636.57	86.94
636.775	86.94
636.981	80.94
637.187	97.94
637.392	97.94
637.598	87.94
637.804	83.94
638.009	92.94
638.215	83.94
638.421	92.94
638.626	71.94
638.832	86.94
639.037	75.94
639.243	75.94
639.448	87.94
639.654	84.94
639.859	85.94
640.065	94.94
640.27	79.94
640.475	86.94
640.681	68.94
640.886	94.94
641.091	87.94
641.297	93.94
641.502	89.94
641.707	90.94
641.913	88.94
642.118	92.94
642.323	71.94
642.528	90.94
642.733	75.94
642.939	98.94
643.144	90.94
643.349	85.94
643.554	96.94
643.759	90.94
643.964	75.94
644.169	84.94
644.374	92.94
644.579	77.94
644.784	86.94
644.989	69.94
645.194	78.94
645.399	86.94
645.604	102.94
645.809	94.94
646.014	81.94
646.219	79.94
646.423	82.94
646.628	88.94
646.833	70.94
647.038	83.94
647.243	102.94
647.447	96.94
647.652	94.94
647.857	88.94
648.062	82.94
648.266	73.94
648.471	76.94
648.676	85.94
648.88	73.94
649.085	89.94
649.289	96.94
649.494	93.94
649.698	84.94
649.903	90.94
650.107	74.94
650.312	90.94
650.516	81.94
650.721	87.94
650.925	77.94
651.13	62.94
651.334	79.94
651.539	86.94
651.743	71.94
651.947	81.94
652.152	87.94
652.356	75.94
652.56	87.94
652.764	84.94
652.969	87.94
653.173	92.94
653.377	98.94
653.581	81.94
653.785	71.94
653.99	84.94
654.194	86.94
654.398	60.94
654.602	85.94
654.806	85.94
655.01	79.94
655.214	81.94
655.418	85.94
655.622	89.94
655.826	81.94
656.03	80.94
656.234	89.94
656.438	79.94
656.642	79.94
656.846	85.94
657.049	84.94
657.253	85.94
657.457	72.94
657.661	84.94
657.865	82.94
658.068	100.94
658.272	89.94
658.476	86.94
658.68	72.94
658.883	80.94
659.087	89.94
659.291	86.94
659.494	87.94
659.698	80.94
659.901	76.94
660.105	72.94
660.309	78.94
660.512	77.94
660.716	89.94
660.919	75.94
661.123	91.94
661.326	85.94
661.53	83.94
661.733	69.94
661.936	76.94
662.14	75.94
662.343	79.94
662.546	73.94
662.75	90.94
662.953	84.94
663.156	77.94
663.36	87.94
663.563	88.94
663.766	84.94
663.969	92.94
664.173	88.94
664.376	68.94
664.579	83.94
664.782	75.94
664.985	73.94
665.188	81.94
665.391	82.94
665.594	78.94
665.797	88.94
666	76.94
666.203	82.94
666.406	85.94
666.609	84.94
666.812	94.94
667.015	81.94
667.218	74.94
667.421	72.94
667.624	83.94
667.827	81.94
668.03	77.94
668.232	73.94
668.435	66.94
668.638	69.94
668.841	79.94
669.043	80.94
669.246	76.94
669.449	63.94
669.651	90.94
669.854	83.94
670.057	76.94
670.259	71.94
670.462	71.94
670.665	78.94
670.867	89.94
671.07	76.94
671.272	105.94
671.475	84.94
671.677	79.94
671.88	79.94
672.082	87.94
672.284	78.94
672.487	79.94
672.689	88.94
672.892	92.94
