Data from Zn(NO3)2Standard.Agarose3%.GreenCap.LampEnergy10E.O_HRD10591_15-06-43-942.txt Node
Date: Mon Jul 22 15:06:43 EDT 2019
User: cochatt
Spectrometer: HR+D1059
Trigger mode: 1
Integration Time (sec): 1.000000E-1
Scans to average: 1
Electric dark correction enabled: true
Nonlinearity correction enabled: false
Boxcar width: 0
XAxis mode: Wavelengths
Number of Pixels in Spectrum: 2048
>>>>>Begin Spectral Data<<<<<
223.165	-22.94
223.4	-22.94
223.635	-22.94
223.869	-17.94
224.104	-22.94
224.338	-9.94
224.573	-7.94
224.808	-9.94
225.042	-1.94
225.277	-17.94
225.511	1.06
225.746	9.06
225.98	13.06
226.215	14.06
226.449	7.06
226.683	22.06
226.918	19.06
227.152	26.06
227.387	38.06
227.621	49.06
227.856	42.06
228.09	58.06
228.324	60.06
228.559	69.06
228.793	55.06
229.027	76.06
229.262	49.06
229.496	71.06
229.73	60.06
229.964	78.06
230.199	83.06
230.433	83.06
230.667	76.06
230.901	79.06
231.136	79.06
231.37	76.06
231.604	86.06
231.838	78.06
232.072	73.06
232.306	92.06
232.541	87.06
232.775	82.06
233.009	80.06
233.243	72.06
233.477	81.06
233.711	76.06
233.945	71.06
234.179	77.06
234.413	74.06
234.647	84.06
234.881	85.06
235.115	81.06
235.349	77.06
235.583	82.06
235.817	83.06
236.051	79.06
236.285	79.06
236.519	80.06
236.753	73.06
236.987	69.06
237.221	85.06
237.455	91.06
237.689	82.06
237.922	84.06
238.156	79.06
238.39	87.06
238.624	80.06
238.858	73.06
239.091	82.06
239.325	67.06
239.559	71.06
239.793	69.06
240.027	79.06
240.26	84.06
240.494	90.06
240.728	74.06
240.961	83.06
241.195	89.06
241.429	73.06
241.662	68.06
241.896	82.06
242.13	68.06
242.363	69.06
242.597	80.06
242.83	91.06
243.064	95.06
243.298	72.06
243.531	73.06
243.765	88.06
243.998	70.06
244.232	76.06
244.465	81.06
244.699	90.06
244.932	85.06
245.166	69.06
245.399	78.06
245.633	88.06
245.866	78.06
246.099	66.06
246.333	86.06
246.566	89.06
246.8	82.06
247.033	69.06
247.266	71.06
247.5	84.06
247.733	75.06
247.966	73.06
248.2	90.06
248.433	84.06
248.666	81.06
248.899	83.06
249.133	86.06
249.366	71.06
249.599	83.06
249.832	89.06
250.066	90.06
250.299	83.06
250.532	76.06
250.765	65.06
250.998	71.06
251.231	61.06
251.465	82.06
251.698	87.06
251.931	83.06
252.164	86.06
252.397	67.06
252.63	90.06
252.863	77.06
253.096	79.06
253.329	83.06
253.562	76.06
253.795	89.06
254.028	81.06
254.261	88.06
254.494	83.06
254.727	76.06
254.96	69.06
255.193	85.06
255.426	87.06
255.659	84.06
255.892	95.06
256.124	86.06
256.357	69.06
256.59	85.06
256.823	89.06
257.056	82.06
257.289	82.06
257.521	75.06
257.754	72.06
257.987	83.06
258.22	89.06
258.452	74.06
258.685	93.06
258.918	83.06
259.151	87.06
259.383	78.06
259.616	82.06
259.849	74.06
260.081	72.06
260.314	76.06
260.547	75.06
260.779	84.06
261.012	77.06
261.244	86.06
261.477	88.06
261.71	83.06
261.942	79.06
262.175	79.06
262.407	81.06
262.64	79.06
262.872	86.06
263.105	87.06
263.337	90.06
263.57	69.06
263.802	83.06
264.035	76.06
264.267	61.06
264.499	79.06
264.732	75.06
264.964	74.06
265.197	89.06
265.429	74.06
265.661	71.06
265.894	79.06
266.126	92.06
266.358	76.06
266.591	74.06
266.823	78.06
267.055	93.06
267.287	83.06
267.52	83.06
267.752	78.06
267.984	94.06
268.216	91.06
268.448	89.06
268.681	82.06
268.913	82.06
269.145	91.06
269.377	85.06
269.609	76.06
269.841	80.06
270.073	87.06
270.306	90.06
270.538	74.06
270.77	84.06
271.002	84.06
271.234	87.06
271.466	85.06
271.698	81.06
271.93	84.06
272.162	80.06
272.394	81.06
272.626	76.06
272.858	91.06
273.09	85.06
273.322	84.06
273.553	71.06
273.785	73.06
274.017	69.06
274.249	91.06
274.481	78.06
274.713	87.06
274.945	91.06
275.176	83.06
275.408	80.06
275.64	84.06
275.872	79.06
276.104	97.06
276.335	83.06
276.567	82.06
276.799	85.06
277.031	87.06
277.262	96.06
277.494	88.06
277.726	77.06
277.957	78.06
278.189	82.06
278.421	83.06
278.652	81.06
278.884	91.06
279.115	91.06
279.347	94.06
279.579	82.06
279.81	79.06
280.042	88.06
280.273	75.06
280.505	83.06
280.736	69.06
280.968	76.06
281.199	86.06
281.431	85.06
281.662	81.06
281.894	87.06
282.125	84.06
282.356	92.06
282.588	86.06
282.819	90.06
283.051	87.06
283.282	84.06
283.513	92.06
283.745	93.06
283.976	77.06
284.207	102.06
284.439	78.06
284.67	94.06
284.901	81.06
285.132	88.06
285.364	91.06
285.595	90.06
285.826	77.06
286.057	84.06
286.288	79.06
286.52	87.06
286.751	88.06
286.982	80.06
287.213	87.06
287.444	88.06
287.675	86.06
287.906	75.06
288.138	78.06
288.369	76.06
288.6	78.06
288.831	78.06
289.062	93.06
289.293	87.06
289.524	85.06
289.755	85.06
289.986	74.06
290.217	82.06
290.448	75.06
290.679	79.06
290.91	82.06
291.141	86.06
291.371	91.06
291.602	73.06
291.833	78.06
292.064	84.06
292.295	74.06
292.526	75.06
292.757	93.06
292.987	91.06
293.218	90.06
293.449	101.06
293.68	95.06
293.91	96.06
294.141	92.06
294.372	82.06
294.603	90.06
294.833	85.06
295.064	78.06
295.295	101.06
295.525	87.06
295.756	94.06
295.987	75.06
296.217	87.06
296.448	76.06
296.679	77.06
296.909	84.06
297.14	74.06
297.37	99.06
297.601	86.06
297.831	77.06
298.062	88.06
298.292	91.06
298.523	82.06
298.753	78.06
298.984	86.06
299.214	96.06
299.445	95.06
299.675	100.06
299.905	88.06
300.136	89.06
300.366	98.06
300.597	84.06
300.827	78.06
301.057	86.06
301.288	79.06
301.518	85.06
301.748	91.06
301.979	84.06
302.209	97.06
302.439	74.06
302.669	74.06
302.9	89.06
303.13	96.06
303.36	87.06
303.59	78.06
303.82	81.06
304.051	77.06
304.281	93.06
304.511	89.06
304.741	72.06
304.971	78.06
305.201	91.06
305.431	93.06
305.661	89.06
305.891	91.06
306.121	99.06
306.352	78.06
306.582	87.06
306.812	89.06
307.042	79.06
307.272	87.06
307.502	87.06
307.731	89.06
307.961	90.06
308.191	88.06
308.421	82.06
308.651	89.06
308.881	89.06
309.111	98.06
309.341	83.06
309.571	93.06
309.8	86.06
310.03	90.06
310.26	97.06
310.49	91.06
310.72	94.06
310.949	91.06
311.179	78.06
311.409	99.06
311.639	87.06
311.868	80.06
312.098	74.06
312.328	77.06
312.557	85.06
312.787	90.06
313.017	71.06
313.246	90.06
313.476	93.06
313.706	84.06
313.935	78.06
314.165	89.06
314.394	87.06
314.624	88.06
314.853	93.06
315.083	84.06
315.312	85.06
315.542	96.06
315.771	74.06
316.001	92.06
316.23	80.06
316.46	81.06
316.689	95.06
316.919	91.06
317.148	84.06
317.377	88.06
317.607	82.06
317.836	77.06
318.065	75.06
318.295	84.06
318.524	94.06
318.753	82.06
318.983	89.06
319.212	99.06
319.441	78.06
319.67	80.06
319.9	94.06
320.129	91.06
320.358	98.06
320.587	106.06
320.816	78.06
321.046	96.06
321.275	85.06
321.504	86.06
321.733	95.06
321.962	79.06
322.191	78.06
322.42	65.06
322.649	87.06
322.878	106.06
323.108	88.06
323.337	87.06
323.566	99.06
323.795	98.06
324.024	68.06
324.253	82.06
324.482	82.06
324.71	68.06
324.939	77.06
325.168	85.06
325.397	84.06
325.626	95.06
325.855	81.06
326.084	89.06
326.313	95.06
326.542	77.06
326.77	90.06
326.999	90.06
327.228	78.06
327.457	71.06
327.686	93.06
327.914	87.06
328.143	84.06
328.372	74.06
328.6	86.06
328.829	82.06
329.058	81.06
329.287	71.06
329.515	83.06
329.744	92.06
329.972	73.06
330.201	83.06
330.43	80.06
330.658	85.06
330.887	100.06
331.115	76.06
331.344	77.06
331.572	93.06
331.801	83.06
332.03	88.06
332.258	91.06
332.486	94.06
332.715	82.06
332.943	76.06
333.172	69.06
333.4	78.06
333.629	89.06
333.857	84.06
334.085	97.06
334.314	71.06
334.542	83.06
334.771	99.06
334.999	77.06
335.227	95.06
335.455	93.06
335.684	86.06
335.912	84.06
336.14	87.06
336.369	85.06
336.597	70.06
336.825	86.06
337.053	84.06
337.281	81.06
337.51	86.06
337.738	78.06
337.966	89.06
338.194	89.06
338.422	86.06
338.65	87.06
338.878	85.06
339.106	88.06
339.334	86.06
339.562	83.06
339.79	98.06
340.018	83.06
340.246	94.06
340.474	92.06
340.702	79.06
340.93	76.06
341.158	88.06
341.386	93.06
341.614	85.06
341.842	82.06
342.07	103.06
342.298	86.06
342.526	86.06
342.754	91.06
342.981	90.06
343.209	73.06
343.437	94.06
343.665	74.06
343.893	89.06
344.12	91.06
344.348	105.06
344.576	90.06
344.804	82.06
345.031	69.06
345.259	92.06
345.487	87.06
345.714	71.06
345.942	92.06
346.17	86.06
346.397	88.06
346.625	93.06
346.853	79.06
347.08	98.06
347.308	89.06
347.535	93.06
347.763	93.06
347.99	88.06
348.218	80.06
348.445	75.06
348.673	85.06
348.9	96.06
349.128	84.06
349.355	96.06
349.583	81.06
349.81	83.06
350.037	90.06
350.265	79.06
350.492	84.06
350.72	80.06
350.947	79.06
351.174	68.06
351.402	92.06
351.629	72.06
351.856	83.06
352.083	89.06
352.311	92.06
352.538	101.06
352.765	90.06
352.992	102.06
353.22	82.06
353.447	79.06
353.674	80.06
353.901	81.06
354.128	78.06
354.355	87.06
354.583	68.06
354.81	102.06
355.037	88.06
355.264	84.06
355.491	80.06
355.718	91.06
355.945	79.06
356.172	87.06
356.399	97.06
356.626	87.06
356.853	84.06
357.08	82.06
357.307	91.06
357.534	81.06
357.761	83.06
357.988	87.06
358.215	77.06
358.441	90.06
358.668	84.06
358.895	75.06
359.122	89.06
359.349	71.06
359.576	78.06
359.802	77.06
360.029	96.06
360.256	83.06
360.483	95.06
360.709	83.06
360.936	97.06
361.163	75.06
361.39	84.06
361.616	82.06
361.843	87.06
362.07	86.06
362.296	93.06
362.523	85.06
362.749	92.06
362.976	92.06
363.203	83.06
363.429	77.06
363.656	89.06
363.882	77.06
364.109	81.06
364.335	81.06
364.562	77.06
364.788	90.06
365.015	93.06
365.241	75.06
365.468	82.06
365.694	68.06
365.92	82.06
366.147	82.06
366.373	81.06
366.599	93.06
366.826	89.06
367.052	98.06
367.278	88.06
367.505	91.06
367.731	98.06
367.957	85.06
368.184	109.06
368.41	88.06
368.636	90.06
368.862	90.06
369.089	84.06
369.315	96.06
369.541	95.06
369.767	86.06
369.993	83.06
370.219	78.06
370.445	100.06
370.672	88.06
370.898	91.06
371.124	87.06
371.35	79.06
371.576	84.06
371.802	88.06
372.028	98.06
372.254	95.06
372.48	96.06
372.706	90.06
372.932	86.06
373.158	87.06
373.384	84.06
373.61	102.06
373.835	92.06
374.061	94.06
374.287	86.06
374.513	86.06
374.739	89.06
374.965	93.06
375.191	78.06
375.416	89.06
375.642	94.06
375.868	100.06
376.094	102.06
376.319	92.06
376.545	89.06
376.771	95.06
376.997	86.06
377.222	85.06
377.448	88.06
377.674	82.06
377.899	86.06
378.125	84.06
378.35	75.06
378.576	94.06
378.802	98.06
379.027	99.06
379.253	89.06
379.478	89.06
379.704	68.06
379.929	81.06
380.155	83.06
380.38	90.06
380.606	88.06
380.831	92.06
381.057	92.06
381.282	90.06
381.507	100.06
381.733	81.06
381.958	101.06
382.184	87.06
382.409	93.06
382.634	94.06
382.86	94.06
383.085	92.06
383.31	85.06
383.535	92.06
383.761	84.06
383.986	73.06
384.211	76.06
384.436	82.06
384.662	84.06
384.887	98.06
385.112	96.06
385.337	97.06
385.562	98.06
385.787	101.06
386.013	114.06
386.238	89.06
386.463	93.06
386.688	85.06
386.913	86.06
387.138	92.06
387.363	89.06
387.588	93.06
387.813	93.06
388.038	94.06
388.263	97.06
388.488	97.06
388.713	99.06
388.938	87.06
389.163	90.06
389.387	83.06
389.612	82.06
389.837	97.06
390.062	83.06
390.287	92.06
390.512	82.06
390.736	92.06
390.961	87.06
391.186	99.06
391.411	93.06
391.636	95.06
391.86	94.06
392.085	101.06
392.31	104.06
392.534	103.06
392.759	87.06
392.984	92.06
393.208	92.06
393.433	102.06
393.658	83.06
393.882	88.06
394.107	85.06
394.331	89.06
394.556	92.06
394.78	92.06
395.005	103.06
395.229	98.06
395.454	91.06
395.678	104.06
395.903	97.06
396.127	91.06
396.352	100.06
396.576	101.06
396.801	90.06
397.025	94.06
397.249	94.06
397.474	102.06
397.698	89.06
397.922	83.06
398.147	93.06
398.371	92.06
398.595	102.06
398.82	93.06
399.044	96.06
399.268	89.06
399.492	86.06
399.717	96.06
399.941	102.06
400.165	101.06
400.389	89.06
400.613	105.06
400.837	117.06
401.062	101.06
401.286	95.06
401.51	103.06
401.734	93.06
401.958	106.06
402.182	94.06
402.406	101.06
402.63	96.06
402.854	105.06
403.078	101.06
403.302	86.06
403.526	85.06
403.75	105.06
403.974	96.06
404.198	86.06
404.422	94.06
404.645	90.06
404.869	99.06
405.093	93.06
405.317	96.06
405.541	93.06
405.765	103.06
405.988	106.06
406.212	98.06
406.436	115.06
406.66	100.06
406.883	103.06
407.107	103.06
407.331	96.06
407.555	105.06
407.778	103.06
408.002	96.06
408.226	94.06
408.449	109.06
408.673	110.06
408.896	109.06
409.12	103.06
409.344	107.06
409.567	90.06
409.791	89.06
410.014	105.06
410.238	116.06
410.461	106.06
410.685	101.06
410.908	108.06
411.132	108.06
411.355	107.06
411.578	91.06
411.802	94.06
412.025	100.06
412.249	109.06
412.472	104.06
412.695	91.06
412.919	99.06
413.142	118.06
413.365	104.06
413.589	97.06
413.812	97.06
414.035	101.06
414.258	107.06
414.482	97.06
414.705	93.06
414.928	100.06
415.151	109.06
415.374	110.06
415.597	105.06
415.821	97.06
416.044	106.06
416.267	92.06
416.49	107.06
416.713	104.06
416.936	91.06
417.159	95.06
417.382	104.06
417.605	106.06
417.828	109.06
418.051	104.06
418.274	119.06
418.497	111.06
418.72	112.06
418.943	101.06
419.166	118.06
419.389	102.06
419.611	121.06
419.834	113.06
420.057	113.06
420.28	108.06
420.503	95.06
420.726	114.06
420.948	103.06
421.171	116.06
421.394	100.06
421.617	101.06
421.839	107.06
422.062	98.06
422.285	121.06
422.507	97.06
422.73	110.06
422.953	100.06
423.175	102.06
423.398	120.06
423.621	103.06
423.843	121.06
424.066	125.06
424.288	115.06
424.511	115.06
424.733	110.06
424.956	117.06
425.178	113.06
425.401	108.06
425.623	109.06
425.846	117.06
426.068	115.06
426.291	110.06
426.513	131.06
426.735	126.06
426.958	89.06
427.18	100.06
427.402	119.06
427.625	117.06
427.847	107.06
428.069	110.06
428.292	94.06
428.514	98.06
428.736	117.06
428.958	105.06
429.181	111.06
429.403	103.06
429.625	106.06
429.847	96.06
430.069	108.06
430.292	108.06
430.514	104.06
430.736	104.06
430.958	102.06
431.18	107.06
431.402	111.06
431.624	91.06
431.846	102.06
432.068	103.06
432.29	98.06
432.512	85.06
432.734	100.06
432.956	102.06
433.178	113.06
433.4	117.06
433.622	101.06
433.844	99.06
434.066	99.06
434.287	102.06
434.509	108.06
434.731	89.06
434.953	102.06
435.175	87.06
435.397	101.06
435.618	104.06
435.84	109.06
436.062	92.06
436.284	104.06
436.505	120.06
436.727	104.06
436.949	95.06
437.17	106.06
437.392	110.06
437.614	93.06
437.835	93.06
438.057	108.06
438.278	106.06
438.5	103.06
438.721	111.06
438.943	107.06
439.165	101.06
439.386	113.06
439.608	111.06
439.829	108.06
440.05	124.06
440.272	109.06
440.493	119.06
440.715	107.06
440.936	117.06
441.158	104.06
441.379	117.06
441.6	119.06
441.822	100.06
442.043	116.06
442.264	117.06
442.486	110.06
442.707	117.06
442.928	106.06
443.149	102.06
443.371	119.06
443.592	119.06
443.813	109.06
444.034	110.06
444.255	123.06
444.476	111.06
444.698	114.06
444.919	104.06
445.14	244.06
445.361	186.06
445.582	127.06
445.803	100.06
446.024	115.06
446.245	118.06
446.466	129.06
446.687	108.06
446.908	119.06
447.129	110.06
447.35	108.06
447.571	135.06
447.792	125.06
448.013	131.06
448.234	119.06
448.455	121.06
448.675	121.06
448.896	108.06
449.117	106.06
449.338	108.06
449.559	121.06
449.779	109.06
450	108.06
450.221	108.06
450.442	107.06
450.662	125.06
450.883	116.06
451.104	110.06
451.324	111.06
451.545	115.06
451.766	107.06
451.986	100.06
452.207	107.06
452.428	94.06
452.648	111.06
452.869	97.06
453.089	106.06
453.31	97.06
453.53	97.06
453.751	92.06
453.971	91.06
454.192	98.06
454.412	76.06
454.633	102.06
454.853	92.06
455.073	102.06
455.294	102.06
455.514	126.06
455.734	106.06
455.955	79.06
456.175	98.06
456.395	95.06
456.616	113.06
456.836	101.06
457.056	93.06
457.276	93.06
457.497	90.06
457.717	88.06
457.937	87.06
458.157	101.06
458.377	96.06
458.598	99.06
458.818	95.06
459.038	91.06
459.258	65.06
459.478	88.06
459.698	85.06
459.918	84.06
460.138	98.06
460.358	78.06
460.578	100.06
460.798	97.06
461.018	82.06
461.238	102.06
461.458	99.06
461.678	107.06
461.898	100.06
462.118	104.06
462.338	110.06
462.558	105.06
462.777	95.06
462.997	88.06
463.217	82.06
463.437	91.06
463.657	105.06
463.876	88.06
464.096	93.06
464.316	96.06
464.536	113.06
464.755	94.06
464.975	95.06
465.195	113.06
465.414	98.06
465.634	123.06
465.854	100.06
466.073	105.06
466.293	108.06
466.512	101.06
466.732	111.06
466.951	105.06
467.171	106.06
467.391	119.06
467.61	126.06
467.829	110.06
468.049	117.06
468.268	119.06
468.488	101.06
468.707	99.06
468.927	115.06
469.146	105.06
469.365	115.06
469.585	117.06
469.804	109.06
470.023	116.06
470.243	119.06
470.462	116.06
470.681	134.06
470.901	121.06
471.12	121.06
471.339	120.06
471.558	124.06
471.777	118.06
471.997	119.06
472.216	110.06
472.435	104.06
472.654	101.06
472.873	114.06
473.092	106.06
473.311	97.06
473.53	113.06
473.749	99.06
473.968	115.06
474.187	106.06
474.406	116.06
474.625	117.06
474.844	109.06
475.063	121.06
475.282	85.06
475.501	105.06
475.72	104.06
475.939	116.06
476.158	109.06
476.377	94.06
476.596	80.06
476.814	88.06
477.033	86.06
477.252	93.06
477.471	110.06
477.69	109.06
477.908	104.06
478.127	104.06
478.346	89.06
478.564	108.06
478.783	100.06
479.002	95.06
479.22	99.06
479.439	108.06
479.658	100.06
479.876	92.06
480.095	98.06
480.313	100.06
480.532	105.06
480.751	107.06
480.969	89.06
481.188	96.06
481.406	84.06
481.624	101.06
481.843	84.06
482.061	100.06
482.28	91.06
482.498	115.06
482.717	91.06
482.935	100.06
483.153	98.06
483.372	106.06
483.59	121.06
483.808	118.06
484.027	111.06
484.245	99.06
484.463	118.06
484.681	119.06
484.9	129.06
485.118	120.06
485.336	96.06
485.554	94.06
485.772	87.06
485.99	106.06
486.209	98.06
486.427	95.06
486.645	107.06
486.863	121.06
487.081	105.06
487.299	115.06
487.517	119.06
487.735	125.06
487.953	135.06
488.171	138.06
488.389	139.06
488.607	135.06
488.825	121.06
489.043	116.06
489.261	106.06
489.479	122.06
489.696	111.06
489.914	122.06
490.132	121.06
490.35	123.06
490.568	121.06
490.786	127.06
491.003	109.06
491.221	138.06
491.439	142.06
491.657	128.06
491.874	134.06
492.092	148.06
492.31	162.06
492.527	171.06
492.745	138.06
492.963	143.06
493.18	137.06
493.398	140.06
493.615	136.06
493.833	130.06
494.05	114.06
494.268	114.06
494.485	118.06
494.703	134.06
494.92	134.06
495.138	122.06
495.355	129.06
495.573	133.06
495.79	122.06
496.008	123.06
496.225	137.06
496.442	128.06
496.66	149.06
496.877	148.06
497.094	132.06
497.312	123.06
497.529	119.06
497.746	119.06
497.963	122.06
498.181	101.06
498.398	108.06
498.615	113.06
498.832	110.06
499.049	121.06
499.267	129.06
499.484	117.06
499.701	111.06
499.918	106.06
500.135	113.06
500.352	99.06
500.569	111.06
500.786	109.06
501.003	114.06
501.22	118.06
501.437	102.06
501.654	108.06
501.871	104.06
502.088	106.06
502.305	96.06
502.522	108.06
502.739	103.06
502.956	106.06
503.172	95.06
503.389	100.06
503.606	99.06
503.823	105.06
504.04	102.06
504.256	93.06
504.473	105.06
504.69	111.06
504.907	108.06
505.123	117.06
505.34	105.06
505.557	113.06
505.773	116.06
505.99	108.06
506.207	116.06
506.423	110.06
506.64	102.06
506.856	99.06
507.073	91.06
507.289	103.06
507.506	109.06
507.722	118.06
507.939	94.06
508.155	120.06
508.372	94.06
508.588	103.06
508.805	95.06
509.021	96.06
509.238	87.06
509.454	99.06
509.67	91.06
509.887	86.06
510.103	98.06
510.319	105.06
510.536	89.06
510.752	86.06
510.968	75.06
511.184	90.06
511.401	96.06
511.617	85.06
511.833	97.06
512.049	102.06
512.265	104.06
512.481	92.06
512.698	82.06
512.914	98.06
513.13	92.06
513.346	80.06
513.562	87.06
513.778	92.06
513.994	87.06
514.21	90.06
514.426	83.06
514.642	91.06
514.858	92.06
515.074	96.06
515.29	91.06
515.506	89.06
515.721	86.06
515.937	86.06
516.153	82.06
516.369	91.06
516.585	81.06
516.801	86.06
517.016	79.06
517.232	80.06
517.448	91.06
517.664	89.06
517.879	100.06
518.095	91.06
518.311	84.06
518.527	77.06
518.742	95.06
518.958	93.06
519.173	98.06
519.389	117.06
519.605	107.06
519.82	107.06
520.036	94.06
520.251	99.06
520.467	95.06
520.682	87.06
520.898	86.06
521.113	79.06
521.329	79.06
521.544	107.06
521.76	92.06
521.975	101.06
522.19	81.06
522.406	92.06
522.621	105.06
522.836	97.06
523.052	103.06
523.267	92.06
523.482	87.06
523.698	92.06
523.913	110.06
524.128	102.06
524.343	99.06
524.559	92.06
524.774	108.06
524.989	98.06
525.204	95.06
525.419	106.06
525.634	111.06
525.849	109.06
526.064	103.06
526.28	90.06
526.495	98.06
526.71	82.06
526.925	83.06
527.14	78.06
527.355	85.06
527.57	86.06
527.785	93.06
527.999	91.06
528.214	89.06
528.429	100.06
528.644	98.06
528.859	105.06
529.074	121.06
529.289	133.06
529.503	127.06
529.718	131.06
529.933	103.06
530.148	100.06
530.363	103.06
530.577	90.06
530.792	93.06
531.007	82.06
531.221	80.06
531.436	86.06
531.651	83.06
531.865	90.06
532.08	82.06
532.295	86.06
532.509	96.06
532.724	91.06
532.938	90.06
533.153	99.06
533.367	94.06
533.582	110.06
533.796	121.06
534.011	100.06
534.225	83.06
534.44	98.06
534.654	110.06
534.868	90.06
535.083	95.06
535.297	79.06
535.511	92.06
535.726	97.06
535.94	103.06
536.154	99.06
536.369	84.06
536.583	83.06
536.797	85.06
537.011	76.06
537.225	96.06
537.44	79.06
537.654	89.06
537.868	76.06
538.082	87.06
538.296	92.06
538.51	109.06
538.724	100.06
538.938	94.06
539.153	111.06
539.367	111.06
539.581	94.06
539.795	104.06
540.009	97.06
540.222	87.06
540.436	89.06
540.65	106.06
540.864	93.06
541.078	103.06
541.292	123.06
541.506	123.06
541.72	128.06
541.934	130.06
542.147	127.06
542.361	129.06
542.575	124.06
542.789	113.06
543.002	114.06
543.216	102.06
543.43	90.06
543.644	107.06
543.857	113.06
544.071	114.06
544.285	126.06
544.498	134.06
544.712	118.06
544.925	109.06
545.139	121.06
545.352	123.06
545.566	110.06
545.779	129.06
545.993	119.06
546.206	118.06
546.42	129.06
546.633	121.06
546.847	116.06
547.06	117.06
547.274	127.06
547.487	123.06
547.7	119.06
547.914	122.06
548.127	129.06
548.34	122.06
548.554	117.06
548.767	118.06
548.98	120.06
549.193	114.06
549.407	118.06
549.62	125.06
549.833	134.06
550.046	113.06
550.259	113.06
550.473	109.06
550.686	131.06
550.899	134.06
551.112	117.06
551.325	99.06
551.538	107.06
551.751	90.06
551.964	102.06
552.177	93.06
552.39	97.06
552.603	106.06
552.816	106.06
553.029	117.06
553.242	115.06
553.455	109.06
553.667	129.06
553.88	117.06
554.093	110.06
554.306	119.06
554.519	120.06
554.732	117.06
554.944	129.06
555.157	113.06
555.37	117.06
555.583	122.06
555.795	125.06
556.008	102.06
556.221	110.06
556.433	108.06
556.646	104.06
556.859	102.06
557.071	109.06
557.284	104.06
557.496	111.06
557.709	110.06
557.921	108.06
558.134	107.06
558.346	116.06
558.559	107.06
558.771	102.06
558.984	111.06
559.196	91.06
559.409	100.06
559.621	103.06
559.833	94.06
560.046	108.06
560.258	108.06
560.47	103.06
560.683	110.06
560.895	108.06
561.107	110.06
561.32	107.06
561.532	106.06
561.744	97.06
561.956	117.06
562.168	109.06
562.381	93.06
562.593	102.06
562.805	96.06
563.017	95.06
563.229	119.06
563.441	111.06
563.653	122.06
563.865	114.06
564.077	100.06
564.289	117.06
564.501	115.06
564.713	98.06
564.925	107.06
565.137	92.06
565.349	104.06
565.561	99.06
565.773	100.06
565.985	100.06
566.197	104.06
566.408	101.06
566.62	103.06
566.832	105.06
567.044	108.06
567.255	94.06
567.467	103.06
567.679	115.06
567.891	90.06
568.102	97.06
568.314	88.06
568.526	91.06
568.737	93.06
568.949	72.06
569.161	101.06
569.372	96.06
569.584	84.06
569.795	89.06
570.007	85.06
570.218	83.06
570.43	80.06
570.641	98.06
570.853	94.06
571.064	90.06
571.276	86.06
571.487	103.06
571.698	92.06
571.91	94.06
572.121	97.06
572.333	89.06
572.544	89.06
572.755	92.06
572.966	95.06
573.178	88.06
573.389	99.06
573.6	88.06
573.811	76.06
574.023	81.06
574.234	76.06
574.445	80.06
574.656	91.06
574.867	97.06
575.078	86.06
575.289	97.06
575.501	103.06
575.712	97.06
575.923	90.06
576.134	74.06
576.345	83.06
576.556	107.06
576.767	104.06
576.978	99.06
577.188	95.06
577.399	87.06
577.61	86.06
577.821	89.06
578.032	70.06
578.243	97.06
578.454	99.06
578.665	101.06
578.875	83.06
579.086	91.06
579.297	76.06
579.508	78.06
579.718	98.06
579.929	87.06
580.14	72.06
580.35	87.06
580.561	91.06
580.772	90.06
580.982	81.06
581.193	86.06
581.403	66.06
581.614	88.06
581.825	91.06
582.035	86.06
582.246	96.06
582.456	77.06
582.667	89.06
582.877	76.06
583.087	81.06
583.298	85.06
583.508	97.06
583.719	101.06
583.929	85.06
584.139	76.06
584.35	89.06
584.56	86.06
584.77	97.06
584.981	88.06
585.191	73.06
585.401	72.06
585.611	88.06
585.821	82.06
586.032	86.06
586.242	87.06
586.452	66.06
586.662	93.06
586.872	74.06
587.082	79.06
587.292	79.06
587.502	84.06
587.713	78.06
587.923	92.06
588.133	83.06
588.343	95.06
588.553	79.06
588.762	79.06
588.972	75.06
589.182	88.06
589.392	78.06
589.602	70.06
589.812	92.06
590.022	91.06
590.232	92.06
590.441	77.06
590.651	91.06
590.861	100.06
591.071	92.06
591.281	80.06
591.49	63.06
591.7	77.06
591.91	97.06
592.119	90.06
592.329	83.06
592.539	88.06
592.748	66.06
592.958	85.06
593.167	83.06
593.377	83.06
593.587	92.06
593.796	85.06
594.006	82.06
594.215	80.06
594.424	93.06
594.634	81.06
594.843	99.06
595.053	99.06
595.262	101.06
595.472	72.06
595.681	94.06
595.89	78.06
596.1	88.06
596.309	95.06
596.518	96.06
596.727	85.06
596.937	92.06
597.146	90.06
597.355	100.06
597.564	103.06
597.774	86.06
597.983	86.06
598.192	84.06
598.401	85.06
598.61	90.06
598.819	98.06
599.028	79.06
599.237	83.06
599.446	91.06
599.655	82.06
599.864	95.06
600.073	92.06
600.282	97.06
600.491	90.06
600.7	104.06
600.909	91.06
601.118	93.06
601.327	102.06
601.536	101.06
601.745	84.06
601.953	88.06
602.162	97.06
602.371	94.06
602.58	95.06
602.789	99.06
602.997	105.06
603.206	97.06
603.415	86.06
603.623	93.06
603.832	89.06
604.041	91.06
604.249	98.06
604.458	107.06
604.666	92.06
604.875	108.06
605.084	94.06
605.292	102.06
605.501	92.06
605.709	101.06
605.918	87.06
606.126	92.06
606.334	110.06
606.543	104.06
606.751	93.06
606.96	102.06
607.168	92.06
607.376	92.06
607.585	99.06
607.793	99.06
608.001	89.06
608.21	99.06
608.418	91.06
608.626	101.06
608.834	98.06
609.043	110.06
609.251	89.06
609.459	109.06
609.667	94.06
609.875	118.06
610.083	104.06
610.291	101.06
610.499	98.06
610.707	113.06
610.916	106.06
611.124	110.06
611.332	106.06
611.54	95.06
611.748	102.06
611.955	108.06
612.163	93.06
612.371	101.06
612.579	103.06
612.787	119.06
612.995	104.06
613.203	105.06
613.411	89.06
613.618	91.06
613.826	96.06
614.034	100.06
614.242	99.06
614.449	92.06
614.657	93.06
614.865	105.06
615.072	97.06
615.28	93.06
615.488	92.06
615.695	97.06
615.903	91.06
616.111	98.06
616.318	104.06
616.526	94.06
616.733	99.06
616.941	103.06
617.148	105.06
617.356	97.06
617.563	98.06
617.771	100.06
617.978	101.06
618.185	103.06
618.393	105.06
618.6	84.06
618.807	77.06
619.015	97.06
619.222	96.06
619.429	77.06
619.637	98.06
619.844	93.06
620.051	79.06
620.258	95.06
620.466	84.06
620.673	99.06
620.88	89.06
621.087	103.06
621.294	104.06
621.501	80.06
621.708	93.06
621.915	96.06
622.122	99.06
622.329	92.06
622.536	98.06
622.743	101.06
622.95	87.06
623.157	83.06
623.364	98.06
623.571	107.06
623.778	85.06
623.985	106.06
624.192	93.06
624.399	97.06
624.606	96.06
624.812	83.06
625.019	99.06
625.226	98.06
625.433	95.06
625.639	97.06
625.846	88.06
626.053	84.06
626.259	82.06
626.466	97.06
626.673	76.06
626.879	87.06
627.086	90.06
627.293	90.06
627.499	87.06
627.706	101.06
627.912	79.06
628.119	102.06
628.325	90.06
628.532	102.06
628.738	89.06
628.945	110.06
629.151	107.06
629.357	72.06
629.564	89.06
629.77	88.06
629.976	94.06
630.183	96.06
630.389	85.06
630.595	94.06
630.802	89.06
631.008	91.06
631.214	101.06
631.42	104.06
631.627	98.06
631.833	101.06
632.039	101.06
632.245	84.06
632.451	101.06
632.657	103.06
632.863	94.06
633.069	79.06
633.275	100.06
633.481	79.06
633.688	79.06
633.893	97.06
634.099	88.06
634.305	95.06
634.511	93.06
634.717	84.06
634.923	90.06
635.129	96.06
635.335	96.06
635.541	85.06
635.747	96.06
635.952	95.06
636.158	106.06
636.364	94.06
636.57	87.06
636.775	89.06
636.981	94.06
637.187	94.06
637.392	100.06
637.598	95.06
637.804	90.06
638.009	91.06
638.215	83.06
638.421	112.06
638.626	104.06
638.832	102.06
639.037	100.06
639.243	78.06
639.448	89.06
639.654	99.06
639.859	91.06
640.065	78.06
640.27	99.06
640.475	94.06
640.681	100.06
640.886	107.06
641.091	102.06
641.297	99.06
641.502	119.06
641.707	99.06
641.913	81.06
642.118	95.06
642.323	96.06
642.528	86.06
642.733	101.06
642.939	89.06
643.144	98.06
643.349	101.06
643.554	103.06
643.759	99.06
643.964	90.06
644.169	83.06
644.374	86.06
644.579	94.06
644.784	84.06
644.989	92.06
645.194	104.06
645.399	87.06
645.604	84.06
645.809	80.06
646.014	82.06
646.219	114.06
646.423	87.06
646.628	92.06
646.833	95.06
647.038	93.06
647.243	99.06
647.447	92.06
647.652	105.06
647.857	101.06
648.062	81.06
648.266	94.06
648.471	92.06
648.676	98.06
648.88	102.06
649.085	81.06
649.289	84.06
649.494	92.06
649.698	98.06
649.903	93.06
650.107	97.06
650.312	93.06
650.516	96.06
650.721	104.06
650.925	88.06
651.13	94.06
651.334	94.06
651.539	82.06
651.743	81.06
651.947	79.06
652.152	92.06
652.356	85.06
652.56	82.06
652.764	93.06
652.969	98.06
653.173	88.06
653.377	97.06
653.581	94.06
653.785	85.06
653.99	84.06
654.194	83.06
654.398	101.06
654.602	84.06
654.806	84.06
655.01	79.06
655.214	91.06
655.418	83.06
655.622	89.06
655.826	86.06
656.03	84.06
656.234	99.06
656.438	80.06
656.642	92.06
656.846	78.06
657.049	79.06
657.253	89.06
657.457	86.06
657.661	74.06
657.865	77.06
658.068	80.06
658.272	91.06
658.476	85.06
658.68	74.06
658.883	90.06
659.087	86.06
659.291	87.06
659.494	82.06
659.698	89.06
659.901	95.06
660.105	85.06
660.309	83.06
660.512	79.06
660.716	70.06
660.919	89.06
661.123	102.06
661.326	89.06
661.53	90.06
661.733	87.06
661.936	90.06
662.14	72.06
662.343	89.06
662.546	82.06
662.75	92.06
662.953	90.06
663.156	91.06
663.36	78.06
663.563	85.06
663.766	100.06
663.969	87.06
664.173	82.06
664.376	74.06
664.579	86.06
664.782	85.06
664.985	92.06
665.188	87.06
665.391	79.06
665.594	78.06
665.797	81.06
666	91.06
666.203	82.06
666.406	75.06
666.609	76.06
666.812	85.06
667.015	91.06
667.218	93.06
667.421	62.06
667.624	87.06
667.827	75.06
668.03	75.06
668.232	90.06
668.435	78.06
668.638	88.06
668.841	91.06
669.043	90.06
669.246	79.06
669.449	81.06
669.651	80.06
669.854	78.06
670.057	88.06
670.259	91.06
670.462	87.06
670.665	78.06
670.867	82.06
671.07	89.06
671.272	86.06
671.475	79.06
671.677	87.06
671.88	101.06
672.082	79.06
672.284	69.06
672.487	96.06
672.689	87.06
672.892	84.06
