Data from Zn(NO3)2Standard.Agarose3%.GreenCap.LampEnergy5.5.E.O_HRD10591_15-00-57-767.txt Node
Date: Mon Jul 22 15:00:57 EDT 2019
User: cochatt
Spectrometer: HR+D1059
Trigger mode: 1
Integration Time (sec): 1.000000E-1
Scans to average: 1
Electric dark correction enabled: true
Nonlinearity correction enabled: false
Boxcar width: 0
XAxis mode: Wavelengths
Number of Pixels in Spectrum: 2048
>>>>>Begin Spectral Data<<<<<
223.165	-8.12
223.4	-8.12
223.635	-8.12
223.869	-19.12
224.104	-3.12
224.338	-3.12
224.573	-22.12
224.808	-18.12
225.042	-11.12
225.277	-3.12
225.511	1.88
225.746	5.88
225.98	-1.12
226.215	6.88
226.449	14.88
226.683	15.88
226.918	27.88
227.152	15.88
227.387	37.88
227.621	37.88
227.856	55.88
228.09	42.88
228.324	55.88
228.559	42.88
228.793	59.88
229.027	57.88
229.262	65.88
229.496	64.88
229.73	82.88
229.964	62.88
230.199	66.88
230.433	64.88
230.667	66.88
230.901	87.88
231.136	93.88
231.37	73.88
231.604	86.88
231.838	79.88
232.072	92.88
232.306	90.88
232.541	84.88
232.775	77.88
233.009	73.88
233.243	87.88
233.477	77.88
233.711	86.88
233.945	78.88
234.179	87.88
234.413	79.88
234.647	77.88
234.881	80.88
235.115	90.88
235.349	75.88
235.583	77.88
235.817	85.88
236.051	75.88
236.285	78.88
236.519	82.88
236.753	89.88
236.987	78.88
237.221	65.88
237.455	80.88
237.689	78.88
237.922	83.88
238.156	66.88
238.39	83.88
238.624	84.88
238.858	77.88
239.091	71.88
239.325	90.88
239.559	76.88
239.793	69.88
240.027	76.88
240.26	71.88
240.494	84.88
240.728	73.88
240.961	72.88
241.195	76.88
241.429	68.88
241.662	77.88
241.896	78.88
242.13	83.88
242.363	75.88
242.597	90.88
242.83	90.88
243.064	71.88
243.298	79.88
243.531	80.88
243.765	82.88
243.998	74.88
244.232	86.88
244.465	73.88
244.699	85.88
244.932	75.88
245.166	70.88
245.399	79.88
245.633	95.88
245.866	89.88
246.099	80.88
246.333	97.88
246.566	74.88
246.8	64.88
247.033	63.88
247.266	76.88
247.5	83.88
247.733	74.88
247.966	77.88
248.2	68.88
248.433	83.88
248.666	69.88
248.899	88.88
249.133	76.88
249.366	86.88
249.599	63.88
249.832	83.88
250.066	85.88
250.299	73.88
250.532	84.88
250.765	74.88
250.998	82.88
251.231	94.88
251.465	77.88
251.698	78.88
251.931	71.88
252.164	70.88
252.397	71.88
252.63	84.88
252.863	73.88
253.096	85.88
253.329	78.88
253.562	71.88
253.795	85.88
254.028	85.88
254.261	82.88
254.494	83.88
254.727	75.88
254.96	87.88
255.193	83.88
255.426	91.88
255.659	91.88
255.892	79.88
256.124	83.88
256.357	81.88
256.59	78.88
256.823	78.88
257.056	79.88
257.289	94.88
257.521	72.88
257.754	68.88
257.987	92.88
258.22	75.88
258.452	91.88
258.685	78.88
258.918	82.88
259.151	79.88
259.383	77.88
259.616	79.88
259.849	84.88
260.081	99.88
260.314	88.88
260.547	69.88
260.779	87.88
261.012	72.88
261.244	81.88
261.477	75.88
261.71	76.88
261.942	73.88
262.175	90.88
262.407	82.88
262.64	78.88
262.872	71.88
263.105	89.88
263.337	83.88
263.57	90.88
263.802	90.88
264.035	93.88
264.267	98.88
264.499	94.88
264.732	85.88
264.964	85.88
265.197	92.88
265.429	81.88
265.661	80.88
265.894	94.88
266.126	85.88
266.358	79.88
266.591	91.88
266.823	83.88
267.055	90.88
267.287	77.88
267.52	73.88
267.752	96.88
267.984	87.88
268.216	97.88
268.448	75.88
268.681	85.88
268.913	89.88
269.145	85.88
269.377	79.88
269.609	70.88
269.841	71.88
270.073	86.88
270.306	97.88
270.538	76.88
270.77	96.88
271.002	92.88
271.234	71.88
271.466	84.88
271.698	71.88
271.93	76.88
272.162	82.88
272.394	92.88
272.626	84.88
272.858	92.88
273.09	82.88
273.322	76.88
273.553	81.88
273.785	88.88
274.017	76.88
274.249	79.88
274.481	83.88
274.713	79.88
274.945	97.88
275.176	86.88
275.408	71.88
275.64	92.88
275.872	69.88
276.104	68.88
276.335	79.88
276.567	96.88
276.799	95.88
277.031	88.88
277.262	95.88
277.494	72.88
277.726	79.88
277.957	92.88
278.189	74.88
278.421	87.88
278.652	85.88
278.884	72.88
279.115	84.88
279.347	80.88
279.579	88.88
279.81	77.88
280.042	77.88
280.273	91.88
280.505	78.88
280.736	83.88
280.968	74.88
281.199	91.88
281.431	92.88
281.662	82.88
281.894	91.88
282.125	83.88
282.356	76.88
282.588	83.88
282.819	92.88
283.051	88.88
283.282	76.88
283.513	80.88
283.745	78.88
283.976	71.88
284.207	87.88
284.439	80.88
284.67	84.88
284.901	73.88
285.132	88.88
285.364	90.88
285.595	86.88
285.826	85.88
286.057	83.88
286.288	90.88
286.52	74.88
286.751	87.88
286.982	73.88
287.213	86.88
287.444	97.88
287.675	94.88
287.906	83.88
288.138	87.88
288.369	89.88
288.6	99.88
288.831	78.88
289.062	105.88
289.293	88.88
289.524	88.88
289.755	78.88
289.986	74.88
290.217	89.88
290.448	75.88
290.679	85.88
290.91	99.88
291.141	69.88
291.371	80.88
291.602	104.88
291.833	91.88
292.064	81.88
292.295	75.88
292.526	74.88
292.757	95.88
292.987	87.88
293.218	81.88
293.449	90.88
293.68	94.88
293.91	82.88
294.141	83.88
294.372	89.88
294.603	83.88
294.833	91.88
295.064	80.88
295.295	81.88
295.525	77.88
295.756	84.88
295.987	94.88
296.217	84.88
296.448	92.88
296.679	97.88
296.909	69.88
297.14	71.88
297.37	88.88
297.601	72.88
297.831	85.88
298.062	86.88
298.292	81.88
298.523	92.88
298.753	71.88
298.984	87.88
299.214	87.88
299.445	85.88
299.675	79.88
299.905	73.88
300.136	93.88
300.366	92.88
300.597	75.88
300.827	81.88
301.057	75.88
301.288	83.88
301.518	74.88
301.748	93.88
301.979	67.88
302.209	102.88
302.439	83.88
302.669	79.88
302.9	83.88
303.13	83.88
303.36	101.88
303.59	79.88
303.82	84.88
304.051	67.88
304.281	66.88
304.511	99.88
304.741	85.88
304.971	79.88
305.201	87.88
305.431	74.88
305.661	73.88
305.891	80.88
306.121	97.88
306.352	78.88
306.582	71.88
306.812	85.88
307.042	85.88
307.272	99.88
307.502	81.88
307.731	74.88
307.961	94.88
308.191	79.88
308.421	83.88
308.651	84.88
308.881	88.88
309.111	78.88
309.341	77.88
309.571	72.88
309.8	90.88
310.03	89.88
310.26	78.88
310.49	87.88
310.72	68.88
310.949	85.88
311.179	105.88
311.409	85.88
311.639	89.88
311.868	86.88
312.098	81.88
312.328	80.88
312.557	87.88
312.787	92.88
313.017	92.88
313.246	85.88
313.476	93.88
313.706	75.88
313.935	83.88
314.165	79.88
314.394	90.88
314.624	89.88
314.853	89.88
315.083	92.88
315.312	80.88
315.542	82.88
315.771	91.88
316.001	83.88
316.23	83.88
316.46	82.88
316.689	81.88
316.919	93.88
317.148	83.88
317.377	67.88
317.607	90.88
317.836	86.88
318.065	86.88
318.295	85.88
318.524	86.88
318.753	78.88
318.983	94.88
319.212	85.88
319.441	82.88
319.67	83.88
319.9	94.88
320.129	78.88
320.358	77.88
320.587	91.88
320.816	79.88
321.046	91.88
321.275	91.88
321.504	91.88
321.733	90.88
321.962	83.88
322.191	92.88
322.42	93.88
322.649	95.88
322.878	84.88
323.108	88.88
323.337	89.88
323.566	82.88
323.795	86.88
324.024	93.88
324.253	84.88
324.482	73.88
324.71	83.88
324.939	79.88
325.168	82.88
325.397	92.88
325.626	101.88
325.855	95.88
326.084	101.88
326.313	98.88
326.542	90.88
326.77	84.88
326.999	81.88
327.228	83.88
327.457	100.88
327.686	90.88
327.914	86.88
328.143	87.88
328.372	97.88
328.6	82.88
328.829	83.88
329.058	79.88
329.287	76.88
329.515	108.88
329.744	87.88
329.972	87.88
330.201	81.88
330.43	95.88
330.658	84.88
330.887	83.88
331.115	87.88
331.344	94.88
331.572	76.88
331.801	87.88
332.03	89.88
332.258	69.88
332.486	70.88
332.715	83.88
332.943	78.88
333.172	92.88
333.4	75.88
333.629	89.88
333.857	70.88
334.085	84.88
334.314	86.88
334.542	83.88
334.771	77.88
334.999	94.88
335.227	85.88
335.455	85.88
335.684	80.88
335.912	83.88
336.14	84.88
336.369	90.88
336.597	80.88
336.825	93.88
337.053	87.88
337.281	91.88
337.51	71.88
337.738	85.88
337.966	92.88
338.194	90.88
338.422	67.88
338.65	92.88
338.878	100.88
339.106	86.88
339.334	92.88
339.562	93.88
339.79	87.88
340.018	79.88
340.246	85.88
340.474	89.88
340.702	73.88
340.93	87.88
341.158	76.88
341.386	83.88
341.614	84.88
341.842	77.88
342.07	100.88
342.298	76.88
342.526	74.88
342.754	80.88
342.981	85.88
343.209	75.88
343.437	83.88
343.665	85.88
343.893	65.88
344.12	78.88
344.348	93.88
344.576	85.88
344.804	86.88
345.031	81.88
345.259	90.88
345.487	86.88
345.714	85.88
345.942	70.88
346.17	89.88
346.397	85.88
346.625	82.88
346.853	77.88
347.08	95.88
347.308	87.88
347.535	93.88
347.763	92.88
347.99	84.88
348.218	84.88
348.445	93.88
348.673	95.88
348.9	79.88
349.128	81.88
349.355	89.88
349.583	82.88
349.81	80.88
350.037	80.88
350.265	92.88
350.492	86.88
350.72	87.88
350.947	93.88
351.174	101.88
351.402	70.88
351.629	90.88
351.856	91.88
352.083	83.88
352.311	86.88
352.538	92.88
352.765	72.88
352.992	84.88
353.22	106.88
353.447	96.88
353.674	93.88
353.901	65.88
354.128	95.88
354.355	72.88
354.583	92.88
354.81	87.88
355.037	96.88
355.264	89.88
355.491	72.88
355.718	83.88
355.945	78.88
356.172	85.88
356.399	85.88
356.626	89.88
356.853	89.88
357.08	97.88
357.307	90.88
357.534	95.88
357.761	89.88
357.988	80.88
358.215	89.88
358.441	99.88
358.668	76.88
358.895	76.88
359.122	77.88
359.349	97.88
359.576	95.88
359.802	89.88
360.029	94.88
360.256	87.88
360.483	78.88
360.709	82.88
360.936	90.88
361.163	78.88
361.39	86.88
361.616	90.88
361.843	74.88
362.07	94.88
362.296	94.88
362.523	89.88
362.749	82.88
362.976	86.88
363.203	68.88
363.429	82.88
363.656	93.88
363.882	86.88
364.109	106.88
364.335	91.88
364.562	81.88
364.788	88.88
365.015	78.88
365.241	73.88
365.468	79.88
365.694	74.88
365.92	86.88
366.147	99.88
366.373	91.88
366.599	98.88
366.826	87.88
367.052	75.88
367.278	89.88
367.505	94.88
367.731	97.88
367.957	87.88
368.184	84.88
368.41	83.88
368.636	83.88
368.862	92.88
369.089	89.88
369.315	66.88
369.541	93.88
369.767	93.88
369.993	82.88
370.219	84.88
370.445	84.88
370.672	79.88
370.898	90.88
371.124	86.88
371.35	72.88
371.576	93.88
371.802	83.88
372.028	85.88
372.254	102.88
372.48	97.88
372.706	92.88
372.932	85.88
373.158	95.88
373.384	89.88
373.61	96.88
373.835	93.88
374.061	99.88
374.287	84.88
374.513	92.88
374.739	84.88
374.965	84.88
375.191	84.88
375.416	77.88
375.642	77.88
375.868	85.88
376.094	101.88
376.319	99.88
376.545	84.88
376.771	86.88
376.997	87.88
377.222	89.88
377.448	81.88
377.674	81.88
377.899	88.88
378.125	71.88
378.35	83.88
378.576	84.88
378.802	89.88
379.027	87.88
379.253	84.88
379.478	76.88
379.704	78.88
379.929	92.88
380.155	92.88
380.38	87.88
380.606	81.88
380.831	85.88
381.057	79.88
381.282	92.88
381.507	84.88
381.733	94.88
381.958	87.88
382.184	83.88
382.409	69.88
382.634	82.88
382.86	75.88
383.085	81.88
383.31	85.88
383.535	81.88
383.761	88.88
383.986	84.88
384.211	91.88
384.436	72.88
384.662	71.88
384.887	91.88
385.112	73.88
385.337	90.88
385.562	89.88
385.787	90.88
386.013	85.88
386.238	88.88
386.463	85.88
386.688	75.88
386.913	87.88
387.138	77.88
387.363	83.88
387.588	84.88
387.813	83.88
388.038	75.88
388.263	88.88
388.488	79.88
388.713	74.88
388.938	89.88
389.163	89.88
389.387	90.88
389.612	74.88
389.837	78.88
390.062	85.88
390.287	74.88
390.512	77.88
390.736	91.88
390.961	87.88
391.186	74.88
391.411	87.88
391.636	78.88
391.86	71.88
392.085	65.88
392.31	85.88
392.534	74.88
392.759	85.88
392.984	99.88
393.208	85.88
393.433	89.88
393.658	83.88
393.882	92.88
394.107	95.88
394.331	77.88
394.556	77.88
394.78	84.88
395.005	82.88
395.229	93.88
395.454	78.88
395.678	93.88
395.903	84.88
396.127	85.88
396.352	87.88
396.576	93.88
396.801	90.88
397.025	82.88
397.249	99.88
397.474	96.88
397.698	77.88
397.922	91.88
398.147	99.88
398.371	87.88
398.595	83.88
398.82	83.88
399.044	81.88
399.268	85.88
399.492	83.88
399.717	85.88
399.941	73.88
400.165	92.88
400.389	89.88
400.613	77.88
400.837	90.88
401.062	98.88
401.286	69.88
401.51	87.88
401.734	90.88
401.958	76.88
402.182	73.88
402.406	81.88
402.63	76.88
402.854	86.88
403.078	87.88
403.302	77.88
403.526	88.88
403.75	81.88
403.974	73.88
404.198	81.88
404.422	98.88
404.645	92.88
404.869	85.88
405.093	87.88
405.317	78.88
405.541	92.88
405.765	91.88
405.988	82.88
406.212	91.88
406.436	92.88
406.66	93.88
406.883	80.88
407.107	87.88
407.331	99.88
407.555	79.88
407.778	99.88
408.002	86.88
408.226	85.88
408.449	92.88
408.673	86.88
408.896	62.88
409.12	84.88
409.344	94.88
409.567	82.88
409.791	83.88
410.014	87.88
410.238	102.88
410.461	98.88
410.685	78.88
410.908	85.88
411.132	99.88
411.355	84.88
411.578	87.88
411.802	89.88
412.025	86.88
412.249	86.88
412.472	88.88
412.695	97.88
412.919	90.88
413.142	103.88
413.365	95.88
413.589	83.88
413.812	86.88
414.035	115.88
414.258	83.88
414.482	92.88
414.705	98.88
414.928	90.88
415.151	90.88
415.374	86.88
415.597	106.88
415.821	94.88
416.044	82.88
416.267	86.88
416.49	89.88
416.713	90.88
416.936	89.88
417.159	89.88
417.382	82.88
417.605	73.88
417.828	93.88
418.051	90.88
418.274	101.88
418.497	96.88
418.72	95.88
418.943	83.88
419.166	99.88
419.389	85.88
419.611	99.88
419.834	97.88
420.057	82.88
420.28	88.88
420.503	85.88
420.726	96.88
420.948	106.88
421.171	90.88
421.394	92.88
421.617	102.88
421.839	84.88
422.062	83.88
422.285	94.88
422.507	91.88
422.73	82.88
422.953	80.88
423.175	83.88
423.398	85.88
423.621	90.88
423.843	93.88
424.066	97.88
424.288	71.88
424.511	98.88
424.733	93.88
424.956	85.88
425.178	105.88
425.401	83.88
425.623	83.88
425.846	94.88
426.068	91.88
426.291	79.88
426.513	102.88
426.735	86.88
426.958	99.88
427.18	83.88
427.402	97.88
427.625	99.88
427.847	90.88
428.069	94.88
428.292	86.88
428.514	92.88
428.736	84.88
428.958	94.88
429.181	109.88
429.403	90.88
429.625	89.88
429.847	97.88
430.069	92.88
430.292	92.88
430.514	85.88
430.736	82.88
430.958	93.88
431.18	95.88
431.402	88.88
431.624	90.88
431.846	89.88
432.068	76.88
432.29	80.88
432.512	93.88
432.734	104.88
432.956	79.88
433.178	92.88
433.4	88.88
433.622	91.88
433.844	98.88
434.066	84.88
434.287	76.88
434.509	92.88
434.731	84.88
434.953	98.88
435.175	79.88
435.397	94.88
435.618	92.88
435.84	96.88
436.062	86.88
436.284	101.88
436.505	92.88
436.727	101.88
436.949	83.88
437.17	83.88
437.392	93.88
437.614	81.88
437.835	81.88
438.057	94.88
438.278	94.88
438.5	94.88
438.721	96.88
438.943	87.88
439.165	101.88
439.386	91.88
439.608	92.88
439.829	100.88
440.05	100.88
440.272	82.88
440.493	94.88
440.715	98.88
440.936	95.88
441.158	103.88
441.379	89.88
441.6	89.88
441.822	97.88
442.043	89.88
442.264	83.88
442.486	92.88
442.707	91.88
442.928	93.88
443.149	93.88
443.371	99.88
443.592	92.88
443.813	95.88
444.034	102.88
444.255	90.88
444.476	91.88
444.698	106.88
444.919	89.88
445.14	177.88
445.361	135.88
445.582	90.88
445.803	82.88
446.024	97.88
446.245	98.88
446.466	85.88
446.687	83.88
446.908	93.88
447.129	92.88
447.35	97.88
447.571	92.88
447.792	84.88
448.013	91.88
448.234	89.88
448.455	91.88
448.675	83.88
448.896	80.88
449.117	98.88
449.338	92.88
449.559	89.88
449.779	86.88
450	76.88
450.221	83.88
450.442	100.88
450.662	92.88
450.883	80.88
451.104	82.88
451.324	82.88
451.545	83.88
451.766	89.88
451.986	81.88
452.207	86.88
452.428	88.88
452.648	82.88
452.869	75.88
453.089	90.88
453.31	88.88
453.53	74.88
453.751	77.88
453.971	88.88
454.192	81.88
454.412	77.88
454.633	91.88
454.853	78.88
455.073	81.88
455.294	98.88
455.514	100.88
455.734	81.88
455.955	85.88
456.175	87.88
456.395	93.88
456.616	81.88
456.836	90.88
457.056	74.88
457.276	100.88
457.497	83.88
457.717	81.88
457.937	100.88
458.157	90.88
458.377	93.88
458.598	85.88
458.818	74.88
459.038	83.88
459.258	85.88
459.478	93.88
459.698	89.88
459.918	82.88
460.138	79.88
460.358	74.88
460.578	91.88
460.798	90.88
461.018	89.88
461.238	90.88
461.458	101.88
461.678	87.88
461.898	92.88
462.118	93.88
462.338	87.88
462.558	83.88
462.777	79.88
462.997	83.88
463.217	82.88
463.437	87.88
463.657	88.88
463.876	89.88
464.096	85.88
464.316	94.88
464.536	83.88
464.755	75.88
464.975	92.88
465.195	88.88
465.414	87.88
465.634	84.88
465.854	90.88
466.073	101.88
466.293	96.88
466.512	87.88
466.732	84.88
466.951	86.88
467.171	102.88
467.391	98.88
467.61	81.88
467.829	78.88
468.049	93.88
468.268	76.88
468.488	79.88
468.707	84.88
468.927	80.88
469.146	99.88
469.365	93.88
469.585	84.88
469.804	98.88
470.023	77.88
470.243	99.88
470.462	95.88
470.681	88.88
470.901	79.88
471.12	87.88
471.339	101.88
471.558	87.88
471.777	98.88
471.997	93.88
472.216	84.88
472.435	94.88
472.654	86.88
472.873	90.88
473.092	85.88
473.311	85.88
473.53	86.88
473.749	83.88
473.968	115.88
474.187	91.88
474.406	84.88
474.625	86.88
474.844	86.88
475.063	90.88
475.282	104.88
475.501	77.88
475.72	91.88
475.939	103.88
476.158	89.88
476.377	86.88
476.596	97.88
476.814	83.88
477.033	84.88
477.252	96.88
477.471	90.88
477.69	101.88
477.908	84.88
478.127	87.88
478.346	98.88
478.564	96.88
478.783	95.88
479.002	82.88
479.22	90.88
479.439	78.88
479.658	76.88
479.876	89.88
480.095	86.88
480.313	76.88
480.532	76.88
480.751	89.88
480.969	91.88
481.188	88.88
481.406	93.88
481.624	90.88
481.843	81.88
482.061	70.88
482.28	85.88
482.498	84.88
482.717	75.88
482.935	92.88
483.153	97.88
483.372	98.88
483.59	91.88
483.808	88.88
484.027	93.88
484.245	84.88
484.463	99.88
484.681	107.88
484.9	113.88
485.118	93.88
485.336	89.88
485.554	93.88
485.772	90.88
485.99	84.88
486.209	91.88
486.427	83.88
486.645	86.88
486.863	79.88
487.081	85.88
487.299	79.88
487.517	93.88
487.735	94.88
487.953	84.88
488.171	93.88
488.389	105.88
488.607	90.88
488.825	106.88
489.043	77.88
489.261	102.88
489.479	95.88
489.696	87.88
489.914	93.88
490.132	99.88
490.35	86.88
490.568	80.88
490.786	94.88
491.003	92.88
491.221	97.88
491.439	104.88
491.657	98.88
491.874	99.88
492.092	109.88
492.31	102.88
492.527	107.88
492.745	89.88
492.963	93.88
493.18	122.88
493.398	113.88
493.615	93.88
493.833	84.88
494.05	92.88
494.268	106.88
494.485	94.88
494.703	100.88
494.92	101.88
495.138	112.88
495.355	104.88
495.573	103.88
495.79	97.88
496.008	93.88
496.225	102.88
496.442	107.88
496.66	95.88
496.877	101.88
497.094	109.88
497.312	97.88
497.529	83.88
497.746	101.88
497.963	79.88
498.181	95.88
498.398	100.88
498.615	99.88
498.832	85.88
499.049	74.88
499.267	86.88
499.484	99.88
499.701	117.88
499.918	107.88
500.135	94.88
500.352	115.88
500.569	75.88
500.786	93.88
501.003	97.88
501.22	86.88
501.437	86.88
501.654	100.88
501.871	92.88
502.088	101.88
502.305	104.88
502.522	89.88
502.739	93.88
502.956	97.88
503.172	90.88
503.389	97.88
503.606	96.88
503.823	99.88
504.04	84.88
504.256	92.88
504.473	74.88
504.69	90.88
504.907	90.88
505.123	80.88
505.34	91.88
505.557	93.88
505.773	89.88
505.99	96.88
506.207	94.88
506.423	92.88
506.64	98.88
506.856	95.88
507.073	101.88
507.289	92.88
507.506	98.88
507.722	85.88
507.939	92.88
508.155	92.88
508.372	93.88
508.588	100.88
508.805	76.88
509.021	86.88
509.238	95.88
509.454	94.88
509.67	80.88
509.887	94.88
510.103	105.88
510.319	85.88
510.536	81.88
510.752	75.88
510.968	100.88
511.184	77.88
511.401	91.88
511.617	78.88
511.833	91.88
512.049	87.88
512.265	82.88
512.481	90.88
512.698	91.88
512.914	86.88
513.13	82.88
513.346	95.88
513.562	95.88
513.778	95.88
513.994	86.88
514.21	79.88
514.426	85.88
514.642	79.88
514.858	80.88
515.074	87.88
515.29	91.88
515.506	79.88
515.721	75.88
515.937	92.88
516.153	77.88
516.369	87.88
516.585	91.88
516.801	94.88
517.016	78.88
517.232	76.88
517.448	93.88
517.664	99.88
517.879	91.88
518.095	85.88
518.311	72.88
518.527	77.88
518.742	76.88
518.958	74.88
519.173	106.88
519.389	88.88
519.605	97.88
519.82	79.88
520.036	92.88
520.251	91.88
520.467	76.88
520.682	82.88
520.898	96.88
521.113	96.88
521.329	107.88
521.544	84.88
521.76	89.88
521.975	87.88
522.19	90.88
522.406	75.88
522.621	93.88
522.836	88.88
523.052	93.88
523.267	106.88
523.482	91.88
523.698	94.88
523.913	90.88
524.128	84.88
524.343	85.88
524.559	98.88
524.774	92.88
524.989	88.88
525.204	98.88
525.419	107.88
525.634	70.88
525.849	85.88
526.064	78.88
526.28	94.88
526.495	86.88
526.71	82.88
526.925	82.88
527.14	92.88
527.355	87.88
527.57	97.88
527.785	89.88
527.999	81.88
528.214	89.88
528.429	104.88
528.644	74.88
528.859	95.88
529.074	98.88
529.289	101.88
529.503	99.88
529.718	100.88
529.933	87.88
530.148	78.88
530.363	76.88
530.577	85.88
530.792	94.88
531.007	86.88
531.221	69.88
531.436	87.88
531.651	87.88
531.865	96.88
532.08	87.88
532.295	91.88
532.509	87.88
532.724	92.88
532.938	87.88
533.153	71.88
533.367	92.88
533.582	88.88
533.796	90.88
534.011	78.88
534.225	82.88
534.44	90.88
534.654	85.88
534.868	84.88
535.083	93.88
535.297	87.88
535.511	72.88
535.726	89.88
535.94	86.88
536.154	88.88
536.369	90.88
536.583	86.88
536.797	84.88
537.011	90.88
537.225	80.88
537.44	86.88
537.654	73.88
537.868	85.88
538.082	80.88
538.296	97.88
538.51	83.88
538.724	80.88
538.938	86.88
539.153	92.88
539.367	98.88
539.581	88.88
539.795	89.88
540.009	88.88
540.222	89.88
540.436	97.88
540.65	85.88
540.864	90.88
541.078	113.88
541.292	107.88
541.506	88.88
541.72	91.88
541.934	97.88
542.147	109.88
542.361	108.88
542.575	97.88
542.789	100.88
543.002	88.88
543.216	90.88
543.43	77.88
543.644	95.88
543.857	105.88
544.071	94.88
544.285	104.88
544.498	104.88
544.712	90.88
544.925	97.88
545.139	109.88
545.352	84.88
545.566	99.88
545.779	85.88
545.993	114.88
546.206	93.88
546.42	95.88
546.633	91.88
546.847	79.88
547.06	106.88
547.274	99.88
547.487	105.88
547.7	112.88
547.914	108.88
548.127	108.88
548.34	90.88
548.554	105.88
548.767	107.88
548.98	100.88
549.193	104.88
549.407	106.88
549.62	104.88
549.833	105.88
550.046	87.88
550.259	98.88
550.473	100.88
550.686	95.88
550.899	90.88
551.112	87.88
551.325	98.88
551.538	94.88
551.751	100.88
551.964	99.88
552.177	94.88
552.39	100.88
552.603	86.88
552.816	101.88
553.029	91.88
553.242	100.88
553.455	103.88
553.667	113.88
553.88	117.88
554.093	106.88
554.306	98.88
554.519	86.88
554.732	91.88
554.944	91.88
555.157	103.88
555.37	97.88
555.583	89.88
555.795	99.88
556.008	93.88
556.221	95.88
556.433	85.88
556.646	106.88
556.859	93.88
557.071	98.88
557.284	108.88
557.496	91.88
557.709	98.88
557.921	86.88
558.134	94.88
558.346	84.88
558.559	91.88
558.771	89.88
558.984	98.88
559.196	86.88
559.409	95.88
559.621	97.88
559.833	91.88
560.046	83.88
560.258	75.88
560.47	99.88
560.683	100.88
560.895	87.88
561.107	90.88
561.32	98.88
561.532	105.88
561.744	99.88
561.956	92.88
562.168	85.88
562.381	98.88
562.593	94.88
562.805	96.88
563.017	85.88
563.229	87.88
563.441	90.88
563.653	94.88
563.865	104.88
564.077	93.88
564.289	98.88
564.501	100.88
564.713	99.88
564.925	103.88
565.137	81.88
565.349	97.88
565.561	91.88
565.773	103.88
565.985	93.88
566.197	79.88
566.408	92.88
566.62	90.88
566.832	103.88
567.044	95.88
567.255	77.88
567.467	96.88
567.679	81.88
567.891	100.88
568.102	91.88
568.314	103.88
568.526	88.88
568.737	82.88
568.949	84.88
569.161	77.88
569.372	77.88
569.584	97.88
569.795	78.88
570.007	98.88
570.218	96.88
570.43	87.88
570.641	87.88
570.853	89.88
571.064	78.88
571.276	82.88
571.487	81.88
571.698	90.88
571.91	89.88
572.121	86.88
572.333	85.88
572.544	74.88
572.755	98.88
572.966	92.88
573.178	85.88
573.389	85.88
573.6	66.88
573.811	100.88
574.023	90.88
574.234	94.88
574.445	94.88
574.656	80.88
574.867	78.88
575.078	89.88
575.289	99.88
575.501	86.88
575.712	85.88
575.923	102.88
576.134	83.88
576.345	90.88
576.556	86.88
576.767	90.88
576.978	80.88
577.188	93.88
577.399	82.88
577.61	93.88
577.821	82.88
578.032	93.88
578.243	97.88
578.454	95.88
578.665	94.88
578.875	84.88
579.086	94.88
579.297	93.88
579.508	80.88
579.718	84.88
579.929	95.88
580.14	80.88
580.35	94.88
580.561	84.88
580.772	82.88
580.982	91.88
581.193	77.88
581.403	83.88
581.614	93.88
581.825	97.88
582.035	93.88
582.246	102.88
582.456	80.88
582.667	82.88
582.877	101.88
583.087	78.88
583.298	90.88
583.508	83.88
583.719	85.88
583.929	81.88
584.139	100.88
584.35	98.88
584.56	93.88
584.77	94.88
584.981	66.88
585.191	83.88
585.401	77.88
585.611	82.88
585.821	81.88
586.032	88.88
586.242	84.88
586.452	78.88
586.662	86.88
586.872	89.88
587.082	75.88
587.292	93.88
587.502	82.88
587.713	70.88
587.923	90.88
588.133	82.88
588.343	96.88
588.553	90.88
588.762	90.88
588.972	79.88
589.182	87.88
589.392	85.88
589.602	95.88
589.812	76.88
590.022	77.88
590.232	85.88
590.441	84.88
590.651	86.88
590.861	77.88
591.071	94.88
591.281	96.88
591.49	87.88
591.7	81.88
591.91	88.88
592.119	107.88
592.329	91.88
592.539	99.88
592.748	89.88
592.958	93.88
593.167	88.88
593.377	79.88
593.587	94.88
593.796	88.88
594.006	85.88
594.215	79.88
594.424	77.88
594.634	79.88
594.843	93.88
595.053	99.88
595.262	89.88
595.472	89.88
595.681	88.88
595.89	98.88
596.1	74.88
596.309	82.88
596.518	86.88
596.727	95.88
596.937	93.88
597.146	90.88
597.355	110.88
597.564	78.88
597.774	80.88
597.983	87.88
598.192	82.88
598.401	68.88
598.61	88.88
598.819	92.88
599.028	91.88
599.237	79.88
599.446	83.88
599.655	75.88
599.864	66.88
600.073	109.88
600.282	79.88
600.491	89.88
600.7	93.88
600.909	89.88
601.118	93.88
601.327	88.88
601.536	87.88
601.745	99.88
601.953	90.88
602.162	108.88
602.371	81.88
602.58	83.88
602.789	88.88
602.997	103.88
603.206	102.88
603.415	85.88
603.623	100.88
603.832	98.88
604.041	83.88
604.249	80.88
604.458	99.88
604.666	93.88
604.875	90.88
605.084	98.88
605.292	77.88
605.501	81.88
605.709	95.88
605.918	84.88
606.126	99.88
606.334	91.88
606.543	88.88
606.751	99.88
606.96	95.88
607.168	90.88
607.376	98.88
607.585	90.88
607.793	86.88
608.001	88.88
608.21	99.88
608.418	97.88
608.626	87.88
608.834	94.88
609.043	92.88
609.251	105.88
609.459	89.88
609.667	109.88
609.875	95.88
610.083	91.88
610.291	94.88
610.499	90.88
610.707	91.88
610.916	85.88
611.124	98.88
611.332	83.88
611.54	94.88
611.748	88.88
611.955	88.88
612.163	90.88
612.371	88.88
612.579	97.88
612.787	101.88
612.995	92.88
613.203	99.88
613.411	88.88
613.618	89.88
613.826	97.88
614.034	84.88
614.242	76.88
614.449	90.88
614.657	93.88
614.865	97.88
615.072	93.88
615.28	88.88
615.488	87.88
615.695	85.88
615.903	102.88
616.111	89.88
616.318	98.88
616.526	89.88
616.733	85.88
616.941	86.88
617.148	83.88
617.356	95.88
617.563	90.88
617.771	81.88
617.978	77.88
618.185	93.88
618.393	93.88
618.6	93.88
618.807	102.88
619.015	86.88
619.222	88.88
619.429	90.88
619.637	92.88
619.844	88.88
620.051	97.88
620.258	84.88
620.466	88.88
620.673	86.88
620.88	97.88
621.087	104.88
621.294	99.88
621.501	91.88
621.708	89.88
621.915	74.88
622.122	82.88
622.329	82.88
622.536	86.88
622.743	88.88
622.95	85.88
623.157	94.88
623.364	89.88
623.571	98.88
623.778	89.88
623.985	73.88
624.192	106.88
624.399	90.88
624.606	90.88
624.812	92.88
625.019	74.88
625.226	89.88
625.433	69.88
625.639	84.88
625.846	81.88
626.053	92.88
626.259	84.88
626.466	92.88
626.673	75.88
626.879	92.88
627.086	90.88
627.293	96.88
627.499	83.88
627.706	75.88
627.912	104.88
628.119	100.88
628.325	89.88
628.532	95.88
628.738	82.88
628.945	79.88
629.151	69.88
629.357	84.88
629.564	91.88
629.77	96.88
629.976	88.88
630.183	97.88
630.389	76.88
630.595	86.88
630.802	87.88
631.008	82.88
631.214	90.88
631.42	89.88
631.627	100.88
631.833	93.88
632.039	94.88
632.245	69.88
632.451	93.88
632.657	79.88
632.863	74.88
633.069	92.88
633.275	91.88
633.481	88.88
633.688	98.88
633.893	83.88
634.099	80.88
634.305	86.88
634.511	96.88
634.717	94.88
634.923	92.88
635.129	79.88
635.335	85.88
635.541	98.88
635.747	100.88
635.952	81.88
636.158	94.88
636.364	79.88
636.57	76.88
636.775	97.88
636.981	96.88
637.187	86.88
637.392	94.88
637.598	104.88
637.804	83.88
638.009	99.88
638.215	102.88
638.421	93.88
638.626	95.88
638.832	92.88
639.037	91.88
639.243	86.88
639.448	93.88
639.654	96.88
639.859	81.88
640.065	89.88
640.27	96.88
640.475	101.88
640.681	86.88
640.886	85.88
641.091	92.88
641.297	88.88
641.502	75.88
641.707	82.88
641.913	81.88
642.118	95.88
642.323	94.88
642.528	85.88
642.733	79.88
642.939	85.88
643.144	87.88
643.349	77.88
643.554	95.88
643.759	82.88
643.964	77.88
644.169	80.88
644.374	87.88
644.579	90.88
644.784	81.88
644.989	89.88
645.194	85.88
645.399	99.88
645.604	79.88
645.809	86.88
646.014	83.88
646.219	94.88
646.423	106.88
646.628	82.88
646.833	89.88
647.038	90.88
647.243	79.88
647.447	83.88
647.652	88.88
647.857	93.88
648.062	92.88
648.266	92.88
648.471	91.88
648.676	85.88
648.88	93.88
649.085	88.88
649.289	92.88
649.494	89.88
649.698	84.88
649.903	85.88
650.107	79.88
650.312	82.88
650.516	76.88
650.721	93.88
650.925	86.88
651.13	73.88
651.334	77.88
651.539	74.88
651.743	86.88
651.947	69.88
652.152	86.88
652.356	83.88
652.56	94.88
652.764	82.88
652.969	83.88
653.173	82.88
653.377	82.88
653.581	87.88
653.785	77.88
653.99	93.88
654.194	82.88
654.398	91.88
654.602	97.88
654.806	87.88
655.01	96.88
655.214	90.88
655.418	78.88
655.622	100.88
655.826	87.88
656.03	71.88
656.234	81.88
656.438	75.88
656.642	83.88
656.846	82.88
657.049	89.88
657.253	91.88
657.457	84.88
657.661	85.88
657.865	94.88
658.068	77.88
658.272	82.88
658.476	67.88
658.68	82.88
658.883	81.88
659.087	96.88
659.291	74.88
659.494	73.88
659.698	94.88
659.901	91.88
660.105	73.88
660.309	93.88
660.512	90.88
660.716	87.88
660.919	84.88
661.123	78.88
661.326	86.88
661.53	87.88
661.733	94.88
661.936	94.88
662.14	99.88
662.343	94.88
662.546	77.88
662.75	98.88
662.953	82.88
663.156	80.88
663.36	82.88
663.563	82.88
663.766	74.88
663.969	75.88
664.173	77.88
664.376	71.88
664.579	78.88
664.782	72.88
664.985	79.88
665.188	81.88
665.391	85.88
665.594	82.88
665.797	85.88
666	86.88
666.203	91.88
666.406	95.88
666.609	91.88
666.812	87.88
667.015	71.88
667.218	92.88
667.421	78.88
667.624	76.88
667.827	79.88
668.03	79.88
668.232	76.88
668.435	90.88
668.638	91.88
668.841	92.88
669.043	78.88
669.246	91.88
669.449	79.88
669.651	90.88
669.854	80.88
670.057	89.88
670.259	94.88
670.462	79.88
670.665	85.88
670.867	75.88
671.07	84.88
671.272	86.88
671.475	77.88
671.677	81.88
671.88	87.88
672.082	70.88
672.284	84.88
672.487	72.88
672.689	82.88
672.892	81.88
