Data from Zn(NO3)2Standard.Agarose3%.GreenCap.LampEnergy10E.O_HRD10591_15-06-28-942.txt Node
Date: Mon Jul 22 15:06:28 EDT 2019
User: cochatt
Spectrometer: HR+D1059
Trigger mode: 1
Integration Time (sec): 1.000000E-1
Scans to average: 1
Electric dark correction enabled: true
Nonlinearity correction enabled: false
Boxcar width: 0
XAxis mode: Wavelengths
Number of Pixels in Spectrum: 2048
>>>>>Begin Spectral Data<<<<<
223.165	-21.25
223.4	-21.25
223.635	-21.25
223.869	-11.25
224.104	-22.25
224.338	-22.25
224.573	-12.25
224.808	3.75
225.042	-14.25
225.277	-5.25
225.511	-15.25
225.746	8.75
225.98	13.75
226.215	12.75
226.449	21.75
226.683	17.75
226.918	29.75
227.152	15.75
227.387	39.75
227.621	43.75
227.856	53.75
228.09	47.75
228.324	57.75
228.559	64.75
228.793	59.75
229.027	58.75
229.262	77.75
229.496	70.75
229.73	68.75
229.964	63.75
230.199	83.75
230.433	63.75
230.667	76.75
230.901	85.75
231.136	88.75
231.37	89.75
231.604	71.75
231.838	86.75
232.072	93.75
232.306	93.75
232.541	87.75
232.775	96.75
233.009	95.75
233.243	86.75
233.477	71.75
233.711	105.75
233.945	95.75
234.179	78.75
234.413	83.75
234.647	66.75
234.881	61.75
235.115	77.75
235.349	92.75
235.583	99.75
235.817	90.75
236.051	88.75
236.285	72.75
236.519	74.75
236.753	85.75
236.987	76.75
237.221	91.75
237.455	81.75
237.689	75.75
237.922	95.75
238.156	74.75
238.39	69.75
238.624	76.75
238.858	74.75
239.091	74.75
239.325	84.75
239.559	68.75
239.793	70.75
240.027	77.75
240.26	87.75
240.494	63.75
240.728	91.75
240.961	84.75
241.195	87.75
241.429	79.75
241.662	76.75
241.896	79.75
242.13	90.75
242.363	82.75
242.597	86.75
242.83	82.75
243.064	72.75
243.298	85.75
243.531	79.75
243.765	78.75
243.998	72.75
244.232	78.75
244.465	81.75
244.699	82.75
244.932	82.75
245.166	75.75
245.399	87.75
245.633	97.75
245.866	77.75
246.099	83.75
246.333	91.75
246.566	79.75
246.8	60.75
247.033	92.75
247.266	78.75
247.5	87.75
247.733	84.75
247.966	87.75
248.2	75.75
248.433	83.75
248.666	71.75
248.899	71.75
249.133	76.75
249.366	79.75
249.599	88.75
249.832	72.75
250.066	80.75
250.299	77.75
250.532	90.75
250.765	79.75
250.998	83.75
251.231	71.75
251.465	87.75
251.698	85.75
251.931	76.75
252.164	82.75
252.397	72.75
252.63	79.75
252.863	101.75
253.096	85.75
253.329	77.75
253.562	84.75
253.795	85.75
254.028	83.75
254.261	93.75
254.494	74.75
254.727	75.75
254.96	65.75
255.193	65.75
255.426	74.75
255.659	88.75
255.892	85.75
256.124	82.75
256.357	75.75
256.59	85.75
256.823	79.75
257.056	81.75
257.289	74.75
257.521	93.75
257.754	84.75
257.987	89.75
258.22	77.75
258.452	87.75
258.685	62.75
258.918	68.75
259.151	78.75
259.383	76.75
259.616	86.75
259.849	70.75
260.081	74.75
260.314	86.75
260.547	88.75
260.779	95.75
261.012	88.75
261.244	79.75
261.477	90.75
261.71	89.75
261.942	91.75
262.175	81.75
262.407	86.75
262.64	69.75
262.872	87.75
263.105	87.75
263.337	104.75
263.57	86.75
263.802	86.75
264.035	83.75
264.267	85.75
264.499	72.75
264.732	85.75
264.964	87.75
265.197	83.75
265.429	83.75
265.661	89.75
265.894	81.75
266.126	98.75
266.358	93.75
266.591	81.75
266.823	81.75
267.055	78.75
267.287	72.75
267.52	74.75
267.752	76.75
267.984	99.75
268.216	80.75
268.448	74.75
268.681	76.75
268.913	85.75
269.145	96.75
269.377	73.75
269.609	83.75
269.841	81.75
270.073	86.75
270.306	91.75
270.538	91.75
270.77	71.75
271.002	93.75
271.234	85.75
271.466	75.75
271.698	87.75
271.93	88.75
272.162	97.75
272.394	90.75
272.626	86.75
272.858	82.75
273.09	77.75
273.322	102.75
273.553	70.75
273.785	85.75
274.017	87.75
274.249	92.75
274.481	76.75
274.713	102.75
274.945	90.75
275.176	75.75
275.408	78.75
275.64	83.75
275.872	88.75
276.104	99.75
276.335	93.75
276.567	97.75
276.799	78.75
277.031	87.75
277.262	78.75
277.494	93.75
277.726	83.75
277.957	83.75
278.189	81.75
278.421	89.75
278.652	81.75
278.884	86.75
279.115	72.75
279.347	81.75
279.579	85.75
279.81	85.75
280.042	82.75
280.273	85.75
280.505	86.75
280.736	76.75
280.968	93.75
281.199	89.75
281.431	91.75
281.662	84.75
281.894	94.75
282.125	82.75
282.356	87.75
282.588	81.75
282.819	82.75
283.051	85.75
283.282	92.75
283.513	79.75
283.745	85.75
283.976	77.75
284.207	92.75
284.439	87.75
284.67	94.75
284.901	85.75
285.132	99.75
285.364	86.75
285.595	96.75
285.826	93.75
286.057	77.75
286.288	87.75
286.52	86.75
286.751	83.75
286.982	78.75
287.213	87.75
287.444	73.75
287.675	90.75
287.906	93.75
288.138	89.75
288.369	90.75
288.6	89.75
288.831	72.75
289.062	98.75
289.293	81.75
289.524	89.75
289.755	85.75
289.986	93.75
290.217	81.75
290.448	100.75
290.679	87.75
290.91	91.75
291.141	84.75
291.371	90.75
291.602	89.75
291.833	77.75
292.064	77.75
292.295	88.75
292.526	78.75
292.757	83.75
292.987	76.75
293.218	97.75
293.449	71.75
293.68	75.75
293.91	88.75
294.141	94.75
294.372	75.75
294.603	94.75
294.833	86.75
295.064	83.75
295.295	89.75
295.525	94.75
295.756	95.75
295.987	86.75
296.217	99.75
296.448	74.75
296.679	84.75
296.909	101.75
297.14	96.75
297.37	92.75
297.601	93.75
297.831	89.75
298.062	74.75
298.292	83.75
298.523	87.75
298.753	96.75
298.984	74.75
299.214	95.75
299.445	84.75
299.675	87.75
299.905	84.75
300.136	90.75
300.366	75.75
300.597	85.75
300.827	86.75
301.057	98.75
301.288	84.75
301.518	78.75
301.748	96.75
301.979	91.75
302.209	84.75
302.439	89.75
302.669	76.75
302.9	84.75
303.13	87.75
303.36	75.75
303.59	78.75
303.82	89.75
304.051	98.75
304.281	89.75
304.511	77.75
304.741	104.75
304.971	82.75
305.201	80.75
305.431	83.75
305.661	93.75
305.891	91.75
306.121	92.75
306.352	84.75
306.582	85.75
306.812	80.75
307.042	86.75
307.272	85.75
307.502	80.75
307.731	70.75
307.961	75.75
308.191	75.75
308.421	92.75
308.651	87.75
308.881	87.75
309.111	87.75
309.341	91.75
309.571	85.75
309.8	86.75
310.03	80.75
310.26	88.75
310.49	72.75
310.72	75.75
310.949	85.75
311.179	71.75
311.409	86.75
311.639	86.75
311.868	81.75
312.098	88.75
312.328	85.75
312.557	83.75
312.787	73.75
313.017	89.75
313.246	83.75
313.476	73.75
313.706	67.75
313.935	82.75
314.165	90.75
314.394	87.75
314.624	88.75
314.853	104.75
315.083	91.75
315.312	87.75
315.542	86.75
315.771	90.75
316.001	82.75
316.23	69.75
316.46	78.75
316.689	82.75
316.919	98.75
317.148	94.75
317.377	87.75
317.607	73.75
317.836	87.75
318.065	85.75
318.295	86.75
318.524	94.75
318.753	87.75
318.983	102.75
319.212	82.75
319.441	74.75
319.67	83.75
319.9	98.75
320.129	84.75
320.358	91.75
320.587	96.75
320.816	83.75
321.046	85.75
321.275	86.75
321.504	98.75
321.733	92.75
321.962	92.75
322.191	82.75
322.42	82.75
322.649	96.75
322.878	85.75
323.108	86.75
323.337	79.75
323.566	85.75
323.795	87.75
324.024	84.75
324.253	78.75
324.482	89.75
324.71	93.75
324.939	81.75
325.168	88.75
325.397	85.75
325.626	98.75
325.855	74.75
326.084	79.75
326.313	93.75
326.542	87.75
326.77	69.75
326.999	68.75
327.228	81.75
327.457	102.75
327.686	92.75
327.914	92.75
328.143	84.75
328.372	83.75
328.6	94.75
328.829	88.75
329.058	87.75
329.287	81.75
329.515	82.75
329.744	86.75
329.972	75.75
330.201	95.75
330.43	84.75
330.658	92.75
330.887	93.75
331.115	83.75
331.344	71.75
331.572	73.75
331.801	99.75
332.03	83.75
332.258	93.75
332.486	94.75
332.715	91.75
332.943	85.75
333.172	93.75
333.4	82.75
333.629	88.75
333.857	82.75
334.085	78.75
334.314	84.75
334.542	85.75
334.771	90.75
334.999	86.75
335.227	80.75
335.455	77.75
335.684	85.75
335.912	91.75
336.14	79.75
336.369	93.75
336.597	88.75
336.825	75.75
337.053	71.75
337.281	87.75
337.51	79.75
337.738	86.75
337.966	79.75
338.194	73.75
338.422	80.75
338.65	92.75
338.878	92.75
339.106	66.75
339.334	87.75
339.562	77.75
339.79	87.75
340.018	90.75
340.246	85.75
340.474	96.75
340.702	89.75
340.93	77.75
341.158	85.75
341.386	82.75
341.614	94.75
341.842	100.75
342.07	87.75
342.298	99.75
342.526	74.75
342.754	82.75
342.981	85.75
343.209	86.75
343.437	83.75
343.665	95.75
343.893	105.75
344.12	90.75
344.348	82.75
344.576	88.75
344.804	71.75
345.031	71.75
345.259	91.75
345.487	93.75
345.714	98.75
345.942	84.75
346.17	85.75
346.397	79.75
346.625	76.75
346.853	77.75
347.08	74.75
347.308	93.75
347.535	76.75
347.763	69.75
347.99	94.75
348.218	87.75
348.445	84.75
348.673	75.75
348.9	87.75
349.128	73.75
349.355	83.75
349.583	65.75
349.81	82.75
350.037	94.75
350.265	84.75
350.492	86.75
350.72	90.75
350.947	93.75
351.174	74.75
351.402	82.75
351.629	81.75
351.856	93.75
352.083	81.75
352.311	84.75
352.538	84.75
352.765	88.75
352.992	79.75
353.22	81.75
353.447	79.75
353.674	86.75
353.901	101.75
354.128	74.75
354.355	85.75
354.583	90.75
354.81	89.75
355.037	98.75
355.264	97.75
355.491	81.75
355.718	79.75
355.945	66.75
356.172	74.75
356.399	86.75
356.626	87.75
356.853	76.75
357.08	91.75
357.307	80.75
357.534	83.75
357.761	76.75
357.988	87.75
358.215	93.75
358.441	81.75
358.668	87.75
358.895	81.75
359.122	90.75
359.349	79.75
359.576	88.75
359.802	82.75
360.029	92.75
360.256	77.75
360.483	86.75
360.709	81.75
360.936	83.75
361.163	92.75
361.39	88.75
361.616	83.75
361.843	85.75
362.07	97.75
362.296	93.75
362.523	81.75
362.749	88.75
362.976	89.75
363.203	89.75
363.429	66.75
363.656	69.75
363.882	90.75
364.109	97.75
364.335	88.75
364.562	93.75
364.788	93.75
365.015	78.75
365.241	92.75
365.468	81.75
365.694	82.75
365.92	83.75
366.147	86.75
366.373	97.75
366.599	90.75
366.826	87.75
367.052	84.75
367.278	90.75
367.505	90.75
367.731	83.75
367.957	81.75
368.184	86.75
368.41	82.75
368.636	81.75
368.862	85.75
369.089	84.75
369.315	85.75
369.541	92.75
369.767	90.75
369.993	90.75
370.219	74.75
370.445	95.75
370.672	97.75
370.898	80.75
371.124	98.75
371.35	85.75
371.576	93.75
371.802	90.75
372.028	76.75
372.254	95.75
372.48	81.75
372.706	86.75
372.932	101.75
373.158	83.75
373.384	99.75
373.61	88.75
373.835	88.75
374.061	98.75
374.287	93.75
374.513	83.75
374.739	82.75
374.965	86.75
375.191	78.75
375.416	79.75
375.642	85.75
375.868	100.75
376.094	77.75
376.319	78.75
376.545	81.75
376.771	85.75
376.997	100.75
377.222	93.75
377.448	83.75
377.674	81.75
377.899	86.75
378.125	87.75
378.35	93.75
378.576	77.75
378.802	78.75
379.027	92.75
379.253	76.75
379.478	90.75
379.704	81.75
379.929	95.75
380.155	82.75
380.38	94.75
380.606	82.75
380.831	87.75
381.057	99.75
381.282	95.75
381.507	81.75
381.733	85.75
381.958	92.75
382.184	92.75
382.409	92.75
382.634	101.75
382.86	82.75
383.085	88.75
383.31	83.75
383.535	105.75
383.761	91.75
383.986	92.75
384.211	95.75
384.436	101.75
384.662	86.75
384.887	102.75
385.112	109.75
385.337	91.75
385.562	95.75
385.787	94.75
386.013	98.75
386.238	85.75
386.463	99.75
386.688	92.75
386.913	92.75
387.138	88.75
387.363	63.75
387.588	80.75
387.813	97.75
388.038	86.75
388.263	83.75
388.488	99.75
388.713	85.75
388.938	95.75
389.163	97.75
389.387	83.75
389.612	98.75
389.837	96.75
390.062	87.75
390.287	88.75
390.512	98.75
390.736	85.75
390.961	97.75
391.186	107.75
391.411	87.75
391.636	82.75
391.86	92.75
392.085	78.75
392.31	88.75
392.534	82.75
392.759	91.75
392.984	92.75
393.208	94.75
393.433	83.75
393.658	78.75
393.882	98.75
394.107	92.75
394.331	91.75
394.556	80.75
394.78	82.75
395.005	85.75
395.229	89.75
395.454	97.75
395.678	103.75
395.903	103.75
396.127	89.75
396.352	89.75
396.576	93.75
396.801	92.75
397.025	91.75
397.249	109.75
397.474	85.75
397.698	109.75
397.922	100.75
398.147	94.75
398.371	102.75
398.595	92.75
398.82	93.75
399.044	86.75
399.268	101.75
399.492	98.75
399.717	93.75
399.941	87.75
400.165	103.75
400.389	101.75
400.613	104.75
400.837	105.75
401.062	79.75
401.286	100.75
401.51	115.75
401.734	106.75
401.958	97.75
402.182	91.75
402.406	106.75
402.63	93.75
402.854	95.75
403.078	96.75
403.302	90.75
403.526	95.75
403.75	89.75
403.974	93.75
404.198	93.75
404.422	88.75
404.645	96.75
404.869	73.75
405.093	103.75
405.317	108.75
405.541	94.75
405.765	100.75
405.988	89.75
406.212	93.75
406.436	98.75
406.66	95.75
406.883	99.75
407.107	83.75
407.331	107.75
407.555	95.75
407.778	103.75
408.002	97.75
408.226	96.75
408.449	96.75
408.673	103.75
408.896	90.75
409.12	99.75
409.344	105.75
409.567	91.75
409.791	101.75
410.014	100.75
410.238	99.75
410.461	108.75
410.685	106.75
410.908	107.75
411.132	92.75
411.355	99.75
411.578	99.75
411.802	91.75
412.025	114.75
412.249	102.75
412.472	101.75
412.695	97.75
412.919	106.75
413.142	95.75
413.365	99.75
413.589	107.75
413.812	109.75
414.035	110.75
414.258	97.75
414.482	108.75
414.705	104.75
414.928	103.75
415.151	95.75
415.374	108.75
415.597	97.75
415.821	103.75
416.044	102.75
416.267	102.75
416.49	97.75
416.713	88.75
416.936	108.75
417.159	105.75
417.382	101.75
417.605	102.75
417.828	97.75
418.051	117.75
418.274	89.75
418.497	111.75
418.72	118.75
418.943	115.75
419.166	125.75
419.389	109.75
419.611	125.75
419.834	106.75
420.057	110.75
420.28	116.75
420.503	104.75
420.726	94.75
420.948	92.75
421.171	109.75
421.394	99.75
421.617	114.75
421.839	112.75
422.062	116.75
422.285	123.75
422.507	108.75
422.73	100.75
422.953	92.75
423.175	114.75
423.398	113.75
423.621	99.75
423.843	103.75
424.066	97.75
424.288	116.75
424.511	99.75
424.733	110.75
424.956	114.75
425.178	100.75
425.401	107.75
425.623	116.75
425.846	95.75
426.068	126.75
426.291	101.75
426.513	105.75
426.735	104.75
426.958	105.75
427.18	106.75
427.402	110.75
427.625	108.75
427.847	107.75
428.069	113.75
428.292	104.75
428.514	96.75
428.736	116.75
428.958	111.75
429.181	109.75
429.403	101.75
429.625	114.75
429.847	116.75
430.069	119.75
430.292	116.75
430.514	105.75
430.736	108.75
430.958	103.75
431.18	108.75
431.402	97.75
431.624	107.75
431.846	93.75
432.068	100.75
432.29	87.75
432.512	89.75
432.734	98.75
432.956	98.75
433.178	107.75
433.4	123.75
433.622	115.75
433.844	119.75
434.066	103.75
434.287	90.75
434.509	99.75
434.731	85.75
434.953	88.75
435.175	108.75
435.397	98.75
435.618	94.75
435.84	99.75
436.062	90.75
436.284	94.75
436.505	111.75
436.727	103.75
436.949	106.75
437.17	115.75
437.392	119.75
437.614	104.75
437.835	106.75
438.057	110.75
438.278	109.75
438.5	119.75
438.721	102.75
438.943	101.75
439.165	97.75
439.386	105.75
439.608	114.75
439.829	108.75
440.05	121.75
440.272	116.75
440.493	109.75
440.715	107.75
440.936	124.75
441.158	106.75
441.379	99.75
441.6	108.75
441.822	102.75
442.043	127.75
442.264	106.75
442.486	108.75
442.707	107.75
442.928	106.75
443.149	105.75
443.371	105.75
443.592	102.75
443.813	121.75
444.034	117.75
444.255	119.75
444.476	110.75
444.698	129.75
444.919	112.75
445.14	243.75
445.361	161.75
445.582	119.75
445.803	97.75
446.024	117.75
446.245	105.75
446.466	114.75
446.687	120.75
446.908	120.75
447.129	111.75
447.35	117.75
447.571	114.75
447.792	104.75
448.013	101.75
448.234	117.75
448.455	115.75
448.675	115.75
448.896	107.75
449.117	115.75
449.338	102.75
449.559	115.75
449.779	105.75
450	114.75
450.221	115.75
450.442	105.75
450.662	99.75
450.883	122.75
451.104	113.75
451.324	109.75
451.545	111.75
451.766	106.75
451.986	89.75
452.207	99.75
452.428	106.75
452.648	102.75
452.869	109.75
453.089	102.75
453.31	92.75
453.53	91.75
453.751	105.75
453.971	93.75
454.192	102.75
454.412	90.75
454.633	95.75
454.853	102.75
455.073	101.75
455.294	93.75
455.514	104.75
455.734	99.75
455.955	106.75
456.175	93.75
456.395	96.75
456.616	93.75
456.836	103.75
457.056	90.75
457.276	97.75
457.497	102.75
457.717	108.75
457.937	93.75
458.157	91.75
458.377	92.75
458.598	84.75
458.818	84.75
459.038	89.75
459.258	91.75
459.478	79.75
459.698	91.75
459.918	93.75
460.138	97.75
460.358	100.75
460.578	107.75
460.798	94.75
461.018	94.75
461.238	102.75
461.458	106.75
461.678	103.75
461.898	101.75
462.118	114.75
462.338	79.75
462.558	104.75
462.777	96.75
462.997	102.75
463.217	97.75
463.437	94.75
463.657	100.75
463.876	83.75
464.096	107.75
464.316	100.75
464.536	99.75
464.755	105.75
464.975	107.75
465.195	101.75
465.414	109.75
465.634	108.75
465.854	102.75
466.073	97.75
466.293	118.75
466.512	101.75
466.732	94.75
466.951	115.75
467.171	123.75
467.391	117.75
467.61	106.75
467.829	110.75
468.049	112.75
468.268	117.75
468.488	101.75
468.707	100.75
468.927	111.75
469.146	102.75
469.365	101.75
469.585	118.75
469.804	94.75
470.023	109.75
470.243	96.75
470.462	102.75
470.681	120.75
470.901	107.75
471.12	116.75
471.339	113.75
471.558	121.75
471.777	108.75
471.997	97.75
472.216	104.75
472.435	100.75
472.654	93.75
472.873	100.75
473.092	113.75
473.311	101.75
473.53	102.75
473.749	108.75
473.968	105.75
474.187	111.75
474.406	100.75
474.625	104.75
474.844	100.75
475.063	115.75
475.282	85.75
475.501	115.75
475.72	97.75
475.939	89.75
476.158	107.75
476.377	106.75
476.596	96.75
476.814	111.75
477.033	99.75
477.252	106.75
477.471	112.75
477.69	113.75
477.908	104.75
478.127	115.75
478.346	115.75
478.564	109.75
478.783	105.75
479.002	108.75
479.22	106.75
479.439	94.75
479.658	103.75
479.876	82.75
480.095	87.75
480.313	98.75
480.532	102.75
480.751	103.75
480.969	95.75
481.188	87.75
481.406	87.75
481.624	92.75
481.843	89.75
482.061	92.75
482.28	95.75
482.498	95.75
482.717	106.75
482.935	105.75
483.153	120.75
483.372	121.75
483.59	122.75
483.808	101.75
484.027	118.75
484.245	108.75
484.463	110.75
484.681	125.75
484.9	121.75
485.118	122.75
485.336	103.75
485.554	99.75
485.772	101.75
485.99	102.75
486.209	102.75
486.427	98.75
486.645	102.75
486.863	113.75
487.081	118.75
487.299	94.75
487.517	118.75
487.735	108.75
487.953	127.75
488.171	130.75
488.389	128.75
488.607	108.75
488.825	105.75
489.043	115.75
489.261	109.75
489.479	117.75
489.696	105.75
489.914	120.75
490.132	117.75
490.35	129.75
490.568	129.75
490.786	133.75
491.003	146.75
491.221	139.75
491.439	137.75
491.657	130.75
491.874	149.75
492.092	142.75
492.31	162.75
492.527	143.75
492.745	137.75
492.963	147.75
493.18	125.75
493.398	125.75
493.615	146.75
493.833	126.75
494.05	126.75
494.268	125.75
494.485	119.75
494.703	125.75
494.92	123.75
495.138	130.75
495.355	139.75
495.573	117.75
495.79	125.75
496.008	129.75
496.225	133.75
496.442	114.75
496.66	113.75
496.877	117.75
497.094	128.75
497.312	122.75
497.529	129.75
497.746	117.75
497.963	123.75
498.181	106.75
498.398	92.75
498.615	108.75
498.832	106.75
499.049	100.75
499.267	109.75
499.484	107.75
499.701	130.75
499.918	102.75
500.135	123.75
500.352	118.75
500.569	119.75
500.786	109.75
501.003	114.75
501.22	107.75
501.437	107.75
501.654	117.75
501.871	118.75
502.088	111.75
502.305	97.75
502.522	97.75
502.739	95.75
502.956	91.75
503.172	99.75
503.389	97.75
503.606	107.75
503.823	104.75
504.04	113.75
504.256	112.75
504.473	106.75
504.69	106.75
504.907	104.75
505.123	110.75
505.34	120.75
505.557	114.75
505.773	104.75
505.99	103.75
506.207	105.75
506.423	99.75
506.64	108.75
506.856	103.75
507.073	106.75
507.289	109.75
507.506	100.75
507.722	98.75
507.939	95.75
508.155	109.75
508.372	88.75
508.588	89.75
508.805	102.75
509.021	102.75
509.238	95.75
509.454	99.75
509.67	102.75
509.887	94.75
510.103	79.75
510.319	96.75
510.536	97.75
510.752	88.75
510.968	96.75
511.184	101.75
511.401	90.75
511.617	78.75
511.833	86.75
512.049	87.75
512.265	98.75
512.481	92.75
512.698	82.75
512.914	102.75
513.13	78.75
513.346	99.75
513.562	84.75
513.778	75.75
513.994	82.75
514.21	88.75
514.426	96.75
514.642	87.75
514.858	94.75
515.074	93.75
515.29	86.75
515.506	94.75
515.721	88.75
515.937	87.75
516.153	93.75
516.369	81.75
516.585	91.75
516.801	77.75
517.016	90.75
517.232	104.75
517.448	96.75
517.664	98.75
517.879	79.75
518.095	81.75
518.311	92.75
518.527	78.75
518.742	89.75
518.958	94.75
519.173	99.75
519.389	99.75
519.605	94.75
519.82	91.75
520.036	104.75
520.251	89.75
520.467	95.75
520.682	96.75
520.898	97.75
521.113	79.75
521.329	78.75
521.544	90.75
521.76	91.75
521.975	83.75
522.19	96.75
522.406	97.75
522.621	98.75
522.836	94.75
523.052	102.75
523.267	91.75
523.482	91.75
523.698	96.75
523.913	99.75
524.128	107.75
524.343	103.75
524.559	98.75
524.774	111.75
524.989	101.75
525.204	110.75
525.419	101.75
525.634	89.75
525.849	118.75
526.064	97.75
526.28	92.75
526.495	98.75
526.71	85.75
526.925	100.75
527.14	86.75
527.355	87.75
527.57	94.75
527.785	76.75
527.999	92.75
528.214	86.75
528.429	87.75
528.644	107.75
528.859	106.75
529.074	121.75
529.289	118.75
529.503	130.75
529.718	108.75
529.933	100.75
530.148	104.75
530.363	93.75
530.577	76.75
530.792	69.75
531.007	83.75
531.221	92.75
531.436	90.75
531.651	88.75
531.865	88.75
532.08	92.75
532.295	67.75
532.509	85.75
532.724	84.75
532.938	83.75
533.153	107.75
533.367	86.75
533.582	99.75
533.796	110.75
534.011	93.75
534.225	88.75
534.44	90.75
534.654	87.75
534.868	94.75
535.083	101.75
535.297	88.75
535.511	92.75
535.726	92.75
535.94	113.75
536.154	99.75
536.369	85.75
536.583	94.75
536.797	101.75
537.011	101.75
537.225	99.75
537.44	88.75
537.654	97.75
537.868	92.75
538.082	99.75
538.296	81.75
538.51	89.75
538.724	90.75
538.938	111.75
539.153	111.75
539.367	89.75
539.581	117.75
539.795	84.75
540.009	90.75
540.222	83.75
540.436	102.75
540.65	99.75
540.864	102.75
541.078	121.75
541.292	115.75
541.506	118.75
541.72	128.75
541.934	135.75
542.147	131.75
542.361	126.75
542.575	123.75
542.789	124.75
543.002	102.75
543.216	109.75
543.43	108.75
543.644	107.75
543.857	116.75
544.071	129.75
544.285	134.75
544.498	134.75
544.712	128.75
544.925	117.75
545.139	111.75
545.352	135.75
545.566	123.75
545.779	130.75
545.993	141.75
546.206	126.75
546.42	130.75
546.633	141.75
546.847	131.75
547.06	130.75
547.274	124.75
547.487	137.75
547.7	140.75
547.914	113.75
548.127	120.75
548.34	143.75
548.554	129.75
548.767	129.75
548.98	126.75
549.193	115.75
549.407	124.75
549.62	128.75
549.833	130.75
550.046	130.75
550.259	114.75
550.473	114.75
550.686	105.75
550.899	122.75
551.112	129.75
551.325	122.75
551.538	110.75
551.751	108.75
551.964	104.75
552.177	108.75
552.39	123.75
552.603	121.75
552.816	127.75
553.029	114.75
553.242	119.75
553.455	130.75
553.667	123.75
553.88	117.75
554.093	126.75
554.306	124.75
554.519	129.75
554.732	117.75
554.944	121.75
555.157	132.75
555.37	116.75
555.583	123.75
555.795	117.75
556.008	119.75
556.221	114.75
556.433	118.75
556.646	110.75
556.859	106.75
557.071	109.75
557.284	110.75
557.496	119.75
557.709	109.75
557.921	129.75
558.134	111.75
558.346	117.75
558.559	101.75
558.771	99.75
558.984	108.75
559.196	114.75
559.409	110.75
559.621	116.75
559.833	113.75
560.046	113.75
560.258	117.75
560.47	89.75
560.683	100.75
560.895	102.75
561.107	103.75
561.32	118.75
561.532	105.75
561.744	103.75
561.956	102.75
562.168	118.75
562.381	119.75
562.593	116.75
562.805	125.75
563.017	111.75
563.229	113.75
563.441	107.75
563.653	117.75
563.865	111.75
564.077	118.75
564.289	114.75
564.501	115.75
564.713	109.75
564.925	116.75
565.137	87.75
565.349	108.75
565.561	90.75
565.773	103.75
565.985	97.75
566.197	94.75
566.408	105.75
566.62	101.75
566.832	87.75
567.044	105.75
567.255	101.75
567.467	105.75
567.679	100.75
567.891	98.75
568.102	97.75
568.314	85.75
568.526	83.75
568.737	103.75
568.949	97.75
569.161	78.75
569.372	80.75
569.584	79.75
569.795	87.75
570.007	78.75
570.218	97.75
570.43	91.75
570.641	86.75
570.853	97.75
571.064	92.75
571.276	103.75
571.487	87.75
571.698	98.75
571.91	95.75
572.121	85.75
572.333	98.75
572.544	88.75
572.755	86.75
572.966	102.75
573.178	101.75
573.389	79.75
573.6	81.75
573.811	74.75
574.023	85.75
574.234	92.75
574.445	86.75
574.656	90.75
574.867	102.75
575.078	81.75
575.289	86.75
575.501	86.75
575.712	83.75
575.923	100.75
576.134	91.75
576.345	97.75
576.556	95.75
576.767	109.75
576.978	92.75
577.188	93.75
577.399	99.75
577.61	89.75
577.821	95.75
578.032	71.75
578.243	96.75
578.454	86.75
578.665	99.75
578.875	102.75
579.086	86.75
579.297	89.75
579.508	77.75
579.718	82.75
579.929	91.75
580.14	89.75
580.35	79.75
580.561	93.75
580.772	92.75
580.982	90.75
581.193	89.75
581.403	94.75
581.614	106.75
581.825	86.75
582.035	88.75
582.246	88.75
582.456	86.75
582.667	88.75
582.877	79.75
583.087	82.75
583.298	94.75
583.508	101.75
583.719	99.75
583.929	105.75
584.139	87.75
584.35	98.75
584.56	90.75
584.77	87.75
584.981	86.75
585.191	91.75
585.401	94.75
585.611	89.75
585.821	102.75
586.032	84.75
586.242	97.75
586.452	83.75
586.662	91.75
586.872	90.75
587.082	91.75
587.292	78.75
587.502	100.75
587.713	110.75
587.923	91.75
588.133	86.75
588.343	93.75
588.553	82.75
588.762	84.75
588.972	84.75
589.182	89.75
589.392	76.75
589.602	92.75
589.812	84.75
590.022	84.75
590.232	96.75
590.441	85.75
590.651	82.75
590.861	86.75
591.071	71.75
591.281	91.75
591.49	89.75
591.7	87.75
591.91	97.75
592.119	89.75
592.329	92.75
592.539	101.75
592.748	90.75
592.958	87.75
593.167	88.75
593.377	88.75
593.587	87.75
593.796	97.75
594.006	86.75
594.215	83.75
594.424	97.75
594.634	101.75
594.843	90.75
595.053	78.75
595.262	82.75
595.472	93.75
595.681	82.75
595.89	84.75
596.1	89.75
596.309	83.75
596.518	91.75
596.727	104.75
596.937	90.75
597.146	77.75
597.355	98.75
597.564	89.75
597.774	76.75
597.983	79.75
598.192	82.75
598.401	78.75
598.61	88.75
598.819	82.75
599.028	83.75
599.237	85.75
599.446	87.75
599.655	107.75
599.864	69.75
600.073	89.75
600.282	104.75
600.491	89.75
600.7	93.75
600.909	93.75
601.118	86.75
601.327	87.75
601.536	95.75
601.745	95.75
601.953	99.75
602.162	82.75
602.371	95.75
602.58	99.75
602.789	112.75
602.997	91.75
603.206	106.75
603.415	101.75
603.623	86.75
603.832	101.75
604.041	106.75
604.249	85.75
604.458	89.75
604.666	98.75
604.875	86.75
605.084	94.75
605.292	93.75
605.501	92.75
605.709	93.75
605.918	88.75
606.126	98.75
606.334	110.75
606.543	88.75
606.751	92.75
606.96	98.75
607.168	89.75
607.376	87.75
607.585	92.75
607.793	87.75
608.001	104.75
608.21	98.75
608.418	108.75
608.626	105.75
608.834	102.75
609.043	83.75
609.251	94.75
609.459	81.75
609.667	121.75
609.875	107.75
610.083	100.75
610.291	94.75
610.499	78.75
610.707	94.75
610.916	100.75
611.124	103.75
611.332	100.75
611.54	108.75
611.748	102.75
611.955	82.75
612.163	107.75
612.371	95.75
612.579	100.75
612.787	102.75
612.995	102.75
613.203	89.75
613.411	93.75
613.618	96.75
613.826	80.75
614.034	90.75
614.242	92.75
614.449	90.75
614.657	100.75
614.865	98.75
615.072	99.75
615.28	98.75
615.488	102.75
615.695	94.75
615.903	101.75
616.111	95.75
616.318	97.75
616.526	100.75
616.733	92.75
616.941	95.75
617.148	117.75
617.356	106.75
617.563	93.75
617.771	115.75
617.978	107.75
618.185	93.75
618.393	102.75
618.6	87.75
618.807	100.75
619.015	108.75
619.222	110.75
619.429	104.75
619.637	92.75
619.844	98.75
620.051	97.75
620.258	94.75
620.466	96.75
620.673	101.75
620.88	96.75
621.087	102.75
621.294	98.75
621.501	82.75
621.708	81.75
621.915	93.75
622.122	89.75
622.329	93.75
622.536	87.75
622.743	97.75
622.95	105.75
623.157	106.75
623.364	92.75
623.571	87.75
623.778	82.75
623.985	101.75
624.192	95.75
624.399	95.75
624.606	101.75
624.812	105.75
625.019	101.75
625.226	94.75
625.433	104.75
625.639	94.75
625.846	86.75
626.053	103.75
626.259	86.75
626.466	94.75
626.673	97.75
626.879	100.75
627.086	107.75
627.293	109.75
627.499	110.75
627.706	86.75
627.912	91.75
628.119	90.75
628.325	93.75
628.532	97.75
628.738	91.75
628.945	99.75
629.151	98.75
629.357	96.75
629.564	97.75
629.77	98.75
629.976	83.75
630.183	89.75
630.389	102.75
630.595	97.75
630.802	90.75
631.008	89.75
631.214	100.75
631.42	102.75
631.627	90.75
631.833	94.75
632.039	91.75
632.245	98.75
632.451	72.75
632.657	94.75
632.863	92.75
633.069	89.75
633.275	82.75
633.481	101.75
633.688	93.75
633.893	115.75
634.099	100.75
634.305	83.75
634.511	98.75
634.717	88.75
634.923	86.75
635.129	97.75
635.335	80.75
635.541	88.75
635.747	101.75
635.952	86.75
636.158	88.75
636.364	93.75
636.57	90.75
636.775	93.75
636.981	75.75
637.187	81.75
637.392	90.75
637.598	92.75
637.804	92.75
638.009	86.75
638.215	90.75
638.421	87.75
638.626	89.75
638.832	103.75
639.037	95.75
639.243	94.75
639.448	93.75
639.654	92.75
639.859	100.75
640.065	79.75
640.27	91.75
640.475	91.75
640.681	88.75
640.886	97.75
641.091	98.75
641.297	99.75
641.502	87.75
641.707	110.75
641.913	86.75
642.118	100.75
642.323	98.75
642.528	93.75
642.733	96.75
642.939	97.75
643.144	98.75
643.349	80.75
643.554	83.75
643.759	94.75
643.964	88.75
644.169	88.75
644.374	89.75
644.579	97.75
644.784	101.75
644.989	85.75
645.194	105.75
645.399	94.75
645.604	94.75
645.809	102.75
646.014	98.75
646.219	88.75
646.423	95.75
646.628	78.75
646.833	100.75
647.038	92.75
647.243	100.75
647.447	94.75
647.652	84.75
647.857	89.75
648.062	100.75
648.266	89.75
648.471	93.75
648.676	87.75
648.88	94.75
649.085	85.75
649.289	77.75
649.494	85.75
649.698	96.75
649.903	86.75
650.107	86.75
650.312	94.75
650.516	89.75
650.721	85.75
650.925	94.75
651.13	90.75
651.334	89.75
651.539	79.75
651.743	82.75
651.947	93.75
652.152	80.75
652.356	81.75
652.56	84.75
652.764	101.75
652.969	95.75
653.173	94.75
653.377	89.75
653.581	96.75
653.785	86.75
653.99	87.75
654.194	99.75
654.398	93.75
654.602	93.75
654.806	77.75
655.01	89.75
655.214	99.75
655.418	82.75
655.622	83.75
655.826	88.75
656.03	83.75
656.234	100.75
656.438	92.75
656.642	96.75
656.846	80.75
657.049	92.75
657.253	85.75
657.457	87.75
657.661	100.75
657.865	92.75
658.068	101.75
658.272	77.75
658.476	71.75
658.68	87.75
658.883	84.75
659.087	77.75
659.291	95.75
659.494	91.75
659.698	83.75
659.901	93.75
660.105	92.75
660.309	95.75
660.512	81.75
660.716	81.75
660.919	90.75
661.123	94.75
661.326	78.75
661.53	84.75
661.733	81.75
661.936	78.75
662.14	78.75
662.343	68.75
662.546	100.75
662.75	91.75
662.953	95.75
663.156	78.75
663.36	80.75
663.563	78.75
663.766	78.75
663.969	89.75
664.173	90.75
664.376	91.75
664.579	82.75
664.782	76.75
664.985	103.75
665.188	69.75
665.391	86.75
665.594	77.75
665.797	87.75
666	83.75
666.203	92.75
666.406	83.75
666.609	87.75
666.812	98.75
667.015	82.75
667.218	79.75
667.421	92.75
667.624	80.75
667.827	79.75
668.03	92.75
668.232	92.75
668.435	68.75
668.638	97.75
668.841	84.75
669.043	81.75
669.246	86.75
669.449	89.75
669.651	94.75
669.854	81.75
670.057	90.75
670.259	79.75
670.462	91.75
670.665	89.75
670.867	90.75
671.07	74.75
671.272	87.75
671.475	81.75
671.677	102.75
671.88	89.75
672.082	89.75
672.284	85.75
672.487	90.75
672.689	86.75
672.892	82.75
