Data from 1970.Penny.LincolnSideUp.Lamp.En5.5200Scan.07242019.P1_HRD10591_15-02-38-044.txt Node
Date: Wed Jul 24 15:02:38 EDT 2019
User: cochatt
Spectrometer: HR+D1059
Trigger mode: 1
Integration Time (sec): 1.000000E-1
Scans to average: 1
Electric dark correction enabled: true
Nonlinearity correction enabled: false
Boxcar width: 0
XAxis mode: Wavelengths
Number of Pixels in Spectrum: 2048
>>>>>Begin Spectral Data<<<<<
223.165	-11.25
223.4	-11.25
223.635	-11.25
223.869	-25.25
224.104	-33.25
224.338	-16.25
224.573	-13.25
224.808	-13.25
225.042	-0.25
225.277	2.75
225.511	-1.25
225.746	14.75
225.98	11.75
226.215	6.75
226.449	16.75
226.683	23.75
226.918	17.75
227.152	19.75
227.387	40.75
227.621	28.75
227.856	42.75
228.09	32.75
228.324	46.75
228.559	66.75
228.793	117.75
229.027	263.75
229.262	316.75
229.496	338.75
229.73	446.75
229.964	570.75
230.199	395.75
230.433	322.75
230.667	308.75
230.901	296.75
231.136	290.75
231.37	309.75
231.604	301.75
231.838	285.75
232.072	289.75
232.306	283.75
232.541	300.75
232.775	299.75
233.009	293.75
233.243	327.75
233.477	297.75
233.711	300.75
233.945	312.75
234.179	335.75
234.413	327.75
234.647	332.75
234.881	320.75
235.115	340.75
235.349	347.75
235.583	353.75
235.817	353.75
236.051	381.75
236.285	390.75
236.519	374.75
236.753	403.75
236.987	480.75
237.221	710.75
237.455	1006.75
237.689	668.75
237.922	479.75
238.156	425.75
238.39	419.75
238.624	410.75
238.858	412.75
239.091	412.75
239.325	400.75
239.559	429.75
239.793	415.75
240.027	440.75
240.26	492.75
240.494	592.75
240.728	548.75
240.961	540.75
241.195	500.75
241.429	469.75
241.662	452.75
241.896	467.75
242.13	443.75
242.363	453.75
242.597	466.75
242.83	489.75
243.064	515.75
243.298	485.75
243.531	489.75
243.765	478.75
243.998	500.75
244.232	480.75
244.465	512.75
244.699	530.75
244.932	557.75
245.166	532.75
245.399	539.75
245.633	534.75
245.866	542.75
246.099	556.75
246.333	553.75
246.566	520.75
246.8	559.75
247.033	561.75
247.266	590.75
247.5	598.75
247.733	646.75
247.966	680.75
248.2	687.75
248.433	681.75
248.666	646.75
248.899	702.75
249.133	784.75
249.366	818.75
249.599	783.75
249.832	675.75
250.066	682.75
250.299	712.75
250.532	731.75
250.765	793.75
250.998	908.75
251.231	939.75
251.465	874.75
251.698	790.75
251.931	773.75
252.164	770.75
252.397	750.75
252.63	778.75
252.863	794.75
253.096	871.75
253.329	955.75
253.562	932.75
253.795	852.75
254.028	844.75
254.261	841.75
254.494	938.75
254.727	1067.75
254.96	1194.75
255.193	1098.75
255.426	972.75
255.659	924.75
255.892	897.75
256.124	927.75
256.357	919.75
256.59	894.75
256.823	853.75
257.056	818.75
257.289	809.75
257.521	804.75
257.754	829.75
257.987	838.75
258.22	819.75
258.452	836.75
258.685	842.75
258.918	853.75
259.151	846.75
259.383	879.75
259.616	886.75
259.849	928.75
260.081	958.75
260.314	1048.75
260.547	1080.75
260.779	1001.75
261.012	928.75
261.244	900.75
261.477	900.75
261.71	865.75
261.942	869.75
262.175	913.75
262.407	904.75
262.64	848.75
262.872	852.75
263.105	852.75
263.337	846.75
263.57	885.75
263.802	871.75
264.035	858.75
264.267	862.75
264.499	865.75
264.732	890.75
264.964	862.75
265.197	883.75
265.429	880.75
265.661	892.75
265.894	872.75
266.126	870.75
266.358	913.75
266.591	902.75
266.823	918.75
267.055	946.75
267.287	950.75
267.52	920.75
267.752	924.75
267.984	917.75
268.216	941.75
268.448	964.75
268.681	954.75
268.913	982.75
269.145	1088.75
269.377	1163.75
269.609	1106.75
269.841	1113.75
270.073	1099.75
270.306	1191.75
270.538	1317.75
270.77	1304.75
271.002	1212.75
271.234	1172.75
271.466	1220.75
271.698	1302.75
271.93	1292.75
272.162	1328.75
272.394	1299.75
272.626	1237.75
272.858	1142.75
273.09	1125.75
273.322	1090.75
273.553	1105.75
273.785	1043.75
274.017	1067.75
274.249	1101.75
274.481	1065.75
274.713	1082.75
274.945	1061.75
275.176	1097.75
275.408	1070.75
275.64	1095.75
275.872	1084.75
276.104	1095.75
276.335	1113.75
276.567	1126.75
276.799	1186.75
277.031	1290.75
277.262	1360.75
277.494	1342.75
277.726	1244.75
277.957	1178.75
278.189	1173.75
278.421	1150.75
278.652	1136.75
278.884	1144.75
279.115	1128.75
279.347	1136.75
279.579	1126.75
279.81	1119.75
280.042	1117.75
280.273	1094.75
280.505	1150.75
280.736	1142.75
280.968	1112.75
281.199	1138.75
281.431	1125.75
281.662	1120.75
281.894	1156.75
282.125	1133.75
282.356	1156.75
282.588	1250.75
282.819	1234.75
283.051	1166.75
283.282	1145.75
283.513	1161.75
283.745	1176.75
283.976	1176.75
284.207	1187.75
284.439	1194.75
284.67	1207.75
284.901	1176.75
285.132	1162.75
285.364	1187.75
285.595	1216.75
285.826	1209.75
286.057	1186.75
286.288	1180.75
286.52	1182.75
286.751	1181.75
286.982	1222.75
287.213	1200.75
287.444	1200.75
287.675	1266.75
287.906	1252.75
288.138	1307.75
288.369	1266.75
288.6	1312.75
288.831	1243.75
289.062	1250.75
289.293	1243.75
289.524	1204.75
289.755	1227.75
289.986	1210.75
290.217	1213.75
290.448	1236.75
290.679	1237.75
290.91	1217.75
291.141	1240.75
291.371	1231.75
291.602	1233.75
291.833	1208.75
292.064	1254.75
292.295	1236.75
292.526	1223.75
292.757	1253.75
292.987	1224.75
293.218	1227.75
293.449	1265.75
293.68	1237.75
293.91	1219.75
294.141	1245.75
294.372	1206.75
294.603	1242.75
294.833	1287.75
295.064	1258.75
295.295	1267.75
295.525	1241.75
295.756	1287.75
295.987	1256.75
296.217	1336.75
296.448	1342.75
296.679	1283.75
296.909	1268.75
297.14	1290.75
297.37	1278.75
297.601	1332.75
297.831	1281.75
298.062	1281.75
298.292	1317.75
298.523	1316.75
298.753	1345.75
298.984	1314.75
299.214	1321.75
299.445	1334.75
299.675	1317.75
299.905	1354.75
300.136	1324.75
300.366	1352.75
300.597	1341.75
300.827	1353.75
301.057	1409.75
301.288	1399.75
301.518	1408.75
301.748	1397.75
301.979	1456.75
302.209	1422.75
302.439	1414.75
302.669	1400.75
302.9	1383.75
303.13	1387.75
303.36	1425.75
303.59	1397.75
303.82	1401.75
304.051	1433.75
304.281	1428.75
304.511	1374.75
304.741	1381.75
304.971	1410.75
305.201	1387.75
305.431	1356.75
305.661	1425.75
305.891	1384.75
306.121	1366.75
306.352	1404.75
306.582	1403.75
306.812	1369.75
307.042	1378.75
307.272	1392.75
307.502	1396.75
307.731	1413.75
307.961	1368.75
308.191	1403.75
308.421	1390.75
308.651	1378.75
308.881	1384.75
309.111	1428.75
309.341	1418.75
309.571	1404.75
309.8	1445.75
310.03	1472.75
310.26	1494.75
310.49	1464.75
310.72	1518.75
310.949	1567.75
311.179	1576.75
311.409	1518.75
311.639	1505.75
311.868	1494.75
312.098	1466.75
312.328	1537.75
312.557	1573.75
312.787	1640.75
313.017	1645.75
313.246	1563.75
313.476	1567.75
313.706	1509.75
313.935	1553.75
314.165	1610.75
314.394	1605.75
314.624	1605.75
314.853	1548.75
315.083	1575.75
315.312	1538.75
315.542	1552.75
315.771	1540.75
316.001	1547.75
316.23	1544.75
316.46	1533.75
316.689	1572.75
316.919	1551.75
317.148	1560.75
317.377	1582.75
317.607	1573.75
317.836	1580.75
318.065	1580.75
318.295	1534.75
318.524	1543.75
318.753	1515.75
318.983	1538.75
319.212	1529.75
319.441	1550.75
319.67	1538.75
319.9	1541.75
320.129	1530.75
320.358	1506.75
320.587	1566.75
320.816	1557.75
321.046	1580.75
321.275	1590.75
321.504	1587.75
321.733	1593.75
321.962	1588.75
322.191	1605.75
322.42	1655.75
322.649	1706.75
322.878	1702.75
323.108	1711.75
323.337	1780.75
323.566	1845.75
323.795	1897.75
324.024	1992.75
324.253	2274.75
324.482	3168.75
324.71	5120.75
324.939	8552.75
325.168	7097.75
325.397	2995.75
325.626	2112.75
325.855	1898.75
326.084	1843.75
326.313	1818.75
326.542	1786.75
326.77	1984.75
326.999	2202.75
327.228	3008.75
327.457	4948.75
327.686	6614.75
327.914	3644.75
328.143	2421.75
328.372	2166.75
328.6	2037.75
328.829	2030.75
329.058	2067.75
329.287	2115.75
329.515	2032.75
329.744	1890.75
329.972	1885.75
330.201	1927.75
330.43	2015.75
330.658	2154.75
330.887	2261.75
331.115	2249.75
331.344	1963.75
331.572	1916.75
331.801	1931.75
332.03	1950.75
332.258	1934.75
332.486	1907.75
332.715	1946.75
332.943	1957.75
333.172	1974.75
333.4	2007.75
333.629	2056.75
333.857	2101.75
334.085	2104.75
334.314	2166.75
334.542	2194.75
334.771	2234.75
334.999	2123.75
335.227	2077.75
335.455	2008.75
335.684	2013.75
335.912	1963.75
336.14	1925.75
336.369	1921.75
336.597	1966.75
336.825	1970.75
337.053	1935.75
337.281	1866.75
337.51	1890.75
337.738	1885.75
337.966	1853.75
338.194	1865.75
338.422	1909.75
338.65	1888.75
338.878	1882.75
339.106	1819.75
339.334	1789.75
339.562	1813.75
339.79	1805.75
340.018	1794.75
340.246	1804.75
340.474	1771.75
340.702	1768.75
340.93	1765.75
341.158	1778.75
341.386	1792.75
341.614	1829.75
341.842	1770.75
342.07	1764.75
342.298	1751.75
342.526	1760.75
342.754	1736.75
342.981	1723.75
343.209	1720.75
343.437	1799.75
343.665	1849.75
343.893	1904.75
344.12	1976.75
344.348	1925.75
344.576	1889.75
344.804	1837.75
345.031	1836.75
345.259	1874.75
345.487	1831.75
345.714	1769.75
345.942	1739.75
346.17	1741.75
346.397	1709.75
346.625	1736.75
346.853	1680.75
347.08	1689.75
347.308	1704.75
347.535	1742.75
347.763	1773.75
347.99	1709.75
348.218	1701.75
348.445	1732.75
348.673	1721.75
348.9	1744.75
349.128	1696.75
349.355	1651.75
349.583	1677.75
349.81	1653.75
350.037	1664.75
350.265	1648.75
350.492	1654.75
350.72	1668.75
350.947	1654.75
351.174	1693.75
351.402	1678.75
351.629	1704.75
351.856	1656.75
352.083	1709.75
352.311	1733.75
352.538	1694.75
352.765	1714.75
352.992	1684.75
353.22	1644.75
353.447	1664.75
353.674	1649.75
353.901	1636.75
354.128	1620.75
354.355	1624.75
354.583	1635.75
354.81	1631.75
355.037	1650.75
355.264	1624.75
355.491	1604.75
355.718	1638.75
355.945	1620.75
356.172	1617.75
356.399	1605.75
356.626	1618.75
356.853	1622.75
357.08	1603.75
357.307	1611.75
357.534	1651.75
357.761	1645.75
357.988	1619.75
358.215	1612.75
358.441	1628.75
358.668	1643.75
358.895	1617.75
359.122	1635.75
359.349	1640.75
359.576	1678.75
359.802	1754.75
360.029	1817.75
360.256	1846.75
360.483	1776.75
360.709	1688.75
360.936	1691.75
361.163	1705.75
361.39	1707.75
361.616	1718.75
361.843	1693.75
362.07	1694.75
362.296	1713.75
362.523	1700.75
362.749	1672.75
362.976	1653.75
363.203	1664.75
363.429	1658.75
363.656	1664.75
363.882	1653.75
364.109	1634.75
364.335	1640.75
364.562	1655.75
364.788	1615.75
365.015	1628.75
365.241	1652.75
365.468	1670.75
365.694	1680.75
365.92	1671.75
366.147	1662.75
366.373	1662.75
366.599	1662.75
366.826	1653.75
367.052	1646.75
367.278	1682.75
367.505	1698.75
367.731	1680.75
367.957	1653.75
368.184	1712.75
368.41	1720.75
368.636	1775.75
368.862	1747.75
369.089	1739.75
369.315	1660.75
369.541	1714.75
369.767	1713.75
369.993	1682.75
370.219	1724.75
370.445	1739.75
370.672	1761.75
370.898	1752.75
371.124	1752.75
371.35	1760.75
371.576	1804.75
371.802	1764.75
372.028	1736.75
372.254	1775.75
372.48	1786.75
372.706	1808.75
372.932	1797.75
373.158	1773.75
373.384	1814.75
373.61	1798.75
373.835	1805.75
374.061	1766.75
374.287	1796.75
374.513	1834.75
374.739	1898.75
374.965	1909.75
375.191	1893.75
375.416	1892.75
375.642	1861.75
375.868	1869.75
376.094	1813.75
376.319	1862.75
376.545	1825.75
376.771	1780.75
376.997	1832.75
377.222	1770.75
377.448	1747.75
377.674	1820.75
377.899	1787.75
378.125	1814.75
378.35	1771.75
378.576	1781.75
378.802	1803.75
379.027	1820.75
379.253	1796.75
379.478	1756.75
379.704	1804.75
379.929	1796.75
380.155	1849.75
380.38	1822.75
380.606	1804.75
380.831	1860.75
381.057	1832.75
381.282	1800.75
381.507	1825.75
381.733	1851.75
381.958	1864.75
382.184	1867.75
382.409	1883.75
382.634	1904.75
382.86	1889.75
383.085	1895.75
383.31	1925.75
383.535	1924.75
383.761	1984.75
383.986	2010.75
384.211	2045.75
384.436	2054.75
384.662	2038.75
384.887	2091.75
385.112	2112.75
385.337	2088.75
385.562	2153.75
385.787	2163.75
386.013	2187.75
386.238	2178.75
386.463	2192.75
386.688	2144.75
386.913	2146.75
387.138	2196.75
387.363	2204.75
387.588	2171.75
387.813	2139.75
388.038	2120.75
388.263	2155.75
388.488	2205.75
388.713	2145.75
388.938	2164.75
389.163	2108.75
389.387	2133.75
389.612	2052.75
389.837	2070.75
390.062	2054.75
390.287	2043.75
390.512	2116.75
390.736	2111.75
390.961	2122.75
391.186	2136.75
391.411	2203.75
391.636	2242.75
391.86	2243.75
392.085	2290.75
392.31	2310.75
392.534	2240.75
392.759	2240.75
392.984	2247.75
393.208	2205.75
393.433	2291.75
393.658	2340.75
393.882	2227.75
394.107	2176.75
394.331	2188.75
394.556	2211.75
394.78	2205.75
395.005	2218.75
395.229	2230.75
395.454	2240.75
395.678	2309.75
395.903	2349.75
396.127	2413.75
396.352	2402.75
396.576	2306.75
396.801	2267.75
397.025	2387.75
397.249	2346.75
397.474	2374.75
397.698	2319.75
397.922	2402.75
398.147	2483.75
398.371	2524.75
398.595	2512.75
398.82	2520.75
399.044	2668.75
399.268	2833.75
399.492	3090.75
399.717	3373.75
399.941	3514.75
400.165	3500.75
400.389	3385.75
400.613	2992.75
400.837	2806.75
401.062	2700.75
401.286	2694.75
401.51	2628.75
401.734	2612.75
401.958	2585.75
402.182	2624.75
402.406	2614.75
402.63	2656.75
402.854	2701.75
403.078	2738.75
403.302	2777.75
403.526	2784.75
403.75	2808.75
403.974	2828.75
404.198	2739.75
404.422	2796.75
404.645	2816.75
404.869	2840.75
405.093	2952.75
405.317	3146.75
405.541	3273.75
405.765	3006.75
405.988	2857.75
406.212	2904.75
406.436	2913.75
406.66	3029.75
406.883	2988.75
407.107	3117.75
407.331	3412.75
407.555	3870.75
407.778	3756.75
408.002	3397.75
408.226	3182.75
408.449	3090.75
408.673	3075.75
408.896	3206.75
409.12	3410.75
409.344	3132.75
409.567	2913.75
409.791	2811.75
410.014	2770.75
410.238	2743.75
410.461	2755.75
410.685	2779.75
410.908	2856.75
411.132	2978.75
411.355	3196.75
411.578	2975.75
411.802	2744.75
412.025	2698.75
412.249	2760.75
412.472	2873.75
412.695	3028.75
412.919	2924.75
413.142	2727.75
413.365	2690.75
413.589	2678.75
413.812	2610.75
414.035	2634.75
414.258	2589.75
414.482	2594.75
414.705	2643.75
414.928	2595.75
415.151	2577.75
415.374	2580.75
415.597	2592.75
415.821	2556.75
416.044	2541.75
416.267	2590.75
416.49	2579.75
416.713	2552.75
416.936	2588.75
417.159	2582.75
417.382	2643.75
417.605	2608.75
417.828	2605.75
418.051	2744.75
418.274	2666.75
418.497	2619.75
418.72	2651.75
418.943	2595.75
419.166	2754.75
419.389	2986.75
419.611	2893.75
419.834	2785.75
420.057	2794.75
420.28	2765.75
420.503	2724.75
420.726	2684.75
420.948	2705.75
421.171	2951.75
421.394	3132.75
421.617	2802.75
421.839	2674.75
422.062	2737.75
422.285	2698.75
422.507	3053.75
422.73	3511.75
422.953	3367.75
423.175	2857.75
423.398	2843.75
423.621	2837.75
423.843	2955.75
424.066	2945.75
424.288	2880.75
424.511	2952.75
424.733	3250.75
424.956	3736.75
425.178	3530.75
425.401	3520.75
425.623	3611.75
425.846	2985.75
426.068	2801.75
426.291	2760.75
426.513	2747.75
426.735	2800.75
426.958	3007.75
427.18	3498.75
427.402	4439.75
427.625	4786.75
427.847	3712.75
428.069	3231.75
428.292	2836.75
428.514	2632.75
428.736	2586.75
428.958	2597.75
429.181	2499.75
429.403	2490.75
429.625	2530.75
429.847	2729.75
430.069	3195.75
430.292	3074.75
430.514	2644.75
430.736	2594.75
430.958	2461.75
431.18	2444.75
431.402	2416.75
431.624	2341.75
431.846	2377.75
432.068	2313.75
432.29	2387.75
432.512	2348.75
432.734	2514.75
432.956	2452.75
433.178	2548.75
433.4	2558.75
433.622	2508.75
433.844	2469.75
434.066	2414.75
434.287	2370.75
434.509	2416.75
434.731	2460.75
434.953	2594.75
435.175	2677.75
435.397	2802.75
435.618	2787.75
435.84	2940.75
436.062	3628.75
436.284	4160.75
436.505	3134.75
436.727	2861.75
436.949	2633.75
437.17	2608.75
437.392	2517.75
437.614	2548.75
437.835	2636.75
438.057	3240.75
438.278	3972.75
438.5	3920.75
438.721	4747.75
438.943	4390.75
439.165	3144.75
439.386	2868.75
439.608	2854.75
439.829	2835.75
440.05	3011.75
440.272	3352.75
440.493	2985.75
440.715	2733.75
440.936	2650.75
441.158	2668.75
441.379	2689.75
441.6	2789.75
441.822	2894.75
442.043	3143.75
442.264	3812.75
442.486	4038.75
442.707	3178.75
442.928	2975.75
443.149	2992.75
443.371	3142.75
443.592	3381.75
443.813	4231.75
444.034	4602.75
444.255	3428.75
444.476	3037.75
444.698	3082.75
444.919	3145.75
445.14	3155.75
445.361	3137.75
445.582	3232.75
445.803	3632.75
446.024	4369.75
446.245	4380.75
446.466	3840.75
446.687	3195.75
446.908	2882.75
447.129	2666.75
447.35	2635.75
447.571	2578.75
447.792	2540.75
448.013	2600.75
448.234	2613.75
448.455	2985.75
448.675	3907.75
448.896	4862.75
449.117	3625.75
449.338	3341.75
449.559	4401.75
449.779	5316.75
450	3563.75
450.221	2845.75
450.442	2568.75
450.662	2426.75
450.883	2440.75
451.104	2442.75
451.324	2400.75
451.545	2336.75
451.766	2254.75
451.986	2224.75
452.207	2201.75
452.428	2211.75
452.648	2173.75
452.869	2206.75
453.089	2203.75
453.31	2276.75
453.53	2136.75
453.751	2102.75
453.971	2080.75
454.192	2145.75
454.412	2116.75
454.633	2076.75
454.853	2119.75
455.073	2112.75
455.294	2328.75
455.514	2771.75
455.734	2640.75
455.955	2157.75
456.175	2071.75
456.395	2029.75
456.616	1951.75
456.836	1963.75
457.056	1984.75
457.276	1884.75
457.497	1984.75
457.717	2002.75
457.937	2075.75
458.157	2052.75
458.377	2084.75
458.598	2169.75
458.818	2345.75
459.038	2786.75
459.258	3036.75
459.478	2491.75
459.698	2317.75
459.918	2316.75
460.138	2350.75
460.358	2434.75
460.578	2459.75
460.798	2482.75
461.018	2494.75
461.238	2432.75
461.458	2406.75
461.678	2440.75
461.898	2488.75
462.118	2435.75
462.338	2557.75
462.558	2587.75
462.777	2616.75
462.997	2797.75
463.217	2883.75
463.437	2948.75
463.657	2776.75
463.876	2711.75
464.096	2669.75
464.316	2684.75
464.536	2766.75
464.755	2641.75
464.975	2678.75
465.195	2676.75
465.414	2801.75
465.634	2542.75
465.854	2446.75
466.073	2345.75
466.293	2279.75
466.512	2264.75
466.732	2197.75
466.951	2217.75
467.171	2198.75
467.391	2282.75
467.61	2256.75
467.829	2306.75
468.049	2277.75
468.268	2229.75
468.488	2229.75
468.707	2153.75
468.927	2145.75
469.146	2181.75
469.365	2236.75
469.585	2172.75
469.804	2245.75
470.023	2324.75
470.243	2331.75
470.462	2348.75
470.681	2400.75
470.901	2382.75
471.12	2295.75
471.339	2298.75
471.558	2270.75
471.777	2354.75
471.997	2208.75
472.216	2208.75
472.435	2240.75
472.654	2187.75
472.873	2066.75
473.092	2089.75
473.311	2145.75
473.53	2177.75
473.749	2209.75
473.968	2408.75
474.187	3077.75
474.406	3193.75
474.625	2458.75
474.844	2278.75
475.063	2181.75
475.282	2194.75
475.501	2219.75
475.72	2219.75
475.939	2217.75
476.158	2257.75
476.377	2258.75
476.596	2195.75
476.814	2233.75
477.033	2241.75
477.252	2277.75
477.471	2289.75
477.69	2427.75
477.908	2438.75
478.127	2499.75
478.346	2473.75
478.564	2496.75
478.783	2568.75
479.002	2600.75
479.22	2613.75
479.439	2578.75
479.658	2647.75
479.876	2644.75
480.095	2697.75
480.313	2893.75
480.532	2790.75
480.751	2728.75
480.969	2724.75
481.188	2765.75
481.406	2784.75
481.624	2596.75
481.843	2535.75
482.061	2468.75
482.28	2498.75
482.498	2504.75
482.717	2455.75
482.935	2486.75
483.153	2582.75
483.372	2542.75
483.59	2592.75
483.808	2556.75
484.027	2533.75
484.245	2553.75
484.463	2566.75
484.681	2621.75
484.9	2625.75
485.118	2641.75
485.336	2629.75
485.554	2577.75
485.772	2522.75
485.99	2511.75
486.209	2606.75
486.427	2587.75
486.645	2625.75
486.863	2774.75
487.081	2808.75
487.299	2676.75
487.517	2704.75
487.735	2803.75
487.953	2875.75
488.171	2853.75
488.389	2855.75
488.607	2824.75
488.825	2754.75
489.043	2689.75
489.261	2740.75
489.479	2805.75
489.696	2765.75
489.914	2813.75
490.132	2840.75
490.35	2981.75
490.568	2979.75
490.786	3085.75
491.003	3109.75
491.221	3213.75
491.439	3254.75
491.657	3360.75
491.874	3375.75
492.092	3498.75
492.31	3632.75
492.527	3544.75
492.745	3434.75
492.963	3433.75
493.18	3406.75
493.398	3377.75
493.615	3421.75
493.833	3435.75
494.05	3437.75
494.268	3378.75
494.485	3389.75
494.703	3340.75
494.92	3404.75
495.138	3413.75
495.355	3314.75
495.573	3428.75
495.79	3424.75
496.008	3465.75
496.225	3362.75
496.442	3369.75
496.66	3425.75
496.877	3353.75
497.094	3433.75
497.312	3480.75
497.529	3565.75
497.746	3480.75
497.963	3542.75
498.181	3608.75
498.398	3625.75
498.615	3708.75
498.832	3818.75
499.049	4027.75
499.267	4191.75
499.484	4426.75
499.701	4750.75
499.918	5012.75
500.135	5416.75
500.352	5804.75
500.569	5920.75
500.786	6016.75
501.003	5771.75
501.22	5505.75
501.437	5146.75
501.654	4875.75
501.871	4648.75
502.088	4304.75
502.305	4152.75
502.522	3945.75
502.739	3790.75
502.956	3627.75
503.172	3491.75
503.389	3392.75
503.606	3328.75
503.823	3308.75
504.04	3309.75
504.256	3266.75
504.473	3270.75
504.69	3343.75
504.907	3245.75
505.123	3158.75
505.34	3119.75
505.557	3068.75
505.773	2972.75
505.99	3046.75
506.207	2957.75
506.423	2915.75
506.64	2888.75
506.856	2852.75
507.073	2862.75
507.289	2808.75
507.506	2798.75
507.722	2787.75
507.939	2840.75
508.155	2747.75
508.372	2653.75
508.588	2616.75
508.805	2575.75
509.021	2635.75
509.238	2710.75
509.454	2743.75
509.67	2644.75
509.887	2595.75
510.103	2530.75
510.319	2588.75
510.536	2626.75
510.752	3607.75
510.968	3208.75
511.184	2434.75
511.401	2410.75
511.617	2400.75
511.833	2379.75
512.049	2378.75
512.265	2382.75
512.481	2367.75
512.698	2365.75
512.914	2388.75
513.13	2372.75
513.346	2334.75
513.562	2367.75
513.778	2331.75
513.994	2385.75
514.21	2373.75
514.426	2452.75
514.642	2533.75
514.858	2595.75
515.074	2635.75
515.29	2911.75
515.506	3769.75
515.721	3360.75
515.937	2690.75
516.153	2574.75
516.369	2527.75
516.585	2499.75
516.801	2589.75
517.016	2581.75
517.232	2669.75
517.448	2714.75
517.664	2734.75
517.879	2738.75
518.095	2766.75
518.311	2700.75
518.527	2655.75
518.742	2673.75
518.958	2576.75
519.173	2534.75
519.389	2486.75
519.605	2488.75
519.82	2424.75
520.036	2458.75
520.251	2513.75
520.467	2527.75
520.682	2441.75
520.898	2476.75
521.113	2449.75
521.329	2492.75
521.544	2682.75
521.76	3078.75
521.975	4480.75
522.19	4458.75
522.406	2864.75
522.621	2406.75
522.836	2284.75
523.052	2248.75
523.267	2197.75
523.482	2129.75
523.698	2182.75
523.913	2188.75
524.128	2164.75
524.343	2114.75
524.559	2086.75
524.774	2077.75
524.989	2069.75
525.204	2104.75
525.419	2087.75
525.634	2029.75
525.849	1981.75
526.064	1928.75
526.28	1980.75
526.495	1948.75
526.71	1904.75
526.925	1905.75
527.14	1900.75
527.355	1900.75
527.57	1913.75
527.785	1888.75
527.999	1909.75
528.214	1928.75
528.429	1947.75
528.644	2027.75
528.859	2019.75
529.074	2054.75
529.289	2169.75
529.503	2312.75
529.718	2241.75
529.933	2101.75
530.148	1971.75
530.363	1923.75
530.577	1867.75
530.792	1855.75
531.007	1864.75
531.221	1835.75
531.436	1848.75
531.651	1830.75
531.865	1828.75
532.08	1862.75
532.295	1804.75
532.509	1828.75
532.724	1819.75
532.938	1821.75
533.153	1887.75
533.367	1897.75
533.582	1872.75
533.796	1914.75
534.011	1896.75
534.225	1810.75
534.44	1806.75
534.654	1794.75
534.868	1742.75
535.083	1832.75
535.297	1828.75
535.511	1862.75
535.726	1868.75
535.94	1838.75
536.154	1838.75
536.369	1764.75
536.583	1731.75
536.797	1731.75
537.011	1708.75
537.225	1689.75
537.44	1678.75
537.654	1720.75
537.868	1697.75
538.082	1733.75
538.296	1776.75
538.51	1788.75
538.724	1793.75
538.938	1796.75
539.153	1785.75
539.367	1812.75
539.581	1838.75
539.795	1724.75
540.009	1737.75
540.222	1713.75
540.436	1758.75
540.65	1837.75
540.864	1877.75
541.078	1921.75
541.292	1970.75
541.506	1975.75
541.72	2069.75
541.934	2140.75
542.147	2140.75
542.361	2043.75
542.575	2004.75
542.789	1910.75
543.002	1814.75
543.216	1822.75
543.43	1822.75
543.644	1854.75
543.857	1914.75
544.071	2001.75
544.285	2041.75
544.498	1997.75
544.712	1990.75
544.925	2043.75
545.139	2001.75
545.352	2013.75
545.566	2042.75
545.779	2024.75
545.993	2048.75
546.206	2061.75
546.42	2050.75
546.633	2069.75
546.847	2066.75
547.06	2018.75
547.274	2042.75
547.487	2073.75
547.7	2119.75
547.914	2008.75
548.127	2003.75
548.34	2005.75
548.554	1965.75
548.767	1994.75
548.98	1984.75
549.193	2020.75
549.407	2017.75
549.62	2023.75
549.833	2034.75
550.046	2048.75
550.259	2003.75
550.473	1996.75
550.686	1949.75
550.899	1898.75
551.112	1930.75
551.325	1848.75
551.538	1858.75
551.751	1769.75
551.964	1723.75
552.177	1852.75
552.39	1885.75
552.603	1952.75
552.816	2004.75
553.029	2053.75
553.242	2082.75
553.455	2119.75
553.667	2114.75
553.88	2145.75
554.093	2082.75
554.306	2036.75
554.519	2022.75
554.732	1972.75
554.944	1971.75
555.157	1917.75
555.37	1850.75
555.583	1795.75
555.795	1814.75
556.008	1740.75
556.221	1714.75
556.433	1692.75
556.646	1669.75
556.859	1718.75
557.071	1708.75
557.284	1711.75
557.496	1680.75
557.709	1687.75
557.921	1685.75
558.134	1703.75
558.346	1672.75
558.559	1664.75
558.771	1639.75
558.984	1614.75
559.196	1613.75
559.409	1581.75
559.621	1580.75
559.833	1540.75
560.046	1580.75
560.258	1597.75
560.47	1554.75
560.683	1593.75
560.895	1575.75
561.107	1580.75
561.32	1536.75
561.532	1584.75
561.744	1589.75
561.956	1573.75
562.168	1598.75
562.381	1585.75
562.593	1521.75
562.805	1565.75
563.017	1603.75
563.229	1560.75
563.441	1558.75
563.653	1568.75
563.865	1564.75
564.077	1573.75
564.289	1570.75
564.501	1596.75
564.713	1639.75
564.925	1630.75
565.137	1688.75
565.349	1674.75
565.561	1685.75
565.773	1701.75
565.985	1783.75
566.197	1847.75
566.408	1924.75
566.62	2027.75
566.832	2089.75
567.044	2116.75
567.255	2136.75
567.467	2134.75
567.679	2166.75
567.891	2255.75
568.102	2221.75
568.314	2136.75
568.526	1957.75
568.737	1847.75
568.949	1716.75
569.161	1635.75
569.372	1542.75
569.584	1468.75
569.795	1432.75
570.007	1407.75
570.218	1452.75
570.43	1414.75
570.641	1378.75
570.853	1407.75
571.064	1396.75
571.276	1380.75
571.487	1390.75
571.698	1348.75
571.91	1316.75
572.121	1297.75
572.333	1298.75
572.544	1214.75
572.755	1170.75
572.966	1161.75
573.178	1147.75
573.389	1118.75
573.6	1127.75
573.811	1136.75
574.023	1108.75
574.234	1099.75
574.445	1122.75
574.656	1096.75
574.867	1142.75
575.078	1124.75
575.289	1106.75
575.501	1123.75
575.712	1104.75
575.923	1079.75
576.134	1100.75
576.345	1102.75
576.556	1088.75
576.767	1076.75
576.978	1074.75
577.188	1032.75
577.399	1029.75
577.61	1051.75
577.821	1014.75
578.032	1049.75
578.243	1088.75
578.454	1329.75
578.665	1146.75
578.875	985.75
579.086	948.75
579.297	945.75
579.508	936.75
579.718	918.75
579.929	938.75
580.14	902.75
580.35	944.75
580.561	940.75
580.772	960.75
580.982	961.75
581.193	952.75
581.403	947.75
581.614	963.75
581.825	947.75
582.035	953.75
582.246	930.75
582.456	937.75
582.667	971.75
582.877	930.75
583.087	920.75
583.298	941.75
583.508	915.75
583.719	893.75
583.929	917.75
584.139	905.75
584.35	868.75
584.56	875.75
584.77	905.75
584.981	928.75
585.191	894.75
585.401	902.75
585.611	894.75
585.821	873.75
586.032	857.75
586.242	888.75
586.452	869.75
586.662	859.75
586.872	846.75
587.082	844.75
587.292	878.75
587.502	882.75
587.713	850.75
587.923	856.75
588.133	842.75
588.343	841.75
588.553	851.75
588.762	888.75
588.972	845.75
589.182	887.75
589.392	918.75
589.602	867.75
589.812	908.75
590.022	866.75
590.232	862.75
590.441	849.75
590.651	883.75
590.861	865.75
591.071	860.75
591.281	852.75
591.49	850.75
591.7	860.75
591.91	887.75
592.119	874.75
592.329	929.75
592.539	968.75
592.748	966.75
592.958	967.75
593.167	1002.75
593.377	994.75
593.587	1008.75
593.796	1016.75
594.006	1018.75
594.215	1010.75
594.424	1044.75
594.634	1018.75
594.843	1009.75
595.053	963.75
595.262	965.75
595.472	908.75
595.681	876.75
595.89	827.75
596.1	845.75
596.309	887.75
596.518	853.75
596.727	880.75
596.937	865.75
597.146	868.75
597.355	836.75
597.564	810.75
597.774	810.75
597.983	777.75
598.192	780.75
598.401	768.75
598.61	768.75
598.819	781.75
599.028	775.75
599.237	777.75
599.446	752.75
599.655	745.75
599.864	759.75
600.073	779.75
600.282	785.75
600.491	762.75
600.7	745.75
600.909	770.75
601.118	814.75
601.327	823.75
601.536	824.75
601.745	846.75
601.953	868.75
602.162	854.75
602.371	845.75
602.58	835.75
602.789	858.75
602.997	846.75
603.206	842.75
603.415	808.75
603.623	836.75
603.832	808.75
604.041	790.75
604.249	760.75
604.458	772.75
604.666	743.75
604.875	744.75
605.084	769.75
605.292	810.75
605.501	829.75
605.709	848.75
605.918	869.75
606.126	849.75
606.334	829.75
606.543	851.75
606.751	857.75
606.96	861.75
607.168	805.75
607.376	817.75
607.585	824.75
607.793	846.75
608.001	832.75
608.21	843.75
608.418	859.75
608.626	846.75
608.834	841.75
609.043	867.75
609.251	838.75
609.459	825.75
609.667	862.75
609.875	879.75
610.083	875.75
610.291	876.75
610.499	820.75
610.707	868.75
610.916	837.75
611.124	838.75
611.332	870.75
611.54	852.75
611.748	841.75
611.955	814.75
612.163	841.75
612.371	840.75
612.579	827.75
612.787	863.75
612.995	845.75
613.203	846.75
613.411	853.75
613.618	824.75
613.826	826.75
614.034	845.75
614.242	834.75
614.449	849.75
614.657	823.75
614.865	829.75
615.072	841.75
615.28	836.75
615.488	848.75
615.695	829.75
615.903	833.75
616.111	850.75
616.318	835.75
616.526	873.75
616.733	852.75
616.941	844.75
617.148	868.75
617.356	819.75
617.563	834.75
617.771	809.75
617.978	776.75
618.185	833.75
618.393	824.75
618.6	843.75
618.807	825.75
619.015	840.75
619.222	821.75
619.429	808.75
619.637	756.75
619.844	724.75
620.051	722.75
620.258	749.75
620.466	765.75
620.673	744.75
620.88	746.75
621.087	739.75
621.294	707.75
621.501	713.75
621.708	696.75
621.915	719.75
622.122	752.75
622.329	776.75
622.536	776.75
622.743	773.75
622.95	748.75
623.157	766.75
623.364	741.75
623.571	752.75
623.778	779.75
623.985	748.75
624.192	752.75
624.399	729.75
624.606	731.75
624.812	705.75
625.019	708.75
625.226	699.75
625.433	675.75
625.639	638.75
625.846	638.75
626.053	600.75
626.259	589.75
626.466	589.75
626.673	585.75
626.879	570.75
627.086	618.75
627.293	628.75
627.499	654.75
627.706	680.75
627.912	716.75
628.119	729.75
628.325	726.75
628.532	704.75
628.738	662.75
628.945	670.75
629.151	640.75
629.357	645.75
629.564	633.75
629.77	636.75
629.976	612.75
630.183	582.75
630.389	594.75
630.595	628.75
630.802	649.75
631.008	651.75
631.214	634.75
631.42	612.75
631.627	595.75
631.833	603.75
632.039	579.75
632.245	596.75
632.451	573.75
632.657	592.75
632.863	602.75
633.069	584.75
633.275	585.75
633.481	573.75
633.688	588.75
633.893	574.75
634.099	581.75
634.305	558.75
634.511	568.75
634.717	543.75
634.923	483.75
635.129	529.75
635.335	531.75
635.541	528.75
635.747	531.75
635.952	552.75
636.158	584.75
636.364	573.75
636.57	560.75
636.775	570.75
636.981	567.75
637.187	591.75
637.392	573.75
637.598	576.75
637.804	577.75
638.009	547.75
638.215	546.75
638.421	541.75
638.626	546.75
638.832	553.75
639.037	525.75
639.243	531.75
639.448	523.75
639.654	530.75
639.859	532.75
640.065	522.75
640.27	530.75
640.475	502.75
640.681	514.75
640.886	546.75
641.091	557.75
641.297	559.75
641.502	539.75
641.707	540.75
641.913	525.75
642.118	545.75
642.323	540.75
642.528	527.75
642.733	531.75
642.939	507.75
643.144	498.75
643.349	514.75
643.554	493.75
643.759	493.75
643.964	511.75
644.169	492.75
644.374	522.75
644.579	510.75
644.784	519.75
644.989	526.75
645.194	536.75
645.399	512.75
645.604	508.75
645.809	483.75
646.014	485.75
646.219	510.75
646.423	504.75
646.628	502.75
646.833	510.75
647.038	500.75
647.243	488.75
647.447	498.75
647.652	487.75
647.857	508.75
648.062	522.75
648.266	531.75
648.471	498.75
648.676	533.75
648.88	535.75
649.085	522.75
649.289	525.75
649.494	551.75
649.698	615.75
649.903	563.75
650.107	506.75
650.312	484.75
650.516	454.75
650.721	455.75
650.925	466.75
651.13	468.75
651.334	456.75
651.539	441.75
651.743	438.75
651.947	429.75
652.152	433.75
652.356	421.75
652.56	396.75
652.764	432.75
652.969	397.75
653.173	388.75
653.377	370.75
653.581	389.75
653.785	388.75
653.99	382.75
654.194	374.75
654.398	364.75
654.602	342.75
654.806	360.75
655.01	400.75
655.214	370.75
655.418	361.75
655.622	338.75
655.826	320.75
656.03	364.75
656.234	370.75
656.438	354.75
656.642	339.75
656.846	336.75
657.049	303.75
657.253	315.75
657.457	276.75
657.661	279.75
657.865	247.75
658.068	249.75
658.272	228.75
658.476	202.75
658.68	213.75
658.883	187.75
659.087	176.75
659.291	196.75
659.494	156.75
659.698	176.75
659.901	162.75
660.105	152.75
660.309	163.75
660.512	136.75
660.716	135.75
660.919	145.75
661.123	134.75
661.326	124.75
661.53	126.75
661.733	125.75
661.936	98.75
662.14	110.75
662.343	87.75
662.546	94.75
662.75	93.75
662.953	93.75
663.156	87.75
663.36	98.75
663.563	93.75
663.766	90.75
663.969	91.75
664.173	93.75
664.376	76.75
664.579	79.75
664.782	92.75
664.985	83.75
665.188	92.75
665.391	89.75
665.594	92.75
665.797	85.75
666	83.75
666.203	73.75
666.406	78.75
666.609	72.75
666.812	62.75
667.015	75.75
667.218	76.75
667.421	80.75
667.624	74.75
667.827	75.75
668.03	78.75
668.232	86.75
668.435	80.75
668.638	74.75
668.841	74.75
669.043	81.75
669.246	68.75
669.449	61.75
669.651	68.75
669.854	83.75
670.057	74.75
670.259	70.75
670.462	74.75
670.665	82.75
670.867	80.75
671.07	83.75
671.272	72.75
671.475	78.75
671.677	65.75
671.88	81.75
672.082	70.75
672.284	92.75
672.487	79.75
672.689	75.75
672.892	70.75
