Data from 1970.Penny.LincolnSideUp.Lamp.En5.5200Scan.07242019.P1_HRD10591_15-02-44-044.txt Node
Date: Wed Jul 24 15:02:44 EDT 2019
User: cochatt
Spectrometer: HR+D1059
Trigger mode: 1
Integration Time (sec): 1.000000E-1
Scans to average: 1
Electric dark correction enabled: true
Nonlinearity correction enabled: false
Boxcar width: 0
XAxis mode: Wavelengths
Number of Pixels in Spectrum: 2048
>>>>>Begin Spectral Data<<<<<
223.165	-13.62
223.4	-13.62
223.635	-13.62
223.869	-21.62
224.104	-28.62
224.338	-8.62
224.573	-11.62
224.808	-3.62
225.042	-17.62
225.277	-13.62
225.511	0.38
225.746	-7.62
225.98	21.38
226.215	9.38
226.449	18.38
226.683	28.38
226.918	17.38
227.152	31.38
227.387	34.38
227.621	48.38
227.856	57.38
228.09	48.38
228.324	47.38
228.559	50.38
228.793	121.38
229.027	284.38
229.262	339.38
229.496	386.38
229.73	476.38
229.964	612.38
230.199	454.38
230.433	343.38
230.667	319.38
230.901	332.38
231.136	316.38
231.37	312.38
231.604	301.38
231.838	318.38
232.072	338.38
232.306	324.38
232.541	313.38
232.775	345.38
233.009	338.38
233.243	319.38
233.477	338.38
233.711	323.38
233.945	329.38
234.179	346.38
234.413	354.38
234.647	343.38
234.881	376.38
235.115	359.38
235.349	369.38
235.583	377.38
235.817	368.38
236.051	410.38
236.285	418.38
236.519	396.38
236.753	425.38
236.987	520.38
237.221	766.38
237.455	1137.38
237.689	780.38
237.922	500.38
238.156	499.38
238.39	453.38
238.624	431.38
238.858	432.38
239.091	438.38
239.325	432.38
239.559	446.38
239.793	446.38
240.027	475.38
240.26	546.38
240.494	631.38
240.728	630.38
240.961	608.38
241.195	541.38
241.429	506.38
241.662	506.38
241.896	505.38
242.13	481.38
242.363	505.38
242.597	493.38
242.83	524.38
243.064	538.38
243.298	531.38
243.531	506.38
243.765	528.38
243.998	550.38
244.232	539.38
244.465	563.38
244.699	589.38
244.932	565.38
245.166	566.38
245.399	559.38
245.633	555.38
245.866	581.38
246.099	590.38
246.333	590.38
246.566	590.38
246.8	590.38
247.033	621.38
247.266	621.38
247.5	662.38
247.733	689.38
247.966	719.38
248.2	714.38
248.433	706.38
248.666	743.38
248.899	790.38
249.133	849.38
249.366	855.38
249.599	826.38
249.832	752.38
250.066	724.38
250.299	765.38
250.532	784.38
250.765	874.38
250.998	1001.38
251.231	1038.38
251.465	938.38
251.698	859.38
251.931	828.38
252.164	824.38
252.397	842.38
252.63	847.38
252.863	891.38
253.096	952.38
253.329	1019.38
253.562	998.38
253.795	934.38
254.028	897.38
254.261	925.38
254.494	974.38
254.727	1137.38
254.96	1287.38
255.193	1194.38
255.426	1046.38
255.659	970.38
255.892	978.38
256.124	1016.38
256.357	1014.38
256.59	967.38
256.823	909.38
257.056	896.38
257.289	892.38
257.521	904.38
257.754	909.38
257.987	886.38
258.22	884.38
258.452	912.38
258.685	884.38
258.918	897.38
259.151	900.38
259.383	965.38
259.616	965.38
259.849	999.38
260.081	1014.38
260.314	1115.38
260.547	1155.38
260.779	1068.38
261.012	975.38
261.244	974.38
261.477	965.38
261.71	938.38
261.942	962.38
262.175	969.38
262.407	946.38
262.64	908.38
262.872	917.38
263.105	892.38
263.337	884.38
263.57	906.38
263.802	930.38
264.035	912.38
264.267	910.38
264.499	920.38
264.732	905.38
264.964	920.38
265.197	910.38
265.429	928.38
265.661	941.38
265.894	937.38
266.126	935.38
266.358	937.38
266.591	961.38
266.823	981.38
267.055	985.38
267.287	1013.38
267.52	1000.38
267.752	989.38
267.984	1008.38
268.216	991.38
268.448	1001.38
268.681	1016.38
268.913	1078.38
269.145	1174.38
269.377	1248.38
269.609	1245.38
269.841	1172.38
270.073	1184.38
270.306	1305.38
270.538	1462.38
270.77	1426.38
271.002	1296.38
271.234	1232.38
271.466	1302.38
271.698	1364.38
271.93	1404.38
272.162	1404.38
272.394	1412.38
272.626	1329.38
272.858	1238.38
273.09	1216.38
273.322	1168.38
273.553	1159.38
273.785	1143.38
274.017	1133.38
274.249	1174.38
274.481	1137.38
274.713	1154.38
274.945	1182.38
275.176	1169.38
275.408	1158.38
275.64	1161.38
275.872	1142.38
276.104	1177.38
276.335	1191.38
276.567	1190.38
276.799	1220.38
277.031	1355.38
277.262	1446.38
277.494	1438.38
277.726	1308.38
277.957	1284.38
278.189	1264.38
278.421	1184.38
278.652	1170.38
278.884	1194.38
279.115	1168.38
279.347	1216.38
279.579	1182.38
279.81	1178.38
280.042	1193.38
280.273	1218.38
280.505	1220.38
280.736	1214.38
280.968	1212.38
281.199	1180.38
281.431	1230.38
281.662	1198.38
281.894	1196.38
282.125	1205.38
282.356	1249.38
282.588	1347.38
282.819	1335.38
283.051	1277.38
283.282	1212.38
283.513	1226.38
283.745	1253.38
283.976	1263.38
284.207	1259.38
284.439	1289.38
284.67	1253.38
284.901	1288.38
285.132	1266.38
285.364	1286.38
285.595	1277.38
285.826	1279.38
286.057	1261.38
286.288	1290.38
286.52	1295.38
286.751	1263.38
286.982	1300.38
287.213	1308.38
287.444	1321.38
287.675	1316.38
287.906	1362.38
288.138	1374.38
288.369	1350.38
288.6	1400.38
288.831	1348.38
289.062	1368.38
289.293	1332.38
289.524	1338.38
289.755	1324.38
289.986	1349.38
290.217	1320.38
290.448	1323.38
290.679	1310.38
290.91	1312.38
291.141	1327.38
291.371	1329.38
291.602	1314.38
291.833	1300.38
292.064	1330.38
292.295	1308.38
292.526	1343.38
292.757	1304.38
292.987	1319.38
293.218	1310.38
293.449	1320.38
293.68	1321.38
293.91	1319.38
294.141	1344.38
294.372	1316.38
294.603	1328.38
294.833	1335.38
295.064	1361.38
295.295	1318.38
295.525	1377.38
295.756	1362.38
295.987	1361.38
296.217	1409.38
296.448	1442.38
296.679	1400.38
296.909	1344.38
297.14	1348.38
297.37	1361.38
297.601	1369.38
297.831	1382.38
298.062	1360.38
298.292	1388.38
298.523	1408.38
298.753	1423.38
298.984	1386.38
299.214	1415.38
299.445	1414.38
299.675	1437.38
299.905	1425.38
300.136	1392.38
300.366	1437.38
300.597	1457.38
300.827	1453.38
301.057	1463.38
301.288	1482.38
301.518	1444.38
301.748	1488.38
301.979	1532.38
302.209	1481.38
302.439	1512.38
302.669	1511.38
302.9	1489.38
303.13	1478.38
303.36	1492.38
303.59	1498.38
303.82	1506.38
304.051	1557.38
304.281	1487.38
304.511	1436.38
304.741	1473.38
304.971	1481.38
305.201	1482.38
305.431	1460.38
305.661	1490.38
305.891	1445.38
306.121	1471.38
306.352	1497.38
306.582	1501.38
306.812	1468.38
307.042	1537.38
307.272	1504.38
307.502	1494.38
307.731	1501.38
307.961	1462.38
308.191	1484.38
308.421	1482.38
308.651	1471.38
308.881	1505.38
309.111	1519.38
309.341	1505.38
309.571	1528.38
309.8	1555.38
310.03	1565.38
310.26	1603.38
310.49	1577.38
310.72	1638.38
310.949	1676.38
311.179	1690.38
311.409	1634.38
311.639	1622.38
311.868	1616.38
312.098	1654.38
312.328	1626.38
312.557	1721.38
312.787	1758.38
313.017	1735.38
313.246	1666.38
313.476	1642.38
313.706	1627.38
313.935	1659.38
314.165	1716.38
314.394	1736.38
314.624	1720.38
314.853	1685.38
315.083	1683.38
315.312	1631.38
315.542	1632.38
315.771	1659.38
316.001	1648.38
316.23	1624.38
316.46	1648.38
316.689	1604.38
316.919	1641.38
317.148	1694.38
317.377	1682.38
317.607	1680.38
317.836	1663.38
318.065	1675.38
318.295	1649.38
318.524	1623.38
318.753	1619.38
318.983	1665.38
319.212	1626.38
319.441	1672.38
319.67	1688.38
319.9	1660.38
320.129	1639.38
320.358	1680.38
320.587	1662.38
320.816	1696.38
321.046	1677.38
321.275	1720.38
321.504	1697.38
321.733	1701.38
321.962	1762.38
322.191	1747.38
322.42	1807.38
322.649	1824.38
322.878	1838.38
323.108	1891.38
323.337	1947.38
323.566	1962.38
323.795	2100.38
324.024	2194.38
324.253	2529.38
324.482	3631.38
324.71	6109.38
324.939	10231.38
325.168	8433.38
325.397	3435.38
325.626	2360.38
325.855	2135.38
326.084	1992.38
326.313	1973.38
326.542	2020.38
326.77	2190.38
326.999	2485.38
327.228	3423.38
327.457	5713.38
327.686	7660.38
327.914	4176.38
328.143	2641.38
328.372	2375.38
328.6	2241.38
328.829	2181.38
329.058	2280.38
329.287	2334.38
329.515	2218.38
329.744	2040.38
329.972	2070.38
330.201	2134.38
330.43	2269.38
330.658	2352.38
330.887	2449.38
331.115	2468.38
331.344	2171.38
331.572	2084.38
331.801	2082.38
332.03	2052.38
332.258	2068.38
332.486	2057.38
332.715	2025.38
332.943	2108.38
333.172	2169.38
333.4	2190.38
333.629	2194.38
333.857	2235.38
334.085	2313.38
334.314	2362.38
334.542	2444.38
334.771	2550.38
334.999	2338.38
335.227	2217.38
335.455	2144.38
335.684	2086.38
335.912	2108.38
336.14	2049.38
336.369	2056.38
336.597	2081.38
336.825	2141.38
337.053	2079.38
337.281	2030.38
337.51	1997.38
337.738	1996.38
337.966	2006.38
338.194	2005.38
338.422	2054.38
338.65	2000.38
338.878	1960.38
339.106	1928.38
339.334	1922.38
339.562	1979.38
339.79	1886.38
340.018	1888.38
340.246	1920.38
340.474	1959.38
340.702	1955.38
340.93	1902.38
341.158	1906.38
341.386	1918.38
341.614	1940.38
341.842	1895.38
342.07	1887.38
342.298	1866.38
342.526	1849.38
342.754	1859.38
342.981	1840.38
343.209	1868.38
343.437	1919.38
343.665	2023.38
343.893	2066.38
344.12	2084.38
344.348	2100.38
344.576	2035.38
344.804	2023.38
345.031	1950.38
345.259	1984.38
345.487	1957.38
345.714	1914.38
345.942	1874.38
346.17	1842.38
346.397	1799.38
346.625	1818.38
346.853	1815.38
347.08	1807.38
347.308	1846.38
347.535	1834.38
347.763	1856.38
347.99	1846.38
348.218	1826.38
348.445	1864.38
348.673	1869.38
348.9	1806.38
349.128	1808.38
349.355	1753.38
349.583	1774.38
349.81	1784.38
350.037	1749.38
350.265	1726.38
350.492	1793.38
350.72	1770.38
350.947	1769.38
351.174	1786.38
351.402	1804.38
351.629	1817.38
351.856	1835.38
352.083	1838.38
352.311	1860.38
352.538	1838.38
352.765	1883.38
352.992	1776.38
353.22	1760.38
353.447	1825.38
353.674	1738.38
353.901	1736.38
354.128	1725.38
354.355	1730.38
354.583	1730.38
354.81	1712.38
355.037	1721.38
355.264	1735.38
355.491	1755.38
355.718	1711.38
355.945	1696.38
356.172	1706.38
356.399	1694.38
356.626	1717.38
356.853	1720.38
357.08	1712.38
357.307	1665.38
357.534	1708.38
357.761	1718.38
357.988	1736.38
358.215	1709.38
358.441	1740.38
358.668	1734.38
358.895	1703.38
359.122	1713.38
359.349	1803.38
359.576	1809.38
359.802	1880.38
360.029	1942.38
360.256	2007.38
360.483	1959.38
360.709	1829.38
360.936	1828.38
361.163	1811.38
361.39	1853.38
361.616	1836.38
361.843	1833.38
362.07	1808.38
362.296	1816.38
362.523	1772.38
362.749	1810.38
362.976	1817.38
363.203	1769.38
363.429	1719.38
363.656	1786.38
363.882	1766.38
364.109	1794.38
364.335	1761.38
364.562	1768.38
364.788	1764.38
365.015	1762.38
365.241	1748.38
365.468	1773.38
365.694	1800.38
365.92	1800.38
366.147	1762.38
366.373	1763.38
366.599	1785.38
366.826	1724.38
367.052	1734.38
367.278	1737.38
367.505	1783.38
367.731	1803.38
367.957	1817.38
368.184	1816.38
368.41	1779.38
368.636	1845.38
368.862	1871.38
369.089	1864.38
369.315	1833.38
369.541	1836.38
369.767	1815.38
369.993	1830.38
370.219	1854.38
370.445	1862.38
370.672	1836.38
370.898	1799.38
371.124	1825.38
371.35	1860.38
371.576	1862.38
371.802	1866.38
372.028	1853.38
372.254	1858.38
372.48	1891.38
372.706	1892.38
372.932	1940.38
373.158	1926.38
373.384	1870.38
373.61	1908.38
373.835	1885.38
374.061	1905.38
374.287	1917.38
374.513	1924.38
374.739	1946.38
374.965	1968.38
375.191	2015.38
375.416	1978.38
375.642	1925.38
375.868	1942.38
376.094	1942.38
376.319	1930.38
376.545	1887.38
376.771	1857.38
376.997	1881.38
377.222	1871.38
377.448	1877.38
377.674	1898.38
377.899	1861.38
378.125	1857.38
378.35	1838.38
378.576	1891.38
378.802	1847.38
379.027	1853.38
379.253	1937.38
379.478	1868.38
379.704	1844.38
379.929	1866.38
380.155	1866.38
380.38	1893.38
380.606	1922.38
380.831	1885.38
381.057	1934.38
381.282	1896.38
381.507	1922.38
381.733	1908.38
381.958	1954.38
382.184	1936.38
382.409	1973.38
382.634	1995.38
382.86	2012.38
383.085	1978.38
383.31	2039.38
383.535	2060.38
383.761	2062.38
383.986	2068.38
384.211	2118.38
384.436	2106.38
384.662	2115.38
384.887	2142.38
385.112	2143.38
385.337	2203.38
385.562	2223.38
385.787	2211.38
386.013	2264.38
386.238	2274.38
386.463	2265.38
386.688	2230.38
386.913	2236.38
387.138	2236.38
387.363	2218.38
387.588	2182.38
387.813	2209.38
388.038	2216.38
388.263	2245.38
388.488	2299.38
388.713	2294.38
388.938	2242.38
389.163	2281.38
389.387	2270.38
389.612	2186.38
389.837	2185.38
390.062	2201.38
390.287	2178.38
390.512	2246.38
390.736	2185.38
390.961	2247.38
391.186	2294.38
391.411	2284.38
391.636	2321.38
391.86	2369.38
392.085	2416.38
392.31	2412.38
392.534	2391.38
392.759	2380.38
392.984	2296.38
393.208	2289.38
393.433	2401.38
393.658	2380.38
393.882	2244.38
394.107	2277.38
394.331	2314.38
394.556	2330.38
394.78	2334.38
395.005	2352.38
395.229	2308.38
395.454	2438.38
395.678	2443.38
395.903	2469.38
396.127	2599.38
396.352	2555.38
396.576	2400.38
396.801	2382.38
397.025	2444.38
397.249	2463.38
397.474	2456.38
397.698	2523.38
397.922	2570.38
398.147	2609.38
398.371	2619.38
398.595	2642.38
398.82	2694.38
399.044	2783.38
399.268	2932.38
399.492	3247.38
399.717	3538.38
399.941	3689.38
400.165	3730.38
400.389	3671.38
400.613	3200.38
400.837	2880.38
401.062	2855.38
401.286	2801.38
401.51	2742.38
401.734	2714.38
401.958	2756.38
402.182	2802.38
402.406	2771.38
402.63	2785.38
402.854	2855.38
403.078	2882.38
403.302	2907.38
403.526	2945.38
403.75	2975.38
403.974	2980.38
404.198	2983.38
404.422	2949.38
404.645	3017.38
404.869	2985.38
405.093	3165.38
405.317	3392.38
405.541	3594.38
405.765	3194.38
405.988	3062.38
406.212	3105.38
406.436	3117.38
406.66	3199.38
406.883	3140.38
407.107	3340.38
407.331	3568.38
407.555	4081.38
407.778	4063.38
408.002	3612.38
408.226	3324.38
408.449	3252.38
408.673	3253.38
408.896	3377.38
409.12	3612.38
409.344	3328.38
409.567	3007.38
409.791	2961.38
410.014	2922.38
410.238	2883.38
410.461	2918.38
410.685	2930.38
410.908	2963.38
411.132	3189.38
411.355	3380.38
411.578	3113.38
411.802	2898.38
412.025	2877.38
412.249	2942.38
412.472	3043.38
412.695	3294.38
412.919	3111.38
413.142	2896.38
413.365	2823.38
413.589	2834.38
413.812	2784.38
414.035	2729.38
414.258	2738.38
414.482	2680.38
414.705	2716.38
414.928	2751.38
415.151	2710.38
415.374	2727.38
415.597	2688.38
415.821	2646.38
416.044	2705.38
416.267	2707.38
416.49	2700.38
416.713	2679.38
416.936	2679.38
417.159	2657.38
417.382	2702.38
417.605	2716.38
417.828	2793.38
418.051	2878.38
418.274	2801.38
418.497	2745.38
418.72	2830.38
418.943	2771.38
419.166	2923.38
419.389	3104.38
419.611	3050.38
419.834	2937.38
420.057	2950.38
420.28	2909.38
420.503	2875.38
420.726	2890.38
420.948	2832.38
421.171	3165.38
421.394	3313.38
421.617	2924.38
421.839	2835.38
422.062	2829.38
422.285	2904.38
422.507	3280.38
422.73	3764.38
422.953	3474.38
423.175	3051.38
423.398	2951.38
423.621	2950.38
423.843	3156.38
424.066	3130.38
424.288	3077.38
424.511	3204.38
424.733	3558.38
424.956	4024.38
425.178	3713.38
425.401	3689.38
425.623	3905.38
425.846	3210.38
426.068	2977.38
426.291	2895.38
426.513	2885.38
426.735	2984.38
426.958	3194.38
427.18	3753.38
427.402	4722.38
427.625	5087.38
427.847	3973.38
428.069	3467.38
428.292	3055.38
428.514	2796.38
428.736	2690.38
428.958	2686.38
429.181	2610.38
429.403	2663.38
429.625	2702.38
429.847	2922.38
430.069	3348.38
430.292	3294.38
430.514	2715.38
430.736	2676.38
430.958	2604.38
431.18	2558.38
431.402	2549.38
431.624	2541.38
431.846	2479.38
432.068	2430.38
432.29	2480.38
432.512	2498.38
432.734	2620.38
432.956	2609.38
433.178	2688.38
433.4	2697.38
433.622	2632.38
433.844	2574.38
434.066	2538.38
434.287	2460.38
434.509	2546.38
434.731	2607.38
434.953	2733.38
435.175	2874.38
435.397	2999.38
435.618	2984.38
435.84	3197.38
436.062	3929.38
436.284	4448.38
436.505	3393.38
436.727	2972.38
436.949	2772.38
437.17	2714.38
437.392	2648.38
437.614	2680.38
437.835	2807.38
438.057	3450.38
438.278	4263.38
438.5	4218.38
438.721	5066.38
438.943	4680.38
439.165	3422.38
439.386	3025.38
439.608	3040.38
439.829	3035.38
440.05	3254.38
440.272	3588.38
440.493	3278.38
440.715	2934.38
440.936	2852.38
441.158	2806.38
441.379	2870.38
441.6	2993.38
441.822	3060.38
442.043	3300.38
442.264	4045.38
442.486	4345.38
442.707	3441.38
442.928	3183.38
443.149	3201.38
443.371	3356.38
443.592	3608.38
443.813	4504.38
444.034	4900.38
444.255	3720.38
444.476	3289.38
444.698	3274.38
444.919	3252.38
445.14	3278.38
445.361	3348.38
445.582	3427.38
445.803	3887.38
446.024	4781.38
446.245	4701.38
446.466	4142.38
446.687	3358.38
446.908	3049.38
447.129	2857.38
447.35	2766.38
447.571	2770.38
447.792	2712.38
448.013	2732.38
448.234	2791.38
448.455	3108.38
448.675	4141.38
448.896	5244.38
449.117	3910.38
449.338	3640.38
449.559	4662.38
449.779	5644.38
450	3880.38
450.221	3025.38
450.442	2744.38
450.662	2617.38
450.883	2596.38
451.104	2627.38
451.324	2584.38
451.545	2445.38
451.766	2407.38
451.986	2297.38
452.207	2311.38
452.428	2329.38
452.648	2303.38
452.869	2270.38
453.089	2360.38
453.31	2396.38
453.53	2320.38
453.751	2238.38
453.971	2169.38
454.192	2245.38
454.412	2264.38
454.633	2210.38
454.853	2216.38
455.073	2210.38
455.294	2476.38
455.514	3037.38
455.734	2838.38
455.955	2290.38
456.175	2138.38
456.395	2065.38
456.616	2104.38
456.836	2041.38
457.056	2088.38
457.276	2013.38
457.497	2101.38
457.717	2118.38
457.937	2164.38
458.157	2178.38
458.377	2191.38
458.598	2255.38
458.818	2462.38
459.038	3018.38
459.258	3287.38
459.478	2636.38
459.698	2370.38
459.918	2403.38
460.138	2469.38
460.358	2529.38
460.578	2575.38
460.798	2633.38
461.018	2646.38
461.238	2639.38
461.458	2588.38
461.678	2562.38
461.898	2572.38
462.118	2597.38
462.338	2727.38
462.558	2704.38
462.777	2792.38
462.997	2898.38
463.217	3042.38
463.437	3018.38
463.657	2909.38
463.876	2845.38
464.096	2771.38
464.316	2839.38
464.536	2928.38
464.755	2768.38
464.975	2750.38
465.195	2854.38
465.414	3039.38
465.634	2691.38
465.854	2615.38
466.073	2422.38
466.293	2408.38
466.512	2329.38
466.732	2354.38
466.951	2318.38
467.171	2317.38
467.391	2336.38
467.61	2388.38
467.829	2388.38
468.049	2411.38
468.268	2334.38
468.488	2295.38
468.707	2294.38
468.927	2310.38
469.146	2291.38
469.365	2269.38
469.585	2312.38
469.804	2310.38
470.023	2427.38
470.243	2458.38
470.462	2436.38
470.681	2470.38
470.901	2462.38
471.12	2398.38
471.339	2411.38
471.558	2464.38
471.777	2425.38
471.997	2331.38
472.216	2291.38
472.435	2360.38
472.654	2280.38
472.873	2215.38
473.092	2203.38
473.311	2206.38
473.53	2308.38
473.749	2360.38
473.968	2532.38
474.187	3388.38
474.406	3510.38
474.625	2565.38
474.844	2370.38
475.063	2353.38
475.282	2326.38
475.501	2300.38
475.72	2317.38
475.939	2362.38
476.158	2377.38
476.377	2395.38
476.596	2337.38
476.814	2386.38
477.033	2344.38
477.252	2343.38
477.471	2422.38
477.69	2513.38
477.908	2574.38
478.127	2586.38
478.346	2600.38
478.564	2644.38
478.783	2697.38
479.002	2714.38
479.22	2690.38
479.439	2735.38
479.658	2761.38
479.876	2774.38
480.095	2795.38
480.313	3064.38
480.532	2987.38
480.751	2849.38
480.969	2858.38
481.188	2972.38
481.406	3032.38
481.624	2768.38
481.843	2652.38
482.061	2581.38
482.28	2623.38
482.498	2591.38
482.717	2589.38
482.935	2625.38
483.153	2665.38
483.372	2704.38
483.59	2655.38
483.808	2615.38
484.027	2626.38
484.245	2642.38
484.463	2664.38
484.681	2738.38
484.9	2727.38
485.118	2760.38
485.336	2676.38
485.554	2751.38
485.772	2654.38
485.99	2680.38
486.209	2646.38
486.427	2695.38
486.645	2730.38
486.863	2898.38
487.081	2861.38
487.299	2785.38
487.517	2808.38
487.735	2952.38
487.953	2998.38
488.171	2983.38
488.389	2917.38
488.607	2928.38
488.825	2828.38
489.043	2821.38
489.261	2855.38
489.479	2902.38
489.696	2916.38
489.914	2940.38
490.132	2962.38
490.35	3056.38
490.568	3095.38
490.786	3136.38
491.003	3246.38
491.221	3371.38
491.439	3410.38
491.657	3446.38
491.874	3542.38
492.092	3683.38
492.31	3742.38
492.527	3733.38
492.745	3587.38
492.963	3595.38
493.18	3610.38
493.398	3542.38
493.615	3666.38
493.833	3638.38
494.05	3533.38
494.268	3572.38
494.485	3568.38
494.703	3548.38
494.92	3505.38
495.138	3502.38
495.355	3583.38
495.573	3552.38
495.79	3489.38
496.008	3539.38
496.225	3535.38
496.442	3446.38
496.66	3551.38
496.877	3514.38
497.094	3561.38
497.312	3564.38
497.529	3628.38
497.746	3638.38
497.963	3642.38
498.181	3782.38
498.398	3808.38
498.615	3834.38
498.832	4094.38
499.049	4223.38
499.267	4322.38
499.484	4614.38
499.701	4892.38
499.918	5211.38
500.135	5643.38
500.352	5999.38
500.569	6223.38
500.786	6332.38
501.003	6066.38
501.22	5726.38
501.437	5458.38
501.654	5062.38
501.871	4808.38
502.088	4589.38
502.305	4279.38
502.522	4080.38
502.739	3997.38
502.956	3876.38
503.172	3674.38
503.389	3584.38
503.606	3551.38
503.823	3525.38
504.04	3397.38
504.256	3380.38
504.473	3471.38
504.69	3418.38
504.907	3381.38
505.123	3274.38
505.34	3222.38
505.557	3190.38
505.773	3143.38
505.99	3154.38
506.207	3176.38
506.423	3127.38
506.64	3100.38
506.856	2944.38
507.073	2971.38
507.289	2936.38
507.506	2904.38
507.722	2916.38
507.939	2936.38
508.155	2888.38
508.372	2794.38
508.588	2805.38
508.805	2785.38
509.021	2783.38
509.238	2909.38
509.454	2923.38
509.67	2781.38
509.887	2696.38
510.103	2682.38
510.319	2674.38
510.536	2798.38
510.752	4029.38
510.968	3477.38
511.184	2613.38
511.401	2526.38
511.617	2512.38
511.833	2581.38
512.049	2543.38
512.265	2530.38
512.481	2475.38
512.698	2501.38
512.914	2495.38
513.13	2464.38
513.346	2494.38
513.562	2498.38
513.778	2498.38
513.994	2447.38
514.21	2481.38
514.426	2553.38
514.642	2728.38
514.858	2716.38
515.074	2864.38
515.29	3174.38
515.506	4190.38
515.721	3622.38
515.937	2778.38
516.153	2724.38
516.369	2661.38
516.585	2691.38
516.801	2686.38
517.016	2712.38
517.232	2772.38
517.448	2793.38
517.664	2881.38
517.879	2881.38
518.095	2854.38
518.311	2869.38
518.527	2783.38
518.742	2740.38
518.958	2655.38
519.173	2635.38
519.389	2630.38
519.605	2601.38
519.82	2543.38
520.036	2573.38
520.251	2629.38
520.467	2683.38
520.682	2618.38
520.898	2561.38
521.113	2618.38
521.329	2671.38
521.544	2874.38
521.76	3421.38
521.975	5081.38
522.19	5128.38
522.406	3126.38
522.621	2630.38
522.836	2446.38
523.052	2352.38
523.267	2309.38
523.482	2278.38
523.698	2261.38
523.913	2250.38
524.128	2288.38
524.343	2213.38
524.559	2222.38
524.774	2199.38
524.989	2186.38
525.204	2188.38
525.419	2225.38
525.634	2107.38
525.849	2078.38
526.064	2113.38
526.28	2060.38
526.495	1988.38
526.71	1998.38
526.925	1994.38
527.14	1974.38
527.355	1995.38
527.57	2004.38
527.785	1968.38
527.999	1980.38
528.214	1998.38
528.429	2060.38
528.644	2099.38
528.859	2110.38
529.074	2154.38
529.289	2263.38
529.503	2492.38
529.718	2353.38
529.933	2158.38
530.148	2012.38
530.363	1982.38
530.577	1963.38
530.792	1955.38
531.007	1905.38
531.221	1884.38
531.436	1886.38
531.651	1924.38
531.865	1920.38
532.08	1901.38
532.295	1912.38
532.509	1916.38
532.724	1910.38
532.938	1897.38
533.153	1928.38
533.367	1998.38
533.582	1994.38
533.796	2027.38
534.011	1982.38
534.225	1901.38
534.44	1869.38
534.654	1889.38
534.868	1846.38
535.083	1895.38
535.297	1938.38
535.511	1913.38
535.726	1937.38
535.94	1949.38
536.154	1894.38
536.369	1841.38
536.583	1818.38
536.797	1823.38
537.011	1796.38
537.225	1780.38
537.44	1805.38
537.654	1783.38
537.868	1813.38
538.082	1784.38
538.296	1866.38
538.51	1840.38
538.724	1872.38
538.938	1940.38
539.153	1908.38
539.367	1907.38
539.581	1879.38
539.795	1811.38
540.009	1781.38
540.222	1776.38
540.436	1854.38
540.65	1880.38
540.864	1948.38
541.078	2041.38
541.292	2040.38
541.506	2098.38
541.72	2176.38
541.934	2197.38
542.147	2252.38
542.361	2136.38
542.575	2060.38
542.789	1986.38
543.002	1903.38
543.216	1893.38
543.43	1877.38
543.644	1936.38
543.857	1926.38
544.071	2068.38
544.285	2105.38
544.498	2115.38
544.712	2080.38
544.925	2067.38
545.139	2091.38
545.352	2122.38
545.566	2080.38
545.779	2129.38
545.993	2102.38
546.206	2126.38
546.42	2112.38
546.633	2136.38
546.847	2114.38
547.06	2123.38
547.274	2122.38
547.487	2202.38
547.7	2140.38
547.914	2152.38
548.127	2116.38
548.34	2093.38
548.554	2084.38
548.767	2036.38
548.98	2093.38
549.193	2048.38
549.407	2028.38
549.62	2082.38
549.833	2050.38
550.046	2036.38
550.259	2063.38
550.473	2023.38
550.686	2024.38
550.899	1998.38
551.112	1975.38
551.325	1998.38
551.538	1924.38
551.751	1816.38
551.964	1806.38
552.177	1889.38
552.39	1946.38
552.603	2070.38
552.816	2072.38
553.029	2074.38
553.242	2172.38
553.455	2186.38
553.667	2151.38
553.88	2201.38
554.093	2149.38
554.306	2121.38
554.519	2074.38
554.732	2000.38
554.944	1979.38
555.157	1929.38
555.37	1915.38
555.583	1878.38
555.795	1839.38
556.008	1782.38
556.221	1776.38
556.433	1762.38
556.646	1736.38
556.859	1774.38
557.071	1725.38
557.284	1731.38
557.496	1713.38
557.709	1759.38
557.921	1711.38
558.134	1721.38
558.346	1704.38
558.559	1718.38
558.771	1700.38
558.984	1644.38
559.196	1629.38
559.409	1618.38
559.621	1628.38
559.833	1602.38
560.046	1591.38
560.258	1594.38
560.47	1668.38
560.683	1625.38
560.895	1641.38
561.107	1645.38
561.32	1629.38
561.532	1663.38
561.744	1642.38
561.956	1669.38
562.168	1636.38
562.381	1643.38
562.593	1618.38
562.805	1627.38
563.017	1628.38
563.229	1640.38
563.441	1591.38
563.653	1660.38
563.865	1607.38
564.077	1662.38
564.289	1630.38
564.501	1637.38
564.713	1652.38
564.925	1707.38
565.137	1716.38
565.349	1718.38
565.561	1745.38
565.773	1769.38
565.985	1829.38
566.197	1838.38
566.408	1970.38
566.62	2021.38
566.832	2110.38
567.044	2231.38
567.255	2180.38
567.467	2212.38
567.679	2203.38
567.891	2265.38
568.102	2283.38
568.314	2164.38
568.526	2017.38
568.737	1869.38
568.949	1772.38
569.161	1656.38
569.372	1569.38
569.584	1508.38
569.795	1462.38
570.007	1433.38
570.218	1503.38
570.43	1495.38
570.641	1434.38
570.853	1416.38
571.064	1419.38
571.276	1421.38
571.487	1406.38
571.698	1377.38
571.91	1376.38
572.121	1358.38
572.333	1320.38
572.544	1255.38
572.755	1271.38
572.966	1221.38
573.178	1197.38
573.389	1164.38
573.6	1184.38
573.811	1128.38
574.023	1119.38
574.234	1117.38
574.445	1157.38
574.656	1153.38
574.867	1169.38
575.078	1137.38
575.289	1132.38
575.501	1129.38
575.712	1130.38
575.923	1109.38
576.134	1132.38
576.345	1124.38
576.556	1162.38
576.767	1153.38
576.978	1136.38
577.188	1121.38
577.399	1101.38
577.61	1086.38
577.821	1084.38
578.032	1061.38
578.243	1122.38
578.454	1466.38
578.665	1215.38
578.875	1067.38
579.086	1014.38
579.297	984.38
579.508	987.38
579.718	976.38
579.929	958.38
580.14	948.38
580.35	972.38
580.561	969.38
580.772	973.38
580.982	985.38
581.193	972.38
581.403	991.38
581.614	993.38
581.825	974.38
582.035	981.38
582.246	980.38
582.456	960.38
582.667	981.38
582.877	954.38
583.087	959.38
583.298	988.38
583.508	931.38
583.719	932.38
583.929	891.38
584.139	946.38
584.35	921.38
584.56	937.38
584.77	920.38
584.981	894.38
585.191	918.38
585.401	928.38
585.611	910.38
585.821	929.38
586.032	903.38
586.242	900.38
586.452	872.38
586.662	931.38
586.872	858.38
587.082	865.38
587.292	889.38
587.502	900.38
587.713	875.38
587.923	882.38
588.133	877.38
588.343	895.38
588.553	879.38
588.762	880.38
588.972	884.38
589.182	907.38
589.392	895.38
589.602	911.38
589.812	907.38
590.022	901.38
590.232	886.38
590.441	894.38
590.651	874.38
590.861	900.38
591.071	920.38
591.281	912.38
591.49	920.38
591.7	920.38
591.91	958.38
592.119	958.38
592.329	954.38
592.539	988.38
592.748	974.38
592.958	1024.38
593.167	1056.38
593.377	1048.38
593.587	1056.38
593.796	1038.38
594.006	1048.38
594.215	1064.38
594.424	1065.38
594.634	1029.38
594.843	1030.38
595.053	1025.38
595.262	989.38
595.472	944.38
595.681	940.38
595.89	904.38
596.1	860.38
596.309	882.38
596.518	857.38
596.727	888.38
596.937	886.38
597.146	862.38
597.355	864.38
597.564	858.38
597.774	813.38
597.983	815.38
598.192	798.38
598.401	800.38
598.61	776.38
598.819	791.38
599.028	804.38
599.237	803.38
599.446	761.38
599.655	778.38
599.864	804.38
600.073	772.38
600.282	760.38
600.491	800.38
600.7	778.38
600.909	794.38
601.118	808.38
601.327	854.38
601.536	861.38
601.745	847.38
601.953	880.38
602.162	867.38
602.371	861.38
602.58	885.38
602.789	844.38
602.997	862.38
603.206	868.38
603.415	821.38
603.623	864.38
603.832	855.38
604.041	824.38
604.249	800.38
604.458	802.38
604.666	743.38
604.875	772.38
605.084	778.38
605.292	791.38
605.501	856.38
605.709	862.38
605.918	893.38
606.126	863.38
606.334	881.38
606.543	870.38
606.751	838.38
606.96	843.38
607.168	888.38
607.376	836.38
607.585	854.38
607.793	846.38
608.001	879.38
608.21	874.38
608.418	854.38
608.626	868.38
608.834	867.38
609.043	865.38
609.251	887.38
609.459	888.38
609.667	884.38
609.875	881.38
610.083	904.38
610.291	872.38
610.499	885.38
610.707	868.38
610.916	874.38
611.124	900.38
611.332	893.38
611.54	879.38
611.748	898.38
611.955	886.38
612.163	875.38
612.371	871.38
612.579	861.38
612.787	878.38
612.995	856.38
613.203	858.38
613.411	863.38
613.618	846.38
613.826	861.38
614.034	859.38
614.242	867.38
614.449	859.38
614.657	856.38
614.865	873.38
615.072	832.38
615.28	848.38
615.488	848.38
615.695	874.38
615.903	879.38
616.111	840.38
616.318	856.38
616.526	856.38
616.733	889.38
616.941	868.38
617.148	864.38
617.356	838.38
617.563	814.38
617.771	840.38
617.978	815.38
618.185	836.38
618.393	853.38
618.6	838.38
618.807	830.38
619.015	861.38
619.222	833.38
619.429	794.38
619.637	768.38
619.844	709.38
620.051	730.38
620.258	747.38
620.466	758.38
620.673	748.38
620.88	757.38
621.087	772.38
621.294	741.38
621.501	708.38
621.708	737.38
621.915	763.38
622.122	782.38
622.329	784.38
622.536	774.38
622.743	759.38
622.95	758.38
623.157	753.38
623.364	792.38
623.571	783.38
623.778	745.38
623.985	750.38
624.192	751.38
624.399	731.38
624.606	721.38
624.812	733.38
625.019	707.38
625.226	716.38
625.433	688.38
625.639	666.38
625.846	632.38
626.053	629.38
626.259	597.38
626.466	588.38
626.673	588.38
626.879	568.38
627.086	600.38
627.293	633.38
627.499	678.38
627.706	687.38
627.912	692.38
628.119	721.38
628.325	720.38
628.532	706.38
628.738	687.38
628.945	652.38
629.151	646.38
629.357	656.38
629.564	663.38
629.77	630.38
629.976	636.38
630.183	613.38
630.389	637.38
630.595	624.38
630.802	625.38
631.008	649.38
631.214	657.38
631.42	602.38
631.627	604.38
631.833	588.38
632.039	628.38
632.245	606.38
632.451	622.38
632.657	597.38
632.863	582.38
633.069	581.38
633.275	582.38
633.481	585.38
633.688	573.38
633.893	584.38
634.099	576.38
634.305	576.38
634.511	564.38
634.717	541.38
634.923	522.38
635.129	524.38
635.335	530.38
635.541	516.38
635.747	539.38
635.952	544.38
636.158	564.38
636.364	608.38
636.57	593.38
636.775	596.38
636.981	583.38
637.187	574.38
637.392	591.38
637.598	596.38
637.804	592.38
638.009	586.38
638.215	575.38
638.421	556.38
638.626	574.38
638.832	560.38
639.037	549.38
639.243	536.38
639.448	535.38
639.654	544.38
639.859	531.38
640.065	520.38
640.27	551.38
640.475	536.38
640.681	546.38
640.886	539.38
641.091	584.38
641.297	552.38
641.502	540.38
641.707	551.38
641.913	543.38
642.118	538.38
642.323	531.38
642.528	540.38
642.733	521.38
642.939	524.38
643.144	516.38
643.349	506.38
643.554	514.38
643.759	517.38
643.964	526.38
644.169	514.38
644.374	513.38
644.579	513.38
644.784	522.38
644.989	525.38
645.194	518.38
645.399	525.38
645.604	516.38
645.809	521.38
646.014	532.38
646.219	521.38
646.423	526.38
646.628	523.38
646.833	522.38
647.038	516.38
647.243	531.38
647.447	526.38
647.652	514.38
647.857	521.38
648.062	528.38
648.266	550.38
648.471	534.38
648.676	559.38
648.88	536.38
649.085	517.38
649.289	534.38
649.494	522.38
649.698	631.38
649.903	566.38
650.107	498.38
650.312	491.38
650.516	513.38
650.721	489.38
650.925	493.38
651.13	461.38
651.334	465.38
651.539	438.38
651.743	420.38
651.947	424.38
652.152	426.38
652.356	406.38
652.56	410.38
652.764	434.38
652.969	408.38
653.173	381.38
653.377	373.38
653.581	389.38
653.785	373.38
653.99	375.38
654.194	378.38
654.398	364.38
654.602	357.38
654.806	352.38
655.01	389.38
655.214	374.38
655.418	328.38
655.622	330.38
655.826	325.38
656.03	349.38
656.234	335.38
656.438	338.38
656.642	357.38
656.846	317.38
657.049	318.38
657.253	274.38
657.457	285.38
657.661	274.38
657.865	241.38
658.068	241.38
658.272	241.38
658.476	218.38
658.68	201.38
658.883	188.38
659.087	194.38
659.291	182.38
659.494	183.38
659.698	167.38
659.901	149.38
660.105	175.38
660.309	164.38
660.512	144.38
660.716	133.38
660.919	149.38
661.123	133.38
661.326	119.38
661.53	113.38
661.733	120.38
661.936	118.38
662.14	101.38
662.343	100.38
662.546	102.38
662.75	111.38
662.953	94.38
663.156	109.38
663.36	96.38
663.563	89.38
663.766	92.38
663.969	111.38
664.173	80.38
664.376	94.38
664.579	95.38
664.782	71.38
664.985	89.38
665.188	80.38
665.391	92.38
665.594	92.38
665.797	95.38
666	76.38
666.203	82.38
666.406	77.38
666.609	81.38
666.812	81.38
667.015	75.38
667.218	87.38
667.421	75.38
667.624	99.38
667.827	81.38
668.03	94.38
668.232	79.38
668.435	74.38
668.638	79.38
668.841	89.38
669.043	74.38
669.246	72.38
669.449	78.38
669.651	77.38
669.854	93.38
670.057	70.38
670.259	65.38
670.462	78.38
670.665	73.38
670.867	81.38
671.07	80.38
671.272	77.38
671.475	84.38
671.677	72.38
671.88	70.38
672.082	86.38
672.284	90.38
672.487	74.38
672.689	83.38
672.892	74.38
