Data from Location3.07152019.Energy5.Lamp.07192019.3%Agarose_HRD10591_15-17-37-269.txt Node
Date: Fri Jul 19 15:17:37 EDT 2019
User: cochatt
Spectrometer: HR+D1059
Trigger mode: 1
Integration Time (sec): 1.000000E-1
Scans to average: 1
Electric dark correction enabled: true
Nonlinearity correction enabled: false
Boxcar width: 0
XAxis mode: Wavelengths
Number of Pixels in Spectrum: 2048
>>>>>Begin Spectral Data<<<<<
223.165	-19.31
223.4	-19.31
223.635	-19.31
223.869	-24.31
224.104	-7.31
224.338	-10.31
224.573	-21.31
224.808	-19.31
225.042	-4.31
225.277	5.69
225.511	0.69
225.746	10.69
225.98	15.69
226.215	-0.31
226.449	10.69
226.683	10.69
226.918	16.69
227.152	35.69
227.387	23.69
227.621	29.69
227.856	48.69
228.09	20.69
228.324	46.69
228.559	56.69
228.793	52.69
229.027	50.69
229.262	63.69
229.496	72.69
229.73	63.69
229.964	64.69
230.199	56.69
230.433	79.69
230.667	76.69
230.901	70.69
231.136	82.69
231.37	78.69
231.604	65.69
231.838	75.69
232.072	87.69
232.306	73.69
232.541	78.69
232.775	69.69
233.009	87.69
233.243	76.69
233.477	73.69
233.711	84.69
233.945	84.69
234.179	81.69
234.413	90.69
234.647	77.69
234.881	91.69
235.115	89.69
235.349	90.69
235.583	82.69
235.817	79.69
236.051	73.69
236.285	79.69
236.519	72.69
236.753	67.69
236.987	79.69
237.221	64.69
237.455	74.69
237.689	68.69
237.922	84.69
238.156	80.69
238.39	80.69
238.624	80.69
238.858	72.69
239.091	76.69
239.325	69.69
239.559	80.69
239.793	66.69
240.027	78.69
240.26	76.69
240.494	82.69
240.728	72.69
240.961	66.69
241.195	83.69
241.429	60.69
241.662	64.69
241.896	88.69
242.13	76.69
242.363	83.69
242.597	70.69
242.83	68.69
243.064	82.69
243.298	78.69
243.531	57.69
243.765	70.69
243.998	74.69
244.232	69.69
244.465	73.69
244.699	84.69
244.932	85.69
245.166	82.69
245.399	76.69
245.633	69.69
245.866	75.69
246.099	85.69
246.333	70.69
246.566	81.69
246.8	95.69
247.033	85.69
247.266	94.69
247.5	70.69
247.733	65.69
247.966	74.69
248.2	88.69
248.433	74.69
248.666	66.69
248.899	76.69
249.133	85.69
249.366	65.69
249.599	70.69
249.832	86.69
250.066	89.69
250.299	83.69
250.532	94.69
250.765	70.69
250.998	81.69
251.231	82.69
251.465	82.69
251.698	84.69
251.931	76.69
252.164	78.69
252.397	71.69
252.63	68.69
252.863	76.69
253.096	79.69
253.329	94.69
253.562	81.69
253.795	83.69
254.028	84.69
254.261	77.69
254.494	73.69
254.727	78.69
254.96	65.69
255.193	68.69
255.426	78.69
255.659	64.69
255.892	83.69
256.124	94.69
256.357	85.69
256.59	78.69
256.823	73.69
257.056	70.69
257.289	77.69
257.521	74.69
257.754	71.69
257.987	69.69
258.22	80.69
258.452	63.69
258.685	79.69
258.918	85.69
259.151	86.69
259.383	92.69
259.616	71.69
259.849	69.69
260.081	99.69
260.314	73.69
260.547	92.69
260.779	80.69
261.012	80.69
261.244	82.69
261.477	78.69
261.71	85.69
261.942	79.69
262.175	75.69
262.407	75.69
262.64	89.69
262.872	109.69
263.105	71.69
263.337	74.69
263.57	87.69
263.802	79.69
264.035	86.69
264.267	94.69
264.499	82.69
264.732	92.69
264.964	67.69
265.197	86.69
265.429	87.69
265.661	84.69
265.894	72.69
266.126	79.69
266.358	71.69
266.591	68.69
266.823	80.69
267.055	84.69
267.287	89.69
267.52	87.69
267.752	81.69
267.984	81.69
268.216	87.69
268.448	78.69
268.681	74.69
268.913	94.69
269.145	74.69
269.377	78.69
269.609	88.69
269.841	79.69
270.073	71.69
270.306	93.69
270.538	82.69
270.77	80.69
271.002	79.69
271.234	78.69
271.466	80.69
271.698	61.69
271.93	87.69
272.162	83.69
272.394	79.69
272.626	87.69
272.858	84.69
273.09	65.69
273.322	99.69
273.553	75.69
273.785	86.69
274.017	88.69
274.249	83.69
274.481	94.69
274.713	77.69
274.945	79.69
275.176	73.69
275.408	57.69
275.64	82.69
275.872	84.69
276.104	84.69
276.335	92.69
276.567	86.69
276.799	87.69
277.031	78.69
277.262	79.69
277.494	80.69
277.726	93.69
277.957	79.69
278.189	86.69
278.421	85.69
278.652	89.69
278.884	90.69
279.115	72.69
279.347	84.69
279.579	67.69
279.81	82.69
280.042	90.69
280.273	73.69
280.505	79.69
280.736	70.69
280.968	83.69
281.199	90.69
281.431	82.69
281.662	64.69
281.894	83.69
282.125	87.69
282.356	77.69
282.588	81.69
282.819	79.69
283.051	74.69
283.282	78.69
283.513	69.69
283.745	77.69
283.976	78.69
284.207	81.69
284.439	93.69
284.67	83.69
284.901	86.69
285.132	83.69
285.364	87.69
285.595	91.69
285.826	78.69
286.057	84.69
286.288	76.69
286.52	96.69
286.751	71.69
286.982	82.69
287.213	68.69
287.444	66.69
287.675	73.69
287.906	87.69
288.138	81.69
288.369	86.69
288.6	87.69
288.831	75.69
289.062	68.69
289.293	92.69
289.524	77.69
289.755	85.69
289.986	79.69
290.217	82.69
290.448	68.69
290.679	73.69
290.91	81.69
291.141	72.69
291.371	91.69
291.602	93.69
291.833	82.69
292.064	86.69
292.295	70.69
292.526	86.69
292.757	89.69
292.987	96.69
293.218	78.69
293.449	67.69
293.68	77.69
293.91	83.69
294.141	87.69
294.372	73.69
294.603	82.69
294.833	86.69
295.064	74.69
295.295	77.69
295.525	74.69
295.756	84.69
295.987	96.69
296.217	82.69
296.448	68.69
296.679	79.69
296.909	89.69
297.14	69.69
297.37	84.69
297.601	83.69
297.831	81.69
298.062	77.69
298.292	86.69
298.523	87.69
298.753	94.69
298.984	84.69
299.214	74.69
299.445	83.69
299.675	78.69
299.905	74.69
300.136	73.69
300.366	81.69
300.597	84.69
300.827	80.69
301.057	75.69
301.288	93.69
301.518	78.69
301.748	91.69
301.979	94.69
302.209	79.69
302.439	91.69
302.669	77.69
302.9	85.69
303.13	95.69
303.36	88.69
303.59	87.69
303.82	88.69
304.051	83.69
304.281	73.69
304.511	92.69
304.741	86.69
304.971	83.69
305.201	89.69
305.431	82.69
305.661	90.69
305.891	83.69
306.121	87.69
306.352	70.69
306.582	94.69
306.812	83.69
307.042	75.69
307.272	82.69
307.502	74.69
307.731	80.69
307.961	78.69
308.191	87.69
308.421	74.69
308.651	75.69
308.881	86.69
309.111	82.69
309.341	86.69
309.571	62.69
309.8	91.69
310.03	86.69
310.26	75.69
310.49	74.69
310.72	77.69
310.949	84.69
311.179	73.69
311.409	85.69
311.639	85.69
311.868	81.69
312.098	72.69
312.328	93.69
312.557	80.69
312.787	77.69
313.017	80.69
313.246	84.69
313.476	87.69
313.706	85.69
313.935	76.69
314.165	84.69
314.394	76.69
314.624	81.69
314.853	74.69
315.083	80.69
315.312	82.69
315.542	81.69
315.771	77.69
316.001	77.69
316.23	76.69
316.46	78.69
316.689	83.69
316.919	82.69
317.148	80.69
317.377	89.69
317.607	83.69
317.836	80.69
318.065	79.69
318.295	85.69
318.524	76.69
318.753	69.69
318.983	74.69
319.212	83.69
319.441	71.69
319.67	81.69
319.9	77.69
320.129	77.69
320.358	81.69
320.587	87.69
320.816	83.69
321.046	81.69
321.275	82.69
321.504	85.69
321.733	87.69
321.962	89.69
322.191	73.69
322.42	89.69
322.649	80.69
322.878	92.69
323.108	80.69
323.337	83.69
323.566	79.69
323.795	66.69
324.024	80.69
324.253	85.69
324.482	94.69
324.71	80.69
324.939	86.69
325.168	62.69
325.397	85.69
325.626	83.69
325.855	73.69
326.084	82.69
326.313	74.69
326.542	80.69
326.77	92.69
326.999	97.69
327.228	73.69
327.457	79.69
327.686	69.69
327.914	94.69
328.143	90.69
328.372	70.69
328.6	78.69
328.829	86.69
329.058	84.69
329.287	86.69
329.515	90.69
329.744	73.69
329.972	69.69
330.201	71.69
330.43	79.69
330.658	75.69
330.887	87.69
331.115	73.69
331.344	65.69
331.572	82.69
331.801	84.69
332.03	75.69
332.258	74.69
332.486	87.69
332.715	72.69
332.943	76.69
333.172	70.69
333.4	80.69
333.629	84.69
333.857	82.69
334.085	81.69
334.314	76.69
334.542	86.69
334.771	95.69
334.999	80.69
335.227	75.69
335.455	72.69
335.684	89.69
335.912	72.69
336.14	95.69
336.369	95.69
336.597	94.69
336.825	84.69
337.053	72.69
337.281	97.69
337.51	84.69
337.738	72.69
337.966	84.69
338.194	97.69
338.422	92.69
338.65	110.69
338.878	82.69
339.106	91.69
339.334	93.69
339.562	85.69
339.79	88.69
340.018	82.69
340.246	89.69
340.474	89.69
340.702	78.69
340.93	82.69
341.158	82.69
341.386	83.69
341.614	68.69
341.842	80.69
342.07	80.69
342.298	81.69
342.526	84.69
342.754	93.69
342.981	79.69
343.209	92.69
343.437	76.69
343.665	76.69
343.893	89.69
344.12	84.69
344.348	79.69
344.576	88.69
344.804	86.69
345.031	89.69
345.259	84.69
345.487	84.69
345.714	83.69
345.942	81.69
346.17	93.69
346.397	86.69
346.625	96.69
346.853	76.69
347.08	73.69
347.308	79.69
347.535	82.69
347.763	74.69
347.99	85.69
348.218	62.69
348.445	88.69
348.673	94.69
348.9	83.69
349.128	82.69
349.355	89.69
349.583	79.69
349.81	96.69
350.037	85.69
350.265	80.69
350.492	84.69
350.72	84.69
350.947	78.69
351.174	81.69
351.402	79.69
351.629	79.69
351.856	81.69
352.083	71.69
352.311	78.69
352.538	85.69
352.765	74.69
352.992	78.69
353.22	85.69
353.447	66.69
353.674	75.69
353.901	86.69
354.128	81.69
354.355	85.69
354.583	72.69
354.81	79.69
355.037	84.69
355.264	89.69
355.491	98.69
355.718	79.69
355.945	88.69
356.172	74.69
356.399	105.69
356.626	88.69
356.853	87.69
357.08	94.69
357.307	78.69
357.534	79.69
357.761	90.69
357.988	88.69
358.215	84.69
358.441	85.69
358.668	75.69
358.895	78.69
359.122	85.69
359.349	87.69
359.576	67.69
359.802	77.69
360.029	79.69
360.256	80.69
360.483	82.69
360.709	94.69
360.936	93.69
361.163	72.69
361.39	74.69
361.616	71.69
361.843	79.69
362.07	73.69
362.296	80.69
362.523	79.69
362.749	84.69
362.976	86.69
363.203	84.69
363.429	79.69
363.656	80.69
363.882	82.69
364.109	85.69
364.335	58.69
364.562	74.69
364.788	93.69
365.015	89.69
365.241	81.69
365.468	99.69
365.694	76.69
365.92	74.69
366.147	79.69
366.373	84.69
366.599	75.69
366.826	85.69
367.052	74.69
367.278	84.69
367.505	86.69
367.731	89.69
367.957	82.69
368.184	73.69
368.41	75.69
368.636	76.69
368.862	90.69
369.089	70.69
369.315	86.69
369.541	86.69
369.767	79.69
369.993	87.69
370.219	86.69
370.445	76.69
370.672	83.69
370.898	73.69
371.124	94.69
371.35	82.69
371.576	79.69
371.802	85.69
372.028	79.69
372.254	80.69
372.48	77.69
372.706	87.69
372.932	94.69
373.158	85.69
373.384	87.69
373.61	77.69
373.835	83.69
374.061	80.69
374.287	79.69
374.513	69.69
374.739	91.69
374.965	77.69
375.191	81.69
375.416	76.69
375.642	86.69
375.868	93.69
376.094	89.69
376.319	74.69
376.545	101.69
376.771	76.69
376.997	82.69
377.222	74.69
377.448	94.69
377.674	87.69
377.899	76.69
378.125	86.69
378.35	80.69
378.576	82.69
378.802	96.69
379.027	89.69
379.253	74.69
379.478	73.69
379.704	91.69
379.929	83.69
380.155	88.69
380.38	80.69
380.606	83.69
380.831	86.69
381.057	88.69
381.282	94.69
381.507	82.69
381.733	82.69
381.958	71.69
382.184	82.69
382.409	90.69
382.634	93.69
382.86	98.69
383.085	97.69
383.31	88.69
383.535	74.69
383.761	84.69
383.986	73.69
384.211	74.69
384.436	84.69
384.662	68.69
384.887	80.69
385.112	97.69
385.337	92.69
385.562	93.69
385.787	76.69
386.013	86.69
386.238	85.69
386.463	85.69
386.688	87.69
386.913	85.69
387.138	77.69
387.363	99.69
387.588	76.69
387.813	97.69
388.038	83.69
388.263	92.69
388.488	61.69
388.713	80.69
388.938	70.69
389.163	78.69
389.387	78.69
389.612	96.69
389.837	94.69
390.062	89.69
390.287	82.69
390.512	80.69
390.736	85.69
390.961	85.69
391.186	83.69
391.411	72.69
391.636	92.69
391.86	83.69
392.085	94.69
392.31	97.69
392.534	97.69
392.759	78.69
392.984	76.69
393.208	75.69
393.433	88.69
393.658	80.69
393.882	69.69
394.107	84.69
394.331	84.69
394.556	93.69
394.78	81.69
395.005	69.69
395.229	73.69
395.454	85.69
395.678	97.69
395.903	83.69
396.127	90.69
396.352	78.69
396.576	81.69
396.801	73.69
397.025	79.69
397.249	95.69
397.474	71.69
397.698	88.69
397.922	106.69
398.147	70.69
398.371	74.69
398.595	80.69
398.82	78.69
399.044	73.69
399.268	84.69
399.492	84.69
399.717	85.69
399.941	79.69
400.165	74.69
400.389	87.69
400.613	92.69
400.837	90.69
401.062	86.69
401.286	105.69
401.51	88.69
401.734	79.69
401.958	86.69
402.182	97.69
402.406	99.69
402.63	83.69
402.854	81.69
403.078	96.69
403.302	89.69
403.526	73.69
403.75	76.69
403.974	84.69
404.198	84.69
404.422	88.69
404.645	88.69
404.869	74.69
405.093	100.69
405.317	90.69
405.541	90.69
405.765	82.69
405.988	88.69
406.212	89.69
406.436	101.69
406.66	92.69
406.883	91.69
407.107	85.69
407.331	71.69
407.555	84.69
407.778	74.69
408.002	92.69
408.226	93.69
408.449	87.69
408.673	92.69
408.896	95.69
409.12	84.69
409.344	74.69
409.567	75.69
409.791	100.69
410.014	97.69
410.238	83.69
410.461	90.69
410.685	89.69
410.908	85.69
411.132	88.69
411.355	91.69
411.578	91.69
411.802	80.69
412.025	92.69
412.249	89.69
412.472	81.69
412.695	83.69
412.919	92.69
413.142	89.69
413.365	88.69
413.589	93.69
413.812	93.69
414.035	103.69
414.258	89.69
414.482	76.69
414.705	81.69
414.928	72.69
415.151	92.69
415.374	101.69
415.597	88.69
415.821	94.69
416.044	90.69
416.267	109.69
416.49	92.69
416.713	86.69
416.936	83.69
417.159	82.69
417.382	87.69
417.605	99.69
417.828	87.69
418.051	97.69
418.274	88.69
418.497	80.69
418.72	95.69
418.943	77.69
419.166	95.69
419.389	72.69
419.611	101.69
419.834	92.69
420.057	92.69
420.28	89.69
420.503	84.69
420.726	86.69
420.948	79.69
421.171	80.69
421.394	100.69
421.617	89.69
421.839	91.69
422.062	89.69
422.285	108.69
422.507	88.69
422.73	105.69
422.953	104.69
423.175	96.69
423.398	88.69
423.621	94.69
423.843	89.69
424.066	93.69
424.288	107.69
424.511	119.69
424.733	106.69
424.956	105.69
425.178	99.69
425.401	103.69
425.623	95.69
425.846	83.69
426.068	89.69
426.291	113.69
426.513	84.69
426.735	92.69
426.958	110.69
427.18	88.69
427.402	93.69
427.625	87.69
427.847	85.69
428.069	102.69
428.292	86.69
428.514	88.69
428.736	92.69
428.958	88.69
429.181	95.69
429.403	93.69
429.625	97.69
429.847	90.69
430.069	96.69
430.292	85.69
430.514	113.69
430.736	90.69
430.958	104.69
431.18	90.69
431.402	92.69
431.624	88.69
431.846	93.69
432.068	84.69
432.29	91.69
432.512	105.69
432.734	89.69
432.956	88.69
433.178	103.69
433.4	97.69
433.622	95.69
433.844	93.69
434.066	84.69
434.287	78.69
434.509	96.69
434.731	65.69
434.953	75.69
435.175	86.69
435.397	87.69
435.618	77.69
435.84	91.69
436.062	70.69
436.284	97.69
436.505	98.69
436.727	73.69
436.949	88.69
437.17	71.69
437.392	98.69
437.614	99.69
437.835	92.69
438.057	76.69
438.278	85.69
438.5	93.69
438.721	82.69
438.943	91.69
439.165	96.69
439.386	75.69
439.608	98.69
439.829	93.69
440.05	99.69
440.272	99.69
440.493	93.69
440.715	100.69
440.936	93.69
441.158	90.69
441.379	109.69
441.6	96.69
441.822	95.69
442.043	93.69
442.264	84.69
442.486	86.69
442.707	89.69
442.928	101.69
443.149	88.69
443.371	101.69
443.592	83.69
443.813	99.69
444.034	95.69
444.255	80.69
444.476	85.69
444.698	86.69
444.919	89.69
445.14	213.69
445.361	133.69
445.582	94.69
445.803	87.69
446.024	89.69
446.245	114.69
446.466	93.69
446.687	103.69
446.908	106.69
447.129	112.69
447.35	105.69
447.571	92.69
447.792	95.69
448.013	103.69
448.234	90.69
448.455	95.69
448.675	91.69
448.896	101.69
449.117	94.69
449.338	95.69
449.559	115.69
449.779	96.69
450	86.69
450.221	87.69
450.442	80.69
450.662	93.69
450.883	90.69
451.104	97.69
451.324	102.69
451.545	90.69
451.766	93.69
451.986	92.69
452.207	98.69
452.428	91.69
452.648	103.69
452.869	92.69
453.089	102.69
453.31	92.69
453.53	83.69
453.751	93.69
453.971	67.69
454.192	85.69
454.412	87.69
454.633	82.69
454.853	89.69
455.073	89.69
455.294	82.69
455.514	85.69
455.734	70.69
455.955	83.69
456.175	95.69
456.395	66.69
456.616	79.69
456.836	82.69
457.056	100.69
457.276	78.69
457.497	77.69
457.717	90.69
457.937	82.69
458.157	85.69
458.377	82.69
458.598	88.69
458.818	90.69
459.038	73.69
459.258	80.69
459.478	77.69
459.698	72.69
459.918	76.69
460.138	80.69
460.358	88.69
460.578	80.69
460.798	81.69
461.018	84.69
461.238	95.69
461.458	84.69
461.678	96.69
461.898	95.69
462.118	89.69
462.338	91.69
462.558	85.69
462.777	78.69
462.997	85.69
463.217	81.69
463.437	93.69
463.657	87.69
463.876	72.69
464.096	80.69
464.316	86.69
464.536	88.69
464.755	93.69
464.975	76.69
465.195	74.69
465.414	92.69
465.634	96.69
465.854	81.69
466.073	96.69
466.293	83.69
466.512	75.69
466.732	104.69
466.951	86.69
467.171	93.69
467.391	91.69
467.61	89.69
467.829	88.69
468.049	89.69
468.268	92.69
468.488	92.69
468.707	92.69
468.927	97.69
469.146	96.69
469.365	103.69
469.585	93.69
469.804	97.69
470.023	97.69
470.243	109.69
470.462	101.69
470.681	107.69
470.901	84.69
471.12	92.69
471.339	92.69
471.558	92.69
471.777	95.69
471.997	90.69
472.216	98.69
472.435	95.69
472.654	85.69
472.873	84.69
473.092	84.69
473.311	84.69
473.53	94.69
473.749	69.69
473.968	78.69
474.187	89.69
474.406	102.69
474.625	96.69
474.844	102.69
475.063	96.69
475.282	80.69
475.501	101.69
475.72	101.69
475.939	93.69
476.158	95.69
476.377	91.69
476.596	89.69
476.814	80.69
477.033	82.69
477.252	74.69
477.471	92.69
477.69	107.69
477.908	95.69
478.127	86.69
478.346	93.69
478.564	96.69
478.783	81.69
479.002	99.69
479.22	97.69
479.439	92.69
479.658	92.69
479.876	81.69
480.095	79.69
480.313	86.69
480.532	93.69
480.751	84.69
480.969	81.69
481.188	82.69
481.406	66.69
481.624	82.69
481.843	81.69
482.061	96.69
482.28	86.69
482.498	87.69
482.717	99.69
482.935	79.69
483.153	90.69
483.372	100.69
483.59	108.69
483.808	111.69
484.027	99.69
484.245	111.69
484.463	104.69
484.681	102.69
484.9	111.69
485.118	93.69
485.336	96.69
485.554	90.69
485.772	72.69
485.99	75.69
486.209	80.69
486.427	86.69
486.645	94.69
486.863	101.69
487.081	107.69
487.299	89.69
487.517	105.69
487.735	102.69
487.953	105.69
488.171	111.69
488.389	112.69
488.607	101.69
488.825	96.69
489.043	105.69
489.261	85.69
489.479	103.69
489.696	85.69
489.914	99.69
490.132	90.69
490.35	97.69
490.568	111.69
490.786	108.69
491.003	118.69
491.221	119.69
491.439	112.69
491.657	126.69
491.874	114.69
492.092	121.69
492.31	129.69
492.527	127.69
492.745	109.69
492.963	101.69
493.18	104.69
493.398	114.69
493.615	113.69
493.833	105.69
494.05	115.69
494.268	104.69
494.485	102.69
494.703	121.69
494.92	104.69
495.138	116.69
495.355	93.69
495.573	96.69
495.79	100.69
496.008	109.69
496.225	102.69
496.442	97.69
496.66	101.69
496.877	101.69
497.094	115.69
497.312	97.69
497.529	116.69
497.746	103.69
497.963	81.69
498.181	99.69
498.398	89.69
498.615	88.69
498.832	97.69
499.049	87.69
499.267	99.69
499.484	112.69
499.701	91.69
499.918	90.69
500.135	92.69
500.352	102.69
500.569	105.69
500.786	83.69
501.003	98.69
501.22	101.69
501.437	95.69
501.654	82.69
501.871	90.69
502.088	86.69
502.305	84.69
502.522	85.69
502.739	101.69
502.956	97.69
503.172	99.69
503.389	108.69
503.606	91.69
503.823	80.69
504.04	103.69
504.256	92.69
504.473	88.69
504.69	79.69
504.907	93.69
505.123	92.69
505.34	76.69
505.557	99.69
505.773	93.69
505.99	84.69
506.207	77.69
506.423	102.69
506.64	85.69
506.856	94.69
507.073	93.69
507.289	102.69
507.506	93.69
507.722	79.69
507.939	68.69
508.155	83.69
508.372	101.69
508.588	79.69
508.805	88.69
509.021	93.69
509.238	99.69
509.454	84.69
509.67	86.69
509.887	78.69
510.103	89.69
510.319	81.69
510.536	83.69
510.752	87.69
510.968	88.69
511.184	77.69
511.401	74.69
511.617	70.69
511.833	93.69
512.049	96.69
512.265	77.69
512.481	92.69
512.698	84.69
512.914	82.69
513.13	83.69
513.346	81.69
513.562	95.69
513.778	101.69
513.994	79.69
514.21	88.69
514.426	84.69
514.642	84.69
514.858	74.69
515.074	75.69
515.29	87.69
515.506	82.69
515.721	79.69
515.937	82.69
516.153	64.69
516.369	65.69
516.585	75.69
516.801	76.69
517.016	84.69
517.232	95.69
517.448	83.69
517.664	72.69
517.879	84.69
518.095	83.69
518.311	92.69
518.527	88.69
518.742	88.69
518.958	73.69
519.173	82.69
519.389	87.69
519.605	85.69
519.82	87.69
520.036	84.69
520.251	78.69
520.467	79.69
520.682	85.69
520.898	86.69
521.113	79.69
521.329	92.69
521.544	84.69
521.76	89.69
521.975	79.69
522.19	96.69
522.406	92.69
522.621	83.69
522.836	101.69
523.052	92.69
523.267	103.69
523.482	83.69
523.698	93.69
523.913	96.69
524.128	74.69
524.343	84.69
524.559	92.69
524.774	95.69
524.989	100.69
525.204	89.69
525.419	98.69
525.634	99.69
525.849	92.69
526.064	81.69
526.28	76.69
526.495	78.69
526.71	86.69
526.925	81.69
527.14	77.69
527.355	84.69
527.57	92.69
527.785	64.69
527.999	85.69
528.214	88.69
528.429	93.69
528.644	92.69
528.859	94.69
529.074	107.69
529.289	105.69
529.503	92.69
529.718	99.69
529.933	83.69
530.148	92.69
530.363	77.69
530.577	80.69
530.792	69.69
531.007	90.69
531.221	82.69
531.436	70.69
531.651	88.69
531.865	82.69
532.08	74.69
532.295	101.69
532.509	86.69
532.724	70.69
532.938	97.69
533.153	98.69
533.367	97.69
533.582	94.69
533.796	74.69
534.011	84.69
534.225	92.69
534.44	86.69
534.654	91.69
534.868	93.69
535.083	94.69
535.297	98.69
535.511	97.69
535.726	98.69
535.94	89.69
536.154	84.69
536.369	85.69
536.583	90.69
536.797	103.69
537.011	84.69
537.225	88.69
537.44	80.69
537.654	79.69
537.868	86.69
538.082	82.69
538.296	90.69
538.51	85.69
538.724	88.69
538.938	82.69
539.153	112.69
539.367	104.69
539.581	82.69
539.795	85.69
540.009	83.69
540.222	85.69
540.436	81.69
540.65	83.69
540.864	98.69
541.078	93.69
541.292	100.69
541.506	113.69
541.72	104.69
541.934	110.69
542.147	109.69
542.361	119.69
542.575	97.69
542.789	110.69
543.002	88.69
543.216	98.69
543.43	95.69
543.644	89.69
543.857	104.69
544.071	108.69
544.285	102.69
544.498	95.69
544.712	100.69
544.925	109.69
545.139	100.69
545.352	109.69
545.566	114.69
545.779	101.69
545.993	112.69
546.206	106.69
546.42	116.69
546.633	101.69
546.847	117.69
547.06	88.69
547.274	114.69
547.487	108.69
547.7	113.69
547.914	117.69
548.127	90.69
548.34	96.69
548.554	105.69
548.767	113.69
548.98	113.69
549.193	98.69
549.407	108.69
549.62	105.69
549.833	110.69
550.046	112.69
550.259	121.69
550.473	100.69
550.686	110.69
550.899	116.69
551.112	117.69
551.325	120.69
551.538	100.69
551.751	104.69
551.964	98.69
552.177	85.69
552.39	94.69
552.603	103.69
552.816	108.69
553.029	101.69
553.242	110.69
553.455	112.69
553.667	116.69
553.88	109.69
554.093	111.69
554.306	116.69
554.519	112.69
554.732	86.69
554.944	89.69
555.157	90.69
555.37	106.69
555.583	111.69
555.795	100.69
556.008	95.69
556.221	95.69
556.433	93.69
556.646	95.69
556.859	103.69
557.071	99.69
557.284	92.69
557.496	103.69
557.709	104.69
557.921	106.69
558.134	97.69
558.346	106.69
558.559	84.69
558.771	93.69
558.984	97.69
559.196	95.69
559.409	92.69
559.621	90.69
559.833	103.69
560.046	91.69
560.258	90.69
560.47	101.69
560.683	105.69
560.895	87.69
561.107	105.69
561.32	98.69
561.532	109.69
561.744	97.69
561.956	100.69
562.168	94.69
562.381	79.69
562.593	99.69
562.805	100.69
563.017	101.69
563.229	80.69
563.441	95.69
563.653	93.69
563.865	95.69
564.077	94.69
564.289	92.69
564.501	88.69
564.713	99.69
564.925	95.69
565.137	89.69
565.349	103.69
565.561	93.69
565.773	88.69
565.985	89.69
566.197	93.69
566.408	88.69
566.62	86.69
566.832	92.69
567.044	80.69
567.255	90.69
567.467	92.69
567.679	106.69
567.891	96.69
568.102	97.69
568.314	87.69
568.526	96.69
568.737	80.69
568.949	69.69
569.161	88.69
569.372	71.69
569.584	70.69
569.795	79.69
570.007	81.69
570.218	88.69
570.43	84.69
570.641	103.69
570.853	103.69
571.064	84.69
571.276	78.69
571.487	67.69
571.698	86.69
571.91	101.69
572.121	79.69
572.333	93.69
572.544	60.69
572.755	78.69
572.966	82.69
573.178	92.69
573.389	102.69
573.6	88.69
573.811	104.69
574.023	98.69
574.234	97.69
574.445	89.69
574.656	77.69
574.867	88.69
575.078	93.69
575.289	78.69
575.501	95.69
575.712	70.69
575.923	87.69
576.134	90.69
576.345	87.69
576.556	89.69
576.767	76.69
576.978	84.69
577.188	84.69
577.399	88.69
577.61	78.69
577.821	69.69
578.032	88.69
578.243	84.69
578.454	89.69
578.665	74.69
578.875	101.69
579.086	86.69
579.297	93.69
579.508	85.69
579.718	92.69
579.929	101.69
580.14	89.69
580.35	82.69
580.561	93.69
580.772	75.69
580.982	96.69
581.193	92.69
581.403	94.69
581.614	87.69
581.825	93.69
582.035	70.69
582.246	90.69
582.456	94.69
582.667	77.69
582.877	92.69
583.087	75.69
583.298	80.69
583.508	90.69
583.719	81.69
583.929	76.69
584.139	76.69
584.35	75.69
584.56	91.69
584.77	84.69
584.981	86.69
585.191	84.69
585.401	81.69
585.611	74.69
585.821	68.69
586.032	82.69
586.242	74.69
586.452	84.69
586.662	76.69
586.872	79.69
587.082	80.69
587.292	104.69
587.502	86.69
587.713	79.69
587.923	88.69
588.133	91.69
588.343	102.69
588.553	87.69
588.762	96.69
588.972	98.69
589.182	88.69
589.392	87.69
589.602	82.69
589.812	87.69
590.022	77.69
590.232	87.69
590.441	72.69
590.651	87.69
590.861	83.69
591.071	70.69
591.281	77.69
591.49	75.69
591.7	93.69
591.91	84.69
592.119	75.69
592.329	76.69
592.539	79.69
592.748	77.69
592.958	74.69
593.167	78.69
593.377	92.69
593.587	94.69
593.796	84.69
594.006	98.69
594.215	74.69
594.424	77.69
594.634	80.69
594.843	83.69
595.053	86.69
595.262	87.69
595.472	71.69
595.681	96.69
595.89	90.69
596.1	70.69
596.309	96.69
596.518	95.69
596.727	92.69
596.937	89.69
597.146	82.69
597.355	82.69
597.564	79.69
597.774	98.69
597.983	79.69
598.192	97.69
598.401	76.69
598.61	86.69
598.819	87.69
599.028	86.69
599.237	83.69
599.446	81.69
599.655	76.69
599.864	74.69
600.073	69.69
600.282	97.69
600.491	111.69
600.7	73.69
600.909	84.69
601.118	92.69
601.327	71.69
601.536	92.69
601.745	93.69
601.953	88.69
602.162	97.69
602.371	78.69
602.58	92.69
602.789	101.69
602.997	78.69
603.206	99.69
603.415	95.69
603.623	102.69
603.832	89.69
604.041	102.69
604.249	87.69
604.458	84.69
604.666	99.69
604.875	89.69
605.084	82.69
605.292	90.69
605.501	91.69
605.709	86.69
605.918	86.69
606.126	82.69
606.334	90.69
606.543	89.69
606.751	84.69
606.96	92.69
607.168	97.69
607.376	96.69
607.585	102.69
607.793	78.69
608.001	90.69
608.21	89.69
608.418	100.69
608.626	84.69
608.834	93.69
609.043	98.69
609.251	95.69
609.459	86.69
609.667	86.69
609.875	87.69
610.083	76.69
610.291	92.69
610.499	93.69
610.707	100.69
610.916	98.69
611.124	90.69
611.332	80.69
611.54	86.69
611.748	89.69
611.955	102.69
612.163	107.69
612.371	93.69
612.579	103.69
612.787	94.69
612.995	89.69
613.203	93.69
613.411	83.69
613.618	101.69
613.826	85.69
614.034	86.69
614.242	89.69
614.449	95.69
614.657	94.69
614.865	92.69
615.072	80.69
615.28	81.69
615.488	83.69
615.695	84.69
615.903	82.69
616.111	90.69
616.318	91.69
616.526	89.69
616.733	110.69
616.941	92.69
617.148	94.69
617.356	94.69
617.563	89.69
617.771	100.69
617.978	97.69
618.185	95.69
618.393	101.69
618.6	87.69
618.807	88.69
619.015	79.69
619.222	81.69
619.429	80.69
619.637	92.69
619.844	95.69
620.051	94.69
620.258	94.69
620.466	83.69
620.673	89.69
620.88	97.69
621.087	76.69
621.294	77.69
621.501	92.69
621.708	104.69
621.915	82.69
622.122	101.69
622.329	93.69
622.536	81.69
622.743	86.69
622.95	97.69
623.157	91.69
623.364	80.69
623.571	82.69
623.778	86.69
623.985	95.69
624.192	87.69
624.399	90.69
624.606	97.69
624.812	91.69
625.019	79.69
625.226	82.69
625.433	92.69
625.639	84.69
625.846	99.69
626.053	87.69
626.259	87.69
626.466	87.69
626.673	99.69
626.879	79.69
627.086	63.69
627.293	82.69
627.499	96.69
627.706	79.69
627.912	83.69
628.119	85.69
628.325	93.69
628.532	94.69
628.738	87.69
628.945	72.69
629.151	103.69
629.357	96.69
629.564	96.69
629.77	89.69
629.976	89.69
630.183	90.69
630.389	75.69
630.595	83.69
630.802	89.69
631.008	102.69
631.214	84.69
631.42	85.69
631.627	75.69
631.833	87.69
632.039	80.69
632.245	88.69
632.451	78.69
632.657	86.69
632.863	86.69
633.069	74.69
633.275	88.69
633.481	90.69
633.688	89.69
633.893	86.69
634.099	74.69
634.305	73.69
634.511	92.69
634.717	89.69
634.923	76.69
635.129	82.69
635.335	82.69
635.541	96.69
635.747	81.69
635.952	89.69
636.158	86.69
636.364	77.69
636.57	88.69
636.775	96.69
636.981	86.69
637.187	83.69
637.392	99.69
637.598	94.69
637.804	87.69
638.009	88.69
638.215	97.69
638.421	91.69
638.626	83.69
638.832	89.69
639.037	92.69
639.243	96.69
639.448	83.69
639.654	78.69
639.859	92.69
640.065	71.69
640.27	81.69
640.475	89.69
640.681	90.69
640.886	87.69
641.091	83.69
641.297	85.69
641.502	94.69
641.707	84.69
641.913	80.69
642.118	80.69
642.323	76.69
642.528	78.69
642.733	94.69
642.939	79.69
643.144	88.69
643.349	86.69
643.554	90.69
643.759	94.69
643.964	71.69
644.169	88.69
644.374	77.69
644.579	87.69
644.784	88.69
644.989	96.69
645.194	82.69
645.399	85.69
645.604	97.69
645.809	84.69
646.014	84.69
646.219	92.69
646.423	84.69
646.628	89.69
646.833	86.69
647.038	89.69
647.243	70.69
647.447	94.69
647.652	98.69
647.857	78.69
648.062	81.69
648.266	80.69
648.471	81.69
648.676	83.69
648.88	92.69
649.085	88.69
649.289	90.69
649.494	79.69
649.698	74.69
649.903	81.69
650.107	82.69
650.312	85.69
650.516	87.69
650.721	75.69
650.925	77.69
651.13	85.69
651.334	83.69
651.539	94.69
651.743	67.69
651.947	75.69
652.152	80.69
652.356	86.69
652.56	81.69
652.764	97.69
652.969	81.69
653.173	88.69
653.377	80.69
653.581	82.69
653.785	93.69
653.99	71.69
654.194	70.69
654.398	95.69
654.602	70.69
654.806	82.69
655.01	104.69
655.214	89.69
655.418	88.69
655.622	83.69
655.826	89.69
656.03	81.69
656.234	79.69
656.438	89.69
656.642	78.69
656.846	85.69
657.049	83.69
657.253	80.69
657.457	90.69
657.661	90.69
657.865	75.69
658.068	80.69
658.272	69.69
658.476	80.69
658.68	84.69
658.883	81.69
659.087	73.69
659.291	80.69
659.494	87.69
659.698	71.69
659.901	72.69
660.105	71.69
660.309	77.69
660.512	89.69
660.716	84.69
660.919	77.69
661.123	92.69
661.326	72.69
661.53	83.69
661.733	65.69
661.936	95.69
662.14	81.69
662.343	85.69
662.546	86.69
662.75	71.69
662.953	79.69
663.156	74.69
663.36	71.69
663.563	87.69
663.766	84.69
663.969	80.69
664.173	86.69
664.376	79.69
664.579	83.69
664.782	70.69
664.985	76.69
665.188	79.69
665.391	77.69
665.594	71.69
665.797	69.69
666	66.69
666.203	89.69
666.406	75.69
666.609	64.69
666.812	79.69
667.015	79.69
667.218	88.69
667.421	80.69
667.624	84.69
667.827	89.69
668.03	82.69
668.232	85.69
668.435	79.69
668.638	67.69
668.841	92.69
669.043	80.69
669.246	79.69
669.449	72.69
669.651	71.69
669.854	73.69
670.057	80.69
670.259	73.69
670.462	89.69
670.665	70.69
670.867	69.69
671.07	69.69
671.272	69.69
671.475	86.69
671.677	76.69
671.88	66.69
672.082	80.69
672.284	83.69
672.487	81.69
672.689	90.69
672.892	68.69
