Data from Location3.07152019.Energy5.Lamp.07192019.3%Agarose_HRD10591_15-17-33-269.txt Node
Date: Fri Jul 19 15:17:33 EDT 2019
User: cochatt
Spectrometer: HR+D1059
Trigger mode: 1
Integration Time (sec): 1.000000E-1
Scans to average: 1
Electric dark correction enabled: true
Nonlinearity correction enabled: false
Boxcar width: 0
XAxis mode: Wavelengths
Number of Pixels in Spectrum: 2048
>>>>>Begin Spectral Data<<<<<
223.165	-12.62
223.4	-12.62
223.635	-12.62
223.869	-14.62
224.104	-9.62
224.338	-16.62
224.573	-8.62
224.808	-32.62
225.042	-16.62
225.277	-1.62
225.511	1.38
225.746	9.38
225.98	9.38
226.215	7.38
226.449	14.38
226.683	22.38
226.918	17.38
227.152	31.38
227.387	35.38
227.621	44.38
227.856	42.38
228.09	41.38
228.324	56.38
228.559	53.38
228.793	57.38
229.027	57.38
229.262	82.38
229.496	50.38
229.73	68.38
229.964	79.38
230.199	68.38
230.433	74.38
230.667	74.38
230.901	72.38
231.136	75.38
231.37	93.38
231.604	72.38
231.838	80.38
232.072	73.38
232.306	74.38
232.541	87.38
232.775	81.38
233.009	105.38
233.243	89.38
233.477	78.38
233.711	98.38
233.945	76.38
234.179	86.38
234.413	84.38
234.647	76.38
234.881	91.38
235.115	84.38
235.349	76.38
235.583	74.38
235.817	84.38
236.051	75.38
236.285	70.38
236.519	77.38
236.753	81.38
236.987	76.38
237.221	91.38
237.455	66.38
237.689	87.38
237.922	75.38
238.156	88.38
238.39	84.38
238.624	77.38
238.858	90.38
239.091	71.38
239.325	74.38
239.559	70.38
239.793	76.38
240.027	77.38
240.26	91.38
240.494	79.38
240.728	70.38
240.961	78.38
241.195	72.38
241.429	72.38
241.662	84.38
241.896	74.38
242.13	76.38
242.363	56.38
242.597	81.38
242.83	81.38
243.064	68.38
243.298	70.38
243.531	85.38
243.765	89.38
243.998	79.38
244.232	77.38
244.465	71.38
244.699	68.38
244.932	88.38
245.166	97.38
245.399	69.38
245.633	91.38
245.866	77.38
246.099	71.38
246.333	79.38
246.566	76.38
246.8	67.38
247.033	70.38
247.266	83.38
247.5	83.38
247.733	81.38
247.966	66.38
248.2	87.38
248.433	71.38
248.666	85.38
248.899	81.38
249.133	64.38
249.366	72.38
249.599	83.38
249.832	76.38
250.066	86.38
250.299	74.38
250.532	75.38
250.765	78.38
250.998	81.38
251.231	81.38
251.465	79.38
251.698	80.38
251.931	83.38
252.164	76.38
252.397	83.38
252.63	79.38
252.863	83.38
253.096	76.38
253.329	81.38
253.562	68.38
253.795	77.38
254.028	76.38
254.261	82.38
254.494	68.38
254.727	73.38
254.96	79.38
255.193	74.38
255.426	77.38
255.659	68.38
255.892	91.38
256.124	91.38
256.357	85.38
256.59	65.38
256.823	68.38
257.056	69.38
257.289	85.38
257.521	79.38
257.754	87.38
257.987	89.38
258.22	86.38
258.452	84.38
258.685	73.38
258.918	71.38
259.151	75.38
259.383	81.38
259.616	63.38
259.849	69.38
260.081	84.38
260.314	82.38
260.547	79.38
260.779	71.38
261.012	82.38
261.244	90.38
261.477	88.38
261.71	82.38
261.942	73.38
262.175	88.38
262.407	79.38
262.64	80.38
262.872	85.38
263.105	73.38
263.337	83.38
263.57	80.38
263.802	94.38
264.035	82.38
264.267	76.38
264.499	83.38
264.732	83.38
264.964	96.38
265.197	79.38
265.429	78.38
265.661	79.38
265.894	96.38
266.126	92.38
266.358	83.38
266.591	81.38
266.823	81.38
267.055	76.38
267.287	92.38
267.52	71.38
267.752	85.38
267.984	81.38
268.216	88.38
268.448	80.38
268.681	80.38
268.913	77.38
269.145	73.38
269.377	82.38
269.609	77.38
269.841	93.38
270.073	88.38
270.306	82.38
270.538	82.38
270.77	76.38
271.002	83.38
271.234	82.38
271.466	85.38
271.698	90.38
271.93	75.38
272.162	88.38
272.394	75.38
272.626	75.38
272.858	76.38
273.09	76.38
273.322	69.38
273.553	70.38
273.785	92.38
274.017	93.38
274.249	93.38
274.481	84.38
274.713	83.38
274.945	79.38
275.176	92.38
275.408	86.38
275.64	77.38
275.872	78.38
276.104	83.38
276.335	89.38
276.567	87.38
276.799	90.38
277.031	93.38
277.262	91.38
277.494	98.38
277.726	80.38
277.957	83.38
278.189	83.38
278.421	88.38
278.652	85.38
278.884	76.38
279.115	89.38
279.347	67.38
279.579	86.38
279.81	77.38
280.042	84.38
280.273	87.38
280.505	102.38
280.736	90.38
280.968	81.38
281.199	81.38
281.431	92.38
281.662	70.38
281.894	91.38
282.125	83.38
282.356	84.38
282.588	85.38
282.819	84.38
283.051	69.38
283.282	64.38
283.513	73.38
283.745	91.38
283.976	93.38
284.207	86.38
284.439	82.38
284.67	82.38
284.901	79.38
285.132	91.38
285.364	83.38
285.595	75.38
285.826	79.38
286.057	78.38
286.288	76.38
286.52	80.38
286.751	82.38
286.982	80.38
287.213	74.38
287.444	90.38
287.675	92.38
287.906	97.38
288.138	82.38
288.369	75.38
288.6	99.38
288.831	90.38
289.062	92.38
289.293	88.38
289.524	78.38
289.755	103.38
289.986	80.38
290.217	74.38
290.448	90.38
290.679	83.38
290.91	72.38
291.141	73.38
291.371	86.38
291.602	90.38
291.833	78.38
292.064	86.38
292.295	83.38
292.526	75.38
292.757	79.38
292.987	88.38
293.218	88.38
293.449	89.38
293.68	71.38
293.91	84.38
294.141	83.38
294.372	77.38
294.603	95.38
294.833	65.38
295.064	84.38
295.295	80.38
295.525	84.38
295.756	92.38
295.987	74.38
296.217	81.38
296.448	89.38
296.679	86.38
296.909	92.38
297.14	81.38
297.37	75.38
297.601	77.38
297.831	80.38
298.062	86.38
298.292	101.38
298.523	88.38
298.753	85.38
298.984	73.38
299.214	90.38
299.445	83.38
299.675	87.38
299.905	96.38
300.136	93.38
300.366	74.38
300.597	85.38
300.827	81.38
301.057	84.38
301.288	93.38
301.518	84.38
301.748	90.38
301.979	95.38
302.209	81.38
302.439	95.38
302.669	96.38
302.9	83.38
303.13	93.38
303.36	83.38
303.59	85.38
303.82	80.38
304.051	87.38
304.281	86.38
304.511	88.38
304.741	77.38
304.971	81.38
305.201	98.38
305.431	81.38
305.661	100.38
305.891	93.38
306.121	81.38
306.352	86.38
306.582	64.38
306.812	88.38
307.042	81.38
307.272	79.38
307.502	77.38
307.731	76.38
307.961	87.38
308.191	75.38
308.421	80.38
308.651	75.38
308.881	85.38
309.111	88.38
309.341	82.38
309.571	96.38
309.8	82.38
310.03	72.38
310.26	78.38
310.49	76.38
310.72	77.38
310.949	84.38
311.179	80.38
311.409	84.38
311.639	89.38
311.868	94.38
312.098	81.38
312.328	86.38
312.557	85.38
312.787	77.38
313.017	89.38
313.246	88.38
313.476	90.38
313.706	86.38
313.935	94.38
314.165	81.38
314.394	83.38
314.624	84.38
314.853	86.38
315.083	83.38
315.312	73.38
315.542	73.38
315.771	76.38
316.001	83.38
316.23	82.38
316.46	66.38
316.689	87.38
316.919	77.38
317.148	83.38
317.377	77.38
317.607	102.38
317.836	76.38
318.065	75.38
318.295	90.38
318.524	88.38
318.753	78.38
318.983	84.38
319.212	82.38
319.441	86.38
319.67	77.38
319.9	92.38
320.129	86.38
320.358	80.38
320.587	97.38
320.816	75.38
321.046	95.38
321.275	92.38
321.504	79.38
321.733	74.38
321.962	90.38
322.191	87.38
322.42	98.38
322.649	88.38
322.878	91.38
323.108	78.38
323.337	100.38
323.566	87.38
323.795	81.38
324.024	63.38
324.253	85.38
324.482	85.38
324.71	81.38
324.939	81.38
325.168	77.38
325.397	91.38
325.626	98.38
325.855	89.38
326.084	97.38
326.313	86.38
326.542	66.38
326.77	81.38
326.999	87.38
327.228	87.38
327.457	92.38
327.686	95.38
327.914	83.38
328.143	102.38
328.372	80.38
328.6	87.38
328.829	83.38
329.058	76.38
329.287	83.38
329.515	78.38
329.744	75.38
329.972	87.38
330.201	87.38
330.43	82.38
330.658	82.38
330.887	77.38
331.115	96.38
331.344	72.38
331.572	95.38
331.801	81.38
332.03	88.38
332.258	86.38
332.486	69.38
332.715	89.38
332.943	89.38
333.172	75.38
333.4	83.38
333.629	86.38
333.857	92.38
334.085	88.38
334.314	96.38
334.542	82.38
334.771	81.38
334.999	89.38
335.227	88.38
335.455	92.38
335.684	94.38
335.912	87.38
336.14	95.38
336.369	95.38
336.597	77.38
336.825	93.38
337.053	88.38
337.281	93.38
337.51	79.38
337.738	84.38
337.966	84.38
338.194	84.38
338.422	91.38
338.65	95.38
338.878	84.38
339.106	95.38
339.334	88.38
339.562	88.38
339.79	85.38
340.018	79.38
340.246	81.38
340.474	83.38
340.702	87.38
340.93	87.38
341.158	85.38
341.386	96.38
341.614	89.38
341.842	89.38
342.07	92.38
342.298	73.38
342.526	78.38
342.754	81.38
342.981	84.38
343.209	97.38
343.437	97.38
343.665	90.38
343.893	85.38
344.12	87.38
344.348	82.38
344.576	77.38
344.804	101.38
345.031	80.38
345.259	85.38
345.487	87.38
345.714	73.38
345.942	101.38
346.17	86.38
346.397	81.38
346.625	90.38
346.853	86.38
347.08	81.38
347.308	80.38
347.535	81.38
347.763	104.38
347.99	96.38
348.218	84.38
348.445	95.38
348.673	70.38
348.9	87.38
349.128	90.38
349.355	90.38
349.583	78.38
349.81	86.38
350.037	93.38
350.265	88.38
350.492	82.38
350.72	89.38
350.947	84.38
351.174	92.38
351.402	73.38
351.629	89.38
351.856	81.38
352.083	72.38
352.311	85.38
352.538	87.38
352.765	83.38
352.992	81.38
353.22	92.38
353.447	84.38
353.674	78.38
353.901	101.38
354.128	78.38
354.355	69.38
354.583	84.38
354.81	84.38
355.037	84.38
355.264	87.38
355.491	91.38
355.718	93.38
355.945	86.38
356.172	79.38
356.399	94.38
356.626	71.38
356.853	84.38
357.08	80.38
357.307	95.38
357.534	72.38
357.761	83.38
357.988	92.38
358.215	86.38
358.441	76.38
358.668	95.38
358.895	85.38
359.122	94.38
359.349	82.38
359.576	95.38
359.802	91.38
360.029	84.38
360.256	93.38
360.483	83.38
360.709	67.38
360.936	88.38
361.163	97.38
361.39	82.38
361.616	91.38
361.843	66.38
362.07	79.38
362.296	89.38
362.523	76.38
362.749	76.38
362.976	97.38
363.203	88.38
363.429	91.38
363.656	77.38
363.882	85.38
364.109	88.38
364.335	77.38
364.562	95.38
364.788	93.38
365.015	85.38
365.241	90.38
365.468	90.38
365.694	74.38
365.92	68.38
366.147	92.38
366.373	89.38
366.599	78.38
366.826	88.38
367.052	74.38
367.278	74.38
367.505	88.38
367.731	78.38
367.957	88.38
368.184	73.38
368.41	92.38
368.636	74.38
368.862	88.38
369.089	84.38
369.315	99.38
369.541	84.38
369.767	83.38
369.993	91.38
370.219	75.38
370.445	88.38
370.672	73.38
370.898	90.38
371.124	96.38
371.35	90.38
371.576	85.38
371.802	77.38
372.028	88.38
372.254	83.38
372.48	84.38
372.706	90.38
372.932	93.38
373.158	88.38
373.384	85.38
373.61	97.38
373.835	93.38
374.061	90.38
374.287	106.38
374.513	94.38
374.739	96.38
374.965	72.38
375.191	98.38
375.416	67.38
375.642	80.38
375.868	92.38
376.094	81.38
376.319	83.38
376.545	93.38
376.771	89.38
376.997	94.38
377.222	101.38
377.448	78.38
377.674	80.38
377.899	98.38
378.125	85.38
378.35	86.38
378.576	91.38
378.802	76.38
379.027	79.38
379.253	77.38
379.478	83.38
379.704	95.38
379.929	72.38
380.155	96.38
380.38	82.38
380.606	75.38
380.831	80.38
381.057	100.38
381.282	84.38
381.507	83.38
381.733	84.38
381.958	91.38
382.184	99.38
382.409	82.38
382.634	64.38
382.86	90.38
383.085	88.38
383.31	91.38
383.535	84.38
383.761	75.38
383.986	92.38
384.211	78.38
384.436	83.38
384.662	89.38
384.887	89.38
385.112	88.38
385.337	78.38
385.562	82.38
385.787	89.38
386.013	92.38
386.238	88.38
386.463	95.38
386.688	95.38
386.913	84.38
387.138	83.38
387.363	92.38
387.588	95.38
387.813	95.38
388.038	92.38
388.263	95.38
388.488	85.38
388.713	99.38
388.938	99.38
389.163	93.38
389.387	87.38
389.612	75.38
389.837	86.38
390.062	90.38
390.287	97.38
390.512	87.38
390.736	90.38
390.961	91.38
391.186	92.38
391.411	83.38
391.636	85.38
391.86	89.38
392.085	85.38
392.31	87.38
392.534	84.38
392.759	96.38
392.984	88.38
393.208	97.38
393.433	92.38
393.658	92.38
393.882	82.38
394.107	75.38
394.331	86.38
394.556	107.38
394.78	88.38
395.005	104.38
395.229	91.38
395.454	75.38
395.678	76.38
395.903	85.38
396.127	80.38
396.352	90.38
396.576	91.38
396.801	84.38
397.025	85.38
397.249	86.38
397.474	85.38
397.698	96.38
397.922	104.38
398.147	84.38
398.371	96.38
398.595	94.38
398.82	94.38
399.044	98.38
399.268	91.38
399.492	89.38
399.717	102.38
399.941	102.38
400.165	82.38
400.389	87.38
400.613	84.38
400.837	79.38
401.062	107.38
401.286	90.38
401.51	78.38
401.734	100.38
401.958	83.38
402.182	87.38
402.406	80.38
402.63	98.38
402.854	96.38
403.078	93.38
403.302	97.38
403.526	95.38
403.75	90.38
403.974	74.38
404.198	93.38
404.422	91.38
404.645	91.38
404.869	83.38
405.093	86.38
405.317	89.38
405.541	102.38
405.765	96.38
405.988	82.38
406.212	90.38
406.436	85.38
406.66	85.38
406.883	95.38
407.107	90.38
407.331	86.38
407.555	88.38
407.778	95.38
408.002	86.38
408.226	91.38
408.449	98.38
408.673	97.38
408.896	95.38
409.12	88.38
409.344	104.38
409.567	97.38
409.791	86.38
410.014	80.38
410.238	83.38
410.461	91.38
410.685	95.38
410.908	90.38
411.132	96.38
411.355	89.38
411.578	94.38
411.802	89.38
412.025	96.38
412.249	82.38
412.472	89.38
412.695	96.38
412.919	96.38
413.142	104.38
413.365	99.38
413.589	95.38
413.812	90.38
414.035	83.38
414.258	100.38
414.482	97.38
414.705	88.38
414.928	76.38
415.151	102.38
415.374	89.38
415.597	97.38
415.821	83.38
416.044	85.38
416.267	105.38
416.49	111.38
416.713	91.38
416.936	92.38
417.159	97.38
417.382	88.38
417.605	89.38
417.828	92.38
418.051	89.38
418.274	95.38
418.497	101.38
418.72	97.38
418.943	102.38
419.166	108.38
419.389	104.38
419.611	94.38
419.834	102.38
420.057	101.38
420.28	98.38
420.503	94.38
420.726	100.38
420.948	103.38
421.171	99.38
421.394	113.38
421.617	97.38
421.839	103.38
422.062	112.38
422.285	103.38
422.507	92.38
422.73	92.38
422.953	84.38
423.175	72.38
423.398	96.38
423.621	87.38
423.843	90.38
424.066	106.38
424.288	82.38
424.511	97.38
424.733	102.38
424.956	87.38
425.178	92.38
425.401	95.38
425.623	115.38
425.846	89.38
426.068	98.38
426.291	108.38
426.513	95.38
426.735	129.38
426.958	102.38
427.18	107.38
427.402	93.38
427.625	103.38
427.847	99.38
428.069	105.38
428.292	94.38
428.514	82.38
428.736	88.38
428.958	92.38
429.181	101.38
429.403	101.38
429.625	99.38
429.847	97.38
430.069	112.38
430.292	88.38
430.514	101.38
430.736	91.38
430.958	86.38
431.18	92.38
431.402	98.38
431.624	78.38
431.846	80.38
432.068	86.38
432.29	80.38
432.512	87.38
432.734	90.38
432.956	105.38
433.178	92.38
433.4	87.38
433.622	97.38
433.844	101.38
434.066	98.38
434.287	87.38
434.509	80.38
434.731	83.38
434.953	95.38
435.175	100.38
435.397	87.38
435.618	82.38
435.84	112.38
436.062	95.38
436.284	87.38
436.505	85.38
436.727	89.38
436.949	90.38
437.17	84.38
437.392	96.38
437.614	99.38
437.835	79.38
438.057	96.38
438.278	95.38
438.5	92.38
438.721	89.38
438.943	105.38
439.165	103.38
439.386	103.38
439.608	96.38
439.829	104.38
440.05	124.38
440.272	97.38
440.493	89.38
440.715	95.38
440.936	93.38
441.158	100.38
441.379	109.38
441.6	92.38
441.822	96.38
442.043	100.38
442.264	97.38
442.486	103.38
442.707	98.38
442.928	103.38
443.149	104.38
443.371	106.38
443.592	103.38
443.813	103.38
444.034	98.38
444.255	89.38
444.476	96.38
444.698	97.38
444.919	83.38
445.14	216.38
445.361	137.38
445.582	99.38
445.803	99.38
446.024	100.38
446.245	106.38
446.466	102.38
446.687	99.38
446.908	114.38
447.129	93.38
447.35	103.38
447.571	101.38
447.792	110.38
448.013	100.38
448.234	111.38
448.455	97.38
448.675	113.38
448.896	103.38
449.117	101.38
449.338	104.38
449.559	96.38
449.779	107.38
450	94.38
450.221	90.38
450.442	97.38
450.662	97.38
450.883	93.38
451.104	100.38
451.324	103.38
451.545	105.38
451.766	96.38
451.986	92.38
452.207	94.38
452.428	100.38
452.648	115.38
452.869	93.38
453.089	92.38
453.31	74.38
453.53	91.38
453.751	91.38
453.971	87.38
454.192	87.38
454.412	79.38
454.633	87.38
454.853	95.38
455.073	85.38
455.294	80.38
455.514	89.38
455.734	101.38
455.955	85.38
456.175	88.38
456.395	84.38
456.616	107.38
456.836	83.38
457.056	89.38
457.276	101.38
457.497	72.38
457.717	88.38
457.937	88.38
458.157	98.38
458.377	105.38
458.598	84.38
458.818	86.38
459.038	85.38
459.258	65.38
459.478	87.38
459.698	81.38
459.918	80.38
460.138	93.38
460.358	81.38
460.578	97.38
460.798	90.38
461.018	105.38
461.238	87.38
461.458	94.38
461.678	84.38
461.898	91.38
462.118	98.38
462.338	90.38
462.558	90.38
462.777	97.38
462.997	86.38
463.217	79.38
463.437	94.38
463.657	90.38
463.876	89.38
464.096	81.38
464.316	79.38
464.536	97.38
464.755	98.38
464.975	101.38
465.195	106.38
465.414	91.38
465.634	83.38
465.854	83.38
466.073	88.38
466.293	77.38
466.512	107.38
466.732	96.38
466.951	90.38
467.171	106.38
467.391	108.38
467.61	104.38
467.829	89.38
468.049	92.38
468.268	83.38
468.488	104.38
468.707	103.38
468.927	109.38
469.146	93.38
469.365	96.38
469.585	96.38
469.804	96.38
470.023	108.38
470.243	99.38
470.462	103.38
470.681	91.38
470.901	99.38
471.12	108.38
471.339	105.38
471.558	90.38
471.777	92.38
471.997	92.38
472.216	100.38
472.435	94.38
472.654	87.38
472.873	93.38
473.092	78.38
473.311	100.38
473.53	105.38
473.749	88.38
473.968	87.38
474.187	89.38
474.406	96.38
474.625	85.38
474.844	92.38
475.063	93.38
475.282	102.38
475.501	103.38
475.72	86.38
475.939	96.38
476.158	96.38
476.377	101.38
476.596	108.38
476.814	106.38
477.033	100.38
477.252	92.38
477.471	92.38
477.69	92.38
477.908	99.38
478.127	96.38
478.346	98.38
478.564	105.38
478.783	99.38
479.002	98.38
479.22	107.38
479.439	97.38
479.658	92.38
479.876	77.38
480.095	97.38
480.313	90.38
480.532	100.38
480.751	78.38
480.969	78.38
481.188	83.38
481.406	80.38
481.624	88.38
481.843	65.38
482.061	87.38
482.28	80.38
482.498	83.38
482.717	76.38
482.935	71.38
483.153	101.38
483.372	109.38
483.59	120.38
483.808	100.38
484.027	96.38
484.245	91.38
484.463	82.38
484.681	97.38
484.9	88.38
485.118	102.38
485.336	91.38
485.554	91.38
485.772	82.38
485.99	90.38
486.209	103.38
486.427	88.38
486.645	106.38
486.863	101.38
487.081	100.38
487.299	97.38
487.517	84.38
487.735	104.38
487.953	124.38
488.171	125.38
488.389	114.38
488.607	106.38
488.825	100.38
489.043	93.38
489.261	93.38
489.479	113.38
489.696	106.38
489.914	91.38
490.132	95.38
490.35	109.38
490.568	119.38
490.786	116.38
491.003	114.38
491.221	112.38
491.439	114.38
491.657	103.38
491.874	108.38
492.092	121.38
492.31	132.38
492.527	125.38
492.745	122.38
492.963	119.38
493.18	120.38
493.398	115.38
493.615	107.38
493.833	107.38
494.05	122.38
494.268	112.38
494.485	95.38
494.703	120.38
494.92	105.38
495.138	119.38
495.355	116.38
495.573	112.38
495.79	112.38
496.008	107.38
496.225	106.38
496.442	116.38
496.66	111.38
496.877	121.38
497.094	97.38
497.312	93.38
497.529	104.38
497.746	114.38
497.963	98.38
498.181	97.38
498.398	104.38
498.615	94.38
498.832	88.38
499.049	95.38
499.267	109.38
499.484	100.38
499.701	95.38
499.918	91.38
500.135	98.38
500.352	98.38
500.569	92.38
500.786	100.38
501.003	100.38
501.22	92.38
501.437	98.38
501.654	91.38
501.871	91.38
502.088	83.38
502.305	92.38
502.522	82.38
502.739	105.38
502.956	107.38
503.172	79.38
503.389	93.38
503.606	88.38
503.823	95.38
504.04	101.38
504.256	98.38
504.473	88.38
504.69	88.38
504.907	89.38
505.123	98.38
505.34	99.38
505.557	90.38
505.773	95.38
505.99	88.38
506.207	95.38
506.423	94.38
506.64	108.38
506.856	91.38
507.073	78.38
507.289	92.38
507.506	90.38
507.722	83.38
507.939	100.38
508.155	92.38
508.372	100.38
508.588	99.38
508.805	95.38
509.021	103.38
509.238	109.38
509.454	81.38
509.67	86.38
509.887	99.38
510.103	105.38
510.319	90.38
510.536	84.38
510.752	83.38
510.968	86.38
511.184	71.38
511.401	90.38
511.617	90.38
511.833	73.38
512.049	86.38
512.265	91.38
512.481	85.38
512.698	98.38
512.914	77.38
513.13	101.38
513.346	85.38
513.562	91.38
513.778	75.38
513.994	87.38
514.21	99.38
514.426	94.38
514.642	94.38
514.858	90.38
515.074	96.38
515.29	93.38
515.506	72.38
515.721	67.38
515.937	98.38
516.153	88.38
516.369	80.38
516.585	80.38
516.801	89.38
517.016	84.38
517.232	97.38
517.448	91.38
517.664	84.38
517.879	82.38
518.095	83.38
518.311	84.38
518.527	88.38
518.742	92.38
518.958	83.38
519.173	96.38
519.389	94.38
519.605	86.38
519.82	81.38
520.036	90.38
520.251	99.38
520.467	97.38
520.682	89.38
520.898	90.38
521.113	87.38
521.329	101.38
521.544	88.38
521.76	78.38
521.975	89.38
522.19	77.38
522.406	88.38
522.621	84.38
522.836	84.38
523.052	83.38
523.267	90.38
523.482	85.38
523.698	112.38
523.913	95.38
524.128	85.38
524.343	75.38
524.559	82.38
524.774	92.38
524.989	96.38
525.204	84.38
525.419	93.38
525.634	83.38
525.849	97.38
526.064	80.38
526.28	97.38
526.495	84.38
526.71	82.38
526.925	85.38
527.14	83.38
527.355	82.38
527.57	82.38
527.785	83.38
527.999	92.38
528.214	95.38
528.429	94.38
528.644	96.38
528.859	95.38
529.074	103.38
529.289	106.38
529.503	109.38
529.718	93.38
529.933	105.38
530.148	110.38
530.363	89.38
530.577	79.38
530.792	80.38
531.007	91.38
531.221	87.38
531.436	71.38
531.651	91.38
531.865	90.38
532.08	87.38
532.295	98.38
532.509	89.38
532.724	79.38
532.938	87.38
533.153	79.38
533.367	106.38
533.582	105.38
533.796	95.38
534.011	89.38
534.225	80.38
534.44	77.38
534.654	103.38
534.868	105.38
535.083	68.38
535.297	106.38
535.511	92.38
535.726	100.38
535.94	94.38
536.154	114.38
536.369	85.38
536.583	84.38
536.797	84.38
537.011	91.38
537.225	82.38
537.44	94.38
537.654	93.38
537.868	86.38
538.082	87.38
538.296	99.38
538.51	86.38
538.724	95.38
538.938	108.38
539.153	93.38
539.367	108.38
539.581	89.38
539.795	85.38
540.009	73.38
540.222	77.38
540.436	94.38
540.65	106.38
540.864	105.38
541.078	99.38
541.292	107.38
541.506	91.38
541.72	123.38
541.934	116.38
542.147	113.38
542.361	124.38
542.575	107.38
542.789	101.38
543.002	88.38
543.216	115.38
543.43	95.38
543.644	98.38
543.857	106.38
544.071	111.38
544.285	107.38
544.498	92.38
544.712	108.38
544.925	123.38
545.139	120.38
545.352	118.38
545.566	92.38
545.779	89.38
545.993	112.38
546.206	100.38
546.42	111.38
546.633	101.38
546.847	112.38
547.06	105.38
547.274	113.38
547.487	123.38
547.7	102.38
547.914	116.38
548.127	113.38
548.34	119.38
548.554	115.38
548.767	103.38
548.98	108.38
549.193	106.38
549.407	123.38
549.62	105.38
549.833	117.38
550.046	111.38
550.259	111.38
550.473	101.38
550.686	105.38
550.899	113.38
551.112	100.38
551.325	93.38
551.538	104.38
551.751	100.38
551.964	106.38
552.177	113.38
552.39	99.38
552.603	110.38
552.816	111.38
553.029	112.38
553.242	112.38
553.455	107.38
553.667	111.38
553.88	113.38
554.093	111.38
554.306	101.38
554.519	101.38
554.732	96.38
554.944	116.38
555.157	100.38
555.37	115.38
555.583	119.38
555.795	105.38
556.008	104.38
556.221	98.38
556.433	101.38
556.646	107.38
556.859	100.38
557.071	79.38
557.284	97.38
557.496	105.38
557.709	79.38
557.921	99.38
558.134	93.38
558.346	100.38
558.559	112.38
558.771	91.38
558.984	99.38
559.196	99.38
559.409	103.38
559.621	99.38
559.833	90.38
560.046	108.38
560.258	92.38
560.47	89.38
560.683	98.38
560.895	97.38
561.107	111.38
561.32	99.38
561.532	117.38
561.744	96.38
561.956	93.38
562.168	99.38
562.381	89.38
562.593	102.38
562.805	108.38
563.017	99.38
563.229	87.38
563.441	100.38
563.653	99.38
563.865	95.38
564.077	93.38
564.289	98.38
564.501	89.38
564.713	99.38
564.925	96.38
565.137	101.38
565.349	98.38
565.561	105.38
565.773	99.38
565.985	96.38
566.197	93.38
566.408	101.38
566.62	99.38
566.832	97.38
567.044	97.38
567.255	96.38
567.467	101.38
567.679	98.38
567.891	92.38
568.102	113.38
568.314	83.38
568.526	82.38
568.737	74.38
568.949	94.38
569.161	86.38
569.372	101.38
569.584	81.38
569.795	84.38
570.007	90.38
570.218	84.38
570.43	91.38
570.641	104.38
570.853	90.38
571.064	79.38
571.276	81.38
571.487	102.38
571.698	95.38
571.91	92.38
572.121	96.38
572.333	96.38
572.544	91.38
572.755	75.38
572.966	90.38
573.178	91.38
573.389	80.38
573.6	84.38
573.811	86.38
574.023	89.38
574.234	82.38
574.445	88.38
574.656	90.38
574.867	94.38
575.078	90.38
575.289	91.38
575.501	95.38
575.712	97.38
575.923	94.38
576.134	89.38
576.345	87.38
576.556	99.38
576.767	94.38
576.978	81.38
577.188	89.38
577.399	87.38
577.61	87.38
577.821	86.38
578.032	83.38
578.243	89.38
578.454	99.38
578.665	92.38
578.875	77.38
579.086	78.38
579.297	97.38
579.508	92.38
579.718	85.38
579.929	96.38
580.14	83.38
580.35	90.38
580.561	79.38
580.772	85.38
580.982	87.38
581.193	75.38
581.403	68.38
581.614	97.38
581.825	93.38
582.035	77.38
582.246	96.38
582.456	87.38
582.667	98.38
582.877	97.38
583.087	93.38
583.298	88.38
583.508	96.38
583.719	95.38
583.929	86.38
584.139	91.38
584.35	89.38
584.56	93.38
584.77	80.38
584.981	85.38
585.191	83.38
585.401	72.38
585.611	91.38
585.821	83.38
586.032	88.38
586.242	91.38
586.452	74.38
586.662	83.38
586.872	85.38
587.082	95.38
587.292	92.38
587.502	73.38
587.713	92.38
587.923	75.38
588.133	98.38
588.343	89.38
588.553	89.38
588.762	76.38
588.972	77.38
589.182	77.38
589.392	91.38
589.602	84.38
589.812	89.38
590.022	87.38
590.232	78.38
590.441	71.38
590.651	69.38
590.861	88.38
591.071	88.38
591.281	83.38
591.49	77.38
591.7	91.38
591.91	79.38
592.119	76.38
592.329	79.38
592.539	91.38
592.748	76.38
592.958	106.38
593.167	84.38
593.377	81.38
593.587	95.38
593.796	81.38
594.006	85.38
594.215	84.38
594.424	89.38
594.634	84.38
594.843	79.38
595.053	96.38
595.262	79.38
595.472	82.38
595.681	85.38
595.89	92.38
596.1	91.38
596.309	80.38
596.518	86.38
596.727	93.38
596.937	96.38
597.146	96.38
597.355	86.38
597.564	89.38
597.774	111.38
597.983	85.38
598.192	103.38
598.401	95.38
598.61	85.38
598.819	81.38
599.028	88.38
599.237	80.38
599.446	93.38
599.655	98.38
599.864	78.38
600.073	89.38
600.282	83.38
600.491	85.38
600.7	85.38
600.909	97.38
601.118	88.38
601.327	88.38
601.536	92.38
601.745	84.38
601.953	97.38
602.162	101.38
602.371	100.38
602.58	92.38
602.789	104.38
602.997	87.38
603.206	100.38
603.415	93.38
603.623	87.38
603.832	97.38
604.041	90.38
604.249	79.38
604.458	96.38
604.666	85.38
604.875	88.38
605.084	95.38
605.292	93.38
605.501	97.38
605.709	98.38
605.918	98.38
606.126	91.38
606.334	93.38
606.543	87.38
606.751	89.38
606.96	88.38
607.168	90.38
607.376	99.38
607.585	91.38
607.793	98.38
608.001	96.38
608.21	91.38
608.418	96.38
608.626	92.38
608.834	90.38
609.043	85.38
609.251	87.38
609.459	96.38
609.667	104.38
609.875	94.38
610.083	102.38
610.291	90.38
610.499	102.38
610.707	113.38
610.916	89.38
611.124	102.38
611.332	99.38
611.54	95.38
611.748	94.38
611.955	97.38
612.163	93.38
612.371	88.38
612.579	93.38
612.787	108.38
612.995	97.38
613.203	96.38
613.411	92.38
613.618	95.38
613.826	96.38
614.034	100.38
614.242	77.38
614.449	103.38
614.657	96.38
614.865	107.38
615.072	84.38
615.28	92.38
615.488	91.38
615.695	97.38
615.903	81.38
616.111	99.38
616.318	94.38
616.526	94.38
616.733	98.38
616.941	105.38
617.148	94.38
617.356	103.38
617.563	90.38
617.771	93.38
617.978	89.38
618.185	74.38
618.393	85.38
618.6	98.38
618.807	82.38
619.015	90.38
619.222	95.38
619.429	111.38
619.637	88.38
619.844	99.38
620.051	97.38
620.258	98.38
620.466	86.38
620.673	102.38
620.88	82.38
621.087	88.38
621.294	96.38
621.501	96.38
621.708	93.38
621.915	101.38
622.122	91.38
622.329	97.38
622.536	94.38
622.743	91.38
622.95	94.38
623.157	84.38
623.364	96.38
623.571	96.38
623.778	88.38
623.985	91.38
624.192	89.38
624.399	110.38
624.606	111.38
624.812	101.38
625.019	94.38
625.226	105.38
625.433	93.38
625.639	88.38
625.846	87.38
626.053	84.38
626.259	92.38
626.466	92.38
626.673	76.38
626.879	93.38
627.086	93.38
627.293	78.38
627.499	83.38
627.706	81.38
627.912	87.38
628.119	95.38
628.325	95.38
628.532	96.38
628.738	85.38
628.945	90.38
629.151	96.38
629.357	101.38
629.564	93.38
629.77	104.38
629.976	91.38
630.183	80.38
630.389	77.38
630.595	101.38
630.802	90.38
631.008	95.38
631.214	85.38
631.42	94.38
631.627	105.38
631.833	83.38
632.039	95.38
632.245	99.38
632.451	102.38
632.657	90.38
632.863	88.38
633.069	87.38
633.275	85.38
633.481	78.38
633.688	83.38
633.893	84.38
634.099	96.38
634.305	99.38
634.511	98.38
634.717	80.38
634.923	111.38
635.129	98.38
635.335	78.38
635.541	82.38
635.747	89.38
635.952	92.38
636.158	99.38
636.364	81.38
636.57	99.38
636.775	82.38
636.981	79.38
637.187	95.38
637.392	94.38
637.598	99.38
637.804	87.38
638.009	89.38
638.215	99.38
638.421	89.38
638.626	94.38
638.832	91.38
639.037	79.38
639.243	87.38
639.448	77.38
639.654	86.38
639.859	87.38
640.065	91.38
640.27	96.38
640.475	90.38
640.681	83.38
640.886	88.38
641.091	89.38
641.297	87.38
641.502	95.38
641.707	91.38
641.913	92.38
642.118	93.38
642.323	92.38
642.528	97.38
642.733	84.38
642.939	89.38
643.144	97.38
643.349	101.38
643.554	79.38
643.759	93.38
643.964	81.38
644.169	82.38
644.374	91.38
644.579	95.38
644.784	92.38
644.989	79.38
645.194	86.38
645.399	105.38
645.604	99.38
645.809	94.38
646.014	76.38
646.219	87.38
646.423	91.38
646.628	93.38
646.833	80.38
647.038	87.38
647.243	92.38
647.447	84.38
647.652	89.38
647.857	80.38
648.062	77.38
648.266	89.38
648.471	92.38
648.676	99.38
648.88	84.38
649.085	83.38
649.289	79.38
649.494	92.38
649.698	90.38
649.903	91.38
650.107	101.38
650.312	86.38
650.516	97.38
650.721	81.38
650.925	97.38
651.13	77.38
651.334	85.38
651.539	82.38
651.743	83.38
651.947	87.38
652.152	91.38
652.356	105.38
652.56	86.38
652.764	84.38
652.969	90.38
653.173	84.38
653.377	80.38
653.581	96.38
653.785	83.38
653.99	87.38
654.194	98.38
654.398	92.38
654.602	71.38
654.806	94.38
655.01	85.38
655.214	90.38
655.418	86.38
655.622	103.38
655.826	86.38
656.03	81.38
656.234	89.38
656.438	79.38
656.642	69.38
656.846	76.38
657.049	71.38
657.253	84.38
657.457	85.38
657.661	84.38
657.865	76.38
658.068	75.38
658.272	91.38
658.476	89.38
658.68	89.38
658.883	88.38
659.087	77.38
659.291	87.38
659.494	85.38
659.698	89.38
659.901	90.38
660.105	76.38
660.309	77.38
660.512	88.38
660.716	85.38
660.919	86.38
661.123	99.38
661.326	84.38
661.53	85.38
661.733	83.38
661.936	93.38
662.14	81.38
662.343	97.38
662.546	88.38
662.75	76.38
662.953	95.38
663.156	86.38
663.36	75.38
663.563	90.38
663.766	74.38
663.969	88.38
664.173	86.38
664.376	87.38
664.579	83.38
664.782	70.38
664.985	60.38
665.188	87.38
665.391	82.38
665.594	77.38
665.797	85.38
666	92.38
666.203	77.38
666.406	77.38
666.609	88.38
666.812	78.38
667.015	82.38
667.218	88.38
667.421	92.38
667.624	76.38
667.827	81.38
668.03	83.38
668.232	76.38
668.435	86.38
668.638	81.38
668.841	81.38
669.043	84.38
669.246	91.38
669.449	93.38
669.651	81.38
669.854	75.38
670.057	90.38
670.259	76.38
670.462	87.38
670.665	83.38
670.867	78.38
671.07	82.38
671.272	85.38
671.475	91.38
671.677	80.38
671.88	86.38
672.082	87.38
672.284	85.38
672.487	77.38
672.689	92.38
672.892	79.38
