Data from Location3.07152019.Energy5.Lamp.07192019.3%Agarose_HRD10591_15-16-39-269.txt Node
Date: Fri Jul 19 15:16:39 EDT 2019
User: cochatt
Spectrometer: HR+D1059
Trigger mode: 1
Integration Time (sec): 1.000000E-1
Scans to average: 1
Electric dark correction enabled: true
Nonlinearity correction enabled: false
Boxcar width: 0
XAxis mode: Wavelengths
Number of Pixels in Spectrum: 2048
>>>>>Begin Spectral Data<<<<<
223.165	-22.94
223.4	-22.94
223.635	-22.94
223.869	-8.94
224.104	-18.94
224.338	-15.94
224.573	-12.94
224.808	1.06
225.042	-1.94
225.277	5.06
225.511	-2.94
225.746	0.06
225.98	12.06
226.215	4.06
226.449	-10.94
226.683	19.06
226.918	26.06
227.152	28.06
227.387	43.06
227.621	49.06
227.856	58.06
228.09	50.06
228.324	53.06
228.559	74.06
228.793	47.06
229.027	48.06
229.262	59.06
229.496	75.06
229.73	69.06
229.964	65.06
230.199	60.06
230.433	74.06
230.667	82.06
230.901	85.06
231.136	86.06
231.37	85.06
231.604	74.06
231.838	72.06
232.072	78.06
232.306	67.06
232.541	81.06
232.775	87.06
233.009	92.06
233.243	67.06
233.477	86.06
233.711	91.06
233.945	95.06
234.179	96.06
234.413	91.06
234.647	94.06
234.881	77.06
235.115	92.06
235.349	90.06
235.583	90.06
235.817	92.06
236.051	81.06
236.285	77.06
236.519	64.06
236.753	84.06
236.987	83.06
237.221	74.06
237.455	74.06
237.689	72.06
237.922	76.06
238.156	83.06
238.39	63.06
238.624	82.06
238.858	93.06
239.091	88.06
239.325	78.06
239.559	81.06
239.793	74.06
240.027	90.06
240.26	93.06
240.494	77.06
240.728	81.06
240.961	85.06
241.195	85.06
241.429	81.06
241.662	75.06
241.896	83.06
242.13	77.06
242.363	80.06
242.597	77.06
242.83	70.06
243.064	81.06
243.298	80.06
243.531	71.06
243.765	72.06
243.998	79.06
244.232	84.06
244.465	74.06
244.699	88.06
244.932	81.06
245.166	84.06
245.399	93.06
245.633	92.06
245.866	89.06
246.099	81.06
246.333	83.06
246.566	83.06
246.8	77.06
247.033	76.06
247.266	96.06
247.5	73.06
247.733	83.06
247.966	64.06
248.2	91.06
248.433	81.06
248.666	89.06
248.899	82.06
249.133	79.06
249.366	92.06
249.599	80.06
249.832	78.06
250.066	102.06
250.299	77.06
250.532	75.06
250.765	90.06
250.998	94.06
251.231	97.06
251.465	90.06
251.698	86.06
251.931	79.06
252.164	81.06
252.397	93.06
252.63	88.06
252.863	85.06
253.096	77.06
253.329	86.06
253.562	82.06
253.795	76.06
254.028	75.06
254.261	83.06
254.494	88.06
254.727	92.06
254.96	90.06
255.193	75.06
255.426	85.06
255.659	84.06
255.892	79.06
256.124	80.06
256.357	78.06
256.59	81.06
256.823	85.06
257.056	82.06
257.289	83.06
257.521	90.06
257.754	76.06
257.987	94.06
258.22	99.06
258.452	76.06
258.685	82.06
258.918	73.06
259.151	76.06
259.383	90.06
259.616	75.06
259.849	87.06
260.081	82.06
260.314	85.06
260.547	88.06
260.779	85.06
261.012	89.06
261.244	86.06
261.477	88.06
261.71	77.06
261.942	82.06
262.175	91.06
262.407	93.06
262.64	93.06
262.872	83.06
263.105	87.06
263.337	84.06
263.57	84.06
263.802	90.06
264.035	82.06
264.267	89.06
264.499	88.06
264.732	82.06
264.964	69.06
265.197	86.06
265.429	92.06
265.661	82.06
265.894	87.06
266.126	78.06
266.358	81.06
266.591	92.06
266.823	78.06
267.055	78.06
267.287	86.06
267.52	86.06
267.752	84.06
267.984	87.06
268.216	98.06
268.448	85.06
268.681	87.06
268.913	93.06
269.145	70.06
269.377	86.06
269.609	74.06
269.841	78.06
270.073	76.06
270.306	85.06
270.538	92.06
270.77	82.06
271.002	99.06
271.234	88.06
271.466	90.06
271.698	84.06
271.93	81.06
272.162	91.06
272.394	82.06
272.626	95.06
272.858	98.06
273.09	81.06
273.322	78.06
273.553	82.06
273.785	82.06
274.017	87.06
274.249	93.06
274.481	64.06
274.713	99.06
274.945	73.06
275.176	95.06
275.408	86.06
275.64	96.06
275.872	74.06
276.104	83.06
276.335	97.06
276.567	84.06
276.799	76.06
277.031	91.06
277.262	81.06
277.494	84.06
277.726	90.06
277.957	80.06
278.189	74.06
278.421	82.06
278.652	78.06
278.884	80.06
279.115	72.06
279.347	95.06
279.579	81.06
279.81	77.06
280.042	85.06
280.273	87.06
280.505	89.06
280.736	85.06
280.968	82.06
281.199	76.06
281.431	78.06
281.662	70.06
281.894	73.06
282.125	80.06
282.356	91.06
282.588	103.06
282.819	87.06
283.051	92.06
283.282	84.06
283.513	75.06
283.745	93.06
283.976	74.06
284.207	80.06
284.439	91.06
284.67	75.06
284.901	87.06
285.132	68.06
285.364	88.06
285.595	89.06
285.826	77.06
286.057	88.06
286.288	90.06
286.52	84.06
286.751	82.06
286.982	79.06
287.213	74.06
287.444	89.06
287.675	77.06
287.906	86.06
288.138	71.06
288.369	86.06
288.6	87.06
288.831	96.06
289.062	92.06
289.293	86.06
289.524	85.06
289.755	112.06
289.986	93.06
290.217	73.06
290.448	79.06
290.679	70.06
290.91	97.06
291.141	78.06
291.371	97.06
291.602	80.06
291.833	82.06
292.064	90.06
292.295	85.06
292.526	84.06
292.757	89.06
292.987	76.06
293.218	82.06
293.449	80.06
293.68	88.06
293.91	82.06
294.141	92.06
294.372	86.06
294.603	103.06
294.833	90.06
295.064	87.06
295.295	105.06
295.525	82.06
295.756	83.06
295.987	91.06
296.217	78.06
296.448	88.06
296.679	89.06
296.909	102.06
297.14	85.06
297.37	88.06
297.601	92.06
297.831	83.06
298.062	85.06
298.292	94.06
298.523	88.06
298.753	71.06
298.984	97.06
299.214	91.06
299.445	98.06
299.675	73.06
299.905	84.06
300.136	82.06
300.366	87.06
300.597	80.06
300.827	89.06
301.057	76.06
301.288	100.06
301.518	74.06
301.748	77.06
301.979	97.06
302.209	92.06
302.439	86.06
302.669	98.06
302.9	79.06
303.13	84.06
303.36	84.06
303.59	93.06
303.82	91.06
304.051	84.06
304.281	74.06
304.511	109.06
304.741	85.06
304.971	73.06
305.201	85.06
305.431	94.06
305.661	93.06
305.891	91.06
306.121	96.06
306.352	80.06
306.582	86.06
306.812	85.06
307.042	86.06
307.272	92.06
307.502	76.06
307.731	83.06
307.961	83.06
308.191	81.06
308.421	86.06
308.651	85.06
308.881	92.06
309.111	85.06
309.341	87.06
309.571	75.06
309.8	85.06
310.03	79.06
310.26	73.06
310.49	82.06
310.72	79.06
310.949	74.06
311.179	85.06
311.409	83.06
311.639	79.06
311.868	103.06
312.098	90.06
312.328	77.06
312.557	92.06
312.787	83.06
313.017	90.06
313.246	96.06
313.476	79.06
313.706	94.06
313.935	93.06
314.165	91.06
314.394	85.06
314.624	92.06
314.853	96.06
315.083	82.06
315.312	72.06
315.542	85.06
315.771	101.06
316.001	84.06
316.23	79.06
316.46	79.06
316.689	83.06
316.919	96.06
317.148	102.06
317.377	74.06
317.607	84.06
317.836	82.06
318.065	91.06
318.295	87.06
318.524	91.06
318.753	96.06
318.983	97.06
319.212	101.06
319.441	94.06
319.67	93.06
319.9	93.06
320.129	103.06
320.358	84.06
320.587	90.06
320.816	95.06
321.046	77.06
321.275	91.06
321.504	94.06
321.733	84.06
321.962	86.06
322.191	90.06
322.42	85.06
322.649	87.06
322.878	87.06
323.108	75.06
323.337	74.06
323.566	61.06
323.795	87.06
324.024	89.06
324.253	96.06
324.482	78.06
324.71	83.06
324.939	92.06
325.168	95.06
325.397	102.06
325.626	85.06
325.855	82.06
326.084	82.06
326.313	79.06
326.542	79.06
326.77	92.06
326.999	81.06
327.228	87.06
327.457	89.06
327.686	82.06
327.914	95.06
328.143	93.06
328.372	80.06
328.6	96.06
328.829	100.06
329.058	79.06
329.287	97.06
329.515	82.06
329.744	88.06
329.972	84.06
330.201	84.06
330.43	92.06
330.658	90.06
330.887	80.06
331.115	80.06
331.344	72.06
331.572	91.06
331.801	71.06
332.03	93.06
332.258	93.06
332.486	81.06
332.715	79.06
332.943	81.06
333.172	91.06
333.4	88.06
333.629	93.06
333.857	96.06
334.085	83.06
334.314	77.06
334.542	96.06
334.771	84.06
334.999	91.06
335.227	76.06
335.455	97.06
335.684	85.06
335.912	83.06
336.14	78.06
336.369	85.06
336.597	84.06
336.825	96.06
337.053	89.06
337.281	85.06
337.51	89.06
337.738	92.06
337.966	86.06
338.194	79.06
338.422	102.06
338.65	92.06
338.878	93.06
339.106	77.06
339.334	88.06
339.562	78.06
339.79	78.06
340.018	74.06
340.246	91.06
340.474	82.06
340.702	66.06
340.93	84.06
341.158	82.06
341.386	90.06
341.614	103.06
341.842	87.06
342.07	71.06
342.298	81.06
342.526	80.06
342.754	88.06
342.981	86.06
343.209	82.06
343.437	102.06
343.665	93.06
343.893	85.06
344.12	91.06
344.348	93.06
344.576	89.06
344.804	76.06
345.031	74.06
345.259	88.06
345.487	86.06
345.714	85.06
345.942	84.06
346.17	90.06
346.397	74.06
346.625	79.06
346.853	83.06
347.08	83.06
347.308	92.06
347.535	75.06
347.763	86.06
347.99	86.06
348.218	89.06
348.445	76.06
348.673	88.06
348.9	77.06
349.128	91.06
349.355	78.06
349.583	86.06
349.81	78.06
350.037	91.06
350.265	74.06
350.492	86.06
350.72	74.06
350.947	94.06
351.174	82.06
351.402	87.06
351.629	84.06
351.856	81.06
352.083	87.06
352.311	92.06
352.538	85.06
352.765	86.06
352.992	89.06
353.22	83.06
353.447	93.06
353.674	92.06
353.901	91.06
354.128	81.06
354.355	91.06
354.583	83.06
354.81	85.06
355.037	91.06
355.264	84.06
355.491	79.06
355.718	76.06
355.945	87.06
356.172	70.06
356.399	83.06
356.626	86.06
356.853	87.06
357.08	97.06
357.307	103.06
357.534	95.06
357.761	99.06
357.988	76.06
358.215	96.06
358.441	82.06
358.668	84.06
358.895	89.06
359.122	89.06
359.349	99.06
359.576	96.06
359.802	91.06
360.029	68.06
360.256	67.06
360.483	88.06
360.709	85.06
360.936	91.06
361.163	85.06
361.39	88.06
361.616	87.06
361.843	80.06
362.07	81.06
362.296	76.06
362.523	98.06
362.749	75.06
362.976	89.06
363.203	97.06
363.429	88.06
363.656	85.06
363.882	71.06
364.109	73.06
364.335	93.06
364.562	76.06
364.788	100.06
365.015	88.06
365.241	91.06
365.468	82.06
365.694	71.06
365.92	97.06
366.147	86.06
366.373	92.06
366.599	83.06
366.826	86.06
367.052	76.06
367.278	78.06
367.505	75.06
367.731	85.06
367.957	88.06
368.184	92.06
368.41	89.06
368.636	78.06
368.862	99.06
369.089	63.06
369.315	78.06
369.541	97.06
369.767	77.06
369.993	93.06
370.219	83.06
370.445	83.06
370.672	76.06
370.898	88.06
371.124	88.06
371.35	65.06
371.576	68.06
371.802	57.06
372.028	99.06
372.254	96.06
372.48	87.06
372.706	83.06
372.932	82.06
373.158	82.06
373.384	94.06
373.61	90.06
373.835	91.06
374.061	99.06
374.287	91.06
374.513	92.06
374.739	96.06
374.965	93.06
375.191	92.06
375.416	95.06
375.642	78.06
375.868	79.06
376.094	96.06
376.319	78.06
376.545	90.06
376.771	91.06
376.997	89.06
377.222	78.06
377.448	86.06
377.674	93.06
377.899	96.06
378.125	65.06
378.35	94.06
378.576	84.06
378.802	92.06
379.027	78.06
379.253	87.06
379.478	102.06
379.704	76.06
379.929	74.06
380.155	92.06
380.38	81.06
380.606	98.06
380.831	90.06
381.057	89.06
381.282	84.06
381.507	74.06
381.733	90.06
381.958	90.06
382.184	91.06
382.409	89.06
382.634	102.06
382.86	90.06
383.085	75.06
383.31	99.06
383.535	90.06
383.761	102.06
383.986	94.06
384.211	89.06
384.436	101.06
384.662	92.06
384.887	86.06
385.112	90.06
385.337	89.06
385.562	76.06
385.787	90.06
386.013	91.06
386.238	77.06
386.463	92.06
386.688	74.06
386.913	92.06
387.138	80.06
387.363	80.06
387.588	87.06
387.813	93.06
388.038	83.06
388.263	79.06
388.488	97.06
388.713	91.06
388.938	88.06
389.163	83.06
389.387	98.06
389.612	89.06
389.837	89.06
390.062	80.06
390.287	104.06
390.512	93.06
390.736	97.06
390.961	92.06
391.186	93.06
391.411	84.06
391.636	92.06
391.86	90.06
392.085	97.06
392.31	77.06
392.534	85.06
392.759	89.06
392.984	91.06
393.208	84.06
393.433	98.06
393.658	89.06
393.882	84.06
394.107	80.06
394.331	90.06
394.556	70.06
394.78	82.06
395.005	93.06
395.229	90.06
395.454	93.06
395.678	85.06
395.903	89.06
396.127	98.06
396.352	89.06
396.576	92.06
396.801	94.06
397.025	82.06
397.249	99.06
397.474	90.06
397.698	95.06
397.922	69.06
398.147	94.06
398.371	77.06
398.595	101.06
398.82	101.06
399.044	98.06
399.268	94.06
399.492	87.06
399.717	98.06
399.941	108.06
400.165	88.06
400.389	97.06
400.613	92.06
400.837	84.06
401.062	96.06
401.286	95.06
401.51	90.06
401.734	101.06
401.958	85.06
402.182	95.06
402.406	94.06
402.63	87.06
402.854	93.06
403.078	90.06
403.302	95.06
403.526	82.06
403.75	105.06
403.974	86.06
404.198	95.06
404.422	104.06
404.645	93.06
404.869	84.06
405.093	96.06
405.317	89.06
405.541	94.06
405.765	98.06
405.988	84.06
406.212	109.06
406.436	95.06
406.66	76.06
406.883	84.06
407.107	106.06
407.331	104.06
407.555	103.06
407.778	93.06
408.002	94.06
408.226	91.06
408.449	92.06
408.673	86.06
408.896	95.06
409.12	89.06
409.344	82.06
409.567	89.06
409.791	89.06
410.014	91.06
410.238	98.06
410.461	107.06
410.685	102.06
410.908	88.06
411.132	93.06
411.355	98.06
411.578	110.06
411.802	69.06
412.025	85.06
412.249	80.06
412.472	93.06
412.695	86.06
412.919	100.06
413.142	99.06
413.365	99.06
413.589	107.06
413.812	90.06
414.035	92.06
414.258	81.06
414.482	91.06
414.705	98.06
414.928	80.06
415.151	103.06
415.374	83.06
415.597	87.06
415.821	106.06
416.044	92.06
416.267	94.06
416.49	94.06
416.713	88.06
416.936	95.06
417.159	96.06
417.382	108.06
417.605	98.06
417.828	94.06
418.051	104.06
418.274	98.06
418.497	114.06
418.72	107.06
418.943	104.06
419.166	98.06
419.389	101.06
419.611	98.06
419.834	112.06
420.057	93.06
420.28	99.06
420.503	100.06
420.726	100.06
420.948	85.06
421.171	93.06
421.394	112.06
421.617	102.06
421.839	106.06
422.062	100.06
422.285	101.06
422.507	97.06
422.73	86.06
422.953	99.06
423.175	107.06
423.398	89.06
423.621	98.06
423.843	96.06
424.066	113.06
424.288	114.06
424.511	89.06
424.733	102.06
424.956	96.06
425.178	85.06
425.401	110.06
425.623	93.06
425.846	104.06
426.068	96.06
426.291	100.06
426.513	93.06
426.735	104.06
426.958	94.06
427.18	82.06
427.402	104.06
427.625	84.06
427.847	96.06
428.069	98.06
428.292	105.06
428.514	96.06
428.736	109.06
428.958	102.06
429.181	97.06
429.403	108.06
429.625	84.06
429.847	90.06
430.069	93.06
430.292	101.06
430.514	98.06
430.736	86.06
430.958	90.06
431.18	88.06
431.402	95.06
431.624	82.06
431.846	99.06
432.068	93.06
432.29	78.06
432.512	81.06
432.734	108.06
432.956	107.06
433.178	105.06
433.4	97.06
433.622	89.06
433.844	91.06
434.066	84.06
434.287	89.06
434.509	88.06
434.731	78.06
434.953	84.06
435.175	87.06
435.397	95.06
435.618	102.06
435.84	88.06
436.062	75.06
436.284	105.06
436.505	86.06
436.727	97.06
436.949	79.06
437.17	103.06
437.392	84.06
437.614	105.06
437.835	85.06
438.057	86.06
438.278	87.06
438.5	90.06
438.721	107.06
438.943	105.06
439.165	96.06
439.386	91.06
439.608	109.06
439.829	92.06
440.05	106.06
440.272	108.06
440.493	108.06
440.715	90.06
440.936	97.06
441.158	98.06
441.379	85.06
441.6	103.06
441.822	101.06
442.043	103.06
442.264	94.06
442.486	101.06
442.707	99.06
442.928	84.06
443.149	103.06
443.371	102.06
443.592	87.06
443.813	99.06
444.034	94.06
444.255	90.06
444.476	90.06
444.698	95.06
444.919	95.06
445.14	182.06
445.361	123.06
445.582	105.06
445.803	112.06
446.024	88.06
446.245	96.06
446.466	110.06
446.687	103.06
446.908	102.06
447.129	106.06
447.35	109.06
447.571	96.06
447.792	100.06
448.013	98.06
448.234	97.06
448.455	101.06
448.675	97.06
448.896	104.06
449.117	109.06
449.338	94.06
449.559	116.06
449.779	109.06
450	96.06
450.221	89.06
450.442	102.06
450.662	102.06
450.883	88.06
451.104	84.06
451.324	80.06
451.545	104.06
451.766	97.06
451.986	99.06
452.207	91.06
452.428	101.06
452.648	95.06
452.869	87.06
453.089	100.06
453.31	97.06
453.53	84.06
453.751	88.06
453.971	112.06
454.192	93.06
454.412	93.06
454.633	105.06
454.853	91.06
455.073	85.06
455.294	95.06
455.514	99.06
455.734	85.06
455.955	105.06
456.175	105.06
456.395	89.06
456.616	88.06
456.836	71.06
457.056	101.06
457.276	94.06
457.497	97.06
457.717	89.06
457.937	97.06
458.157	89.06
458.377	87.06
458.598	103.06
458.818	89.06
459.038	92.06
459.258	75.06
459.478	86.06
459.698	86.06
459.918	85.06
460.138	104.06
460.358	97.06
460.578	82.06
460.798	74.06
461.018	86.06
461.238	91.06
461.458	88.06
461.678	88.06
461.898	91.06
462.118	93.06
462.338	89.06
462.558	103.06
462.777	84.06
462.997	98.06
463.217	96.06
463.437	89.06
463.657	98.06
463.876	89.06
464.096	92.06
464.316	82.06
464.536	80.06
464.755	85.06
464.975	95.06
465.195	102.06
465.414	81.06
465.634	92.06
465.854	101.06
466.073	100.06
466.293	100.06
466.512	83.06
466.732	90.06
466.951	109.06
467.171	84.06
467.391	88.06
467.61	91.06
467.829	108.06
468.049	98.06
468.268	100.06
468.488	95.06
468.707	98.06
468.927	98.06
469.146	97.06
469.365	98.06
469.585	110.06
469.804	105.06
470.023	116.06
470.243	89.06
470.462	107.06
470.681	113.06
470.901	103.06
471.12	105.06
471.339	86.06
471.558	101.06
471.777	106.06
471.997	104.06
472.216	105.06
472.435	94.06
472.654	99.06
472.873	99.06
473.092	89.06
473.311	104.06
473.53	112.06
473.749	106.06
473.968	95.06
474.187	90.06
474.406	98.06
474.625	105.06
474.844	101.06
475.063	99.06
475.282	102.06
475.501	77.06
475.72	98.06
475.939	92.06
476.158	103.06
476.377	93.06
476.596	95.06
476.814	90.06
477.033	94.06
477.252	103.06
477.471	108.06
477.69	93.06
477.908	92.06
478.127	109.06
478.346	114.06
478.564	104.06
478.783	104.06
479.002	106.06
479.22	92.06
479.439	92.06
479.658	87.06
479.876	83.06
480.095	87.06
480.313	97.06
480.532	89.06
480.751	85.06
480.969	89.06
481.188	86.06
481.406	89.06
481.624	85.06
481.843	80.06
482.061	86.06
482.28	102.06
482.498	97.06
482.717	101.06
482.935	92.06
483.153	100.06
483.372	112.06
483.59	109.06
483.808	102.06
484.027	89.06
484.245	112.06
484.463	128.06
484.681	105.06
484.9	100.06
485.118	108.06
485.336	99.06
485.554	87.06
485.772	97.06
485.99	85.06
486.209	88.06
486.427	88.06
486.645	77.06
486.863	92.06
487.081	96.06
487.299	101.06
487.517	118.06
487.735	108.06
487.953	113.06
488.171	109.06
488.389	98.06
488.607	116.06
488.825	99.06
489.043	89.06
489.261	104.06
489.479	92.06
489.696	112.06
489.914	109.06
490.132	89.06
490.35	113.06
490.568	112.06
490.786	99.06
491.003	101.06
491.221	113.06
491.439	126.06
491.657	122.06
491.874	114.06
492.092	136.06
492.31	127.06
492.527	143.06
492.745	125.06
492.963	127.06
493.18	121.06
493.398	114.06
493.615	115.06
493.833	118.06
494.05	122.06
494.268	101.06
494.485	104.06
494.703	112.06
494.92	120.06
495.138	114.06
495.355	101.06
495.573	96.06
495.79	105.06
496.008	110.06
496.225	98.06
496.442	102.06
496.66	114.06
496.877	109.06
497.094	111.06
497.312	103.06
497.529	107.06
497.746	99.06
497.963	100.06
498.181	103.06
498.398	105.06
498.615	94.06
498.832	89.06
499.049	80.06
499.267	99.06
499.484	104.06
499.701	91.06
499.918	104.06
500.135	104.06
500.352	108.06
500.569	105.06
500.786	105.06
501.003	92.06
501.22	119.06
501.437	109.06
501.654	104.06
501.871	103.06
502.088	101.06
502.305	113.06
502.522	102.06
502.739	97.06
502.956	101.06
503.172	91.06
503.389	92.06
503.606	99.06
503.823	105.06
504.04	103.06
504.256	100.06
504.473	100.06
504.69	98.06
504.907	106.06
505.123	100.06
505.34	86.06
505.557	100.06
505.773	93.06
505.99	93.06
506.207	101.06
506.423	88.06
506.64	100.06
506.856	95.06
507.073	83.06
507.289	83.06
507.506	89.06
507.722	115.06
507.939	92.06
508.155	96.06
508.372	92.06
508.588	92.06
508.805	83.06
509.021	97.06
509.238	90.06
509.454	86.06
509.67	91.06
509.887	87.06
510.103	99.06
510.319	87.06
510.536	90.06
510.752	86.06
510.968	83.06
511.184	88.06
511.401	78.06
511.617	83.06
511.833	80.06
512.049	89.06
512.265	82.06
512.481	101.06
512.698	89.06
512.914	95.06
513.13	92.06
513.346	85.06
513.562	88.06
513.778	94.06
513.994	83.06
514.21	77.06
514.426	99.06
514.642	84.06
514.858	81.06
515.074	84.06
515.29	70.06
515.506	75.06
515.721	88.06
515.937	81.06
516.153	90.06
516.369	80.06
516.585	93.06
516.801	93.06
517.016	86.06
517.232	79.06
517.448	84.06
517.664	84.06
517.879	78.06
518.095	106.06
518.311	85.06
518.527	95.06
518.742	77.06
518.958	89.06
519.173	90.06
519.389	88.06
519.605	94.06
519.82	91.06
520.036	99.06
520.251	70.06
520.467	78.06
520.682	82.06
520.898	97.06
521.113	83.06
521.329	89.06
521.544	94.06
521.76	97.06
521.975	92.06
522.19	93.06
522.406	84.06
522.621	92.06
522.836	81.06
523.052	96.06
523.267	100.06
523.482	83.06
523.698	92.06
523.913	104.06
524.128	86.06
524.343	90.06
524.559	105.06
524.774	109.06
524.989	94.06
525.204	92.06
525.419	102.06
525.634	112.06
525.849	103.06
526.064	97.06
526.28	116.06
526.495	87.06
526.71	92.06
526.925	91.06
527.14	87.06
527.355	86.06
527.57	77.06
527.785	84.06
527.999	96.06
528.214	116.06
528.429	112.06
528.644	107.06
528.859	93.06
529.074	95.06
529.289	94.06
529.503	110.06
529.718	89.06
529.933	90.06
530.148	84.06
530.363	83.06
530.577	95.06
530.792	89.06
531.007	86.06
531.221	86.06
531.436	84.06
531.651	92.06
531.865	96.06
532.08	81.06
532.295	92.06
532.509	82.06
532.724	100.06
532.938	85.06
533.153	86.06
533.367	95.06
533.582	105.06
533.796	86.06
534.011	92.06
534.225	91.06
534.44	80.06
534.654	94.06
534.868	81.06
535.083	85.06
535.297	92.06
535.511	67.06
535.726	90.06
535.94	93.06
536.154	91.06
536.369	78.06
536.583	95.06
536.797	98.06
537.011	92.06
537.225	77.06
537.44	70.06
537.654	94.06
537.868	108.06
538.082	93.06
538.296	92.06
538.51	91.06
538.724	100.06
538.938	101.06
539.153	105.06
539.367	107.06
539.581	92.06
539.795	88.06
540.009	106.06
540.222	106.06
540.436	90.06
540.65	97.06
540.864	105.06
541.078	115.06
541.292	106.06
541.506	116.06
541.72	124.06
541.934	129.06
542.147	130.06
542.361	118.06
542.575	97.06
542.789	98.06
543.002	108.06
543.216	99.06
543.43	103.06
543.644	91.06
543.857	106.06
544.071	97.06
544.285	112.06
544.498	108.06
544.712	97.06
544.925	102.06
545.139	124.06
545.352	117.06
545.566	94.06
545.779	106.06
545.993	111.06
546.206	97.06
546.42	112.06
546.633	117.06
546.847	117.06
547.06	120.06
547.274	109.06
547.487	116.06
547.7	109.06
547.914	107.06
548.127	105.06
548.34	125.06
548.554	113.06
548.767	116.06
548.98	114.06
549.193	100.06
549.407	116.06
549.62	96.06
549.833	116.06
550.046	102.06
550.259	106.06
550.473	115.06
550.686	105.06
550.899	98.06
551.112	101.06
551.325	105.06
551.538	100.06
551.751	100.06
551.964	101.06
552.177	98.06
552.39	108.06
552.603	106.06
552.816	109.06
553.029	113.06
553.242	103.06
553.455	117.06
553.667	101.06
553.88	101.06
554.093	107.06
554.306	109.06
554.519	110.06
554.732	102.06
554.944	113.06
555.157	107.06
555.37	104.06
555.583	112.06
555.795	108.06
556.008	93.06
556.221	103.06
556.433	97.06
556.646	99.06
556.859	104.06
557.071	114.06
557.284	110.06
557.496	97.06
557.709	118.06
557.921	100.06
558.134	110.06
558.346	98.06
558.559	91.06
558.771	103.06
558.984	106.06
559.196	89.06
559.409	102.06
559.621	101.06
559.833	107.06
560.046	93.06
560.258	105.06
560.47	107.06
560.683	91.06
560.895	84.06
561.107	105.06
561.32	88.06
561.532	109.06
561.744	112.06
561.956	96.06
562.168	100.06
562.381	105.06
562.593	114.06
562.805	114.06
563.017	87.06
563.229	91.06
563.441	90.06
563.653	110.06
563.865	100.06
564.077	97.06
564.289	98.06
564.501	89.06
564.713	106.06
564.925	90.06
565.137	105.06
565.349	95.06
565.561	85.06
565.773	98.06
565.985	97.06
566.197	103.06
566.408	99.06
566.62	94.06
566.832	97.06
567.044	102.06
567.255	93.06
567.467	97.06
567.679	88.06
567.891	89.06
568.102	100.06
568.314	89.06
568.526	85.06
568.737	90.06
568.949	84.06
569.161	99.06
569.372	97.06
569.584	93.06
569.795	88.06
570.007	91.06
570.218	70.06
570.43	92.06
570.641	101.06
570.853	84.06
571.064	78.06
571.276	82.06
571.487	86.06
571.698	103.06
571.91	88.06
572.121	94.06
572.333	91.06
572.544	88.06
572.755	84.06
572.966	83.06
573.178	88.06
573.389	77.06
573.6	93.06
573.811	93.06
574.023	83.06
574.234	83.06
574.445	97.06
574.656	102.06
574.867	96.06
575.078	93.06
575.289	90.06
575.501	94.06
575.712	85.06
575.923	92.06
576.134	85.06
576.345	85.06
576.556	97.06
576.767	93.06
576.978	100.06
577.188	93.06
577.399	89.06
577.61	84.06
577.821	96.06
578.032	84.06
578.243	97.06
578.454	90.06
578.665	96.06
578.875	109.06
579.086	86.06
579.297	75.06
579.508	82.06
579.718	89.06
579.929	90.06
580.14	84.06
580.35	95.06
580.561	84.06
580.772	92.06
580.982	89.06
581.193	94.06
581.403	90.06
581.614	92.06
581.825	84.06
582.035	77.06
582.246	82.06
582.456	72.06
582.667	90.06
582.877	91.06
583.087	86.06
583.298	84.06
583.508	93.06
583.719	97.06
583.929	86.06
584.139	84.06
584.35	78.06
584.56	92.06
584.77	89.06
584.981	79.06
585.191	69.06
585.401	90.06
585.611	85.06
585.821	88.06
586.032	76.06
586.242	96.06
586.452	68.06
586.662	84.06
586.872	96.06
587.082	89.06
587.292	85.06
587.502	83.06
587.713	91.06
587.923	94.06
588.133	84.06
588.343	99.06
588.553	77.06
588.762	93.06
588.972	88.06
589.182	79.06
589.392	94.06
589.602	83.06
589.812	86.06
590.022	90.06
590.232	93.06
590.441	86.06
590.651	96.06
590.861	94.06
591.071	93.06
591.281	83.06
591.49	92.06
591.7	92.06
591.91	98.06
592.119	91.06
592.329	74.06
592.539	98.06
592.748	92.06
592.958	95.06
593.167	91.06
593.377	88.06
593.587	84.06
593.796	96.06
594.006	83.06
594.215	80.06
594.424	76.06
594.634	92.06
594.843	88.06
595.053	96.06
595.262	96.06
595.472	82.06
595.681	80.06
595.89	81.06
596.1	89.06
596.309	95.06
596.518	88.06
596.727	109.06
596.937	89.06
597.146	82.06
597.355	95.06
597.564	94.06
597.774	83.06
597.983	94.06
598.192	89.06
598.401	83.06
598.61	93.06
598.819	86.06
599.028	91.06
599.237	99.06
599.446	101.06
599.655	80.06
599.864	93.06
600.073	95.06
600.282	92.06
600.491	100.06
600.7	96.06
600.909	80.06
601.118	101.06
601.327	102.06
601.536	97.06
601.745	106.06
601.953	92.06
602.162	89.06
602.371	87.06
602.58	97.06
602.789	93.06
602.997	89.06
603.206	92.06
603.415	99.06
603.623	97.06
603.832	97.06
604.041	88.06
604.249	84.06
604.458	88.06
604.666	105.06
604.875	91.06
605.084	90.06
605.292	87.06
605.501	89.06
605.709	98.06
605.918	96.06
606.126	95.06
606.334	89.06
606.543	102.06
606.751	102.06
606.96	109.06
607.168	97.06
607.376	103.06
607.585	100.06
607.793	97.06
608.001	101.06
608.21	91.06
608.418	79.06
608.626	90.06
608.834	98.06
609.043	99.06
609.251	107.06
609.459	93.06
609.667	100.06
609.875	80.06
610.083	93.06
610.291	93.06
610.499	108.06
610.707	87.06
610.916	82.06
611.124	86.06
611.332	92.06
611.54	98.06
611.748	89.06
611.955	104.06
612.163	106.06
612.371	97.06
612.579	86.06
612.787	99.06
612.995	101.06
613.203	101.06
613.411	96.06
613.618	109.06
613.826	113.06
614.034	102.06
614.242	100.06
614.449	106.06
614.657	96.06
614.865	98.06
615.072	99.06
615.28	98.06
615.488	101.06
615.695	93.06
615.903	90.06
616.111	113.06
616.318	100.06
616.526	92.06
616.733	102.06
616.941	96.06
617.148	95.06
617.356	101.06
617.563	105.06
617.771	109.06
617.978	94.06
618.185	115.06
618.393	94.06
618.6	88.06
618.807	88.06
619.015	99.06
619.222	95.06
619.429	96.06
619.637	91.06
619.844	85.06
620.051	84.06
620.258	93.06
620.466	109.06
620.673	95.06
620.88	88.06
621.087	99.06
621.294	93.06
621.501	88.06
621.708	78.06
621.915	87.06
622.122	84.06
622.329	93.06
622.536	96.06
622.743	82.06
622.95	102.06
623.157	100.06
623.364	98.06
623.571	84.06
623.778	100.06
623.985	113.06
624.192	104.06
624.399	80.06
624.606	94.06
624.812	96.06
625.019	97.06
625.226	96.06
625.433	87.06
625.639	88.06
625.846	84.06
626.053	88.06
626.259	90.06
626.466	93.06
626.673	90.06
626.879	65.06
627.086	101.06
627.293	99.06
627.499	99.06
627.706	71.06
627.912	98.06
628.119	85.06
628.325	106.06
628.532	95.06
628.738	82.06
628.945	97.06
629.151	89.06
629.357	98.06
629.564	101.06
629.77	94.06
629.976	92.06
630.183	84.06
630.389	94.06
630.595	99.06
630.802	98.06
631.008	91.06
631.214	95.06
631.42	85.06
631.627	90.06
631.833	102.06
632.039	91.06
632.245	89.06
632.451	84.06
632.657	81.06
632.863	91.06
633.069	86.06
633.275	86.06
633.481	93.06
633.688	81.06
633.893	101.06
634.099	87.06
634.305	90.06
634.511	95.06
634.717	94.06
634.923	95.06
635.129	72.06
635.335	94.06
635.541	91.06
635.747	89.06
635.952	106.06
636.158	95.06
636.364	91.06
636.57	103.06
636.775	92.06
636.981	85.06
637.187	82.06
637.392	93.06
637.598	91.06
637.804	91.06
638.009	101.06
638.215	74.06
638.421	81.06
638.626	76.06
638.832	79.06
639.037	82.06
639.243	105.06
639.448	82.06
639.654	98.06
639.859	80.06
640.065	78.06
640.27	98.06
640.475	86.06
640.681	90.06
640.886	90.06
641.091	79.06
641.297	76.06
641.502	89.06
641.707	94.06
641.913	89.06
642.118	95.06
642.323	91.06
642.528	93.06
642.733	96.06
642.939	88.06
643.144	100.06
643.349	104.06
643.554	85.06
643.759	89.06
643.964	98.06
644.169	99.06
644.374	103.06
644.579	85.06
644.784	102.06
644.989	100.06
645.194	105.06
645.399	96.06
645.604	91.06
645.809	93.06
646.014	89.06
646.219	96.06
646.423	89.06
646.628	84.06
646.833	96.06
647.038	82.06
647.243	98.06
647.447	99.06
647.652	89.06
647.857	84.06
648.062	88.06
648.266	87.06
648.471	96.06
648.676	67.06
648.88	90.06
649.085	72.06
649.289	98.06
649.494	99.06
649.698	88.06
649.903	94.06
650.107	91.06
650.312	92.06
650.516	101.06
650.721	91.06
650.925	92.06
651.13	82.06
651.334	90.06
651.539	99.06
651.743	69.06
651.947	101.06
652.152	97.06
652.356	92.06
652.56	85.06
652.764	83.06
652.969	81.06
653.173	94.06
653.377	76.06
653.581	98.06
653.785	82.06
653.99	81.06
654.194	104.06
654.398	84.06
654.602	83.06
654.806	76.06
655.01	91.06
655.214	74.06
655.418	84.06
655.622	87.06
655.826	74.06
656.03	85.06
656.234	86.06
656.438	95.06
656.642	72.06
656.846	88.06
657.049	76.06
657.253	82.06
657.457	85.06
657.661	78.06
657.865	93.06
658.068	84.06
658.272	95.06
658.476	95.06
658.68	75.06
658.883	87.06
659.087	104.06
659.291	85.06
659.494	84.06
659.698	98.06
659.901	70.06
660.105	92.06
660.309	83.06
660.512	82.06
660.716	93.06
660.919	89.06
661.123	76.06
661.326	85.06
661.53	89.06
661.733	93.06
661.936	97.06
662.14	91.06
662.343	77.06
662.546	90.06
662.75	90.06
662.953	77.06
663.156	90.06
663.36	81.06
663.563	71.06
663.766	67.06
663.969	77.06
664.173	92.06
664.376	86.06
664.579	76.06
664.782	88.06
664.985	77.06
665.188	87.06
665.391	94.06
665.594	91.06
665.797	96.06
666	100.06
666.203	77.06
666.406	89.06
666.609	87.06
666.812	84.06
667.015	89.06
667.218	94.06
667.421	90.06
667.624	85.06
667.827	78.06
668.03	92.06
668.232	86.06
668.435	82.06
668.638	89.06
668.841	77.06
669.043	89.06
669.246	75.06
669.449	70.06
669.651	72.06
669.854	99.06
670.057	117.06
670.259	86.06
670.462	82.06
670.665	84.06
670.867	84.06
671.07	83.06
671.272	94.06
671.475	89.06
671.677	73.06
671.88	82.06
672.082	86.06
672.284	87.06
672.487	76.06
672.689	76.06
672.892	70.06
