Data from Location3.07152019.Energy5.Lamp.07192019.3%Agarose_HRD10591_15-16-49-269.txt Node
Date: Fri Jul 19 15:16:49 EDT 2019
User: cochatt
Spectrometer: HR+D1059
Trigger mode: 1
Integration Time (sec): 1.000000E-1
Scans to average: 1
Electric dark correction enabled: true
Nonlinearity correction enabled: false
Boxcar width: 0
XAxis mode: Wavelengths
Number of Pixels in Spectrum: 2048
>>>>>Begin Spectral Data<<<<<
223.165	-8.94
223.4	-8.94
223.635	-8.94
223.869	-22.94
224.104	-12.94
224.338	-7.94
224.573	-5.94
224.808	-10.94
225.042	-7.94
225.277	1.06
225.511	-3.94
225.746	-2.94
225.98	8.06
226.215	10.06
226.449	13.06
226.683	22.06
226.918	16.06
227.152	14.06
227.387	27.06
227.621	28.06
227.856	46.06
228.09	45.06
228.324	48.06
228.559	49.06
228.793	59.06
229.027	60.06
229.262	63.06
229.496	55.06
229.73	71.06
229.964	70.06
230.199	62.06
230.433	71.06
230.667	69.06
230.901	83.06
231.136	87.06
231.37	90.06
231.604	86.06
231.838	80.06
232.072	87.06
232.306	90.06
232.541	76.06
232.775	78.06
233.009	77.06
233.243	75.06
233.477	87.06
233.711	79.06
233.945	89.06
234.179	72.06
234.413	71.06
234.647	76.06
234.881	90.06
235.115	78.06
235.349	67.06
235.583	76.06
235.817	82.06
236.051	74.06
236.285	71.06
236.519	77.06
236.753	65.06
236.987	87.06
237.221	70.06
237.455	74.06
237.689	70.06
237.922	78.06
238.156	67.06
238.39	78.06
238.624	73.06
238.858	73.06
239.091	86.06
239.325	85.06
239.559	63.06
239.793	60.06
240.027	78.06
240.26	76.06
240.494	77.06
240.728	73.06
240.961	62.06
241.195	70.06
241.429	84.06
241.662	81.06
241.896	67.06
242.13	61.06
242.363	88.06
242.597	76.06
242.83	49.06
243.064	69.06
243.298	76.06
243.531	72.06
243.765	80.06
243.998	72.06
244.232	75.06
244.465	76.06
244.699	63.06
244.932	83.06
245.166	78.06
245.399	87.06
245.633	69.06
245.866	71.06
246.099	59.06
246.333	87.06
246.566	72.06
246.8	80.06
247.033	98.06
247.266	73.06
247.5	75.06
247.733	66.06
247.966	78.06
248.2	82.06
248.433	78.06
248.666	77.06
248.899	74.06
249.133	71.06
249.366	79.06
249.599	64.06
249.832	78.06
250.066	72.06
250.299	65.06
250.532	62.06
250.765	78.06
250.998	80.06
251.231	81.06
251.465	68.06
251.698	77.06
251.931	68.06
252.164	73.06
252.397	73.06
252.63	80.06
252.863	73.06
253.096	75.06
253.329	78.06
253.562	89.06
253.795	76.06
254.028	68.06
254.261	85.06
254.494	78.06
254.727	74.06
254.96	64.06
255.193	88.06
255.426	76.06
255.659	98.06
255.892	88.06
256.124	84.06
256.357	74.06
256.59	80.06
256.823	81.06
257.056	91.06
257.289	82.06
257.521	79.06
257.754	79.06
257.987	89.06
258.22	78.06
258.452	82.06
258.685	87.06
258.918	70.06
259.151	76.06
259.383	93.06
259.616	78.06
259.849	72.06
260.081	90.06
260.314	70.06
260.547	72.06
260.779	87.06
261.012	94.06
261.244	68.06
261.477	94.06
261.71	65.06
261.942	86.06
262.175	84.06
262.407	78.06
262.64	76.06
262.872	85.06
263.105	81.06
263.337	74.06
263.57	73.06
263.802	81.06
264.035	94.06
264.267	79.06
264.499	84.06
264.732	80.06
264.964	80.06
265.197	85.06
265.429	86.06
265.661	76.06
265.894	86.06
266.126	78.06
266.358	70.06
266.591	87.06
266.823	72.06
267.055	70.06
267.287	73.06
267.52	76.06
267.752	92.06
267.984	76.06
268.216	74.06
268.448	62.06
268.681	73.06
268.913	79.06
269.145	80.06
269.377	80.06
269.609	77.06
269.841	74.06
270.073	68.06
270.306	81.06
270.538	74.06
270.77	89.06
271.002	83.06
271.234	90.06
271.466	70.06
271.698	77.06
271.93	76.06
272.162	72.06
272.394	93.06
272.626	80.06
272.858	97.06
273.09	83.06
273.322	87.06
273.553	86.06
273.785	80.06
274.017	75.06
274.249	83.06
274.481	93.06
274.713	85.06
274.945	85.06
275.176	74.06
275.408	89.06
275.64	78.06
275.872	78.06
276.104	85.06
276.335	78.06
276.567	85.06
276.799	74.06
277.031	95.06
277.262	73.06
277.494	84.06
277.726	78.06
277.957	78.06
278.189	75.06
278.421	64.06
278.652	76.06
278.884	75.06
279.115	74.06
279.347	79.06
279.579	81.06
279.81	63.06
280.042	79.06
280.273	87.06
280.505	74.06
280.736	86.06
280.968	100.06
281.199	85.06
281.431	71.06
281.662	81.06
281.894	72.06
282.125	91.06
282.356	82.06
282.588	90.06
282.819	79.06
283.051	94.06
283.282	84.06
283.513	72.06
283.745	87.06
283.976	93.06
284.207	90.06
284.439	76.06
284.67	90.06
284.901	67.06
285.132	97.06
285.364	79.06
285.595	99.06
285.826	83.06
286.057	85.06
286.288	72.06
286.52	72.06
286.751	75.06
286.982	70.06
287.213	91.06
287.444	75.06
287.675	76.06
287.906	88.06
288.138	91.06
288.369	84.06
288.6	76.06
288.831	86.06
289.062	82.06
289.293	86.06
289.524	78.06
289.755	100.06
289.986	88.06
290.217	84.06
290.448	97.06
290.679	80.06
290.91	89.06
291.141	86.06
291.371	72.06
291.602	80.06
291.833	64.06
292.064	81.06
292.295	88.06
292.526	89.06
292.757	88.06
292.987	82.06
293.218	65.06
293.449	86.06
293.68	89.06
293.91	82.06
294.141	74.06
294.372	84.06
294.603	86.06
294.833	57.06
295.064	81.06
295.295	87.06
295.525	64.06
295.756	81.06
295.987	81.06
296.217	86.06
296.448	70.06
296.679	80.06
296.909	66.06
297.14	85.06
297.37	76.06
297.601	74.06
297.831	73.06
298.062	86.06
298.292	81.06
298.523	81.06
298.753	77.06
298.984	84.06
299.214	84.06
299.445	93.06
299.675	80.06
299.905	100.06
300.136	78.06
300.366	87.06
300.597	100.06
300.827	82.06
301.057	97.06
301.288	96.06
301.518	90.06
301.748	68.06
301.979	82.06
302.209	70.06
302.439	85.06
302.669	84.06
302.9	89.06
303.13	81.06
303.36	74.06
303.59	75.06
303.82	90.06
304.051	95.06
304.281	72.06
304.511	94.06
304.741	83.06
304.971	88.06
305.201	94.06
305.431	91.06
305.661	77.06
305.891	96.06
306.121	97.06
306.352	81.06
306.582	95.06
306.812	78.06
307.042	84.06
307.272	99.06
307.502	69.06
307.731	82.06
307.961	78.06
308.191	70.06
308.421	89.06
308.651	79.06
308.881	93.06
309.111	87.06
309.341	77.06
309.571	83.06
309.8	86.06
310.03	76.06
310.26	78.06
310.49	90.06
310.72	96.06
310.949	99.06
311.179	97.06
311.409	69.06
311.639	96.06
311.868	81.06
312.098	79.06
312.328	67.06
312.557	82.06
312.787	70.06
313.017	78.06
313.246	92.06
313.476	85.06
313.706	76.06
313.935	92.06
314.165	82.06
314.394	87.06
314.624	84.06
314.853	83.06
315.083	84.06
315.312	93.06
315.542	88.06
315.771	83.06
316.001	92.06
316.23	83.06
316.46	80.06
316.689	81.06
316.919	95.06
317.148	74.06
317.377	83.06
317.607	80.06
317.836	94.06
318.065	98.06
318.295	84.06
318.524	85.06
318.753	85.06
318.983	87.06
319.212	88.06
319.441	89.06
319.67	81.06
319.9	82.06
320.129	79.06
320.358	88.06
320.587	74.06
320.816	97.06
321.046	79.06
321.275	88.06
321.504	87.06
321.733	81.06
321.962	93.06
322.191	73.06
322.42	90.06
322.649	87.06
322.878	75.06
323.108	71.06
323.337	82.06
323.566	77.06
323.795	89.06
324.024	89.06
324.253	86.06
324.482	85.06
324.71	88.06
324.939	88.06
325.168	92.06
325.397	79.06
325.626	84.06
325.855	86.06
326.084	94.06
326.313	77.06
326.542	72.06
326.77	96.06
326.999	90.06
327.228	90.06
327.457	85.06
327.686	89.06
327.914	89.06
328.143	94.06
328.372	78.06
328.6	86.06
328.829	92.06
329.058	84.06
329.287	74.06
329.515	81.06
329.744	81.06
329.972	83.06
330.201	74.06
330.43	68.06
330.658	73.06
330.887	84.06
331.115	104.06
331.344	92.06
331.572	95.06
331.801	90.06
332.03	72.06
332.258	80.06
332.486	86.06
332.715	81.06
332.943	90.06
333.172	81.06
333.4	83.06
333.629	84.06
333.857	95.06
334.085	93.06
334.314	77.06
334.542	73.06
334.771	79.06
334.999	80.06
335.227	89.06
335.455	78.06
335.684	82.06
335.912	82.06
336.14	82.06
336.369	82.06
336.597	74.06
336.825	86.06
337.053	84.06
337.281	82.06
337.51	87.06
337.738	83.06
337.966	76.06
338.194	71.06
338.422	86.06
338.65	89.06
338.878	69.06
339.106	81.06
339.334	84.06
339.562	80.06
339.79	83.06
340.018	66.06
340.246	78.06
340.474	82.06
340.702	89.06
340.93	91.06
341.158	81.06
341.386	75.06
341.614	72.06
341.842	74.06
342.07	67.06
342.298	89.06
342.526	78.06
342.754	83.06
342.981	76.06
343.209	92.06
343.437	91.06
343.665	72.06
343.893	72.06
344.12	69.06
344.348	90.06
344.576	82.06
344.804	88.06
345.031	75.06
345.259	86.06
345.487	82.06
345.714	86.06
345.942	84.06
346.17	84.06
346.397	75.06
346.625	76.06
346.853	90.06
347.08	92.06
347.308	81.06
347.535	85.06
347.763	76.06
347.99	78.06
348.218	64.06
348.445	72.06
348.673	78.06
348.9	77.06
349.128	83.06
349.355	77.06
349.583	86.06
349.81	70.06
350.037	89.06
350.265	77.06
350.492	70.06
350.72	87.06
350.947	90.06
351.174	80.06
351.402	77.06
351.629	90.06
351.856	79.06
352.083	70.06
352.311	82.06
352.538	84.06
352.765	81.06
352.992	96.06
353.22	82.06
353.447	77.06
353.674	89.06
353.901	74.06
354.128	97.06
354.355	80.06
354.583	71.06
354.81	80.06
355.037	80.06
355.264	85.06
355.491	93.06
355.718	69.06
355.945	74.06
356.172	78.06
356.399	86.06
356.626	87.06
356.853	82.06
357.08	79.06
357.307	86.06
357.534	81.06
357.761	81.06
357.988	76.06
358.215	80.06
358.441	80.06
358.668	73.06
358.895	72.06
359.122	88.06
359.349	90.06
359.576	82.06
359.802	78.06
360.029	89.06
360.256	70.06
360.483	75.06
360.709	86.06
360.936	85.06
361.163	74.06
361.39	70.06
361.616	86.06
361.843	72.06
362.07	81.06
362.296	84.06
362.523	85.06
362.749	81.06
362.976	90.06
363.203	88.06
363.429	74.06
363.656	79.06
363.882	70.06
364.109	89.06
364.335	92.06
364.562	67.06
364.788	85.06
365.015	91.06
365.241	80.06
365.468	79.06
365.694	82.06
365.92	68.06
366.147	76.06
366.373	96.06
366.599	89.06
366.826	70.06
367.052	73.06
367.278	70.06
367.505	88.06
367.731	80.06
367.957	92.06
368.184	83.06
368.41	77.06
368.636	72.06
368.862	77.06
369.089	80.06
369.315	87.06
369.541	82.06
369.767	77.06
369.993	69.06
370.219	84.06
370.445	72.06
370.672	57.06
370.898	84.06
371.124	75.06
371.35	74.06
371.576	100.06
371.802	74.06
372.028	77.06
372.254	91.06
372.48	76.06
372.706	80.06
372.932	82.06
373.158	92.06
373.384	92.06
373.61	83.06
373.835	69.06
374.061	73.06
374.287	75.06
374.513	90.06
374.739	71.06
374.965	64.06
375.191	88.06
375.416	91.06
375.642	80.06
375.868	78.06
376.094	85.06
376.319	80.06
376.545	79.06
376.771	77.06
376.997	82.06
377.222	84.06
377.448	88.06
377.674	81.06
377.899	78.06
378.125	72.06
378.35	85.06
378.576	100.06
378.802	85.06
379.027	76.06
379.253	81.06
379.478	81.06
379.704	84.06
379.929	95.06
380.155	77.06
380.38	63.06
380.606	85.06
380.831	72.06
381.057	86.06
381.282	89.06
381.507	66.06
381.733	76.06
381.958	75.06
382.184	81.06
382.409	84.06
382.634	79.06
382.86	78.06
383.085	80.06
383.31	89.06
383.535	97.06
383.761	75.06
383.986	89.06
384.211	93.06
384.436	86.06
384.662	76.06
384.887	87.06
385.112	80.06
385.337	92.06
385.562	75.06
385.787	78.06
386.013	83.06
386.238	91.06
386.463	72.06
386.688	87.06
386.913	85.06
387.138	91.06
387.363	69.06
387.588	78.06
387.813	74.06
388.038	69.06
388.263	73.06
388.488	72.06
388.713	86.06
388.938	78.06
389.163	82.06
389.387	82.06
389.612	84.06
389.837	105.06
390.062	66.06
390.287	81.06
390.512	85.06
390.736	86.06
390.961	66.06
391.186	82.06
391.411	88.06
391.636	76.06
391.86	89.06
392.085	91.06
392.31	84.06
392.534	83.06
392.759	85.06
392.984	88.06
393.208	86.06
393.433	81.06
393.658	82.06
393.882	88.06
394.107	74.06
394.331	82.06
394.556	74.06
394.78	81.06
395.005	70.06
395.229	89.06
395.454	85.06
395.678	85.06
395.903	100.06
396.127	90.06
396.352	78.06
396.576	88.06
396.801	71.06
397.025	65.06
397.249	72.06
397.474	84.06
397.698	88.06
397.922	82.06
398.147	73.06
398.371	67.06
398.595	94.06
398.82	80.06
399.044	84.06
399.268	75.06
399.492	89.06
399.717	94.06
399.941	79.06
400.165	87.06
400.389	82.06
400.613	65.06
400.837	84.06
401.062	80.06
401.286	84.06
401.51	88.06
401.734	79.06
401.958	87.06
402.182	100.06
402.406	80.06
402.63	89.06
402.854	83.06
403.078	87.06
403.302	64.06
403.526	98.06
403.75	90.06
403.974	78.06
404.198	85.06
404.422	86.06
404.645	81.06
404.869	83.06
405.093	79.06
405.317	97.06
405.541	77.06
405.765	93.06
405.988	71.06
406.212	85.06
406.436	97.06
406.66	86.06
406.883	105.06
407.107	97.06
407.331	91.06
407.555	74.06
407.778	86.06
408.002	95.06
408.226	86.06
408.449	87.06
408.673	84.06
408.896	90.06
409.12	102.06
409.344	87.06
409.567	79.06
409.791	84.06
410.014	92.06
410.238	91.06
410.461	86.06
410.685	80.06
410.908	88.06
411.132	91.06
411.355	97.06
411.578	97.06
411.802	95.06
412.025	91.06
412.249	81.06
412.472	76.06
412.695	90.06
412.919	78.06
413.142	87.06
413.365	97.06
413.589	89.06
413.812	81.06
414.035	94.06
414.258	85.06
414.482	70.06
414.705	88.06
414.928	77.06
415.151	93.06
415.374	85.06
415.597	76.06
415.821	88.06
416.044	95.06
416.267	90.06
416.49	95.06
416.713	84.06
416.936	81.06
417.159	104.06
417.382	87.06
417.605	105.06
417.828	70.06
418.051	88.06
418.274	81.06
418.497	100.06
418.72	87.06
418.943	95.06
419.166	95.06
419.389	92.06
419.611	83.06
419.834	94.06
420.057	86.06
420.28	89.06
420.503	98.06
420.726	91.06
420.948	101.06
421.171	81.06
421.394	91.06
421.617	87.06
421.839	82.06
422.062	81.06
422.285	81.06
422.507	90.06
422.73	88.06
422.953	81.06
423.175	91.06
423.398	89.06
423.621	91.06
423.843	76.06
424.066	99.06
424.288	80.06
424.511	97.06
424.733	104.06
424.956	80.06
425.178	94.06
425.401	95.06
425.623	92.06
425.846	101.06
426.068	98.06
426.291	100.06
426.513	92.06
426.735	86.06
426.958	96.06
427.18	104.06
427.402	87.06
427.625	86.06
427.847	92.06
428.069	83.06
428.292	92.06
428.514	92.06
428.736	91.06
428.958	100.06
429.181	94.06
429.403	89.06
429.625	91.06
429.847	98.06
430.069	97.06
430.292	82.06
430.514	83.06
430.736	87.06
430.958	94.06
431.18	98.06
431.402	90.06
431.624	80.06
431.846	83.06
432.068	99.06
432.29	71.06
432.512	98.06
432.734	89.06
432.956	87.06
433.178	87.06
433.4	94.06
433.622	98.06
433.844	92.06
434.066	87.06
434.287	79.06
434.509	84.06
434.731	84.06
434.953	98.06
435.175	85.06
435.397	82.06
435.618	96.06
435.84	83.06
436.062	90.06
436.284	99.06
436.505	88.06
436.727	87.06
436.949	82.06
437.17	97.06
437.392	85.06
437.614	91.06
437.835	92.06
438.057	98.06
438.278	86.06
438.5	87.06
438.721	73.06
438.943	93.06
439.165	83.06
439.386	87.06
439.608	89.06
439.829	103.06
440.05	99.06
440.272	113.06
440.493	98.06
440.715	98.06
440.936	110.06
441.158	90.06
441.379	90.06
441.6	88.06
441.822	98.06
442.043	104.06
442.264	103.06
442.486	102.06
442.707	102.06
442.928	98.06
443.149	87.06
443.371	78.06
443.592	88.06
443.813	89.06
444.034	91.06
444.255	99.06
444.476	94.06
444.698	96.06
444.919	85.06
445.14	173.06
445.361	145.06
445.582	98.06
445.803	97.06
446.024	96.06
446.245	109.06
446.466	102.06
446.687	102.06
446.908	94.06
447.129	95.06
447.35	91.06
447.571	84.06
447.792	94.06
448.013	95.06
448.234	105.06
448.455	85.06
448.675	96.06
448.896	92.06
449.117	74.06
449.338	103.06
449.559	92.06
449.779	84.06
450	90.06
450.221	88.06
450.442	81.06
450.662	82.06
450.883	103.06
451.104	88.06
451.324	92.06
451.545	94.06
451.766	89.06
451.986	78.06
452.207	81.06
452.428	82.06
452.648	93.06
452.869	88.06
453.089	78.06
453.31	83.06
453.53	87.06
453.751	85.06
453.971	85.06
454.192	90.06
454.412	99.06
454.633	83.06
454.853	82.06
455.073	78.06
455.294	91.06
455.514	96.06
455.734	84.06
455.955	83.06
456.175	78.06
456.395	80.06
456.616	90.06
456.836	89.06
457.056	81.06
457.276	82.06
457.497	72.06
457.717	81.06
457.937	71.06
458.157	83.06
458.377	66.06
458.598	78.06
458.818	87.06
459.038	74.06
459.258	69.06
459.478	71.06
459.698	74.06
459.918	79.06
460.138	92.06
460.358	83.06
460.578	80.06
460.798	76.06
461.018	89.06
461.238	88.06
461.458	92.06
461.678	82.06
461.898	95.06
462.118	96.06
462.338	91.06
462.558	99.06
462.777	86.06
462.997	82.06
463.217	87.06
463.437	75.06
463.657	104.06
463.876	67.06
464.096	77.06
464.316	90.06
464.536	83.06
464.755	91.06
464.975	88.06
465.195	87.06
465.414	88.06
465.634	85.06
465.854	91.06
466.073	70.06
466.293	102.06
466.512	93.06
466.732	102.06
466.951	91.06
467.171	88.06
467.391	103.06
467.61	90.06
467.829	90.06
468.049	98.06
468.268	96.06
468.488	92.06
468.707	97.06
468.927	102.06
469.146	92.06
469.365	116.06
469.585	92.06
469.804	92.06
470.023	93.06
470.243	91.06
470.462	87.06
470.681	92.06
470.901	84.06
471.12	100.06
471.339	104.06
471.558	89.06
471.777	101.06
471.997	92.06
472.216	92.06
472.435	89.06
472.654	82.06
472.873	84.06
473.092	88.06
473.311	82.06
473.53	91.06
473.749	81.06
473.968	99.06
474.187	85.06
474.406	102.06
474.625	80.06
474.844	94.06
475.063	104.06
475.282	97.06
475.501	82.06
475.72	81.06
475.939	80.06
476.158	90.06
476.377	108.06
476.596	89.06
476.814	85.06
477.033	70.06
477.252	103.06
477.471	100.06
477.69	91.06
477.908	93.06
478.127	90.06
478.346	98.06
478.564	97.06
478.783	94.06
479.002	88.06
479.22	95.06
479.439	94.06
479.658	90.06
479.876	81.06
480.095	70.06
480.313	93.06
480.532	86.06
480.751	95.06
480.969	96.06
481.188	99.06
481.406	98.06
481.624	77.06
481.843	82.06
482.061	87.06
482.28	77.06
482.498	84.06
482.717	78.06
482.935	85.06
483.153	92.06
483.372	90.06
483.59	103.06
483.808	94.06
484.027	88.06
484.245	101.06
484.463	96.06
484.681	95.06
484.9	90.06
485.118	95.06
485.336	96.06
485.554	88.06
485.772	78.06
485.99	82.06
486.209	87.06
486.427	94.06
486.645	87.06
486.863	103.06
487.081	93.06
487.299	95.06
487.517	108.06
487.735	122.06
487.953	110.06
488.171	97.06
488.389	104.06
488.607	118.06
488.825	88.06
489.043	98.06
489.261	109.06
489.479	96.06
489.696	112.06
489.914	94.06
490.132	98.06
490.35	108.06
490.568	92.06
490.786	107.06
491.003	93.06
491.221	102.06
491.439	99.06
491.657	112.06
491.874	112.06
492.092	126.06
492.31	122.06
492.527	131.06
492.745	114.06
492.963	120.06
493.18	117.06
493.398	106.06
493.615	112.06
493.833	100.06
494.05	112.06
494.268	120.06
494.485	106.06
494.703	105.06
494.92	108.06
495.138	108.06
495.355	98.06
495.573	112.06
495.79	120.06
496.008	104.06
496.225	108.06
496.442	100.06
496.66	116.06
496.877	106.06
497.094	99.06
497.312	108.06
497.529	90.06
497.746	93.06
497.963	104.06
498.181	93.06
498.398	86.06
498.615	83.06
498.832	78.06
499.049	91.06
499.267	104.06
499.484	112.06
499.701	73.06
499.918	100.06
500.135	93.06
500.352	105.06
500.569	98.06
500.786	118.06
501.003	83.06
501.22	114.06
501.437	105.06
501.654	102.06
501.871	86.06
502.088	85.06
502.305	96.06
502.522	91.06
502.739	93.06
502.956	97.06
503.172	98.06
503.389	88.06
503.606	79.06
503.823	87.06
504.04	86.06
504.256	97.06
504.473	78.06
504.69	83.06
504.907	103.06
505.123	101.06
505.34	100.06
505.557	102.06
505.773	90.06
505.99	94.06
506.207	111.06
506.423	87.06
506.64	99.06
506.856	91.06
507.073	95.06
507.289	102.06
507.506	96.06
507.722	88.06
507.939	89.06
508.155	83.06
508.372	99.06
508.588	82.06
508.805	91.06
509.021	94.06
509.238	88.06
509.454	74.06
509.67	84.06
509.887	96.06
510.103	69.06
510.319	72.06
510.536	84.06
510.752	88.06
510.968	89.06
511.184	94.06
511.401	81.06
511.617	84.06
511.833	97.06
512.049	72.06
512.265	89.06
512.481	86.06
512.698	81.06
512.914	83.06
513.13	74.06
513.346	74.06
513.562	72.06
513.778	83.06
513.994	74.06
514.21	87.06
514.426	86.06
514.642	76.06
514.858	82.06
515.074	90.06
515.29	91.06
515.506	71.06
515.721	90.06
515.937	80.06
516.153	89.06
516.369	83.06
516.585	70.06
516.801	87.06
517.016	81.06
517.232	73.06
517.448	73.06
517.664	90.06
517.879	82.06
518.095	78.06
518.311	80.06
518.527	88.06
518.742	96.06
518.958	90.06
519.173	90.06
519.389	82.06
519.605	106.06
519.82	80.06
520.036	95.06
520.251	86.06
520.467	71.06
520.682	77.06
520.898	79.06
521.113	79.06
521.329	82.06
521.544	86.06
521.76	92.06
521.975	88.06
522.19	77.06
522.406	83.06
522.621	86.06
522.836	77.06
523.052	90.06
523.267	84.06
523.482	90.06
523.698	84.06
523.913	74.06
524.128	76.06
524.343	80.06
524.559	86.06
524.774	91.06
524.989	96.06
525.204	96.06
525.419	100.06
525.634	75.06
525.849	96.06
526.064	99.06
526.28	83.06
526.495	80.06
526.71	70.06
526.925	74.06
527.14	84.06
527.355	79.06
527.57	85.06
527.785	77.06
527.999	66.06
528.214	92.06
528.429	89.06
528.644	86.06
528.859	94.06
529.074	97.06
529.289	97.06
529.503	92.06
529.718	100.06
529.933	82.06
530.148	86.06
530.363	93.06
530.577	82.06
530.792	80.06
531.007	88.06
531.221	83.06
531.436	80.06
531.651	73.06
531.865	95.06
532.08	90.06
532.295	81.06
532.509	92.06
532.724	85.06
532.938	86.06
533.153	73.06
533.367	93.06
533.582	96.06
533.796	90.06
534.011	103.06
534.225	93.06
534.44	88.06
534.654	102.06
534.868	95.06
535.083	88.06
535.297	82.06
535.511	87.06
535.726	86.06
535.94	85.06
536.154	84.06
536.369	64.06
536.583	80.06
536.797	83.06
537.011	70.06
537.225	71.06
537.44	91.06
537.654	83.06
537.868	91.06
538.082	63.06
538.296	86.06
538.51	90.06
538.724	89.06
538.938	89.06
539.153	102.06
539.367	91.06
539.581	85.06
539.795	93.06
540.009	95.06
540.222	91.06
540.436	95.06
540.65	91.06
540.864	92.06
541.078	103.06
541.292	98.06
541.506	118.06
541.72	108.06
541.934	126.06
542.147	117.06
542.361	104.06
542.575	116.06
542.789	95.06
543.002	90.06
543.216	93.06
543.43	80.06
543.644	100.06
543.857	122.06
544.071	99.06
544.285	116.06
544.498	106.06
544.712	112.06
544.925	96.06
545.139	101.06
545.352	94.06
545.566	100.06
545.779	104.06
545.993	108.06
546.206	101.06
546.42	101.06
546.633	106.06
546.847	109.06
547.06	112.06
547.274	99.06
547.487	111.06
547.7	114.06
547.914	108.06
548.127	103.06
548.34	116.06
548.554	99.06
548.767	111.06
548.98	111.06
549.193	104.06
549.407	120.06
549.62	104.06
549.833	122.06
550.046	103.06
550.259	100.06
550.473	105.06
550.686	102.06
550.899	114.06
551.112	114.06
551.325	97.06
551.538	98.06
551.751	96.06
551.964	103.06
552.177	73.06
552.39	101.06
552.603	95.06
552.816	98.06
553.029	99.06
553.242	111.06
553.455	105.06
553.667	122.06
553.88	94.06
554.093	86.06
554.306	100.06
554.519	112.06
554.732	112.06
554.944	93.06
555.157	94.06
555.37	96.06
555.583	89.06
555.795	110.06
556.008	108.06
556.221	96.06
556.433	94.06
556.646	88.06
556.859	105.06
557.071	95.06
557.284	100.06
557.496	106.06
557.709	105.06
557.921	112.06
558.134	99.06
558.346	104.06
558.559	101.06
558.771	103.06
558.984	83.06
559.196	107.06
559.409	108.06
559.621	97.06
559.833	107.06
560.046	92.06
560.258	103.06
560.47	82.06
560.683	96.06
560.895	90.06
561.107	95.06
561.32	86.06
561.532	97.06
561.744	101.06
561.956	99.06
562.168	95.06
562.381	104.06
562.593	90.06
562.805	98.06
563.017	100.06
563.229	93.06
563.441	98.06
563.653	92.06
563.865	94.06
564.077	99.06
564.289	82.06
564.501	94.06
564.713	92.06
564.925	97.06
565.137	98.06
565.349	93.06
565.561	89.06
565.773	93.06
565.985	92.06
566.197	90.06
566.408	76.06
566.62	82.06
566.832	96.06
567.044	80.06
567.255	101.06
567.467	86.06
567.679	84.06
567.891	94.06
568.102	88.06
568.314	92.06
568.526	84.06
568.737	93.06
568.949	78.06
569.161	88.06
569.372	79.06
569.584	89.06
569.795	88.06
570.007	80.06
570.218	76.06
570.43	98.06
570.641	84.06
570.853	88.06
571.064	84.06
571.276	81.06
571.487	81.06
571.698	100.06
571.91	80.06
572.121	82.06
572.333	79.06
572.544	95.06
572.755	91.06
572.966	86.06
573.178	73.06
573.389	67.06
573.6	88.06
573.811	74.06
574.023	80.06
574.234	78.06
574.445	93.06
574.656	73.06
574.867	83.06
575.078	85.06
575.289	87.06
575.501	91.06
575.712	78.06
575.923	71.06
576.134	93.06
576.345	95.06
576.556	79.06
576.767	90.06
576.978	99.06
577.188	85.06
577.399	104.06
577.61	78.06
577.821	92.06
578.032	96.06
578.243	85.06
578.454	87.06
578.665	79.06
578.875	89.06
579.086	89.06
579.297	78.06
579.508	89.06
579.718	80.06
579.929	101.06
580.14	89.06
580.35	72.06
580.561	76.06
580.772	75.06
580.982	74.06
581.193	86.06
581.403	94.06
581.614	90.06
581.825	82.06
582.035	61.06
582.246	89.06
582.456	94.06
582.667	91.06
582.877	85.06
583.087	78.06
583.298	75.06
583.508	80.06
583.719	81.06
583.929	91.06
584.139	80.06
584.35	87.06
584.56	80.06
584.77	81.06
584.981	79.06
585.191	81.06
585.401	80.06
585.611	90.06
585.821	85.06
586.032	96.06
586.242	85.06
586.452	65.06
586.662	85.06
586.872	70.06
587.082	76.06
587.292	87.06
587.502	98.06
587.713	79.06
587.923	70.06
588.133	82.06
588.343	64.06
588.553	84.06
588.762	86.06
588.972	87.06
589.182	82.06
589.392	80.06
589.602	78.06
589.812	73.06
590.022	88.06
590.232	76.06
590.441	73.06
590.651	76.06
590.861	74.06
591.071	99.06
591.281	86.06
591.49	75.06
591.7	73.06
591.91	99.06
592.119	104.06
592.329	93.06
592.539	94.06
592.748	83.06
592.958	91.06
593.167	76.06
593.377	95.06
593.587	96.06
593.796	86.06
594.006	89.06
594.215	76.06
594.424	80.06
594.634	78.06
594.843	98.06
595.053	84.06
595.262	95.06
595.472	82.06
595.681	89.06
595.89	93.06
596.1	89.06
596.309	84.06
596.518	86.06
596.727	95.06
596.937	88.06
597.146	80.06
597.355	95.06
597.564	95.06
597.774	93.06
597.983	86.06
598.192	93.06
598.401	82.06
598.61	71.06
598.819	81.06
599.028	85.06
599.237	94.06
599.446	85.06
599.655	90.06
599.864	87.06
600.073	97.06
600.282	92.06
600.491	96.06
600.7	95.06
600.909	81.06
601.118	80.06
601.327	85.06
601.536	93.06
601.745	86.06
601.953	88.06
602.162	94.06
602.371	77.06
602.58	86.06
602.789	87.06
602.997	101.06
603.206	101.06
603.415	93.06
603.623	86.06
603.832	91.06
604.041	76.06
604.249	87.06
604.458	84.06
604.666	84.06
604.875	80.06
605.084	85.06
605.292	78.06
605.501	90.06
605.709	77.06
605.918	96.06
606.126	95.06
606.334	98.06
606.543	87.06
606.751	89.06
606.96	105.06
607.168	94.06
607.376	96.06
607.585	84.06
607.793	101.06
608.001	105.06
608.21	84.06
608.418	87.06
608.626	86.06
608.834	94.06
609.043	92.06
609.251	78.06
609.459	98.06
609.667	107.06
609.875	86.06
610.083	92.06
610.291	86.06
610.499	101.06
610.707	73.06
610.916	84.06
611.124	98.06
611.332	99.06
611.54	97.06
611.748	99.06
611.955	79.06
612.163	81.06
612.371	84.06
612.579	85.06
612.787	77.06
612.995	90.06
613.203	82.06
613.411	79.06
613.618	89.06
613.826	92.06
614.034	87.06
614.242	95.06
614.449	82.06
614.657	87.06
614.865	97.06
615.072	97.06
615.28	88.06
615.488	88.06
615.695	100.06
615.903	87.06
616.111	94.06
616.318	92.06
616.526	103.06
616.733	83.06
616.941	94.06
617.148	95.06
617.356	93.06
617.563	92.06
617.771	99.06
617.978	81.06
618.185	90.06
618.393	89.06
618.6	88.06
618.807	96.06
619.015	79.06
619.222	93.06
619.429	82.06
619.637	84.06
619.844	86.06
620.051	96.06
620.258	99.06
620.466	94.06
620.673	93.06
620.88	97.06
621.087	87.06
621.294	89.06
621.501	93.06
621.708	93.06
621.915	88.06
622.122	81.06
622.329	91.06
622.536	88.06
622.743	84.06
622.95	96.06
623.157	94.06
623.364	91.06
623.571	105.06
623.778	105.06
623.985	100.06
624.192	93.06
624.399	93.06
624.606	97.06
624.812	94.06
625.019	85.06
625.226	76.06
625.433	80.06
625.639	95.06
625.846	94.06
626.053	95.06
626.259	89.06
626.466	94.06
626.673	92.06
626.879	88.06
627.086	98.06
627.293	100.06
627.499	87.06
627.706	89.06
627.912	93.06
628.119	93.06
628.325	97.06
628.532	84.06
628.738	78.06
628.945	87.06
629.151	91.06
629.357	84.06
629.564	86.06
629.77	85.06
629.976	86.06
630.183	78.06
630.389	75.06
630.595	85.06
630.802	79.06
631.008	91.06
631.214	82.06
631.42	96.06
631.627	96.06
631.833	79.06
632.039	87.06
632.245	100.06
632.451	88.06
632.657	103.06
632.863	92.06
633.069	98.06
633.275	81.06
633.481	81.06
633.688	84.06
633.893	77.06
634.099	82.06
634.305	81.06
634.511	76.06
634.717	96.06
634.923	88.06
635.129	91.06
635.335	95.06
635.541	91.06
635.747	82.06
635.952	81.06
636.158	80.06
636.364	86.06
636.57	93.06
636.775	89.06
636.981	98.06
637.187	85.06
637.392	100.06
637.598	88.06
637.804	94.06
638.009	93.06
638.215	84.06
638.421	100.06
638.626	108.06
638.832	105.06
639.037	80.06
639.243	73.06
639.448	77.06
639.654	91.06
639.859	88.06
640.065	80.06
640.27	98.06
640.475	86.06
640.681	84.06
640.886	93.06
641.091	93.06
641.297	95.06
641.502	104.06
641.707	88.06
641.913	96.06
642.118	81.06
642.323	100.06
642.528	99.06
642.733	98.06
642.939	85.06
643.144	92.06
643.349	95.06
643.554	93.06
643.759	78.06
643.964	88.06
644.169	90.06
644.374	84.06
644.579	93.06
644.784	89.06
644.989	84.06
645.194	84.06
645.399	86.06
645.604	91.06
645.809	86.06
646.014	89.06
646.219	92.06
646.423	83.06
646.628	100.06
646.833	77.06
647.038	80.06
647.243	84.06
647.447	86.06
647.652	77.06
647.857	100.06
648.062	84.06
648.266	85.06
648.471	87.06
648.676	85.06
648.88	72.06
649.085	84.06
649.289	81.06
649.494	87.06
649.698	83.06
649.903	68.06
650.107	89.06
650.312	77.06
650.516	95.06
650.721	86.06
650.925	78.06
651.13	86.06
651.334	76.06
651.539	94.06
651.743	98.06
651.947	82.06
652.152	83.06
652.356	83.06
652.56	96.06
652.764	87.06
652.969	80.06
653.173	89.06
653.377	74.06
653.581	98.06
653.785	92.06
653.99	79.06
654.194	71.06
654.398	80.06
654.602	89.06
654.806	88.06
655.01	84.06
655.214	74.06
655.418	87.06
655.622	77.06
655.826	76.06
656.03	75.06
656.234	84.06
656.438	78.06
656.642	95.06
656.846	86.06
657.049	80.06
657.253	79.06
657.457	76.06
657.661	69.06
657.865	88.06
658.068	66.06
658.272	74.06
658.476	82.06
658.68	89.06
658.883	74.06
659.087	80.06
659.291	80.06
659.494	79.06
659.698	85.06
659.901	76.06
660.105	94.06
660.309	81.06
660.512	82.06
660.716	81.06
660.919	85.06
661.123	84.06
661.326	78.06
661.53	78.06
661.733	85.06
661.936	79.06
662.14	79.06
662.343	72.06
662.546	77.06
662.75	80.06
662.953	82.06
663.156	83.06
663.36	87.06
663.563	106.06
663.766	89.06
663.969	75.06
664.173	77.06
664.376	78.06
664.579	83.06
664.782	70.06
664.985	74.06
665.188	82.06
665.391	80.06
665.594	89.06
665.797	85.06
666	78.06
666.203	68.06
666.406	75.06
666.609	78.06
666.812	68.06
667.015	76.06
667.218	74.06
667.421	76.06
667.624	85.06
667.827	75.06
668.03	80.06
668.232	82.06
668.435	86.06
668.638	75.06
668.841	80.06
669.043	83.06
669.246	81.06
669.449	79.06
669.651	88.06
669.854	74.06
670.057	68.06
670.259	76.06
670.462	78.06
670.665	79.06
670.867	87.06
671.07	81.06
671.272	88.06
671.475	77.06
671.677	87.06
671.88	84.06
672.082	77.06
672.284	73.06
672.487	87.06
672.689	76.06
672.892	81.06
