Data from Location3.07152019.Energy5.Lamp.07192019.3%Agarose_HRD10591_15-17-49-268.txt Node
Date: Fri Jul 19 15:17:49 EDT 2019
User: cochatt
Spectrometer: HR+D1059
Trigger mode: 1
Integration Time (sec): 1.000000E-1
Scans to average: 1
Electric dark correction enabled: true
Nonlinearity correction enabled: false
Boxcar width: 0
XAxis mode: Wavelengths
Number of Pixels in Spectrum: 2048
>>>>>Begin Spectral Data<<<<<
223.165	-15.94
223.4	-15.94
223.635	-15.94
223.869	-20.94
224.104	-14.94
224.338	-18.94
224.573	-7.94
224.808	-18.94
225.042	-5.94
225.277	-18.94
225.511	2.06
225.746	13.06
225.98	-0.94
226.215	11.06
226.449	9.06
226.683	25.06
226.918	29.06
227.152	34.06
227.387	26.06
227.621	39.06
227.856	35.06
228.09	41.06
228.324	49.06
228.559	38.06
228.793	52.06
229.027	70.06
229.262	81.06
229.496	60.06
229.73	65.06
229.964	67.06
230.199	70.06
230.433	74.06
230.667	75.06
230.901	85.06
231.136	79.06
231.37	84.06
231.604	86.06
231.838	74.06
232.072	69.06
232.306	83.06
232.541	81.06
232.775	68.06
233.009	86.06
233.243	82.06
233.477	88.06
233.711	86.06
233.945	86.06
234.179	67.06
234.413	85.06
234.647	76.06
234.881	81.06
235.115	79.06
235.349	75.06
235.583	68.06
235.817	67.06
236.051	78.06
236.285	95.06
236.519	71.06
236.753	71.06
236.987	71.06
237.221	69.06
237.455	73.06
237.689	82.06
237.922	76.06
238.156	75.06
238.39	73.06
238.624	81.06
238.858	85.06
239.091	67.06
239.325	78.06
239.559	71.06
239.793	72.06
240.027	87.06
240.26	82.06
240.494	74.06
240.728	67.06
240.961	71.06
241.195	75.06
241.429	73.06
241.662	78.06
241.896	73.06
242.13	74.06
242.363	90.06
242.597	68.06
242.83	67.06
243.064	69.06
243.298	77.06
243.531	76.06
243.765	80.06
243.998	70.06
244.232	87.06
244.465	71.06
244.699	80.06
244.932	73.06
245.166	81.06
245.399	83.06
245.633	81.06
245.866	82.06
246.099	59.06
246.333	81.06
246.566	60.06
246.8	84.06
247.033	86.06
247.266	79.06
247.5	66.06
247.733	74.06
247.966	59.06
248.2	70.06
248.433	83.06
248.666	67.06
248.899	71.06
249.133	77.06
249.366	87.06
249.599	77.06
249.832	80.06
250.066	77.06
250.299	86.06
250.532	85.06
250.765	65.06
250.998	92.06
251.231	75.06
251.465	63.06
251.698	83.06
251.931	56.06
252.164	78.06
252.397	71.06
252.63	67.06
252.863	70.06
253.096	73.06
253.329	78.06
253.562	83.06
253.795	82.06
254.028	73.06
254.261	64.06
254.494	62.06
254.727	71.06
254.96	75.06
255.193	77.06
255.426	73.06
255.659	85.06
255.892	66.06
256.124	74.06
256.357	77.06
256.59	83.06
256.823	73.06
257.056	85.06
257.289	85.06
257.521	81.06
257.754	92.06
257.987	75.06
258.22	81.06
258.452	80.06
258.685	77.06
258.918	86.06
259.151	76.06
259.383	89.06
259.616	68.06
259.849	75.06
260.081	79.06
260.314	76.06
260.547	80.06
260.779	78.06
261.012	85.06
261.244	75.06
261.477	95.06
261.71	87.06
261.942	77.06
262.175	77.06
262.407	70.06
262.64	83.06
262.872	83.06
263.105	77.06
263.337	74.06
263.57	58.06
263.802	80.06
264.035	86.06
264.267	76.06
264.499	88.06
264.732	60.06
264.964	72.06
265.197	85.06
265.429	91.06
265.661	76.06
265.894	94.06
266.126	73.06
266.358	94.06
266.591	74.06
266.823	86.06
267.055	87.06
267.287	86.06
267.52	75.06
267.752	89.06
267.984	89.06
268.216	85.06
268.448	78.06
268.681	89.06
268.913	90.06
269.145	79.06
269.377	72.06
269.609	74.06
269.841	93.06
270.073	87.06
270.306	76.06
270.538	85.06
270.77	80.06
271.002	79.06
271.234	88.06
271.466	59.06
271.698	67.06
271.93	80.06
272.162	81.06
272.394	99.06
272.626	71.06
272.858	89.06
273.09	80.06
273.322	73.06
273.553	64.06
273.785	85.06
274.017	76.06
274.249	79.06
274.481	88.06
274.713	81.06
274.945	96.06
275.176	83.06
275.408	73.06
275.64	89.06
275.872	71.06
276.104	88.06
276.335	78.06
276.567	88.06
276.799	89.06
277.031	72.06
277.262	81.06
277.494	88.06
277.726	82.06
277.957	75.06
278.189	71.06
278.421	88.06
278.652	91.06
278.884	81.06
279.115	83.06
279.347	83.06
279.579	76.06
279.81	69.06
280.042	84.06
280.273	97.06
280.505	80.06
280.736	82.06
280.968	85.06
281.199	104.06
281.431	89.06
281.662	84.06
281.894	79.06
282.125	67.06
282.356	101.06
282.588	80.06
282.819	80.06
283.051	85.06
283.282	98.06
283.513	81.06
283.745	73.06
283.976	70.06
284.207	86.06
284.439	78.06
284.67	87.06
284.901	85.06
285.132	81.06
285.364	83.06
285.595	84.06
285.826	74.06
286.057	85.06
286.288	69.06
286.52	75.06
286.751	67.06
286.982	91.06
287.213	77.06
287.444	81.06
287.675	97.06
287.906	90.06
288.138	71.06
288.369	87.06
288.6	89.06
288.831	89.06
289.062	84.06
289.293	77.06
289.524	78.06
289.755	78.06
289.986	80.06
290.217	80.06
290.448	81.06
290.679	92.06
290.91	89.06
291.141	79.06
291.371	89.06
291.602	84.06
291.833	93.06
292.064	77.06
292.295	85.06
292.526	87.06
292.757	74.06
292.987	83.06
293.218	86.06
293.449	73.06
293.68	83.06
293.91	74.06
294.141	63.06
294.372	88.06
294.603	82.06
294.833	82.06
295.064	85.06
295.295	82.06
295.525	71.06
295.756	87.06
295.987	87.06
296.217	78.06
296.448	83.06
296.679	71.06
296.909	94.06
297.14	87.06
297.37	88.06
297.601	89.06
297.831	77.06
298.062	84.06
298.292	95.06
298.523	83.06
298.753	86.06
298.984	83.06
299.214	73.06
299.445	89.06
299.675	88.06
299.905	80.06
300.136	97.06
300.366	95.06
300.597	88.06
300.827	81.06
301.057	86.06
301.288	78.06
301.518	86.06
301.748	82.06
301.979	80.06
302.209	85.06
302.439	75.06
302.669	76.06
302.9	77.06
303.13	81.06
303.36	88.06
303.59	80.06
303.82	73.06
304.051	86.06
304.281	95.06
304.511	86.06
304.741	74.06
304.971	105.06
305.201	77.06
305.431	83.06
305.661	95.06
305.891	77.06
306.121	79.06
306.352	85.06
306.582	75.06
306.812	80.06
307.042	81.06
307.272	83.06
307.502	79.06
307.731	89.06
307.961	87.06
308.191	82.06
308.421	75.06
308.651	81.06
308.881	88.06
309.111	87.06
309.341	82.06
309.571	77.06
309.8	84.06
310.03	88.06
310.26	84.06
310.49	81.06
310.72	87.06
310.949	95.06
311.179	86.06
311.409	81.06
311.639	87.06
311.868	83.06
312.098	85.06
312.328	79.06
312.557	84.06
312.787	85.06
313.017	78.06
313.246	79.06
313.476	94.06
313.706	83.06
313.935	86.06
314.165	78.06
314.394	88.06
314.624	74.06
314.853	83.06
315.083	77.06
315.312	85.06
315.542	86.06
315.771	64.06
316.001	90.06
316.23	95.06
316.46	74.06
316.689	90.06
316.919	84.06
317.148	71.06
317.377	94.06
317.607	79.06
317.836	96.06
318.065	83.06
318.295	86.06
318.524	94.06
318.753	78.06
318.983	88.06
319.212	81.06
319.441	72.06
319.67	82.06
319.9	85.06
320.129	88.06
320.358	74.06
320.587	85.06
320.816	83.06
321.046	63.06
321.275	96.06
321.504	88.06
321.733	78.06
321.962	58.06
322.191	77.06
322.42	72.06
322.649	96.06
322.878	85.06
323.108	89.06
323.337	99.06
323.566	81.06
323.795	90.06
324.024	81.06
324.253	88.06
324.482	88.06
324.71	81.06
324.939	101.06
325.168	88.06
325.397	69.06
325.626	86.06
325.855	90.06
326.084	87.06
326.313	78.06
326.542	87.06
326.77	84.06
326.999	91.06
327.228	70.06
327.457	57.06
327.686	89.06
327.914	79.06
328.143	88.06
328.372	79.06
328.6	87.06
328.829	78.06
329.058	84.06
329.287	89.06
329.515	82.06
329.744	85.06
329.972	82.06
330.201	79.06
330.43	86.06
330.658	78.06
330.887	90.06
331.115	74.06
331.344	74.06
331.572	88.06
331.801	84.06
332.03	93.06
332.258	74.06
332.486	81.06
332.715	84.06
332.943	76.06
333.172	78.06
333.4	69.06
333.629	81.06
333.857	90.06
334.085	98.06
334.314	78.06
334.542	100.06
334.771	90.06
334.999	88.06
335.227	74.06
335.455	84.06
335.684	103.06
335.912	91.06
336.14	83.06
336.369	79.06
336.597	91.06
336.825	77.06
337.053	80.06
337.281	81.06
337.51	77.06
337.738	77.06
337.966	81.06
338.194	97.06
338.422	87.06
338.65	94.06
338.878	80.06
339.106	76.06
339.334	79.06
339.562	82.06
339.79	88.06
340.018	74.06
340.246	86.06
340.474	83.06
340.702	79.06
340.93	88.06
341.158	85.06
341.386	85.06
341.614	83.06
341.842	75.06
342.07	92.06
342.298	70.06
342.526	85.06
342.754	81.06
342.981	80.06
343.209	82.06
343.437	66.06
343.665	82.06
343.893	86.06
344.12	81.06
344.348	89.06
344.576	84.06
344.804	75.06
345.031	86.06
345.259	85.06
345.487	67.06
345.714	93.06
345.942	77.06
346.17	96.06
346.397	89.06
346.625	92.06
346.853	86.06
347.08	86.06
347.308	96.06
347.535	89.06
347.763	74.06
347.99	87.06
348.218	84.06
348.445	101.06
348.673	77.06
348.9	71.06
349.128	93.06
349.355	77.06
349.583	84.06
349.81	82.06
350.037	99.06
350.265	88.06
350.492	71.06
350.72	68.06
350.947	77.06
351.174	84.06
351.402	79.06
351.629	86.06
351.856	91.06
352.083	92.06
352.311	79.06
352.538	93.06
352.765	76.06
352.992	98.06
353.22	84.06
353.447	79.06
353.674	81.06
353.901	94.06
354.128	85.06
354.355	81.06
354.583	86.06
354.81	83.06
355.037	87.06
355.264	75.06
355.491	81.06
355.718	90.06
355.945	80.06
356.172	79.06
356.399	76.06
356.626	101.06
356.853	83.06
357.08	77.06
357.307	88.06
357.534	72.06
357.761	80.06
357.988	85.06
358.215	92.06
358.441	87.06
358.668	85.06
358.895	80.06
359.122	82.06
359.349	65.06
359.576	73.06
359.802	81.06
360.029	73.06
360.256	91.06
360.483	85.06
360.709	67.06
360.936	85.06
361.163	91.06
361.39	76.06
361.616	88.06
361.843	69.06
362.07	75.06
362.296	87.06
362.523	71.06
362.749	77.06
362.976	87.06
363.203	109.06
363.429	81.06
363.656	80.06
363.882	90.06
364.109	78.06
364.335	87.06
364.562	71.06
364.788	72.06
365.015	73.06
365.241	98.06
365.468	83.06
365.694	87.06
365.92	98.06
366.147	84.06
366.373	82.06
366.599	95.06
366.826	67.06
367.052	81.06
367.278	98.06
367.505	73.06
367.731	71.06
367.957	86.06
368.184	81.06
368.41	83.06
368.636	88.06
368.862	75.06
369.089	86.06
369.315	86.06
369.541	86.06
369.767	78.06
369.993	86.06
370.219	87.06
370.445	72.06
370.672	82.06
370.898	79.06
371.124	81.06
371.35	91.06
371.576	77.06
371.802	76.06
372.028	92.06
372.254	79.06
372.48	78.06
372.706	80.06
372.932	65.06
373.158	75.06
373.384	106.06
373.61	97.06
373.835	83.06
374.061	83.06
374.287	78.06
374.513	100.06
374.739	74.06
374.965	94.06
375.191	68.06
375.416	79.06
375.642	74.06
375.868	87.06
376.094	86.06
376.319	77.06
376.545	96.06
376.771	70.06
376.997	84.06
377.222	83.06
377.448	82.06
377.674	87.06
377.899	73.06
378.125	84.06
378.35	97.06
378.576	84.06
378.802	81.06
379.027	86.06
379.253	86.06
379.478	82.06
379.704	78.06
379.929	79.06
380.155	78.06
380.38	79.06
380.606	97.06
380.831	93.06
381.057	91.06
381.282	79.06
381.507	80.06
381.733	87.06
381.958	79.06
382.184	92.06
382.409	87.06
382.634	95.06
382.86	67.06
383.085	90.06
383.31	92.06
383.535	78.06
383.761	73.06
383.986	90.06
384.211	70.06
384.436	90.06
384.662	81.06
384.887	73.06
385.112	86.06
385.337	81.06
385.562	72.06
385.787	101.06
386.013	104.06
386.238	90.06
386.463	83.06
386.688	74.06
386.913	92.06
387.138	90.06
387.363	88.06
387.588	110.06
387.813	69.06
388.038	78.06
388.263	80.06
388.488	81.06
388.713	83.06
388.938	79.06
389.163	74.06
389.387	88.06
389.612	98.06
389.837	84.06
390.062	104.06
390.287	87.06
390.512	86.06
390.736	83.06
390.961	89.06
391.186	78.06
391.411	79.06
391.636	91.06
391.86	89.06
392.085	77.06
392.31	94.06
392.534	87.06
392.759	91.06
392.984	86.06
393.208	85.06
393.433	90.06
393.658	80.06
393.882	87.06
394.107	67.06
394.331	94.06
394.556	77.06
394.78	70.06
395.005	79.06
395.229	86.06
395.454	100.06
395.678	85.06
395.903	97.06
396.127	78.06
396.352	98.06
396.576	83.06
396.801	84.06
397.025	88.06
397.249	91.06
397.474	83.06
397.698	83.06
397.922	84.06
398.147	85.06
398.371	93.06
398.595	98.06
398.82	74.06
399.044	72.06
399.268	88.06
399.492	87.06
399.717	86.06
399.941	88.06
400.165	91.06
400.389	91.06
400.613	88.06
400.837	98.06
401.062	84.06
401.286	97.06
401.51	93.06
401.734	96.06
401.958	101.06
402.182	93.06
402.406	98.06
402.63	72.06
402.854	101.06
403.078	89.06
403.302	85.06
403.526	85.06
403.75	80.06
403.974	82.06
404.198	87.06
404.422	88.06
404.645	89.06
404.869	78.06
405.093	87.06
405.317	94.06
405.541	98.06
405.765	81.06
405.988	85.06
406.212	90.06
406.436	99.06
406.66	91.06
406.883	82.06
407.107	96.06
407.331	87.06
407.555	91.06
407.778	90.06
408.002	98.06
408.226	96.06
408.449	87.06
408.673	82.06
408.896	69.06
409.12	79.06
409.344	75.06
409.567	79.06
409.791	93.06
410.014	88.06
410.238	85.06
410.461	93.06
410.685	84.06
410.908	82.06
411.132	83.06
411.355	83.06
411.578	77.06
411.802	89.06
412.025	99.06
412.249	85.06
412.472	86.06
412.695	92.06
412.919	83.06
413.142	90.06
413.365	97.06
413.589	101.06
413.812	98.06
414.035	81.06
414.258	79.06
414.482	81.06
414.705	93.06
414.928	106.06
415.151	89.06
415.374	77.06
415.597	96.06
415.821	94.06
416.044	81.06
416.267	93.06
416.49	85.06
416.713	86.06
416.936	88.06
417.159	82.06
417.382	96.06
417.605	81.06
417.828	74.06
418.051	84.06
418.274	85.06
418.497	87.06
418.72	74.06
418.943	89.06
419.166	89.06
419.389	103.06
419.611	100.06
419.834	99.06
420.057	94.06
420.28	96.06
420.503	79.06
420.726	102.06
420.948	92.06
421.171	96.06
421.394	91.06
421.617	101.06
421.839	104.06
422.062	99.06
422.285	97.06
422.507	88.06
422.73	88.06
422.953	89.06
423.175	84.06
423.398	99.06
423.621	92.06
423.843	105.06
424.066	97.06
424.288	98.06
424.511	81.06
424.733	99.06
424.956	94.06
425.178	95.06
425.401	86.06
425.623	85.06
425.846	85.06
426.068	83.06
426.291	89.06
426.513	90.06
426.735	105.06
426.958	84.06
427.18	94.06
427.402	101.06
427.625	87.06
427.847	102.06
428.069	72.06
428.292	89.06
428.514	86.06
428.736	90.06
428.958	96.06
429.181	98.06
429.403	79.06
429.625	88.06
429.847	83.06
430.069	84.06
430.292	103.06
430.514	77.06
430.736	97.06
430.958	82.06
431.18	82.06
431.402	97.06
431.624	90.06
431.846	107.06
432.068	86.06
432.29	93.06
432.512	85.06
432.734	101.06
432.956	85.06
433.178	97.06
433.4	93.06
433.622	100.06
433.844	94.06
434.066	89.06
434.287	81.06
434.509	71.06
434.731	83.06
434.953	75.06
435.175	100.06
435.397	102.06
435.618	97.06
435.84	89.06
436.062	102.06
436.284	86.06
436.505	100.06
436.727	86.06
436.949	91.06
437.17	99.06
437.392	71.06
437.614	89.06
437.835	84.06
438.057	84.06
438.278	83.06
438.5	98.06
438.721	102.06
438.943	91.06
439.165	89.06
439.386	100.06
439.608	96.06
439.829	102.06
440.05	92.06
440.272	95.06
440.493	100.06
440.715	94.06
440.936	98.06
441.158	90.06
441.379	92.06
441.6	100.06
441.822	106.06
442.043	99.06
442.264	84.06
442.486	98.06
442.707	103.06
442.928	104.06
443.149	90.06
443.371	99.06
443.592	111.06
443.813	101.06
444.034	89.06
444.255	103.06
444.476	96.06
444.698	98.06
444.919	93.06
445.14	162.06
445.361	126.06
445.582	81.06
445.803	92.06
446.024	88.06
446.245	105.06
446.466	90.06
446.687	97.06
446.908	114.06
447.129	95.06
447.35	83.06
447.571	96.06
447.792	107.06
448.013	103.06
448.234	88.06
448.455	82.06
448.675	90.06
448.896	102.06
449.117	92.06
449.338	85.06
449.559	96.06
449.779	91.06
450	97.06
450.221	88.06
450.442	87.06
450.662	99.06
450.883	87.06
451.104	85.06
451.324	101.06
451.545	82.06
451.766	96.06
451.986	89.06
452.207	87.06
452.428	90.06
452.648	89.06
452.869	71.06
453.089	93.06
453.31	92.06
453.53	97.06
453.751	88.06
453.971	88.06
454.192	94.06
454.412	84.06
454.633	85.06
454.853	87.06
455.073	89.06
455.294	90.06
455.514	97.06
455.734	95.06
455.955	91.06
456.175	91.06
456.395	87.06
456.616	76.06
456.836	82.06
457.056	78.06
457.276	90.06
457.497	73.06
457.717	74.06
457.937	95.06
458.157	100.06
458.377	89.06
458.598	75.06
458.818	83.06
459.038	70.06
459.258	74.06
459.478	86.06
459.698	70.06
459.918	87.06
460.138	87.06
460.358	83.06
460.578	96.06
460.798	101.06
461.018	101.06
461.238	103.06
461.458	84.06
461.678	81.06
461.898	89.06
462.118	99.06
462.338	85.06
462.558	86.06
462.777	94.06
462.997	90.06
463.217	80.06
463.437	81.06
463.657	80.06
463.876	83.06
464.096	95.06
464.316	81.06
464.536	81.06
464.755	92.06
464.975	82.06
465.195	95.06
465.414	79.06
465.634	95.06
465.854	86.06
466.073	89.06
466.293	86.06
466.512	89.06
466.732	90.06
466.951	86.06
467.171	89.06
467.391	81.06
467.61	100.06
467.829	101.06
468.049	105.06
468.268	89.06
468.488	91.06
468.707	89.06
468.927	88.06
469.146	97.06
469.365	98.06
469.585	102.06
469.804	98.06
470.023	85.06
470.243	84.06
470.462	101.06
470.681	103.06
470.901	96.06
471.12	98.06
471.339	93.06
471.558	99.06
471.777	101.06
471.997	88.06
472.216	88.06
472.435	94.06
472.654	74.06
472.873	92.06
473.092	90.06
473.311	96.06
473.53	98.06
473.749	86.06
473.968	97.06
474.187	86.06
474.406	95.06
474.625	96.06
474.844	99.06
475.063	92.06
475.282	96.06
475.501	83.06
475.72	104.06
475.939	83.06
476.158	87.06
476.377	89.06
476.596	77.06
476.814	61.06
477.033	80.06
477.252	93.06
477.471	93.06
477.69	82.06
477.908	97.06
478.127	103.06
478.346	89.06
478.564	103.06
478.783	73.06
479.002	82.06
479.22	83.06
479.439	95.06
479.658	91.06
479.876	92.06
480.095	74.06
480.313	82.06
480.532	70.06
480.751	85.06
480.969	95.06
481.188	79.06
481.406	75.06
481.624	73.06
481.843	80.06
482.061	89.06
482.28	97.06
482.498	89.06
482.717	87.06
482.935	99.06
483.153	95.06
483.372	97.06
483.59	110.06
483.808	97.06
484.027	109.06
484.245	91.06
484.463	85.06
484.681	124.06
484.9	110.06
485.118	98.06
485.336	86.06
485.554	83.06
485.772	95.06
485.99	93.06
486.209	84.06
486.427	79.06
486.645	79.06
486.863	94.06
487.081	102.06
487.299	99.06
487.517	96.06
487.735	112.06
487.953	99.06
488.171	106.06
488.389	110.06
488.607	103.06
488.825	107.06
489.043	99.06
489.261	99.06
489.479	98.06
489.696	97.06
489.914	93.06
490.132	103.06
490.35	103.06
490.568	104.06
490.786	109.06
491.003	89.06
491.221	102.06
491.439	111.06
491.657	111.06
491.874	122.06
492.092	135.06
492.31	131.06
492.527	109.06
492.745	111.06
492.963	116.06
493.18	125.06
493.398	120.06
493.615	108.06
493.833	131.06
494.05	107.06
494.268	123.06
494.485	100.06
494.703	119.06
494.92	102.06
495.138	104.06
495.355	110.06
495.573	123.06
495.79	115.06
496.008	111.06
496.225	115.06
496.442	92.06
496.66	102.06
496.877	109.06
497.094	116.06
497.312	98.06
497.529	113.06
497.746	102.06
497.963	104.06
498.181	96.06
498.398	87.06
498.615	91.06
498.832	83.06
499.049	83.06
499.267	96.06
499.484	94.06
499.701	100.06
499.918	102.06
500.135	104.06
500.352	98.06
500.569	106.06
500.786	98.06
501.003	105.06
501.22	94.06
501.437	107.06
501.654	102.06
501.871	86.06
502.088	90.06
502.305	107.06
502.522	83.06
502.739	94.06
502.956	102.06
503.172	92.06
503.389	81.06
503.606	92.06
503.823	95.06
504.04	85.06
504.256	109.06
504.473	86.06
504.69	83.06
504.907	88.06
505.123	91.06
505.34	109.06
505.557	98.06
505.773	95.06
505.99	91.06
506.207	95.06
506.423	94.06
506.64	85.06
506.856	98.06
507.073	100.06
507.289	95.06
507.506	89.06
507.722	98.06
507.939	91.06
508.155	82.06
508.372	97.06
508.588	97.06
508.805	88.06
509.021	83.06
509.238	79.06
509.454	76.06
509.67	93.06
509.887	75.06
510.103	93.06
510.319	82.06
510.536	71.06
510.752	90.06
510.968	89.06
511.184	79.06
511.401	78.06
511.617	85.06
511.833	79.06
512.049	79.06
512.265	94.06
512.481	83.06
512.698	91.06
512.914	78.06
513.13	87.06
513.346	93.06
513.562	82.06
513.778	76.06
513.994	79.06
514.21	82.06
514.426	79.06
514.642	97.06
514.858	89.06
515.074	73.06
515.29	85.06
515.506	65.06
515.721	93.06
515.937	80.06
516.153	74.06
516.369	95.06
516.585	83.06
516.801	79.06
517.016	74.06
517.232	69.06
517.448	89.06
517.664	69.06
517.879	87.06
518.095	90.06
518.311	73.06
518.527	75.06
518.742	86.06
518.958	84.06
519.173	85.06
519.389	82.06
519.605	85.06
519.82	90.06
520.036	95.06
520.251	97.06
520.467	94.06
520.682	84.06
520.898	98.06
521.113	70.06
521.329	87.06
521.544	89.06
521.76	84.06
521.975	90.06
522.19	70.06
522.406	92.06
522.621	73.06
522.836	97.06
523.052	80.06
523.267	84.06
523.482	82.06
523.698	85.06
523.913	89.06
524.128	83.06
524.343	99.06
524.559	95.06
524.774	100.06
524.989	97.06
525.204	93.06
525.419	93.06
525.634	103.06
525.849	85.06
526.064	95.06
526.28	74.06
526.495	84.06
526.71	78.06
526.925	81.06
527.14	73.06
527.355	78.06
527.57	75.06
527.785	80.06
527.999	89.06
528.214	80.06
528.429	85.06
528.644	70.06
528.859	89.06
529.074	103.06
529.289	112.06
529.503	97.06
529.718	102.06
529.933	83.06
530.148	93.06
530.363	83.06
530.577	74.06
530.792	81.06
531.007	86.06
531.221	87.06
531.436	71.06
531.651	85.06
531.865	75.06
532.08	72.06
532.295	72.06
532.509	99.06
532.724	90.06
532.938	92.06
533.153	79.06
533.367	97.06
533.582	102.06
533.796	101.06
534.011	93.06
534.225	82.06
534.44	79.06
534.654	84.06
534.868	86.06
535.083	88.06
535.297	93.06
535.511	90.06
535.726	108.06
535.94	79.06
536.154	85.06
536.369	77.06
536.583	75.06
536.797	78.06
537.011	82.06
537.225	82.06
537.44	83.06
537.654	75.06
537.868	80.06
538.082	92.06
538.296	106.06
538.51	90.06
538.724	85.06
538.938	96.06
539.153	90.06
539.367	92.06
539.581	78.06
539.795	87.06
540.009	89.06
540.222	78.06
540.436	96.06
540.65	95.06
540.864	84.06
541.078	101.06
541.292	106.06
541.506	99.06
541.72	103.06
541.934	115.06
542.147	123.06
542.361	115.06
542.575	120.06
542.789	99.06
543.002	104.06
543.216	95.06
543.43	103.06
543.644	95.06
543.857	109.06
544.071	95.06
544.285	112.06
544.498	95.06
544.712	102.06
544.925	104.06
545.139	91.06
545.352	111.06
545.566	102.06
545.779	114.06
545.993	104.06
546.206	102.06
546.42	109.06
546.633	102.06
546.847	106.06
547.06	93.06
547.274	114.06
547.487	101.06
547.7	95.06
547.914	110.06
548.127	101.06
548.34	117.06
548.554	98.06
548.767	117.06
548.98	98.06
549.193	108.06
549.407	94.06
549.62	101.06
549.833	110.06
550.046	101.06
550.259	99.06
550.473	104.06
550.686	96.06
550.899	107.06
551.112	100.06
551.325	79.06
551.538	94.06
551.751	105.06
551.964	92.06
552.177	113.06
552.39	101.06
552.603	102.06
552.816	105.06
553.029	99.06
553.242	106.06
553.455	93.06
553.667	100.06
553.88	99.06
554.093	114.06
554.306	113.06
554.519	102.06
554.732	100.06
554.944	94.06
555.157	87.06
555.37	99.06
555.583	101.06
555.795	99.06
556.008	99.06
556.221	111.06
556.433	101.06
556.646	115.06
556.859	92.06
557.071	107.06
557.284	98.06
557.496	99.06
557.709	98.06
557.921	97.06
558.134	103.06
558.346	105.06
558.559	111.06
558.771	100.06
558.984	97.06
559.196	95.06
559.409	96.06
559.621	102.06
559.833	87.06
560.046	92.06
560.258	95.06
560.47	96.06
560.683	83.06
560.895	105.06
561.107	96.06
561.32	95.06
561.532	90.06
561.744	82.06
561.956	95.06
562.168	86.06
562.381	97.06
562.593	95.06
562.805	82.06
563.017	97.06
563.229	95.06
563.441	104.06
563.653	111.06
563.865	96.06
564.077	86.06
564.289	87.06
564.501	82.06
564.713	98.06
564.925	97.06
565.137	97.06
565.349	101.06
565.561	90.06
565.773	99.06
565.985	94.06
566.197	102.06
566.408	103.06
566.62	87.06
566.832	98.06
567.044	107.06
567.255	104.06
567.467	95.06
567.679	87.06
567.891	75.06
568.102	89.06
568.314	80.06
568.526	81.06
568.737	87.06
568.949	90.06
569.161	73.06
569.372	84.06
569.584	84.06
569.795	84.06
570.007	78.06
570.218	69.06
570.43	89.06
570.641	58.06
570.853	90.06
571.064	78.06
571.276	105.06
571.487	85.06
571.698	90.06
571.91	85.06
572.121	83.06
572.333	82.06
572.544	91.06
572.755	88.06
572.966	86.06
573.178	90.06
573.389	78.06
573.6	83.06
573.811	80.06
574.023	98.06
574.234	87.06
574.445	71.06
574.656	91.06
574.867	88.06
575.078	82.06
575.289	74.06
575.501	93.06
575.712	77.06
575.923	78.06
576.134	81.06
576.345	87.06
576.556	75.06
576.767	74.06
576.978	99.06
577.188	97.06
577.399	89.06
577.61	85.06
577.821	88.06
578.032	84.06
578.243	75.06
578.454	68.06
578.665	75.06
578.875	79.06
579.086	83.06
579.297	81.06
579.508	82.06
579.718	89.06
579.929	92.06
580.14	91.06
580.35	85.06
580.561	81.06
580.772	95.06
580.982	91.06
581.193	91.06
581.403	68.06
581.614	97.06
581.825	84.06
582.035	86.06
582.246	99.06
582.456	85.06
582.667	92.06
582.877	95.06
583.087	105.06
583.298	81.06
583.508	85.06
583.719	81.06
583.929	90.06
584.139	80.06
584.35	81.06
584.56	74.06
584.77	84.06
584.981	83.06
585.191	78.06
585.401	88.06
585.611	85.06
585.821	87.06
586.032	81.06
586.242	90.06
586.452	83.06
586.662	79.06
586.872	89.06
587.082	82.06
587.292	88.06
587.502	87.06
587.713	93.06
587.923	85.06
588.133	81.06
588.343	79.06
588.553	81.06
588.762	85.06
588.972	78.06
589.182	88.06
589.392	85.06
589.602	89.06
589.812	77.06
590.022	88.06
590.232	81.06
590.441	76.06
590.651	84.06
590.861	82.06
591.071	88.06
591.281	86.06
591.49	86.06
591.7	89.06
591.91	78.06
592.119	77.06
592.329	92.06
592.539	77.06
592.748	77.06
592.958	73.06
593.167	74.06
593.377	91.06
593.587	81.06
593.796	91.06
594.006	93.06
594.215	87.06
594.424	89.06
594.634	99.06
594.843	84.06
595.053	83.06
595.262	88.06
595.472	100.06
595.681	79.06
595.89	82.06
596.1	86.06
596.309	88.06
596.518	98.06
596.727	90.06
596.937	84.06
597.146	95.06
597.355	80.06
597.564	88.06
597.774	98.06
597.983	87.06
598.192	99.06
598.401	90.06
598.61	79.06
598.819	87.06
599.028	91.06
599.237	88.06
599.446	86.06
599.655	92.06
599.864	85.06
600.073	75.06
600.282	86.06
600.491	83.06
600.7	82.06
600.909	78.06
601.118	95.06
601.327	85.06
601.536	97.06
601.745	88.06
601.953	83.06
602.162	86.06
602.371	82.06
602.58	90.06
602.789	87.06
602.997	92.06
603.206	81.06
603.415	94.06
603.623	89.06
603.832	99.06
604.041	96.06
604.249	75.06
604.458	91.06
604.666	87.06
604.875	82.06
605.084	75.06
605.292	78.06
605.501	85.06
605.709	83.06
605.918	79.06
606.126	91.06
606.334	84.06
606.543	93.06
606.751	99.06
606.96	89.06
607.168	94.06
607.376	92.06
607.585	84.06
607.793	102.06
608.001	80.06
608.21	99.06
608.418	93.06
608.626	93.06
608.834	90.06
609.043	90.06
609.251	86.06
609.459	101.06
609.667	89.06
609.875	109.06
610.083	93.06
610.291	104.06
610.499	90.06
610.707	83.06
610.916	89.06
611.124	85.06
611.332	77.06
611.54	107.06
611.748	90.06
611.955	95.06
612.163	103.06
612.371	102.06
612.579	87.06
612.787	81.06
612.995	90.06
613.203	100.06
613.411	88.06
613.618	89.06
613.826	86.06
614.034	93.06
614.242	77.06
614.449	96.06
614.657	100.06
614.865	75.06
615.072	91.06
615.28	85.06
615.488	88.06
615.695	88.06
615.903	94.06
616.111	96.06
616.318	90.06
616.526	100.06
616.733	102.06
616.941	97.06
617.148	81.06
617.356	85.06
617.563	98.06
617.771	95.06
617.978	93.06
618.185	83.06
618.393	88.06
618.6	86.06
618.807	90.06
619.015	83.06
619.222	97.06
619.429	88.06
619.637	92.06
619.844	87.06
620.051	79.06
620.258	91.06
620.466	87.06
620.673	98.06
620.88	73.06
621.087	95.06
621.294	80.06
621.501	80.06
621.708	98.06
621.915	101.06
622.122	112.06
622.329	87.06
622.536	83.06
622.743	97.06
622.95	91.06
623.157	97.06
623.364	86.06
623.571	76.06
623.778	94.06
623.985	101.06
624.192	98.06
624.399	80.06
624.606	101.06
624.812	98.06
625.019	80.06
625.226	88.06
625.433	100.06
625.639	66.06
625.846	85.06
626.053	81.06
626.259	88.06
626.466	75.06
626.673	91.06
626.879	89.06
627.086	79.06
627.293	89.06
627.499	77.06
627.706	100.06
627.912	83.06
628.119	81.06
628.325	101.06
628.532	87.06
628.738	98.06
628.945	84.06
629.151	75.06
629.357	98.06
629.564	96.06
629.77	88.06
629.976	100.06
630.183	97.06
630.389	90.06
630.595	82.06
630.802	103.06
631.008	84.06
631.214	100.06
631.42	86.06
631.627	84.06
631.833	79.06
632.039	83.06
632.245	80.06
632.451	97.06
632.657	81.06
632.863	85.06
633.069	87.06
633.275	90.06
633.481	83.06
633.688	72.06
633.893	81.06
634.099	94.06
634.305	100.06
634.511	86.06
634.717	92.06
634.923	83.06
635.129	80.06
635.335	79.06
635.541	82.06
635.747	80.06
635.952	93.06
636.158	81.06
636.364	87.06
636.57	89.06
636.775	100.06
636.981	81.06
637.187	87.06
637.392	79.06
637.598	78.06
637.804	98.06
638.009	89.06
638.215	91.06
638.421	71.06
638.626	77.06
638.832	93.06
639.037	82.06
639.243	91.06
639.448	80.06
639.654	73.06
639.859	84.06
640.065	90.06
640.27	86.06
640.475	90.06
640.681	89.06
640.886	89.06
641.091	87.06
641.297	91.06
641.502	92.06
641.707	80.06
641.913	83.06
642.118	73.06
642.323	93.06
642.528	88.06
642.733	99.06
642.939	100.06
643.144	90.06
643.349	95.06
643.554	86.06
643.759	91.06
643.964	71.06
644.169	100.06
644.374	89.06
644.579	79.06
644.784	106.06
644.989	86.06
645.194	85.06
645.399	93.06
645.604	87.06
645.809	80.06
646.014	83.06
646.219	91.06
646.423	86.06
646.628	89.06
646.833	77.06
647.038	78.06
647.243	84.06
647.447	80.06
647.652	78.06
647.857	88.06
648.062	87.06
648.266	89.06
648.471	86.06
648.676	93.06
648.88	88.06
649.085	85.06
649.289	94.06
649.494	96.06
649.698	95.06
649.903	81.06
650.107	100.06
650.312	95.06
650.516	81.06
650.721	72.06
650.925	95.06
651.13	89.06
651.334	87.06
651.539	73.06
651.743	82.06
651.947	110.06
652.152	95.06
652.356	91.06
652.56	86.06
652.764	85.06
652.969	73.06
653.173	84.06
653.377	86.06
653.581	101.06
653.785	88.06
653.99	78.06
654.194	71.06
654.398	88.06
654.602	94.06
654.806	86.06
655.01	81.06
655.214	89.06
655.418	95.06
655.622	73.06
655.826	84.06
656.03	78.06
656.234	84.06
656.438	95.06
656.642	91.06
656.846	82.06
657.049	84.06
657.253	84.06
657.457	97.06
657.661	73.06
657.865	87.06
658.068	86.06
658.272	80.06
658.476	80.06
658.68	75.06
658.883	82.06
659.087	61.06
659.291	64.06
659.494	70.06
659.698	76.06
659.901	82.06
660.105	87.06
660.309	79.06
660.512	78.06
660.716	86.06
660.919	70.06
661.123	78.06
661.326	81.06
661.53	95.06
661.733	94.06
661.936	101.06
662.14	82.06
662.343	85.06
662.546	95.06
662.75	85.06
662.953	81.06
663.156	70.06
663.36	71.06
663.563	71.06
663.766	68.06
663.969	81.06
664.173	88.06
664.376	71.06
664.579	74.06
664.782	77.06
664.985	75.06
665.188	72.06
665.391	81.06
665.594	84.06
665.797	55.06
666	75.06
666.203	78.06
666.406	75.06
666.609	75.06
666.812	85.06
667.015	88.06
667.218	92.06
667.421	81.06
667.624	80.06
667.827	79.06
668.03	84.06
668.232	82.06
668.435	91.06
668.638	73.06
668.841	78.06
669.043	73.06
669.246	75.06
669.449	92.06
669.651	73.06
669.854	85.06
670.057	70.06
670.259	89.06
670.462	80.06
670.665	82.06
670.867	77.06
671.07	71.06
671.272	85.06
671.475	86.06
671.677	85.06
671.88	83.06
672.082	89.06
672.284	82.06
672.487	88.06
672.689	75.06
672.892	74.06
