Data from Location3.07152019.Energy5.Lamp.07192019.3%Agarose_HRD10591_15-17-22-269.txt Node
Date: Fri Jul 19 15:17:22 EDT 2019
User: cochatt
Spectrometer: HR+D1059
Trigger mode: 1
Integration Time (sec): 1.000000E-1
Scans to average: 1
Electric dark correction enabled: true
Nonlinearity correction enabled: false
Boxcar width: 0
XAxis mode: Wavelengths
Number of Pixels in Spectrum: 2048
>>>>>Begin Spectral Data<<<<<
223.165	-24.12
223.4	-24.12
223.635	-24.12
223.869	-23.12
224.104	-26.12
224.338	-23.12
224.573	-15.12
224.808	-6.12
225.042	11.88
225.277	-5.12
225.511	-9.12
225.746	18.88
225.98	0.88
226.215	8.88
226.449	15.88
226.683	16.88
226.918	26.88
227.152	31.88
227.387	45.88
227.621	35.88
227.856	43.88
228.09	43.88
228.324	47.88
228.559	68.88
228.793	57.88
229.027	66.88
229.262	73.88
229.496	72.88
229.73	72.88
229.964	59.88
230.199	76.88
230.433	70.88
230.667	76.88
230.901	81.88
231.136	72.88
231.37	96.88
231.604	84.88
231.838	64.88
232.072	90.88
232.306	89.88
232.541	89.88
232.775	75.88
233.009	82.88
233.243	73.88
233.477	74.88
233.711	86.88
233.945	100.88
234.179	91.88
234.413	84.88
234.647	94.88
234.881	89.88
235.115	73.88
235.349	79.88
235.583	95.88
235.817	81.88
236.051	84.88
236.285	89.88
236.519	90.88
236.753	68.88
236.987	73.88
237.221	77.88
237.455	90.88
237.689	91.88
237.922	77.88
238.156	74.88
238.39	87.88
238.624	81.88
238.858	85.88
239.091	81.88
239.325	85.88
239.559	80.88
239.793	71.88
240.027	90.88
240.26	67.88
240.494	76.88
240.728	73.88
240.961	72.88
241.195	78.88
241.429	85.88
241.662	86.88
241.896	69.88
242.13	79.88
242.363	82.88
242.597	97.88
242.83	83.88
243.064	78.88
243.298	84.88
243.531	84.88
243.765	98.88
243.998	87.88
244.232	83.88
244.465	75.88
244.699	85.88
244.932	88.88
245.166	76.88
245.399	89.88
245.633	95.88
245.866	57.88
246.099	77.88
246.333	79.88
246.566	79.88
246.8	83.88
247.033	89.88
247.266	96.88
247.5	78.88
247.733	71.88
247.966	84.88
248.2	68.88
248.433	86.88
248.666	92.88
248.899	83.88
249.133	84.88
249.366	78.88
249.599	85.88
249.832	82.88
250.066	81.88
250.299	85.88
250.532	85.88
250.765	78.88
250.998	82.88
251.231	86.88
251.465	88.88
251.698	91.88
251.931	89.88
252.164	101.88
252.397	83.88
252.63	82.88
252.863	87.88
253.096	98.88
253.329	99.88
253.562	84.88
253.795	92.88
254.028	74.88
254.261	75.88
254.494	74.88
254.727	80.88
254.96	86.88
255.193	67.88
255.426	81.88
255.659	82.88
255.892	77.88
256.124	79.88
256.357	90.88
256.59	78.88
256.823	77.88
257.056	88.88
257.289	90.88
257.521	96.88
257.754	78.88
257.987	78.88
258.22	73.88
258.452	81.88
258.685	80.88
258.918	94.88
259.151	82.88
259.383	71.88
259.616	78.88
259.849	95.88
260.081	82.88
260.314	90.88
260.547	87.88
260.779	82.88
261.012	91.88
261.244	78.88
261.477	85.88
261.71	87.88
261.942	86.88
262.175	97.88
262.407	84.88
262.64	78.88
262.872	82.88
263.105	73.88
263.337	85.88
263.57	77.88
263.802	90.88
264.035	89.88
264.267	89.88
264.499	81.88
264.732	76.88
264.964	84.88
265.197	93.88
265.429	102.88
265.661	93.88
265.894	90.88
266.126	75.88
266.358	94.88
266.591	80.88
266.823	104.88
267.055	97.88
267.287	92.88
267.52	93.88
267.752	86.88
267.984	97.88
268.216	93.88
268.448	92.88
268.681	81.88
268.913	86.88
269.145	91.88
269.377	78.88
269.609	95.88
269.841	85.88
270.073	82.88
270.306	85.88
270.538	73.88
270.77	92.88
271.002	86.88
271.234	103.88
271.466	78.88
271.698	91.88
271.93	86.88
272.162	85.88
272.394	85.88
272.626	77.88
272.858	80.88
273.09	84.88
273.322	82.88
273.553	76.88
273.785	89.88
274.017	71.88
274.249	83.88
274.481	82.88
274.713	80.88
274.945	90.88
275.176	90.88
275.408	77.88
275.64	91.88
275.872	70.88
276.104	92.88
276.335	98.88
276.567	85.88
276.799	96.88
277.031	89.88
277.262	95.88
277.494	86.88
277.726	89.88
277.957	73.88
278.189	75.88
278.421	94.88
278.652	93.88
278.884	95.88
279.115	86.88
279.347	94.88
279.579	92.88
279.81	86.88
280.042	96.88
280.273	78.88
280.505	81.88
280.736	91.88
280.968	90.88
281.199	86.88
281.431	87.88
281.662	88.88
281.894	82.88
282.125	84.88
282.356	86.88
282.588	89.88
282.819	88.88
283.051	103.88
283.282	68.88
283.513	88.88
283.745	69.88
283.976	101.88
284.207	79.88
284.439	88.88
284.67	77.88
284.901	93.88
285.132	90.88
285.364	85.88
285.595	90.88
285.826	83.88
286.057	78.88
286.288	86.88
286.52	98.88
286.751	83.88
286.982	87.88
287.213	78.88
287.444	88.88
287.675	84.88
287.906	89.88
288.138	88.88
288.369	78.88
288.6	84.88
288.831	74.88
289.062	93.88
289.293	86.88
289.524	94.88
289.755	93.88
289.986	78.88
290.217	75.88
290.448	94.88
290.679	91.88
290.91	80.88
291.141	99.88
291.371	87.88
291.602	82.88
291.833	92.88
292.064	88.88
292.295	75.88
292.526	96.88
292.757	84.88
292.987	77.88
293.218	82.88
293.449	86.88
293.68	86.88
293.91	78.88
294.141	68.88
294.372	90.88
294.603	88.88
294.833	82.88
295.064	87.88
295.295	92.88
295.525	79.88
295.756	97.88
295.987	91.88
296.217	85.88
296.448	79.88
296.679	88.88
296.909	86.88
297.14	100.88
297.37	91.88
297.601	82.88
297.831	86.88
298.062	80.88
298.292	84.88
298.523	93.88
298.753	89.88
298.984	90.88
299.214	72.88
299.445	85.88
299.675	88.88
299.905	106.88
300.136	85.88
300.366	96.88
300.597	89.88
300.827	93.88
301.057	85.88
301.288	76.88
301.518	94.88
301.748	91.88
301.979	69.88
302.209	96.88
302.439	93.88
302.669	83.88
302.9	85.88
303.13	95.88
303.36	83.88
303.59	82.88
303.82	82.88
304.051	78.88
304.281	97.88
304.511	84.88
304.741	93.88
304.971	88.88
305.201	85.88
305.431	72.88
305.661	85.88
305.891	76.88
306.121	96.88
306.352	86.88
306.582	80.88
306.812	92.88
307.042	95.88
307.272	94.88
307.502	93.88
307.731	94.88
307.961	92.88
308.191	94.88
308.421	98.88
308.651	83.88
308.881	92.88
309.111	68.88
309.341	102.88
309.571	93.88
309.8	70.88
310.03	85.88
310.26	100.88
310.49	75.88
310.72	78.88
310.949	79.88
311.179	95.88
311.409	90.88
311.639	90.88
311.868	82.88
312.098	80.88
312.328	88.88
312.557	82.88
312.787	95.88
313.017	78.88
313.246	92.88
313.476	86.88
313.706	92.88
313.935	84.88
314.165	84.88
314.394	76.88
314.624	78.88
314.853	87.88
315.083	84.88
315.312	85.88
315.542	91.88
315.771	85.88
316.001	79.88
316.23	77.88
316.46	87.88
316.689	96.88
316.919	83.88
317.148	95.88
317.377	86.88
317.607	85.88
317.836	73.88
318.065	84.88
318.295	85.88
318.524	98.88
318.753	95.88
318.983	78.88
319.212	93.88
319.441	86.88
319.67	82.88
319.9	90.88
320.129	72.88
320.358	68.88
320.587	84.88
320.816	90.88
321.046	87.88
321.275	81.88
321.504	74.88
321.733	88.88
321.962	74.88
322.191	99.88
322.42	82.88
322.649	84.88
322.878	78.88
323.108	76.88
323.337	81.88
323.566	84.88
323.795	90.88
324.024	79.88
324.253	89.88
324.482	84.88
324.71	83.88
324.939	87.88
325.168	101.88
325.397	87.88
325.626	80.88
325.855	89.88
326.084	98.88
326.313	77.88
326.542	88.88
326.77	95.88
326.999	85.88
327.228	98.88
327.457	102.88
327.686	99.88
327.914	87.88
328.143	89.88
328.372	81.88
328.6	73.88
328.829	84.88
329.058	83.88
329.287	85.88
329.515	96.88
329.744	84.88
329.972	83.88
330.201	84.88
330.43	76.88
330.658	94.88
330.887	88.88
331.115	104.88
331.344	85.88
331.572	105.88
331.801	89.88
332.03	87.88
332.258	81.88
332.486	82.88
332.715	91.88
332.943	97.88
333.172	91.88
333.4	86.88
333.629	91.88
333.857	88.88
334.085	86.88
334.314	84.88
334.542	102.88
334.771	84.88
334.999	90.88
335.227	89.88
335.455	69.88
335.684	83.88
335.912	93.88
336.14	84.88
336.369	87.88
336.597	83.88
336.825	77.88
337.053	76.88
337.281	79.88
337.51	76.88
337.738	102.88
337.966	83.88
338.194	86.88
338.422	76.88
338.65	82.88
338.878	81.88
339.106	93.88
339.334	86.88
339.562	86.88
339.79	73.88
340.018	76.88
340.246	94.88
340.474	75.88
340.702	85.88
340.93	90.88
341.158	78.88
341.386	95.88
341.614	68.88
341.842	89.88
342.07	78.88
342.298	77.88
342.526	76.88
342.754	76.88
342.981	94.88
343.209	96.88
343.437	103.88
343.665	78.88
343.893	88.88
344.12	81.88
344.348	96.88
344.576	73.88
344.804	88.88
345.031	93.88
345.259	82.88
345.487	95.88
345.714	93.88
345.942	83.88
346.17	82.88
346.397	86.88
346.625	80.88
346.853	103.88
347.08	97.88
347.308	86.88
347.535	99.88
347.763	88.88
347.99	87.88
348.218	85.88
348.445	71.88
348.673	79.88
348.9	92.88
349.128	93.88
349.355	91.88
349.583	85.88
349.81	80.88
350.037	84.88
350.265	87.88
350.492	90.88
350.72	96.88
350.947	65.88
351.174	93.88
351.402	86.88
351.629	94.88
351.856	83.88
352.083	83.88
352.311	82.88
352.538	92.88
352.765	93.88
352.992	98.88
353.22	95.88
353.447	93.88
353.674	82.88
353.901	94.88
354.128	82.88
354.355	84.88
354.583	72.88
354.81	91.88
355.037	78.88
355.264	88.88
355.491	102.88
355.718	82.88
355.945	79.88
356.172	90.88
356.399	86.88
356.626	92.88
356.853	96.88
357.08	92.88
357.307	93.88
357.534	88.88
357.761	74.88
357.988	91.88
358.215	76.88
358.441	86.88
358.668	84.88
358.895	86.88
359.122	77.88
359.349	72.88
359.576	74.88
359.802	78.88
360.029	81.88
360.256	93.88
360.483	80.88
360.709	89.88
360.936	85.88
361.163	82.88
361.39	84.88
361.616	79.88
361.843	84.88
362.07	92.88
362.296	74.88
362.523	96.88
362.749	69.88
362.976	97.88
363.203	81.88
363.429	85.88
363.656	80.88
363.882	94.88
364.109	80.88
364.335	98.88
364.562	84.88
364.788	72.88
365.015	83.88
365.241	80.88
365.468	94.88
365.694	85.88
365.92	90.88
366.147	78.88
366.373	82.88
366.599	81.88
366.826	96.88
367.052	77.88
367.278	99.88
367.505	91.88
367.731	105.88
367.957	91.88
368.184	90.88
368.41	89.88
368.636	90.88
368.862	99.88
369.089	88.88
369.315	90.88
369.541	79.88
369.767	84.88
369.993	93.88
370.219	80.88
370.445	92.88
370.672	79.88
370.898	95.88
371.124	91.88
371.35	85.88
371.576	93.88
371.802	68.88
372.028	83.88
372.254	88.88
372.48	89.88
372.706	89.88
372.932	74.88
373.158	78.88
373.384	102.88
373.61	91.88
373.835	78.88
374.061	96.88
374.287	93.88
374.513	86.88
374.739	92.88
374.965	96.88
375.191	85.88
375.416	89.88
375.642	80.88
375.868	93.88
376.094	79.88
376.319	78.88
376.545	94.88
376.771	92.88
376.997	80.88
377.222	86.88
377.448	85.88
377.674	80.88
377.899	99.88
378.125	87.88
378.35	75.88
378.576	78.88
378.802	95.88
379.027	80.88
379.253	82.88
379.478	96.88
379.704	86.88
379.929	85.88
380.155	103.88
380.38	77.88
380.606	73.88
380.831	86.88
381.057	89.88
381.282	90.88
381.507	81.88
381.733	95.88
381.958	93.88
382.184	101.88
382.409	94.88
382.634	94.88
382.86	78.88
383.085	78.88
383.31	87.88
383.535	90.88
383.761	83.88
383.986	99.88
384.211	89.88
384.436	103.88
384.662	93.88
384.887	86.88
385.112	90.88
385.337	77.88
385.562	80.88
385.787	95.88
386.013	100.88
386.238	91.88
386.463	93.88
386.688	83.88
386.913	90.88
387.138	92.88
387.363	90.88
387.588	96.88
387.813	85.88
388.038	88.88
388.263	99.88
388.488	95.88
388.713	86.88
388.938	88.88
389.163	88.88
389.387	74.88
389.612	97.88
389.837	82.88
390.062	94.88
390.287	100.88
390.512	81.88
390.736	88.88
390.961	79.88
391.186	90.88
391.411	90.88
391.636	93.88
391.86	89.88
392.085	98.88
392.31	100.88
392.534	85.88
392.759	94.88
392.984	94.88
393.208	86.88
393.433	100.88
393.658	90.88
393.882	87.88
394.107	86.88
394.331	96.88
394.556	85.88
394.78	88.88
395.005	73.88
395.229	101.88
395.454	91.88
395.678	92.88
395.903	108.88
396.127	97.88
396.352	84.88
396.576	90.88
396.801	84.88
397.025	86.88
397.249	95.88
397.474	99.88
397.698	83.88
397.922	94.88
398.147	84.88
398.371	88.88
398.595	96.88
398.82	89.88
399.044	86.88
399.268	96.88
399.492	91.88
399.717	86.88
399.941	90.88
400.165	89.88
400.389	86.88
400.613	92.88
400.837	85.88
401.062	87.88
401.286	101.88
401.51	86.88
401.734	105.88
401.958	100.88
402.182	101.88
402.406	79.88
402.63	84.88
402.854	93.88
403.078	87.88
403.302	92.88
403.526	81.88
403.75	95.88
403.974	98.88
404.198	86.88
404.422	92.88
404.645	99.88
404.869	93.88
405.093	88.88
405.317	94.88
405.541	101.88
405.765	87.88
405.988	94.88
406.212	98.88
406.436	93.88
406.66	97.88
406.883	93.88
407.107	96.88
407.331	95.88
407.555	98.88
407.778	94.88
408.002	89.88
408.226	82.88
408.449	97.88
408.673	100.88
408.896	96.88
409.12	91.88
409.344	103.88
409.567	87.88
409.791	88.88
410.014	97.88
410.238	97.88
410.461	89.88
410.685	97.88
410.908	94.88
411.132	95.88
411.355	88.88
411.578	86.88
411.802	90.88
412.025	82.88
412.249	82.88
412.472	84.88
412.695	96.88
412.919	102.88
413.142	106.88
413.365	105.88
413.589	95.88
413.812	78.88
414.035	102.88
414.258	96.88
414.482	94.88
414.705	91.88
414.928	90.88
415.151	96.88
415.374	99.88
415.597	98.88
415.821	97.88
416.044	98.88
416.267	106.88
416.49	86.88
416.713	108.88
416.936	95.88
417.159	95.88
417.382	87.88
417.605	93.88
417.828	94.88
418.051	93.88
418.274	96.88
418.497	84.88
418.72	101.88
418.943	105.88
419.166	103.88
419.389	97.88
419.611	100.88
419.834	88.88
420.057	95.88
420.28	89.88
420.503	102.88
420.726	103.88
420.948	109.88
421.171	91.88
421.394	99.88
421.617	102.88
421.839	99.88
422.062	107.88
422.285	90.88
422.507	107.88
422.73	95.88
422.953	102.88
423.175	89.88
423.398	92.88
423.621	88.88
423.843	108.88
424.066	103.88
424.288	89.88
424.511	98.88
424.733	94.88
424.956	107.88
425.178	106.88
425.401	88.88
425.623	104.88
425.846	104.88
426.068	104.88
426.291	103.88
426.513	97.88
426.735	84.88
426.958	118.88
427.18	96.88
427.402	110.88
427.625	96.88
427.847	88.88
428.069	84.88
428.292	95.88
428.514	98.88
428.736	77.88
428.958	100.88
429.181	100.88
429.403	97.88
429.625	94.88
429.847	106.88
430.069	96.88
430.292	90.88
430.514	84.88
430.736	112.88
430.958	105.88
431.18	92.88
431.402	85.88
431.624	94.88
431.846	90.88
432.068	94.88
432.29	86.88
432.512	92.88
432.734	93.88
432.956	95.88
433.178	91.88
433.4	90.88
433.622	98.88
433.844	107.88
434.066	97.88
434.287	85.88
434.509	84.88
434.731	95.88
434.953	104.88
435.175	97.88
435.397	94.88
435.618	91.88
435.84	88.88
436.062	95.88
436.284	102.88
436.505	96.88
436.727	103.88
436.949	108.88
437.17	98.88
437.392	116.88
437.614	84.88
437.835	86.88
438.057	98.88
438.278	84.88
438.5	88.88
438.721	93.88
438.943	98.88
439.165	106.88
439.386	99.88
439.608	107.88
439.829	101.88
440.05	104.88
440.272	108.88
440.493	107.88
440.715	88.88
440.936	110.88
441.158	104.88
441.379	102.88
441.6	102.88
441.822	102.88
442.043	107.88
442.264	89.88
442.486	105.88
442.707	106.88
442.928	84.88
443.149	88.88
443.371	91.88
443.592	97.88
443.813	120.88
444.034	115.88
444.255	100.88
444.476	104.88
444.698	97.88
444.919	99.88
445.14	239.88
445.361	159.88
445.582	103.88
445.803	92.88
446.024	107.88
446.245	96.88
446.466	101.88
446.687	111.88
446.908	109.88
447.129	107.88
447.35	107.88
447.571	94.88
447.792	118.88
448.013	104.88
448.234	116.88
448.455	91.88
448.675	92.88
448.896	98.88
449.117	104.88
449.338	101.88
449.559	101.88
449.779	98.88
450	97.88
450.221	97.88
450.442	105.88
450.662	108.88
450.883	104.88
451.104	105.88
451.324	100.88
451.545	108.88
451.766	106.88
451.986	101.88
452.207	81.88
452.428	97.88
452.648	101.88
452.869	75.88
453.089	81.88
453.31	69.88
453.53	95.88
453.751	93.88
453.971	92.88
454.192	99.88
454.412	87.88
454.633	98.88
454.853	97.88
455.073	97.88
455.294	90.88
455.514	89.88
455.734	93.88
455.955	76.88
456.175	104.88
456.395	109.88
456.616	101.88
456.836	86.88
457.056	107.88
457.276	96.88
457.497	89.88
457.717	85.88
457.937	82.88
458.157	89.88
458.377	92.88
458.598	76.88
458.818	85.88
459.038	91.88
459.258	79.88
459.478	92.88
459.698	85.88
459.918	99.88
460.138	90.88
460.358	83.88
460.578	87.88
460.798	86.88
461.018	82.88
461.238	96.88
461.458	99.88
461.678	109.88
461.898	97.88
462.118	88.88
462.338	106.88
462.558	85.88
462.777	115.88
462.997	98.88
463.217	94.88
463.437	100.88
463.657	86.88
463.876	85.88
464.096	76.88
464.316	85.88
464.536	86.88
464.755	95.88
464.975	99.88
465.195	90.88
465.414	96.88
465.634	90.88
465.854	90.88
466.073	89.88
466.293	90.88
466.512	72.88
466.732	100.88
466.951	76.88
467.171	99.88
467.391	101.88
467.61	91.88
467.829	78.88
468.049	96.88
468.268	99.88
468.488	73.88
468.707	93.88
468.927	111.88
469.146	93.88
469.365	104.88
469.585	98.88
469.804	89.88
470.023	93.88
470.243	108.88
470.462	104.88
470.681	97.88
470.901	108.88
471.12	101.88
471.339	115.88
471.558	102.88
471.777	96.88
471.997	94.88
472.216	90.88
472.435	81.88
472.654	92.88
472.873	98.88
473.092	87.88
473.311	92.88
473.53	94.88
473.749	99.88
473.968	87.88
474.187	99.88
474.406	101.88
474.625	97.88
474.844	103.88
475.063	103.88
475.282	91.88
475.501	96.88
475.72	94.88
475.939	102.88
476.158	102.88
476.377	112.88
476.596	91.88
476.814	95.88
477.033	93.88
477.252	88.88
477.471	89.88
477.69	98.88
477.908	108.88
478.127	104.88
478.346	96.88
478.564	96.88
478.783	104.88
479.002	104.88
479.22	109.88
479.439	105.88
479.658	91.88
479.876	85.88
480.095	98.88
480.313	92.88
480.532	93.88
480.751	88.88
480.969	86.88
481.188	76.88
481.406	79.88
481.624	89.88
481.843	87.88
482.061	100.88
482.28	82.88
482.498	112.88
482.717	87.88
482.935	84.88
483.153	102.88
483.372	104.88
483.59	89.88
483.808	97.88
484.027	101.88
484.245	97.88
484.463	103.88
484.681	113.88
484.9	104.88
485.118	100.88
485.336	90.88
485.554	86.88
485.772	92.88
485.99	73.88
486.209	78.88
486.427	94.88
486.645	102.88
486.863	104.88
487.081	99.88
487.299	104.88
487.517	93.88
487.735	112.88
487.953	113.88
488.171	115.88
488.389	131.88
488.607	90.88
488.825	104.88
489.043	97.88
489.261	103.88
489.479	107.88
489.696	93.88
489.914	106.88
490.132	106.88
490.35	100.88
490.568	113.88
490.786	120.88
491.003	116.88
491.221	90.88
491.439	118.88
491.657	116.88
491.874	120.88
492.092	131.88
492.31	118.88
492.527	134.88
492.745	118.88
492.963	101.88
493.18	112.88
493.398	122.88
493.615	113.88
493.833	104.88
494.05	103.88
494.268	105.88
494.485	117.88
494.703	103.88
494.92	116.88
495.138	112.88
495.355	121.88
495.573	113.88
495.79	123.88
496.008	110.88
496.225	108.88
496.442	120.88
496.66	123.88
496.877	107.88
497.094	113.88
497.312	115.88
497.529	105.88
497.746	105.88
497.963	94.88
498.181	118.88
498.398	93.88
498.615	96.88
498.832	91.88
499.049	106.88
499.267	102.88
499.484	93.88
499.701	97.88
499.918	108.88
500.135	111.88
500.352	110.88
500.569	86.88
500.786	97.88
501.003	89.88
501.22	101.88
501.437	96.88
501.654	100.88
501.871	103.88
502.088	97.88
502.305	103.88
502.522	116.88
502.739	104.88
502.956	91.88
503.172	101.88
503.389	115.88
503.606	101.88
503.823	94.88
504.04	100.88
504.256	106.88
504.473	103.88
504.69	103.88
504.907	98.88
505.123	103.88
505.34	96.88
505.557	89.88
505.773	98.88
505.99	105.88
506.207	102.88
506.423	96.88
506.64	97.88
506.856	94.88
507.073	101.88
507.289	87.88
507.506	102.88
507.722	93.88
507.939	91.88
508.155	107.88
508.372	101.88
508.588	105.88
508.805	94.88
509.021	86.88
509.238	90.88
509.454	91.88
509.67	107.88
509.887	90.88
510.103	87.88
510.319	82.88
510.536	95.88
510.752	86.88
510.968	73.88
511.184	95.88
511.401	94.88
511.617	86.88
511.833	111.88
512.049	85.88
512.265	89.88
512.481	73.88
512.698	90.88
512.914	85.88
513.13	95.88
513.346	99.88
513.562	92.88
513.778	109.88
513.994	94.88
514.21	84.88
514.426	97.88
514.642	95.88
514.858	88.88
515.074	83.88
515.29	89.88
515.506	89.88
515.721	78.88
515.937	78.88
516.153	96.88
516.369	82.88
516.585	83.88
516.801	91.88
517.016	97.88
517.232	96.88
517.448	96.88
517.664	96.88
517.879	83.88
518.095	78.88
518.311	91.88
518.527	82.88
518.742	96.88
518.958	96.88
519.173	81.88
519.389	102.88
519.605	88.88
519.82	92.88
520.036	94.88
520.251	84.88
520.467	101.88
520.682	88.88
520.898	79.88
521.113	82.88
521.329	72.88
521.544	88.88
521.76	108.88
521.975	88.88
522.19	87.88
522.406	83.88
522.621	107.88
522.836	98.88
523.052	100.88
523.267	99.88
523.482	89.88
523.698	89.88
523.913	100.88
524.128	90.88
524.343	94.88
524.559	109.88
524.774	98.88
524.989	102.88
525.204	103.88
525.419	90.88
525.634	100.88
525.849	103.88
526.064	88.88
526.28	91.88
526.495	84.88
526.71	89.88
526.925	88.88
527.14	85.88
527.355	78.88
527.57	90.88
527.785	86.88
527.999	108.88
528.214	88.88
528.429	96.88
528.644	85.88
528.859	116.88
529.074	102.88
529.289	119.88
529.503	111.88
529.718	86.88
529.933	102.88
530.148	100.88
530.363	91.88
530.577	92.88
530.792	90.88
531.007	97.88
531.221	90.88
531.436	99.88
531.651	83.88
531.865	74.88
532.08	80.88
532.295	90.88
532.509	90.88
532.724	87.88
532.938	84.88
533.153	101.88
533.367	91.88
533.582	102.88
533.796	97.88
534.011	104.88
534.225	95.88
534.44	101.88
534.654	81.88
534.868	83.88
535.083	82.88
535.297	99.88
535.511	86.88
535.726	95.88
535.94	88.88
536.154	106.88
536.369	101.88
536.583	78.88
536.797	112.88
537.011	79.88
537.225	83.88
537.44	81.88
537.654	92.88
537.868	84.88
538.082	72.88
538.296	97.88
538.51	97.88
538.724	101.88
538.938	106.88
539.153	105.88
539.367	95.88
539.581	86.88
539.795	88.88
540.009	95.88
540.222	103.88
540.436	89.88
540.65	92.88
540.864	97.88
541.078	99.88
541.292	97.88
541.506	115.88
541.72	110.88
541.934	110.88
542.147	131.88
542.361	125.88
542.575	124.88
542.789	120.88
543.002	97.88
543.216	93.88
543.43	101.88
543.644	109.88
543.857	113.88
544.071	98.88
544.285	116.88
544.498	115.88
544.712	104.88
544.925	107.88
545.139	91.88
545.352	114.88
545.566	101.88
545.779	105.88
545.993	110.88
546.206	106.88
546.42	106.88
546.633	114.88
546.847	102.88
547.06	118.88
547.274	118.88
547.487	122.88
547.7	115.88
547.914	108.88
548.127	119.88
548.34	127.88
548.554	107.88
548.767	115.88
548.98	107.88
549.193	95.88
549.407	104.88
549.62	114.88
549.833	99.88
550.046	116.88
550.259	116.88
550.473	106.88
550.686	104.88
550.899	110.88
551.112	100.88
551.325	91.88
551.538	103.88
551.751	96.88
551.964	87.88
552.177	114.88
552.39	93.88
552.603	112.88
552.816	114.88
553.029	96.88
553.242	120.88
553.455	123.88
553.667	93.88
553.88	118.88
554.093	95.88
554.306	97.88
554.519	109.88
554.732	109.88
554.944	111.88
555.157	117.88
555.37	96.88
555.583	102.88
555.795	89.88
556.008	92.88
556.221	103.88
556.433	102.88
556.646	99.88
556.859	116.88
557.071	100.88
557.284	97.88
557.496	107.88
557.709	101.88
557.921	106.88
558.134	102.88
558.346	113.88
558.559	94.88
558.771	102.88
558.984	102.88
559.196	95.88
559.409	106.88
559.621	92.88
559.833	98.88
560.046	100.88
560.258	104.88
560.47	98.88
560.683	101.88
560.895	104.88
561.107	109.88
561.32	110.88
561.532	93.88
561.744	104.88
561.956	117.88
562.168	126.88
562.381	100.88
562.593	106.88
562.805	100.88
563.017	92.88
563.229	102.88
563.441	91.88
563.653	94.88
563.865	90.88
564.077	110.88
564.289	86.88
564.501	89.88
564.713	107.88
564.925	105.88
565.137	104.88
565.349	91.88
565.561	97.88
565.773	112.88
565.985	102.88
566.197	103.88
566.408	90.88
566.62	97.88
566.832	100.88
567.044	89.88
567.255	89.88
567.467	92.88
567.679	95.88
567.891	106.88
568.102	86.88
568.314	87.88
568.526	87.88
568.737	86.88
568.949	77.88
569.161	96.88
569.372	74.88
569.584	80.88
569.795	89.88
570.007	92.88
570.218	90.88
570.43	94.88
570.641	76.88
570.853	94.88
571.064	85.88
571.276	95.88
571.487	102.88
571.698	89.88
571.91	105.88
572.121	93.88
572.333	100.88
572.544	94.88
572.755	93.88
572.966	95.88
573.178	91.88
573.389	92.88
573.6	74.88
573.811	82.88
574.023	75.88
574.234	89.88
574.445	96.88
574.656	80.88
574.867	82.88
575.078	102.88
575.289	90.88
575.501	98.88
575.712	73.88
575.923	105.88
576.134	97.88
576.345	95.88
576.556	89.88
576.767	88.88
576.978	98.88
577.188	96.88
577.399	88.88
577.61	85.88
577.821	86.88
578.032	92.88
578.243	90.88
578.454	86.88
578.665	75.88
578.875	85.88
579.086	79.88
579.297	86.88
579.508	82.88
579.718	78.88
579.929	104.88
580.14	97.88
580.35	74.88
580.561	88.88
580.772	93.88
580.982	93.88
581.193	85.88
581.403	83.88
581.614	86.88
581.825	83.88
582.035	84.88
582.246	92.88
582.456	91.88
582.667	92.88
582.877	92.88
583.087	94.88
583.298	72.88
583.508	91.88
583.719	99.88
583.929	97.88
584.139	94.88
584.35	77.88
584.56	76.88
584.77	80.88
584.981	95.88
585.191	84.88
585.401	86.88
585.611	100.88
585.821	77.88
586.032	83.88
586.242	87.88
586.452	90.88
586.662	91.88
586.872	73.88
587.082	88.88
587.292	77.88
587.502	97.88
587.713	88.88
587.923	88.88
588.133	82.88
588.343	87.88
588.553	92.88
588.762	80.88
588.972	97.88
589.182	92.88
589.392	82.88
589.602	96.88
589.812	81.88
590.022	93.88
590.232	93.88
590.441	88.88
590.651	78.88
590.861	88.88
591.071	91.88
591.281	74.88
591.49	82.88
591.7	81.88
591.91	87.88
592.119	97.88
592.329	92.88
592.539	92.88
592.748	92.88
592.958	81.88
593.167	97.88
593.377	79.88
593.587	88.88
593.796	81.88
594.006	91.88
594.215	85.88
594.424	94.88
594.634	88.88
594.843	84.88
595.053	89.88
595.262	90.88
595.472	91.88
595.681	91.88
595.89	91.88
596.1	85.88
596.309	81.88
596.518	98.88
596.727	88.88
596.937	87.88
597.146	98.88
597.355	98.88
597.564	92.88
597.774	86.88
597.983	86.88
598.192	97.88
598.401	89.88
598.61	81.88
598.819	82.88
599.028	70.88
599.237	80.88
599.446	79.88
599.655	84.88
599.864	84.88
600.073	86.88
600.282	108.88
600.491	83.88
600.7	85.88
600.909	104.88
601.118	84.88
601.327	84.88
601.536	90.88
601.745	78.88
601.953	85.88
602.162	84.88
602.371	75.88
602.58	100.88
602.789	104.88
602.997	98.88
603.206	87.88
603.415	82.88
603.623	81.88
603.832	87.88
604.041	83.88
604.249	86.88
604.458	96.88
604.666	106.88
604.875	100.88
605.084	94.88
605.292	113.88
605.501	91.88
605.709	97.88
605.918	92.88
606.126	92.88
606.334	100.88
606.543	93.88
606.751	101.88
606.96	98.88
607.168	92.88
607.376	93.88
607.585	97.88
607.793	96.88
608.001	89.88
608.21	100.88
608.418	94.88
608.626	85.88
608.834	89.88
609.043	105.88
609.251	97.88
609.459	100.88
609.667	89.88
609.875	102.88
610.083	93.88
610.291	91.88
610.499	103.88
610.707	101.88
610.916	97.88
611.124	92.88
611.332	101.88
611.54	101.88
611.748	108.88
611.955	99.88
612.163	97.88
612.371	93.88
612.579	97.88
612.787	93.88
612.995	87.88
613.203	105.88
613.411	105.88
613.618	106.88
613.826	96.88
614.034	103.88
614.242	92.88
614.449	92.88
614.657	92.88
614.865	95.88
615.072	96.88
615.28	103.88
615.488	92.88
615.695	81.88
615.903	100.88
616.111	90.88
616.318	94.88
616.526	103.88
616.733	98.88
616.941	94.88
617.148	104.88
617.356	112.88
617.563	94.88
617.771	96.88
617.978	91.88
618.185	112.88
618.393	96.88
618.6	75.88
618.807	92.88
619.015	93.88
619.222	104.88
619.429	81.88
619.637	113.88
619.844	78.88
620.051	79.88
620.258	94.88
620.466	89.88
620.673	86.88
620.88	94.88
621.087	94.88
621.294	92.88
621.501	82.88
621.708	90.88
621.915	95.88
622.122	92.88
622.329	88.88
622.536	97.88
622.743	87.88
622.95	108.88
623.157	97.88
623.364	91.88
623.571	83.88
623.778	89.88
623.985	93.88
624.192	91.88
624.399	102.88
624.606	99.88
624.812	87.88
625.019	99.88
625.226	100.88
625.433	89.88
625.639	91.88
625.846	91.88
626.053	92.88
626.259	100.88
626.466	90.88
626.673	88.88
626.879	82.88
627.086	82.88
627.293	84.88
627.499	83.88
627.706	87.88
627.912	93.88
628.119	91.88
628.325	83.88
628.532	86.88
628.738	94.88
628.945	83.88
629.151	88.88
629.357	101.88
629.564	98.88
629.77	89.88
629.976	99.88
630.183	94.88
630.389	70.88
630.595	89.88
630.802	89.88
631.008	82.88
631.214	100.88
631.42	92.88
631.627	99.88
631.833	98.88
632.039	81.88
632.245	86.88
632.451	79.88
632.657	93.88
632.863	96.88
633.069	93.88
633.275	99.88
633.481	88.88
633.688	108.88
633.893	100.88
634.099	103.88
634.305	84.88
634.511	91.88
634.717	80.88
634.923	73.88
635.129	88.88
635.335	83.88
635.541	82.88
635.747	92.88
635.952	105.88
636.158	76.88
636.364	83.88
636.57	88.88
636.775	91.88
636.981	88.88
637.187	81.88
637.392	90.88
637.598	90.88
637.804	86.88
638.009	83.88
638.215	93.88
638.421	93.88
638.626	92.88
638.832	89.88
639.037	86.88
639.243	80.88
639.448	103.88
639.654	94.88
639.859	96.88
640.065	90.88
640.27	99.88
640.475	93.88
640.681	96.88
640.886	81.88
641.091	92.88
641.297	95.88
641.502	89.88
641.707	90.88
641.913	86.88
642.118	88.88
642.323	95.88
642.528	90.88
642.733	108.88
642.939	89.88
643.144	93.88
643.349	96.88
643.554	99.88
643.759	88.88
643.964	85.88
644.169	93.88
644.374	94.88
644.579	85.88
644.784	92.88
644.989	83.88
645.194	75.88
645.399	85.88
645.604	95.88
645.809	86.88
646.014	106.88
646.219	88.88
646.423	93.88
646.628	94.88
646.833	105.88
647.038	87.88
647.243	94.88
647.447	97.88
647.652	92.88
647.857	96.88
648.062	92.88
648.266	90.88
648.471	85.88
648.676	90.88
648.88	77.88
649.085	77.88
649.289	89.88
649.494	99.88
649.698	104.88
649.903	105.88
650.107	103.88
650.312	94.88
650.516	89.88
650.721	105.88
650.925	91.88
651.13	85.88
651.334	88.88
651.539	84.88
651.743	102.88
651.947	91.88
652.152	97.88
652.356	86.88
652.56	87.88
652.764	88.88
652.969	93.88
653.173	84.88
653.377	81.88
653.581	76.88
653.785	87.88
653.99	85.88
654.194	94.88
654.398	91.88
654.602	87.88
654.806	84.88
655.01	90.88
655.214	86.88
655.418	83.88
655.622	76.88
655.826	90.88
656.03	91.88
656.234	87.88
656.438	79.88
656.642	77.88
656.846	89.88
657.049	96.88
657.253	85.88
657.457	92.88
657.661	78.88
657.865	86.88
658.068	84.88
658.272	80.88
658.476	72.88
658.68	78.88
658.883	90.88
659.087	86.88
659.291	89.88
659.494	106.88
659.698	77.88
659.901	90.88
660.105	90.88
660.309	90.88
660.512	78.88
660.716	76.88
660.919	96.88
661.123	83.88
661.326	72.88
661.53	96.88
661.733	84.88
661.936	89.88
662.14	78.88
662.343	85.88
662.546	99.88
662.75	80.88
662.953	92.88
663.156	81.88
663.36	75.88
663.563	97.88
663.766	79.88
663.969	93.88
664.173	89.88
664.376	96.88
664.579	90.88
664.782	68.88
664.985	89.88
665.188	75.88
665.391	78.88
665.594	82.88
665.797	75.88
666	83.88
666.203	78.88
666.406	81.88
666.609	96.88
666.812	84.88
667.015	78.88
667.218	104.88
667.421	87.88
667.624	78.88
667.827	80.88
668.03	75.88
668.232	95.88
668.435	84.88
668.638	78.88
668.841	76.88
669.043	74.88
669.246	78.88
669.449	76.88
669.651	89.88
669.854	93.88
670.057	74.88
670.259	101.88
670.462	98.88
670.665	87.88
670.867	70.88
671.07	86.88
671.272	96.88
671.475	70.88
671.677	91.88
671.88	85.88
672.082	76.88
672.284	77.88
672.487	82.88
672.689	78.88
672.892	87.88
