Data from Location3.07152019.Energy5.Lamp.07192019.3%Agarose_HRD10591_15-16-45-270.txt Node
Date: Fri Jul 19 15:16:45 EDT 2019
User: cochatt
Spectrometer: HR+D1059
Trigger mode: 1
Integration Time (sec): 1.000000E-1
Scans to average: 1
Electric dark correction enabled: true
Nonlinearity correction enabled: false
Boxcar width: 0
XAxis mode: Wavelengths
Number of Pixels in Spectrum: 2048
>>>>>Begin Spectral Data<<<<<
223.165	-29.62
223.4	-29.62
223.635	-29.62
223.869	-16.62
224.104	-22.62
224.338	-29.62
224.573	-13.62
224.808	-19.62
225.042	10.38
225.277	-1.62
225.511	-2.62
225.746	-3.62
225.98	9.38
226.215	12.38
226.449	28.38
226.683	29.38
226.918	24.38
227.152	25.38
227.387	38.38
227.621	43.38
227.856	35.38
228.09	47.38
228.324	48.38
228.559	51.38
228.793	64.38
229.027	64.38
229.262	62.38
229.496	66.38
229.73	71.38
229.964	72.38
230.199	71.38
230.433	71.38
230.667	69.38
230.901	66.38
231.136	80.38
231.37	89.38
231.604	77.38
231.838	73.38
232.072	62.38
232.306	88.38
232.541	85.38
232.775	71.38
233.009	72.38
233.243	83.38
233.477	78.38
233.711	85.38
233.945	91.38
234.179	92.38
234.413	88.38
234.647	87.38
234.881	94.38
235.115	73.38
235.349	86.38
235.583	77.38
235.817	74.38
236.051	66.38
236.285	89.38
236.519	83.38
236.753	70.38
236.987	86.38
237.221	84.38
237.455	72.38
237.689	86.38
237.922	83.38
238.156	91.38
238.39	69.38
238.624	74.38
238.858	70.38
239.091	87.38
239.325	78.38
239.559	77.38
239.793	78.38
240.027	84.38
240.26	73.38
240.494	74.38
240.728	79.38
240.961	72.38
241.195	90.38
241.429	83.38
241.662	79.38
241.896	81.38
242.13	54.38
242.363	79.38
242.597	68.38
242.83	69.38
243.064	84.38
243.298	75.38
243.531	75.38
243.765	83.38
243.998	85.38
244.232	69.38
244.465	84.38
244.699	70.38
244.932	87.38
245.166	73.38
245.399	79.38
245.633	82.38
245.866	86.38
246.099	73.38
246.333	79.38
246.566	67.38
246.8	82.38
247.033	82.38
247.266	74.38
247.5	71.38
247.733	69.38
247.966	82.38
248.2	86.38
248.433	58.38
248.666	72.38
248.899	90.38
249.133	91.38
249.366	103.38
249.599	88.38
249.832	87.38
250.066	76.38
250.299	62.38
250.532	72.38
250.765	72.38
250.998	76.38
251.231	83.38
251.465	68.38
251.698	72.38
251.931	66.38
252.164	75.38
252.397	77.38
252.63	81.38
252.863	82.38
253.096	92.38
253.329	66.38
253.562	65.38
253.795	78.38
254.028	68.38
254.261	71.38
254.494	86.38
254.727	84.38
254.96	79.38
255.193	84.38
255.426	77.38
255.659	71.38
255.892	79.38
256.124	79.38
256.357	80.38
256.59	81.38
256.823	70.38
257.056	92.38
257.289	78.38
257.521	79.38
257.754	82.38
257.987	72.38
258.22	70.38
258.452	72.38
258.685	73.38
258.918	76.38
259.151	79.38
259.383	84.38
259.616	83.38
259.849	91.38
260.081	80.38
260.314	76.38
260.547	74.38
260.779	81.38
261.012	79.38
261.244	90.38
261.477	79.38
261.71	79.38
261.942	82.38
262.175	90.38
262.407	84.38
262.64	86.38
262.872	74.38
263.105	85.38
263.337	74.38
263.57	92.38
263.802	68.38
264.035	80.38
264.267	84.38
264.499	87.38
264.732	91.38
264.964	76.38
265.197	85.38
265.429	76.38
265.661	62.38
265.894	80.38
266.126	81.38
266.358	80.38
266.591	94.38
266.823	90.38
267.055	77.38
267.287	88.38
267.52	90.38
267.752	88.38
267.984	82.38
268.216	100.38
268.448	86.38
268.681	92.38
268.913	89.38
269.145	74.38
269.377	85.38
269.609	82.38
269.841	72.38
270.073	83.38
270.306	84.38
270.538	92.38
270.77	79.38
271.002	81.38
271.234	89.38
271.466	97.38
271.698	68.38
271.93	87.38
272.162	80.38
272.394	86.38
272.626	87.38
272.858	80.38
273.09	84.38
273.322	81.38
273.553	95.38
273.785	80.38
274.017	87.38
274.249	70.38
274.481	78.38
274.713	83.38
274.945	96.38
275.176	73.38
275.408	87.38
275.64	77.38
275.872	93.38
276.104	85.38
276.335	80.38
276.567	84.38
276.799	64.38
277.031	75.38
277.262	98.38
277.494	86.38
277.726	79.38
277.957	91.38
278.189	76.38
278.421	84.38
278.652	87.38
278.884	84.38
279.115	83.38
279.347	83.38
279.579	91.38
279.81	78.38
280.042	67.38
280.273	93.38
280.505	94.38
280.736	89.38
280.968	87.38
281.199	74.38
281.431	97.38
281.662	83.38
281.894	84.38
282.125	76.38
282.356	86.38
282.588	83.38
282.819	79.38
283.051	85.38
283.282	86.38
283.513	74.38
283.745	75.38
283.976	80.38
284.207	94.38
284.439	94.38
284.67	77.38
284.901	76.38
285.132	85.38
285.364	87.38
285.595	81.38
285.826	75.38
286.057	92.38
286.288	83.38
286.52	84.38
286.751	82.38
286.982	79.38
287.213	86.38
287.444	94.38
287.675	82.38
287.906	83.38
288.138	81.38
288.369	87.38
288.6	100.38
288.831	90.38
289.062	80.38
289.293	78.38
289.524	89.38
289.755	79.38
289.986	81.38
290.217	81.38
290.448	83.38
290.679	82.38
290.91	89.38
291.141	97.38
291.371	82.38
291.602	95.38
291.833	84.38
292.064	71.38
292.295	82.38
292.526	89.38
292.757	67.38
292.987	92.38
293.218	72.38
293.449	86.38
293.68	93.38
293.91	92.38
294.141	80.38
294.372	78.38
294.603	80.38
294.833	87.38
295.064	86.38
295.295	93.38
295.525	98.38
295.756	89.38
295.987	99.38
296.217	90.38
296.448	81.38
296.679	79.38
296.909	75.38
297.14	79.38
297.37	94.38
297.601	92.38
297.831	68.38
298.062	90.38
298.292	73.38
298.523	77.38
298.753	102.38
298.984	94.38
299.214	77.38
299.445	80.38
299.675	87.38
299.905	85.38
300.136	88.38
300.366	88.38
300.597	104.38
300.827	76.38
301.057	88.38
301.288	85.38
301.518	81.38
301.748	81.38
301.979	85.38
302.209	79.38
302.439	83.38
302.669	70.38
302.9	86.38
303.13	81.38
303.36	87.38
303.59	91.38
303.82	78.38
304.051	85.38
304.281	81.38
304.511	87.38
304.741	72.38
304.971	82.38
305.201	98.38
305.431	92.38
305.661	90.38
305.891	88.38
306.121	71.38
306.352	80.38
306.582	79.38
306.812	80.38
307.042	87.38
307.272	83.38
307.502	82.38
307.731	79.38
307.961	97.38
308.191	96.38
308.421	81.38
308.651	87.38
308.881	83.38
309.111	83.38
309.341	76.38
309.571	89.38
309.8	81.38
310.03	84.38
310.26	78.38
310.49	82.38
310.72	83.38
310.949	86.38
311.179	85.38
311.409	98.38
311.639	90.38
311.868	71.38
312.098	76.38
312.328	78.38
312.557	80.38
312.787	83.38
313.017	83.38
313.246	88.38
313.476	86.38
313.706	95.38
313.935	85.38
314.165	64.38
314.394	92.38
314.624	82.38
314.853	90.38
315.083	74.38
315.312	75.38
315.542	56.38
315.771	77.38
316.001	84.38
316.23	87.38
316.46	83.38
316.689	81.38
316.919	71.38
317.148	93.38
317.377	90.38
317.607	91.38
317.836	79.38
318.065	89.38
318.295	79.38
318.524	75.38
318.753	67.38
318.983	87.38
319.212	79.38
319.441	80.38
319.67	87.38
319.9	89.38
320.129	95.38
320.358	107.38
320.587	91.38
320.816	74.38
321.046	86.38
321.275	96.38
321.504	82.38
321.733	73.38
321.962	90.38
322.191	85.38
322.42	106.38
322.649	76.38
322.878	106.38
323.108	86.38
323.337	89.38
323.566	87.38
323.795	90.38
324.024	83.38
324.253	94.38
324.482	92.38
324.71	95.38
324.939	84.38
325.168	86.38
325.397	87.38
325.626	97.38
325.855	83.38
326.084	91.38
326.313	75.38
326.542	79.38
326.77	92.38
326.999	75.38
327.228	86.38
327.457	90.38
327.686	92.38
327.914	82.38
328.143	89.38
328.372	73.38
328.6	94.38
328.829	101.38
329.058	85.38
329.287	88.38
329.515	83.38
329.744	95.38
329.972	94.38
330.201	88.38
330.43	90.38
330.658	76.38
330.887	87.38
331.115	72.38
331.344	96.38
331.572	97.38
331.801	85.38
332.03	95.38
332.258	74.38
332.486	88.38
332.715	83.38
332.943	87.38
333.172	94.38
333.4	78.38
333.629	69.38
333.857	71.38
334.085	71.38
334.314	81.38
334.542	82.38
334.771	93.38
334.999	79.38
335.227	87.38
335.455	84.38
335.684	82.38
335.912	96.38
336.14	86.38
336.369	75.38
336.597	85.38
336.825	80.38
337.053	85.38
337.281	86.38
337.51	90.38
337.738	83.38
337.966	78.38
338.194	94.38
338.422	94.38
338.65	97.38
338.878	91.38
339.106	66.38
339.334	91.38
339.562	80.38
339.79	87.38
340.018	88.38
340.246	82.38
340.474	98.38
340.702	80.38
340.93	75.38
341.158	76.38
341.386	91.38
341.614	84.38
341.842	90.38
342.07	74.38
342.298	76.38
342.526	79.38
342.754	82.38
342.981	81.38
343.209	93.38
343.437	75.38
343.665	82.38
343.893	92.38
344.12	89.38
344.348	76.38
344.576	78.38
344.804	73.38
345.031	80.38
345.259	99.38
345.487	96.38
345.714	73.38
345.942	82.38
346.17	90.38
346.397	75.38
346.625	88.38
346.853	75.38
347.08	85.38
347.308	81.38
347.535	75.38
347.763	86.38
347.99	79.38
348.218	81.38
348.445	81.38
348.673	79.38
348.9	78.38
349.128	86.38
349.355	79.38
349.583	77.38
349.81	76.38
350.037	82.38
350.265	97.38
350.492	87.38
350.72	77.38
350.947	70.38
351.174	90.38
351.402	88.38
351.629	83.38
351.856	87.38
352.083	86.38
352.311	89.38
352.538	94.38
352.765	71.38
352.992	87.38
353.22	84.38
353.447	70.38
353.674	89.38
353.901	94.38
354.128	84.38
354.355	75.38
354.583	92.38
354.81	84.38
355.037	81.38
355.264	90.38
355.491	81.38
355.718	82.38
355.945	82.38
356.172	86.38
356.399	74.38
356.626	79.38
356.853	82.38
357.08	87.38
357.307	78.38
357.534	85.38
357.761	87.38
357.988	83.38
358.215	100.38
358.441	66.38
358.668	83.38
358.895	83.38
359.122	71.38
359.349	80.38
359.576	95.38
359.802	84.38
360.029	77.38
360.256	83.38
360.483	77.38
360.709	77.38
360.936	72.38
361.163	89.38
361.39	78.38
361.616	71.38
361.843	73.38
362.07	96.38
362.296	82.38
362.523	84.38
362.749	78.38
362.976	81.38
363.203	80.38
363.429	87.38
363.656	93.38
363.882	79.38
364.109	89.38
364.335	93.38
364.562	88.38
364.788	90.38
365.015	83.38
365.241	84.38
365.468	82.38
365.694	81.38
365.92	103.38
366.147	85.38
366.373	79.38
366.599	74.38
366.826	77.38
367.052	87.38
367.278	78.38
367.505	85.38
367.731	92.38
367.957	79.38
368.184	85.38
368.41	86.38
368.636	87.38
368.862	95.38
369.089	82.38
369.315	85.38
369.541	85.38
369.767	95.38
369.993	99.38
370.219	79.38
370.445	82.38
370.672	87.38
370.898	82.38
371.124	80.38
371.35	86.38
371.576	90.38
371.802	86.38
372.028	83.38
372.254	75.38
372.48	75.38
372.706	85.38
372.932	80.38
373.158	88.38
373.384	92.38
373.61	97.38
373.835	94.38
374.061	93.38
374.287	76.38
374.513	99.38
374.739	79.38
374.965	88.38
375.191	93.38
375.416	79.38
375.642	96.38
375.868	89.38
376.094	83.38
376.319	95.38
376.545	95.38
376.771	64.38
376.997	87.38
377.222	85.38
377.448	98.38
377.674	73.38
377.899	78.38
378.125	75.38
378.35	90.38
378.576	79.38
378.802	99.38
379.027	88.38
379.253	97.38
379.478	86.38
379.704	71.38
379.929	84.38
380.155	72.38
380.38	82.38
380.606	84.38
380.831	87.38
381.057	100.38
381.282	91.38
381.507	95.38
381.733	99.38
381.958	90.38
382.184	76.38
382.409	73.38
382.634	76.38
382.86	86.38
383.085	90.38
383.31	78.38
383.535	79.38
383.761	73.38
383.986	82.38
384.211	87.38
384.436	80.38
384.662	81.38
384.887	90.38
385.112	93.38
385.337	90.38
385.562	85.38
385.787	85.38
386.013	89.38
386.238	101.38
386.463	86.38
386.688	91.38
386.913	98.38
387.138	85.38
387.363	83.38
387.588	88.38
387.813	91.38
388.038	86.38
388.263	78.38
388.488	82.38
388.713	101.38
388.938	89.38
389.163	80.38
389.387	78.38
389.612	91.38
389.837	80.38
390.062	82.38
390.287	86.38
390.512	85.38
390.736	91.38
390.961	94.38
391.186	84.38
391.411	80.38
391.636	92.38
391.86	75.38
392.085	87.38
392.31	82.38
392.534	85.38
392.759	100.38
392.984	83.38
393.208	89.38
393.433	85.38
393.658	85.38
393.882	78.38
394.107	85.38
394.331	87.38
394.556	87.38
394.78	80.38
395.005	78.38
395.229	91.38
395.454	89.38
395.678	102.38
395.903	99.38
396.127	96.38
396.352	89.38
396.576	88.38
396.801	90.38
397.025	91.38
397.249	89.38
397.474	87.38
397.698	88.38
397.922	80.38
398.147	75.38
398.371	88.38
398.595	87.38
398.82	86.38
399.044	87.38
399.268	84.38
399.492	73.38
399.717	83.38
399.941	79.38
400.165	84.38
400.389	82.38
400.613	92.38
400.837	99.38
401.062	92.38
401.286	98.38
401.51	89.38
401.734	76.38
401.958	88.38
402.182	81.38
402.406	81.38
402.63	67.38
402.854	76.38
403.078	87.38
403.302	80.38
403.526	101.38
403.75	80.38
403.974	75.38
404.198	93.38
404.422	97.38
404.645	90.38
404.869	90.38
405.093	97.38
405.317	84.38
405.541	71.38
405.765	94.38
405.988	105.38
406.212	82.38
406.436	88.38
406.66	76.38
406.883	82.38
407.107	82.38
407.331	89.38
407.555	94.38
407.778	100.38
408.002	91.38
408.226	101.38
408.449	95.38
408.673	86.38
408.896	89.38
409.12	89.38
409.344	78.38
409.567	91.38
409.791	83.38
410.014	80.38
410.238	81.38
410.461	84.38
410.685	83.38
410.908	90.38
411.132	91.38
411.355	101.38
411.578	84.38
411.802	85.38
412.025	99.38
412.249	89.38
412.472	95.38
412.695	103.38
412.919	85.38
413.142	84.38
413.365	102.38
413.589	87.38
413.812	104.38
414.035	99.38
414.258	103.38
414.482	114.38
414.705	90.38
414.928	93.38
415.151	96.38
415.374	80.38
415.597	88.38
415.821	90.38
416.044	89.38
416.267	97.38
416.49	103.38
416.713	86.38
416.936	94.38
417.159	99.38
417.382	99.38
417.605	95.38
417.828	85.38
418.051	90.38
418.274	91.38
418.497	90.38
418.72	98.38
418.943	96.38
419.166	98.38
419.389	103.38
419.611	90.38
419.834	96.38
420.057	99.38
420.28	102.38
420.503	87.38
420.726	84.38
420.948	87.38
421.171	100.38
421.394	87.38
421.617	95.38
421.839	89.38
422.062	107.38
422.285	83.38
422.507	86.38
422.73	92.38
422.953	89.38
423.175	89.38
423.398	91.38
423.621	99.38
423.843	94.38
424.066	95.38
424.288	89.38
424.511	103.38
424.733	94.38
424.956	105.38
425.178	113.38
425.401	101.38
425.623	81.38
425.846	94.38
426.068	98.38
426.291	100.38
426.513	96.38
426.735	95.38
426.958	95.38
427.18	99.38
427.402	95.38
427.625	88.38
427.847	84.38
428.069	105.38
428.292	103.38
428.514	93.38
428.736	89.38
428.958	90.38
429.181	93.38
429.403	91.38
429.625	89.38
429.847	89.38
430.069	95.38
430.292	91.38
430.514	107.38
430.736	91.38
430.958	94.38
431.18	96.38
431.402	86.38
431.624	89.38
431.846	86.38
432.068	87.38
432.29	60.38
432.512	76.38
432.734	91.38
432.956	101.38
433.178	98.38
433.4	84.38
433.622	99.38
433.844	88.38
434.066	89.38
434.287	91.38
434.509	91.38
434.731	87.38
434.953	83.38
435.175	84.38
435.397	81.38
435.618	93.38
435.84	96.38
436.062	103.38
436.284	95.38
436.505	97.38
436.727	115.38
436.949	94.38
437.17	96.38
437.392	88.38
437.614	104.38
437.835	102.38
438.057	96.38
438.278	95.38
438.5	82.38
438.721	91.38
438.943	99.38
439.165	102.38
439.386	96.38
439.608	92.38
439.829	105.38
440.05	98.38
440.272	91.38
440.493	104.38
440.715	97.38
440.936	102.38
441.158	101.38
441.379	100.38
441.6	101.38
441.822	102.38
442.043	70.38
442.264	84.38
442.486	102.38
442.707	94.38
442.928	104.38
443.149	93.38
443.371	96.38
443.592	95.38
443.813	104.38
444.034	89.38
444.255	98.38
444.476	98.38
444.698	85.38
444.919	97.38
445.14	176.38
445.361	146.38
445.582	105.38
445.803	107.38
446.024	99.38
446.245	103.38
446.466	99.38
446.687	102.38
446.908	105.38
447.129	111.38
447.35	107.38
447.571	104.38
447.792	103.38
448.013	93.38
448.234	101.38
448.455	96.38
448.675	104.38
448.896	101.38
449.117	97.38
449.338	106.38
449.559	91.38
449.779	87.38
450	89.38
450.221	91.38
450.442	89.38
450.662	96.38
450.883	82.38
451.104	97.38
451.324	103.38
451.545	94.38
451.766	98.38
451.986	101.38
452.207	97.38
452.428	81.38
452.648	91.38
452.869	79.38
453.089	97.38
453.31	79.38
453.53	92.38
453.751	91.38
453.971	98.38
454.192	85.38
454.412	92.38
454.633	95.38
454.853	91.38
455.073	83.38
455.294	88.38
455.514	80.38
455.734	87.38
455.955	80.38
456.175	93.38
456.395	87.38
456.616	86.38
456.836	90.38
457.056	97.38
457.276	89.38
457.497	79.38
457.717	87.38
457.937	83.38
458.157	87.38
458.377	82.38
458.598	67.38
458.818	86.38
459.038	98.38
459.258	94.38
459.478	69.38
459.698	80.38
459.918	99.38
460.138	64.38
460.358	71.38
460.578	89.38
460.798	98.38
461.018	89.38
461.238	91.38
461.458	73.38
461.678	92.38
461.898	100.38
462.118	100.38
462.338	103.38
462.558	91.38
462.777	89.38
462.997	100.38
463.217	88.38
463.437	97.38
463.657	85.38
463.876	95.38
464.096	84.38
464.316	92.38
464.536	86.38
464.755	88.38
464.975	93.38
465.195	95.38
465.414	103.38
465.634	92.38
465.854	91.38
466.073	82.38
466.293	96.38
466.512	102.38
466.732	94.38
466.951	101.38
467.171	95.38
467.391	89.38
467.61	98.38
467.829	99.38
468.049	98.38
468.268	87.38
468.488	97.38
468.707	90.38
468.927	95.38
469.146	112.38
469.365	105.38
469.585	103.38
469.804	95.38
470.023	96.38
470.243	86.38
470.462	100.38
470.681	85.38
470.901	94.38
471.12	105.38
471.339	99.38
471.558	86.38
471.777	100.38
471.997	101.38
472.216	91.38
472.435	96.38
472.654	75.38
472.873	90.38
473.092	92.38
473.311	95.38
473.53	91.38
473.749	96.38
473.968	114.38
474.187	99.38
474.406	92.38
474.625	91.38
474.844	92.38
475.063	99.38
475.282	103.38
475.501	94.38
475.72	101.38
475.939	80.38
476.158	96.38
476.377	93.38
476.596	86.38
476.814	100.38
477.033	101.38
477.252	84.38
477.471	97.38
477.69	106.38
477.908	105.38
478.127	97.38
478.346	111.38
478.564	95.38
478.783	89.38
479.002	104.38
479.22	112.38
479.439	109.38
479.658	87.38
479.876	82.38
480.095	87.38
480.313	94.38
480.532	107.38
480.751	95.38
480.969	88.38
481.188	83.38
481.406	84.38
481.624	76.38
481.843	95.38
482.061	95.38
482.28	97.38
482.498	84.38
482.717	84.38
482.935	95.38
483.153	112.38
483.372	114.38
483.59	98.38
483.808	96.38
484.027	100.38
484.245	87.38
484.463	106.38
484.681	103.38
484.9	111.38
485.118	97.38
485.336	105.38
485.554	96.38
485.772	93.38
485.99	86.38
486.209	77.38
486.427	86.38
486.645	93.38
486.863	105.38
487.081	107.38
487.299	111.38
487.517	105.38
487.735	102.38
487.953	120.38
488.171	124.38
488.389	115.38
488.607	122.38
488.825	88.38
489.043	117.38
489.261	94.38
489.479	98.38
489.696	107.38
489.914	106.38
490.132	98.38
490.35	99.38
490.568	96.38
490.786	113.38
491.003	121.38
491.221	117.38
491.439	116.38
491.657	111.38
491.874	123.38
492.092	117.38
492.31	141.38
492.527	132.38
492.745	117.38
492.963	126.38
493.18	110.38
493.398	119.38
493.615	112.38
493.833	114.38
494.05	115.38
494.268	120.38
494.485	97.38
494.703	101.38
494.92	102.38
495.138	117.38
495.355	107.38
495.573	110.38
495.79	114.38
496.008	119.38
496.225	96.38
496.442	109.38
496.66	120.38
496.877	99.38
497.094	104.38
497.312	117.38
497.529	110.38
497.746	99.38
497.963	113.38
498.181	98.38
498.398	104.38
498.615	103.38
498.832	94.38
499.049	107.38
499.267	113.38
499.484	80.38
499.701	94.38
499.918	105.38
500.135	102.38
500.352	107.38
500.569	113.38
500.786	105.38
501.003	110.38
501.22	111.38
501.437	95.38
501.654	97.38
501.871	104.38
502.088	101.38
502.305	85.38
502.522	87.38
502.739	88.38
502.956	100.38
503.172	95.38
503.389	94.38
503.606	107.38
503.823	98.38
504.04	99.38
504.256	88.38
504.473	83.38
504.69	106.38
504.907	101.38
505.123	90.38
505.34	89.38
505.557	105.38
505.773	92.38
505.99	102.38
506.207	91.38
506.423	103.38
506.64	102.38
506.856	99.38
507.073	103.38
507.289	110.38
507.506	107.38
507.722	105.38
507.939	107.38
508.155	92.38
508.372	99.38
508.588	90.38
508.805	99.38
509.021	90.38
509.238	92.38
509.454	96.38
509.67	91.38
509.887	93.38
510.103	98.38
510.319	90.38
510.536	100.38
510.752	87.38
510.968	99.38
511.184	85.38
511.401	84.38
511.617	96.38
511.833	85.38
512.049	96.38
512.265	80.38
512.481	76.38
512.698	88.38
512.914	87.38
513.13	84.38
513.346	82.38
513.562	95.38
513.778	90.38
513.994	100.38
514.21	87.38
514.426	86.38
514.642	94.38
514.858	97.38
515.074	81.38
515.29	74.38
515.506	96.38
515.721	92.38
515.937	86.38
516.153	82.38
516.369	83.38
516.585	88.38
516.801	83.38
517.016	83.38
517.232	82.38
517.448	82.38
517.664	80.38
517.879	83.38
518.095	79.38
518.311	91.38
518.527	83.38
518.742	77.38
518.958	86.38
519.173	100.38
519.389	90.38
519.605	68.38
519.82	90.38
520.036	85.38
520.251	93.38
520.467	91.38
520.682	96.38
520.898	101.38
521.113	96.38
521.329	82.38
521.544	90.38
521.76	97.38
521.975	77.38
522.19	85.38
522.406	90.38
522.621	99.38
522.836	80.38
523.052	83.38
523.267	78.38
523.482	95.38
523.698	88.38
523.913	94.38
524.128	96.38
524.343	101.38
524.559	109.38
524.774	90.38
524.989	100.38
525.204	98.38
525.419	99.38
525.634	86.38
525.849	95.38
526.064	109.38
526.28	98.38
526.495	88.38
526.71	88.38
526.925	85.38
527.14	78.38
527.355	85.38
527.57	80.38
527.785	86.38
527.999	85.38
528.214	98.38
528.429	111.38
528.644	86.38
528.859	87.38
529.074	86.38
529.289	114.38
529.503	103.38
529.718	94.38
529.933	97.38
530.148	76.38
530.363	78.38
530.577	88.38
530.792	100.38
531.007	77.38
531.221	82.38
531.436	105.38
531.651	86.38
531.865	78.38
532.08	85.38
532.295	82.38
532.509	83.38
532.724	81.38
532.938	88.38
533.153	92.38
533.367	87.38
533.582	83.38
533.796	87.38
534.011	91.38
534.225	94.38
534.44	92.38
534.654	88.38
534.868	73.38
535.083	91.38
535.297	79.38
535.511	95.38
535.726	99.38
535.94	84.38
536.154	87.38
536.369	96.38
536.583	86.38
536.797	89.38
537.011	85.38
537.225	89.38
537.44	91.38
537.654	77.38
537.868	103.38
538.082	84.38
538.296	86.38
538.51	92.38
538.724	95.38
538.938	103.38
539.153	94.38
539.367	97.38
539.581	86.38
539.795	72.38
540.009	96.38
540.222	87.38
540.436	100.38
540.65	75.38
540.864	105.38
541.078	91.38
541.292	99.38
541.506	110.38
541.72	102.38
541.934	114.38
542.147	119.38
542.361	118.38
542.575	112.38
542.789	107.38
543.002	95.38
543.216	95.38
543.43	73.38
543.644	97.38
543.857	91.38
544.071	94.38
544.285	104.38
544.498	98.38
544.712	100.38
544.925	101.38
545.139	101.38
545.352	103.38
545.566	114.38
545.779	120.38
545.993	105.38
546.206	122.38
546.42	114.38
546.633	117.38
546.847	108.38
547.06	97.38
547.274	114.38
547.487	104.38
547.7	106.38
547.914	106.38
548.127	99.38
548.34	106.38
548.554	113.38
548.767	99.38
548.98	115.38
549.193	102.38
549.407	110.38
549.62	113.38
549.833	99.38
550.046	106.38
550.259	106.38
550.473	99.38
550.686	104.38
550.899	103.38
551.112	117.38
551.325	113.38
551.538	103.38
551.751	94.38
551.964	118.38
552.177	96.38
552.39	115.38
552.603	94.38
552.816	102.38
553.029	108.38
553.242	111.38
553.455	96.38
553.667	113.38
553.88	117.38
554.093	112.38
554.306	104.38
554.519	127.38
554.732	105.38
554.944	111.38
555.157	91.38
555.37	96.38
555.583	110.38
555.795	80.38
556.008	104.38
556.221	102.38
556.433	95.38
556.646	102.38
556.859	93.38
557.071	97.38
557.284	96.38
557.496	93.38
557.709	113.38
557.921	98.38
558.134	91.38
558.346	97.38
558.559	88.38
558.771	117.38
558.984	92.38
559.196	93.38
559.409	88.38
559.621	112.38
559.833	103.38
560.046	114.38
560.258	95.38
560.47	100.38
560.683	96.38
560.895	98.38
561.107	108.38
561.32	113.38
561.532	93.38
561.744	103.38
561.956	92.38
562.168	99.38
562.381	98.38
562.593	100.38
562.805	89.38
563.017	82.38
563.229	97.38
563.441	82.38
563.653	100.38
563.865	94.38
564.077	93.38
564.289	89.38
564.501	94.38
564.713	88.38
564.925	91.38
565.137	94.38
565.349	90.38
565.561	92.38
565.773	102.38
565.985	101.38
566.197	89.38
566.408	95.38
566.62	86.38
566.832	92.38
567.044	92.38
567.255	99.38
567.467	95.38
567.679	89.38
567.891	101.38
568.102	93.38
568.314	85.38
568.526	81.38
568.737	88.38
568.949	72.38
569.161	90.38
569.372	82.38
569.584	85.38
569.795	94.38
570.007	81.38
570.218	77.38
570.43	88.38
570.641	100.38
570.853	80.38
571.064	75.38
571.276	88.38
571.487	85.38
571.698	88.38
571.91	96.38
572.121	92.38
572.333	94.38
572.544	91.38
572.755	77.38
572.966	80.38
573.178	76.38
573.389	100.38
573.6	84.38
573.811	83.38
574.023	86.38
574.234	92.38
574.445	90.38
574.656	96.38
574.867	93.38
575.078	83.38
575.289	80.38
575.501	91.38
575.712	103.38
575.923	96.38
576.134	84.38
576.345	80.38
576.556	79.38
576.767	99.38
576.978	103.38
577.188	89.38
577.399	94.38
577.61	82.38
577.821	87.38
578.032	97.38
578.243	80.38
578.454	96.38
578.665	88.38
578.875	83.38
579.086	85.38
579.297	74.38
579.508	80.38
579.718	87.38
579.929	81.38
580.14	92.38
580.35	87.38
580.561	84.38
580.772	87.38
580.982	97.38
581.193	86.38
581.403	97.38
581.614	86.38
581.825	104.38
582.035	93.38
582.246	89.38
582.456	68.38
582.667	82.38
582.877	85.38
583.087	94.38
583.298	87.38
583.508	83.38
583.719	90.38
583.929	87.38
584.139	76.38
584.35	83.38
584.56	91.38
584.77	83.38
584.981	87.38
585.191	88.38
585.401	75.38
585.611	82.38
585.821	86.38
586.032	90.38
586.242	85.38
586.452	94.38
586.662	81.38
586.872	92.38
587.082	89.38
587.292	84.38
587.502	100.38
587.713	89.38
587.923	96.38
588.133	96.38
588.343	83.38
588.553	72.38
588.762	81.38
588.972	78.38
589.182	95.38
589.392	90.38
589.602	80.38
589.812	81.38
590.022	84.38
590.232	88.38
590.441	80.38
590.651	95.38
590.861	88.38
591.071	84.38
591.281	84.38
591.49	81.38
591.7	87.38
591.91	88.38
592.119	87.38
592.329	91.38
592.539	91.38
592.748	91.38
592.958	97.38
593.167	76.38
593.377	90.38
593.587	85.38
593.796	79.38
594.006	69.38
594.215	88.38
594.424	76.38
594.634	87.38
594.843	96.38
595.053	82.38
595.262	91.38
595.472	78.38
595.681	72.38
595.89	100.38
596.1	90.38
596.309	81.38
596.518	91.38
596.727	106.38
596.937	69.38
597.146	76.38
597.355	89.38
597.564	86.38
597.774	102.38
597.983	65.38
598.192	103.38
598.401	85.38
598.61	75.38
598.819	91.38
599.028	83.38
599.237	80.38
599.446	88.38
599.655	88.38
599.864	100.38
600.073	85.38
600.282	84.38
600.491	83.38
600.7	90.38
600.909	86.38
601.118	80.38
601.327	100.38
601.536	81.38
601.745	68.38
601.953	99.38
602.162	84.38
602.371	88.38
602.58	98.38
602.789	88.38
602.997	83.38
603.206	93.38
603.415	104.38
603.623	103.38
603.832	98.38
604.041	82.38
604.249	88.38
604.458	82.38
604.666	88.38
604.875	86.38
605.084	91.38
605.292	82.38
605.501	98.38
605.709	104.38
605.918	95.38
606.126	99.38
606.334	101.38
606.543	76.38
606.751	94.38
606.96	94.38
607.168	98.38
607.376	97.38
607.585	79.38
607.793	94.38
608.001	86.38
608.21	83.38
608.418	94.38
608.626	83.38
608.834	98.38
609.043	91.38
609.251	75.38
609.459	98.38
609.667	92.38
609.875	90.38
610.083	107.38
610.291	101.38
610.499	82.38
610.707	82.38
610.916	95.38
611.124	102.38
611.332	70.38
611.54	105.38
611.748	103.38
611.955	105.38
612.163	73.38
612.371	96.38
612.579	93.38
612.787	80.38
612.995	94.38
613.203	95.38
613.411	102.38
613.618	86.38
613.826	95.38
614.034	95.38
614.242	91.38
614.449	84.38
614.657	88.38
614.865	84.38
615.072	93.38
615.28	91.38
615.488	114.38
615.695	101.38
615.903	95.38
616.111	76.38
616.318	90.38
616.526	88.38
616.733	71.38
616.941	97.38
617.148	100.38
617.356	81.38
617.563	78.38
617.771	83.38
617.978	80.38
618.185	84.38
618.393	56.38
618.6	89.38
618.807	76.38
619.015	89.38
619.222	86.38
619.429	84.38
619.637	91.38
619.844	88.38
620.051	94.38
620.258	76.38
620.466	94.38
620.673	81.38
620.88	84.38
621.087	105.38
621.294	106.38
621.501	104.38
621.708	89.38
621.915	88.38
622.122	101.38
622.329	103.38
622.536	90.38
622.743	91.38
622.95	111.38
623.157	88.38
623.364	76.38
623.571	81.38
623.778	80.38
623.985	86.38
624.192	86.38
624.399	88.38
624.606	85.38
624.812	89.38
625.019	98.38
625.226	92.38
625.433	92.38
625.639	107.38
625.846	87.38
626.053	94.38
626.259	85.38
626.466	107.38
626.673	92.38
626.879	92.38
627.086	83.38
627.293	94.38
627.499	94.38
627.706	86.38
627.912	90.38
628.119	83.38
628.325	91.38
628.532	83.38
628.738	98.38
628.945	92.38
629.151	87.38
629.357	81.38
629.564	90.38
629.77	104.38
629.976	86.38
630.183	83.38
630.389	93.38
630.595	89.38
630.802	87.38
631.008	88.38
631.214	95.38
631.42	94.38
631.627	105.38
631.833	97.38
632.039	99.38
632.245	83.38
632.451	76.38
632.657	84.38
632.863	79.38
633.069	86.38
633.275	82.38
633.481	93.38
633.688	94.38
633.893	80.38
634.099	77.38
634.305	78.38
634.511	91.38
634.717	96.38
634.923	87.38
635.129	86.38
635.335	87.38
635.541	80.38
635.747	85.38
635.952	102.38
636.158	91.38
636.364	93.38
636.57	84.38
636.775	92.38
636.981	87.38
637.187	84.38
637.392	95.38
637.598	82.38
637.804	87.38
638.009	89.38
638.215	81.38
638.421	90.38
638.626	74.38
638.832	101.38
639.037	91.38
639.243	102.38
639.448	87.38
639.654	91.38
639.859	96.38
640.065	98.38
640.27	87.38
640.475	85.38
640.681	73.38
640.886	91.38
641.091	93.38
641.297	91.38
641.502	84.38
641.707	83.38
641.913	93.38
642.118	91.38
642.323	98.38
642.528	110.38
642.733	82.38
642.939	90.38
643.144	96.38
643.349	80.38
643.554	109.38
643.759	88.38
643.964	86.38
644.169	84.38
644.374	91.38
644.579	81.38
644.784	85.38
644.989	91.38
645.194	94.38
645.399	99.38
645.604	86.38
645.809	90.38
646.014	94.38
646.219	99.38
646.423	85.38
646.628	88.38
646.833	82.38
647.038	95.38
647.243	90.38
647.447	95.38
647.652	101.38
647.857	95.38
648.062	88.38
648.266	84.38
648.471	93.38
648.676	87.38
648.88	87.38
649.085	83.38
649.289	92.38
649.494	89.38
649.698	88.38
649.903	80.38
650.107	91.38
650.312	93.38
650.516	99.38
650.721	98.38
650.925	91.38
651.13	93.38
651.334	83.38
651.539	76.38
651.743	99.38
651.947	81.38
652.152	79.38
652.356	81.38
652.56	75.38
652.764	89.38
652.969	99.38
653.173	94.38
653.377	86.38
653.581	70.38
653.785	81.38
653.99	77.38
654.194	98.38
654.398	82.38
654.602	79.38
654.806	97.38
655.01	71.38
655.214	84.38
655.418	82.38
655.622	90.38
655.826	79.38
656.03	94.38
656.234	85.38
656.438	85.38
656.642	95.38
656.846	83.38
657.049	85.38
657.253	91.38
657.457	87.38
657.661	83.38
657.865	84.38
658.068	88.38
658.272	83.38
658.476	96.38
658.68	82.38
658.883	81.38
659.087	73.38
659.291	98.38
659.494	75.38
659.698	82.38
659.901	92.38
660.105	75.38
660.309	91.38
660.512	74.38
660.716	92.38
660.919	87.38
661.123	83.38
661.326	76.38
661.53	88.38
661.733	90.38
661.936	82.38
662.14	75.38
662.343	74.38
662.546	79.38
662.75	80.38
662.953	86.38
663.156	76.38
663.36	99.38
663.563	84.38
663.766	93.38
663.969	84.38
664.173	95.38
664.376	95.38
664.579	84.38
664.782	75.38
664.985	89.38
665.188	80.38
665.391	82.38
665.594	86.38
665.797	88.38
666	86.38
666.203	84.38
666.406	96.38
666.609	66.38
666.812	81.38
667.015	87.38
667.218	89.38
667.421	79.38
667.624	83.38
667.827	92.38
668.03	92.38
668.232	82.38
668.435	78.38
668.638	77.38
668.841	89.38
669.043	63.38
669.246	82.38
669.449	83.38
669.651	86.38
669.854	81.38
670.057	96.38
670.259	70.38
670.462	88.38
670.665	92.38
670.867	89.38
671.07	91.38
671.272	86.38
671.475	73.38
671.677	73.38
671.88	79.38
672.082	80.38
672.284	89.38
672.487	83.38
672.689	83.38
672.892	77.38
