Data from Location3.07152019.Energy5.Lamp.07192019.3%Agarose_HRD10591_15-16-35-269.txt Node
Date: Fri Jul 19 15:16:35 EDT 2019
User: cochatt
Spectrometer: HR+D1059
Trigger mode: 1
Integration Time (sec): 1.000000E-1
Scans to average: 1
Electric dark correction enabled: true
Nonlinearity correction enabled: false
Boxcar width: 0
XAxis mode: Wavelengths
Number of Pixels in Spectrum: 2048
>>>>>Begin Spectral Data<<<<<
223.165	-15.31
223.4	-15.31
223.635	-15.31
223.869	-12.31
224.104	-21.31
224.338	-13.31
224.573	-17.31
224.808	-20.31
225.042	-12.31
225.277	-6.31
225.511	6.69
225.746	-2.31
225.98	1.69
226.215	8.69
226.449	10.69
226.683	40.69
226.918	20.69
227.152	31.69
227.387	23.69
227.621	35.69
227.856	40.69
228.09	49.69
228.324	47.69
228.559	63.69
228.793	67.69
229.027	61.69
229.262	69.69
229.496	69.69
229.73	62.69
229.964	68.69
230.199	62.69
230.433	67.69
230.667	64.69
230.901	71.69
231.136	84.69
231.37	73.69
231.604	87.69
231.838	79.69
232.072	86.69
232.306	68.69
232.541	80.69
232.775	81.69
233.009	79.69
233.243	78.69
233.477	82.69
233.711	79.69
233.945	93.69
234.179	74.69
234.413	79.69
234.647	84.69
234.881	84.69
235.115	77.69
235.349	75.69
235.583	65.69
235.817	85.69
236.051	78.69
236.285	81.69
236.519	80.69
236.753	77.69
236.987	84.69
237.221	79.69
237.455	69.69
237.689	78.69
237.922	75.69
238.156	71.69
238.39	74.69
238.624	68.69
238.858	66.69
239.091	79.69
239.325	90.69
239.559	93.69
239.793	83.69
240.027	78.69
240.26	83.69
240.494	74.69
240.728	74.69
240.961	77.69
241.195	86.69
241.429	63.69
241.662	72.69
241.896	72.69
242.13	71.69
242.363	71.69
242.597	82.69
242.83	79.69
243.064	61.69
243.298	83.69
243.531	80.69
243.765	84.69
243.998	74.69
244.232	70.69
244.465	74.69
244.699	70.69
244.932	79.69
245.166	69.69
245.399	81.69
245.633	67.69
245.866	63.69
246.099	82.69
246.333	66.69
246.566	66.69
246.8	75.69
247.033	75.69
247.266	71.69
247.5	70.69
247.733	93.69
247.966	75.69
248.2	70.69
248.433	81.69
248.666	89.69
248.899	84.69
249.133	77.69
249.366	86.69
249.599	74.69
249.832	83.69
250.066	90.69
250.299	82.69
250.532	82.69
250.765	73.69
250.998	79.69
251.231	92.69
251.465	70.69
251.698	85.69
251.931	67.69
252.164	71.69
252.397	84.69
252.63	75.69
252.863	74.69
253.096	81.69
253.329	69.69
253.562	79.69
253.795	65.69
254.028	87.69
254.261	76.69
254.494	73.69
254.727	76.69
254.96	78.69
255.193	79.69
255.426	75.69
255.659	75.69
255.892	81.69
256.124	88.69
256.357	74.69
256.59	89.69
256.823	72.69
257.056	85.69
257.289	85.69
257.521	85.69
257.754	75.69
257.987	80.69
258.22	85.69
258.452	78.69
258.685	71.69
258.918	83.69
259.151	75.69
259.383	71.69
259.616	90.69
259.849	87.69
260.081	64.69
260.314	72.69
260.547	80.69
260.779	81.69
261.012	82.69
261.244	68.69
261.477	88.69
261.71	72.69
261.942	72.69
262.175	98.69
262.407	71.69
262.64	79.69
262.872	72.69
263.105	88.69
263.337	96.69
263.57	73.69
263.802	63.69
264.035	85.69
264.267	76.69
264.499	80.69
264.732	90.69
264.964	89.69
265.197	89.69
265.429	83.69
265.661	68.69
265.894	75.69
266.126	79.69
266.358	88.69
266.591	80.69
266.823	75.69
267.055	81.69
267.287	75.69
267.52	85.69
267.752	76.69
267.984	87.69
268.216	85.69
268.448	74.69
268.681	80.69
268.913	77.69
269.145	90.69
269.377	76.69
269.609	88.69
269.841	82.69
270.073	75.69
270.306	90.69
270.538	90.69
270.77	85.69
271.002	88.69
271.234	84.69
271.466	74.69
271.698	84.69
271.93	81.69
272.162	88.69
272.394	83.69
272.626	93.69
272.858	83.69
273.09	87.69
273.322	80.69
273.553	74.69
273.785	78.69
274.017	81.69
274.249	86.69
274.481	85.69
274.713	74.69
274.945	74.69
275.176	86.69
275.408	80.69
275.64	80.69
275.872	74.69
276.104	80.69
276.335	82.69
276.567	64.69
276.799	81.69
277.031	69.69
277.262	67.69
277.494	67.69
277.726	74.69
277.957	83.69
278.189	86.69
278.421	93.69
278.652	77.69
278.884	90.69
279.115	83.69
279.347	75.69
279.579	88.69
279.81	83.69
280.042	75.69
280.273	68.69
280.505	89.69
280.736	89.69
280.968	77.69
281.199	73.69
281.431	75.69
281.662	76.69
281.894	83.69
282.125	84.69
282.356	74.69
282.588	86.69
282.819	78.69
283.051	97.69
283.282	93.69
283.513	86.69
283.745	74.69
283.976	91.69
284.207	81.69
284.439	94.69
284.67	89.69
284.901	83.69
285.132	87.69
285.364	79.69
285.595	92.69
285.826	83.69
286.057	94.69
286.288	73.69
286.52	86.69
286.751	90.69
286.982	83.69
287.213	76.69
287.444	89.69
287.675	75.69
287.906	71.69
288.138	86.69
288.369	86.69
288.6	79.69
288.831	80.69
289.062	85.69
289.293	96.69
289.524	78.69
289.755	74.69
289.986	87.69
290.217	105.69
290.448	97.69
290.679	93.69
290.91	89.69
291.141	85.69
291.371	82.69
291.602	88.69
291.833	80.69
292.064	83.69
292.295	85.69
292.526	87.69
292.757	75.69
292.987	80.69
293.218	68.69
293.449	82.69
293.68	73.69
293.91	75.69
294.141	75.69
294.372	84.69
294.603	74.69
294.833	83.69
295.064	73.69
295.295	81.69
295.525	98.69
295.756	89.69
295.987	79.69
296.217	71.69
296.448	72.69
296.679	88.69
296.909	74.69
297.14	81.69
297.37	67.69
297.601	86.69
297.831	82.69
298.062	91.69
298.292	90.69
298.523	80.69
298.753	79.69
298.984	93.69
299.214	68.69
299.445	85.69
299.675	89.69
299.905	97.69
300.136	78.69
300.366	75.69
300.597	86.69
300.827	83.69
301.057	75.69
301.288	78.69
301.518	82.69
301.748	71.69
301.979	82.69
302.209	91.69
302.439	79.69
302.669	75.69
302.9	87.69
303.13	88.69
303.36	70.69
303.59	75.69
303.82	83.69
304.051	95.69
304.281	73.69
304.511	97.69
304.741	74.69
304.971	89.69
305.201	87.69
305.431	87.69
305.661	101.69
305.891	107.69
306.121	87.69
306.352	76.69
306.582	92.69
306.812	84.69
307.042	84.69
307.272	91.69
307.502	85.69
307.731	85.69
307.961	70.69
308.191	86.69
308.421	84.69
308.651	80.69
308.881	64.69
309.111	84.69
309.341	88.69
309.571	77.69
309.8	85.69
310.03	80.69
310.26	88.69
310.49	86.69
310.72	90.69
310.949	89.69
311.179	88.69
311.409	82.69
311.639	84.69
311.868	90.69
312.098	76.69
312.328	79.69
312.557	97.69
312.787	88.69
313.017	77.69
313.246	90.69
313.476	81.69
313.706	74.69
313.935	77.69
314.165	77.69
314.394	88.69
314.624	90.69
314.853	82.69
315.083	94.69
315.312	89.69
315.542	87.69
315.771	81.69
316.001	80.69
316.23	85.69
316.46	90.69
316.689	83.69
316.919	90.69
317.148	90.69
317.377	66.69
317.607	79.69
317.836	81.69
318.065	79.69
318.295	85.69
318.524	71.69
318.753	72.69
318.983	88.69
319.212	87.69
319.441	85.69
319.67	88.69
319.9	89.69
320.129	87.69
320.358	98.69
320.587	96.69
320.816	89.69
321.046	74.69
321.275	84.69
321.504	89.69
321.733	70.69
321.962	87.69
322.191	92.69
322.42	85.69
322.649	66.69
322.878	77.69
323.108	91.69
323.337	85.69
323.566	82.69
323.795	90.69
324.024	102.69
324.253	82.69
324.482	97.69
324.71	73.69
324.939	91.69
325.168	79.69
325.397	80.69
325.626	72.69
325.855	89.69
326.084	91.69
326.313	73.69
326.542	70.69
326.77	77.69
326.999	72.69
327.228	70.69
327.457	79.69
327.686	85.69
327.914	76.69
328.143	86.69
328.372	87.69
328.6	77.69
328.829	86.69
329.058	85.69
329.287	76.69
329.515	91.69
329.744	83.69
329.972	88.69
330.201	79.69
330.43	77.69
330.658	90.69
330.887	77.69
331.115	86.69
331.344	77.69
331.572	78.69
331.801	87.69
332.03	86.69
332.258	82.69
332.486	97.69
332.715	80.69
332.943	75.69
333.172	78.69
333.4	81.69
333.629	94.69
333.857	84.69
334.085	75.69
334.314	85.69
334.542	81.69
334.771	84.69
334.999	81.69
335.227	75.69
335.455	66.69
335.684	76.69
335.912	72.69
336.14	82.69
336.369	85.69
336.597	87.69
336.825	91.69
337.053	73.69
337.281	96.69
337.51	81.69
337.738	80.69
337.966	71.69
338.194	71.69
338.422	83.69
338.65	78.69
338.878	85.69
339.106	86.69
339.334	83.69
339.562	94.69
339.79	76.69
340.018	91.69
340.246	74.69
340.474	99.69
340.702	82.69
340.93	74.69
341.158	67.69
341.386	77.69
341.614	82.69
341.842	74.69
342.07	85.69
342.298	75.69
342.526	86.69
342.754	77.69
342.981	73.69
343.209	79.69
343.437	93.69
343.665	82.69
343.893	75.69
344.12	89.69
344.348	85.69
344.576	88.69
344.804	84.69
345.031	87.69
345.259	79.69
345.487	65.69
345.714	75.69
345.942	81.69
346.17	91.69
346.397	93.69
346.625	87.69
346.853	89.69
347.08	99.69
347.308	77.69
347.535	74.69
347.763	85.69
347.99	88.69
348.218	85.69
348.445	84.69
348.673	75.69
348.9	74.69
349.128	93.69
349.355	84.69
349.583	71.69
349.81	89.69
350.037	83.69
350.265	88.69
350.492	87.69
350.72	77.69
350.947	85.69
351.174	69.69
351.402	85.69
351.629	83.69
351.856	78.69
352.083	89.69
352.311	90.69
352.538	77.69
352.765	99.69
352.992	82.69
353.22	71.69
353.447	75.69
353.674	88.69
353.901	94.69
354.128	76.69
354.355	89.69
354.583	74.69
354.81	90.69
355.037	99.69
355.264	81.69
355.491	81.69
355.718	83.69
355.945	88.69
356.172	89.69
356.399	71.69
356.626	81.69
356.853	81.69
357.08	80.69
357.307	83.69
357.534	87.69
357.761	80.69
357.988	75.69
358.215	91.69
358.441	104.69
358.668	97.69
358.895	93.69
359.122	67.69
359.349	77.69
359.576	86.69
359.802	83.69
360.029	82.69
360.256	82.69
360.483	79.69
360.709	80.69
360.936	83.69
361.163	71.69
361.39	72.69
361.616	91.69
361.843	86.69
362.07	72.69
362.296	83.69
362.523	87.69
362.749	84.69
362.976	84.69
363.203	67.69
363.429	81.69
363.656	83.69
363.882	86.69
364.109	72.69
364.335	75.69
364.562	93.69
364.788	86.69
365.015	82.69
365.241	85.69
365.468	83.69
365.694	69.69
365.92	82.69
366.147	95.69
366.373	91.69
366.599	72.69
366.826	77.69
367.052	88.69
367.278	86.69
367.505	82.69
367.731	93.69
367.957	78.69
368.184	83.69
368.41	82.69
368.636	94.69
368.862	88.69
369.089	79.69
369.315	84.69
369.541	70.69
369.767	75.69
369.993	73.69
370.219	83.69
370.445	83.69
370.672	88.69
370.898	82.69
371.124	91.69
371.35	93.69
371.576	91.69
371.802	75.69
372.028	88.69
372.254	73.69
372.48	89.69
372.706	95.69
372.932	81.69
373.158	69.69
373.384	93.69
373.61	97.69
373.835	81.69
374.061	91.69
374.287	70.69
374.513	79.69
374.739	83.69
374.965	84.69
375.191	86.69
375.416	93.69
375.642	90.69
375.868	85.69
376.094	85.69
376.319	90.69
376.545	82.69
376.771	91.69
376.997	87.69
377.222	81.69
377.448	75.69
377.674	88.69
377.899	89.69
378.125	97.69
378.35	85.69
378.576	82.69
378.802	74.69
379.027	86.69
379.253	84.69
379.478	81.69
379.704	91.69
379.929	90.69
380.155	84.69
380.38	86.69
380.606	96.69
380.831	71.69
381.057	86.69
381.282	83.69
381.507	78.69
381.733	97.69
381.958	83.69
382.184	88.69
382.409	79.69
382.634	82.69
382.86	89.69
383.085	86.69
383.31	83.69
383.535	84.69
383.761	71.69
383.986	87.69
384.211	83.69
384.436	86.69
384.662	82.69
384.887	73.69
385.112	90.69
385.337	86.69
385.562	84.69
385.787	73.69
386.013	95.69
386.238	76.69
386.463	93.69
386.688	80.69
386.913	78.69
387.138	89.69
387.363	77.69
387.588	69.69
387.813	90.69
388.038	86.69
388.263	80.69
388.488	83.69
388.713	83.69
388.938	82.69
389.163	76.69
389.387	90.69
389.612	78.69
389.837	90.69
390.062	75.69
390.287	85.69
390.512	90.69
390.736	71.69
390.961	79.69
391.186	80.69
391.411	73.69
391.636	98.69
391.86	89.69
392.085	69.69
392.31	78.69
392.534	81.69
392.759	85.69
392.984	80.69
393.208	88.69
393.433	72.69
393.658	89.69
393.882	91.69
394.107	91.69
394.331	89.69
394.556	76.69
394.78	97.69
395.005	95.69
395.229	86.69
395.454	83.69
395.678	85.69
395.903	88.69
396.127	98.69
396.352	81.69
396.576	75.69
396.801	91.69
397.025	80.69
397.249	102.69
397.474	85.69
397.698	85.69
397.922	80.69
398.147	90.69
398.371	86.69
398.595	83.69
398.82	97.69
399.044	70.69
399.268	99.69
399.492	92.69
399.717	87.69
399.941	97.69
400.165	107.69
400.389	88.69
400.613	86.69
400.837	91.69
401.062	104.69
401.286	99.69
401.51	88.69
401.734	85.69
401.958	82.69
402.182	75.69
402.406	86.69
402.63	87.69
402.854	82.69
403.078	91.69
403.302	93.69
403.526	94.69
403.75	97.69
403.974	80.69
404.198	89.69
404.422	115.69
404.645	90.69
404.869	89.69
405.093	93.69
405.317	90.69
405.541	101.69
405.765	93.69
405.988	95.69
406.212	76.69
406.436	78.69
406.66	93.69
406.883	102.69
407.107	88.69
407.331	93.69
407.555	87.69
407.778	92.69
408.002	92.69
408.226	85.69
408.449	75.69
408.673	82.69
408.896	88.69
409.12	85.69
409.344	90.69
409.567	90.69
409.791	99.69
410.014	93.69
410.238	96.69
410.461	81.69
410.685	106.69
410.908	96.69
411.132	96.69
411.355	86.69
411.578	90.69
411.802	68.69
412.025	85.69
412.249	83.69
412.472	103.69
412.695	91.69
412.919	81.69
413.142	84.69
413.365	109.69
413.589	90.69
413.812	87.69
414.035	99.69
414.258	91.69
414.482	93.69
414.705	86.69
414.928	81.69
415.151	100.69
415.374	85.69
415.597	77.69
415.821	88.69
416.044	112.69
416.267	96.69
416.49	76.69
416.713	85.69
416.936	82.69
417.159	98.69
417.382	87.69
417.605	77.69
417.828	101.69
418.051	91.69
418.274	81.69
418.497	92.69
418.72	95.69
418.943	90.69
419.166	90.69
419.389	89.69
419.611	90.69
419.834	107.69
420.057	96.69
420.28	84.69
420.503	94.69
420.726	87.69
420.948	75.69
421.171	101.69
421.394	100.69
421.617	96.69
421.839	101.69
422.062	91.69
422.285	89.69
422.507	107.69
422.73	86.69
422.953	86.69
423.175	102.69
423.398	87.69
423.621	81.69
423.843	86.69
424.066	94.69
424.288	96.69
424.511	114.69
424.733	87.69
424.956	87.69
425.178	96.69
425.401	100.69
425.623	95.69
425.846	93.69
426.068	77.69
426.291	81.69
426.513	101.69
426.735	90.69
426.958	101.69
427.18	99.69
427.402	98.69
427.625	101.69
427.847	95.69
428.069	100.69
428.292	108.69
428.514	103.69
428.736	89.69
428.958	93.69
429.181	89.69
429.403	90.69
429.625	98.69
429.847	101.69
430.069	99.69
430.292	93.69
430.514	98.69
430.736	92.69
430.958	97.69
431.18	90.69
431.402	94.69
431.624	91.69
431.846	81.69
432.068	85.69
432.29	86.69
432.512	88.69
432.734	91.69
432.956	94.69
433.178	101.69
433.4	89.69
433.622	100.69
433.844	83.69
434.066	94.69
434.287	91.69
434.509	86.69
434.731	80.69
434.953	97.69
435.175	117.69
435.397	84.69
435.618	97.69
435.84	111.69
436.062	81.69
436.284	80.69
436.505	94.69
436.727	89.69
436.949	91.69
437.17	93.69
437.392	99.69
437.614	96.69
437.835	92.69
438.057	93.69
438.278	82.69
438.5	94.69
438.721	90.69
438.943	102.69
439.165	91.69
439.386	100.69
439.608	95.69
439.829	110.69
440.05	106.69
440.272	107.69
440.493	103.69
440.715	83.69
440.936	106.69
441.158	92.69
441.379	87.69
441.6	102.69
441.822	101.69
442.043	86.69
442.264	93.69
442.486	82.69
442.707	93.69
442.928	81.69
443.149	88.69
443.371	96.69
443.592	86.69
443.813	99.69
444.034	102.69
444.255	92.69
444.476	87.69
444.698	93.69
444.919	90.69
445.14	181.69
445.361	132.69
445.582	94.69
445.803	102.69
446.024	97.69
446.245	97.69
446.466	114.69
446.687	104.69
446.908	96.69
447.129	108.69
447.35	94.69
447.571	85.69
447.792	104.69
448.013	98.69
448.234	98.69
448.455	90.69
448.675	84.69
448.896	96.69
449.117	96.69
449.338	98.69
449.559	93.69
449.779	95.69
450	91.69
450.221	104.69
450.442	81.69
450.662	96.69
450.883	100.69
451.104	98.69
451.324	94.69
451.545	89.69
451.766	95.69
451.986	89.69
452.207	85.69
452.428	86.69
452.648	91.69
452.869	90.69
453.089	90.69
453.31	96.69
453.53	89.69
453.751	98.69
453.971	88.69
454.192	91.69
454.412	90.69
454.633	91.69
454.853	93.69
455.073	85.69
455.294	89.69
455.514	97.69
455.734	81.69
455.955	83.69
456.175	96.69
456.395	81.69
456.616	96.69
456.836	91.69
457.056	86.69
457.276	95.69
457.497	78.69
457.717	88.69
457.937	75.69
458.157	77.69
458.377	99.69
458.598	96.69
458.818	83.69
459.038	80.69
459.258	77.69
459.478	71.69
459.698	91.69
459.918	82.69
460.138	79.69
460.358	95.69
460.578	90.69
460.798	95.69
461.018	103.69
461.238	96.69
461.458	104.69
461.678	109.69
461.898	95.69
462.118	90.69
462.338	88.69
462.558	83.69
462.777	80.69
462.997	94.69
463.217	91.69
463.437	93.69
463.657	98.69
463.876	87.69
464.096	80.69
464.316	88.69
464.536	90.69
464.755	66.69
464.975	82.69
465.195	101.69
465.414	84.69
465.634	110.69
465.854	84.69
466.073	102.69
466.293	82.69
466.512	97.69
466.732	94.69
466.951	85.69
467.171	103.69
467.391	89.69
467.61	94.69
467.829	93.69
468.049	99.69
468.268	94.69
468.488	106.69
468.707	83.69
468.927	95.69
469.146	78.69
469.365	90.69
469.585	103.69
469.804	96.69
470.023	111.69
470.243	104.69
470.462	111.69
470.681	109.69
470.901	89.69
471.12	97.69
471.339	112.69
471.558	100.69
471.777	94.69
471.997	89.69
472.216	99.69
472.435	86.69
472.654	80.69
472.873	88.69
473.092	94.69
473.311	103.69
473.53	93.69
473.749	101.69
473.968	95.69
474.187	93.69
474.406	94.69
474.625	95.69
474.844	101.69
475.063	101.69
475.282	90.69
475.501	87.69
475.72	101.69
475.939	82.69
476.158	95.69
476.377	87.69
476.596	84.69
476.814	69.69
477.033	89.69
477.252	85.69
477.471	88.69
477.69	96.69
477.908	87.69
478.127	98.69
478.346	102.69
478.564	87.69
478.783	112.69
479.002	106.69
479.22	81.69
479.439	102.69
479.658	95.69
479.876	99.69
480.095	88.69
480.313	79.69
480.532	87.69
480.751	96.69
480.969	64.69
481.188	87.69
481.406	84.69
481.624	85.69
481.843	86.69
482.061	82.69
482.28	81.69
482.498	105.69
482.717	86.69
482.935	85.69
483.153	86.69
483.372	97.69
483.59	99.69
483.808	97.69
484.027	81.69
484.245	85.69
484.463	91.69
484.681	110.69
484.9	99.69
485.118	106.69
485.336	86.69
485.554	97.69
485.772	89.69
485.99	80.69
486.209	84.69
486.427	81.69
486.645	81.69
486.863	99.69
487.081	112.69
487.299	85.69
487.517	96.69
487.735	112.69
487.953	105.69
488.171	112.69
488.389	111.69
488.607	111.69
488.825	93.69
489.043	86.69
489.261	89.69
489.479	112.69
489.696	99.69
489.914	104.69
490.132	112.69
490.35	91.69
490.568	112.69
490.786	102.69
491.003	103.69
491.221	129.69
491.439	103.69
491.657	122.69
491.874	115.69
492.092	113.69
492.31	137.69
492.527	116.69
492.745	95.69
492.963	97.69
493.18	116.69
493.398	119.69
493.615	109.69
493.833	112.69
494.05	104.69
494.268	98.69
494.485	103.69
494.703	108.69
494.92	111.69
495.138	110.69
495.355	100.69
495.573	107.69
495.79	87.69
496.008	96.69
496.225	109.69
496.442	107.69
496.66	104.69
496.877	100.69
497.094	97.69
497.312	101.69
497.529	106.69
497.746	97.69
497.963	103.69
498.181	84.69
498.398	109.69
498.615	85.69
498.832	83.69
499.049	89.69
499.267	82.69
499.484	101.69
499.701	95.69
499.918	86.69
500.135	93.69
500.352	90.69
500.569	98.69
500.786	104.69
501.003	97.69
501.22	98.69
501.437	103.69
501.654	88.69
501.871	98.69
502.088	89.69
502.305	88.69
502.522	93.69
502.739	114.69
502.956	77.69
503.172	93.69
503.389	92.69
503.606	95.69
503.823	94.69
504.04	97.69
504.256	85.69
504.473	89.69
504.69	98.69
504.907	92.69
505.123	91.69
505.34	79.69
505.557	92.69
505.773	92.69
505.99	92.69
506.207	87.69
506.423	87.69
506.64	95.69
506.856	89.69
507.073	92.69
507.289	94.69
507.506	114.69
507.722	99.69
507.939	78.69
508.155	84.69
508.372	82.69
508.588	91.69
508.805	90.69
509.021	95.69
509.238	89.69
509.454	81.69
509.67	77.69
509.887	90.69
510.103	83.69
510.319	97.69
510.536	88.69
510.752	68.69
510.968	81.69
511.184	73.69
511.401	82.69
511.617	69.69
511.833	93.69
512.049	76.69
512.265	83.69
512.481	86.69
512.698	82.69
512.914	80.69
513.13	94.69
513.346	93.69
513.562	89.69
513.778	82.69
513.994	93.69
514.21	85.69
514.426	82.69
514.642	95.69
514.858	76.69
515.074	91.69
515.29	98.69
515.506	94.69
515.721	97.69
515.937	80.69
516.153	83.69
516.369	83.69
516.585	79.69
516.801	77.69
517.016	94.69
517.232	87.69
517.448	91.69
517.664	92.69
517.879	83.69
518.095	96.69
518.311	81.69
518.527	67.69
518.742	84.69
518.958	86.69
519.173	104.69
519.389	93.69
519.605	101.69
519.82	92.69
520.036	96.69
520.251	91.69
520.467	83.69
520.682	76.69
520.898	84.69
521.113	84.69
521.329	75.69
521.544	74.69
521.76	96.69
521.975	80.69
522.19	97.69
522.406	78.69
522.621	84.69
522.836	85.69
523.052	86.69
523.267	82.69
523.482	86.69
523.698	88.69
523.913	102.69
524.128	89.69
524.343	79.69
524.559	115.69
524.774	88.69
524.989	95.69
525.204	94.69
525.419	93.69
525.634	85.69
525.849	89.69
526.064	106.69
526.28	89.69
526.495	79.69
526.71	83.69
526.925	81.69
527.14	77.69
527.355	90.69
527.57	91.69
527.785	99.69
527.999	96.69
528.214	100.69
528.429	97.69
528.644	109.69
528.859	103.69
529.074	105.69
529.289	112.69
529.503	98.69
529.718	103.69
529.933	90.69
530.148	85.69
530.363	89.69
530.577	96.69
530.792	74.69
531.007	73.69
531.221	84.69
531.436	71.69
531.651	82.69
531.865	85.69
532.08	86.69
532.295	84.69
532.509	86.69
532.724	85.69
532.938	100.69
533.153	98.69
533.367	80.69
533.582	92.69
533.796	88.69
534.011	81.69
534.225	96.69
534.44	90.69
534.654	97.69
534.868	77.69
535.083	90.69
535.297	84.69
535.511	86.69
535.726	96.69
535.94	79.69
536.154	83.69
536.369	69.69
536.583	89.69
536.797	88.69
537.011	86.69
537.225	93.69
537.44	81.69
537.654	89.69
537.868	79.69
538.082	83.69
538.296	82.69
538.51	95.69
538.724	85.69
538.938	96.69
539.153	94.69
539.367	93.69
539.581	89.69
539.795	95.69
540.009	88.69
540.222	90.69
540.436	93.69
540.65	99.69
540.864	94.69
541.078	109.69
541.292	93.69
541.506	98.69
541.72	117.69
541.934	102.69
542.147	117.69
542.361	114.69
542.575	97.69
542.789	99.69
543.002	89.69
543.216	102.69
543.43	101.69
543.644	96.69
543.857	80.69
544.071	101.69
544.285	114.69
544.498	98.69
544.712	103.69
544.925	99.69
545.139	94.69
545.352	105.69
545.566	106.69
545.779	110.69
545.993	105.69
546.206	109.69
546.42	121.69
546.633	113.69
546.847	103.69
547.06	113.69
547.274	111.69
547.487	104.69
547.7	103.69
547.914	113.69
548.127	97.69
548.34	113.69
548.554	107.69
548.767	102.69
548.98	115.69
549.193	99.69
549.407	111.69
549.62	113.69
549.833	115.69
550.046	102.69
550.259	102.69
550.473	104.69
550.686	111.69
550.899	112.69
551.112	107.69
551.325	111.69
551.538	101.69
551.751	97.69
551.964	92.69
552.177	89.69
552.39	93.69
552.603	95.69
552.816	103.69
553.029	110.69
553.242	97.69
553.455	105.69
553.667	102.69
553.88	111.69
554.093	97.69
554.306	103.69
554.519	104.69
554.732	97.69
554.944	110.69
555.157	94.69
555.37	109.69
555.583	104.69
555.795	99.69
556.008	99.69
556.221	99.69
556.433	103.69
556.646	99.69
556.859	98.69
557.071	82.69
557.284	98.69
557.496	99.69
557.709	91.69
557.921	102.69
558.134	120.69
558.346	98.69
558.559	105.69
558.771	95.69
558.984	86.69
559.196	101.69
559.409	98.69
559.621	92.69
559.833	101.69
560.046	117.69
560.258	100.69
560.47	111.69
560.683	105.69
560.895	95.69
561.107	79.69
561.32	112.69
561.532	109.69
561.744	88.69
561.956	98.69
562.168	102.69
562.381	102.69
562.593	95.69
562.805	97.69
563.017	91.69
563.229	82.69
563.441	91.69
563.653	83.69
563.865	101.69
564.077	102.69
564.289	96.69
564.501	96.69
564.713	87.69
564.925	104.69
565.137	82.69
565.349	87.69
565.561	85.69
565.773	97.69
565.985	96.69
566.197	83.69
566.408	83.69
566.62	97.69
566.832	94.69
567.044	81.69
567.255	101.69
567.467	98.69
567.679	101.69
567.891	100.69
568.102	97.69
568.314	88.69
568.526	94.69
568.737	82.69
568.949	88.69
569.161	93.69
569.372	89.69
569.584	81.69
569.795	82.69
570.007	87.69
570.218	87.69
570.43	93.69
570.641	75.69
570.853	82.69
571.064	90.69
571.276	105.69
571.487	96.69
571.698	86.69
571.91	83.69
572.121	89.69
572.333	93.69
572.544	81.69
572.755	86.69
572.966	89.69
573.178	76.69
573.389	91.69
573.6	79.69
573.811	84.69
574.023	91.69
574.234	93.69
574.445	103.69
574.656	78.69
574.867	87.69
575.078	74.69
575.289	71.69
575.501	74.69
575.712	92.69
575.923	90.69
576.134	75.69
576.345	85.69
576.556	93.69
576.767	82.69
576.978	75.69
577.188	94.69
577.399	87.69
577.61	89.69
577.821	76.69
578.032	78.69
578.243	99.69
578.454	86.69
578.665	82.69
578.875	71.69
579.086	76.69
579.297	82.69
579.508	82.69
579.718	104.69
579.929	85.69
580.14	75.69
580.35	84.69
580.561	87.69
580.772	99.69
580.982	90.69
581.193	92.69
581.403	79.69
581.614	87.69
581.825	90.69
582.035	97.69
582.246	91.69
582.456	77.69
582.667	78.69
582.877	81.69
583.087	79.69
583.298	94.69
583.508	90.69
583.719	86.69
583.929	100.69
584.139	102.69
584.35	88.69
584.56	88.69
584.77	77.69
584.981	78.69
585.191	65.69
585.401	82.69
585.611	74.69
585.821	92.69
586.032	73.69
586.242	78.69
586.452	106.69
586.662	83.69
586.872	81.69
587.082	84.69
587.292	75.69
587.502	83.69
587.713	70.69
587.923	81.69
588.133	76.69
588.343	98.69
588.553	91.69
588.762	87.69
588.972	95.69
589.182	83.69
589.392	71.69
589.602	81.69
589.812	93.69
590.022	82.69
590.232	91.69
590.441	89.69
590.651	85.69
590.861	88.69
591.071	83.69
591.281	95.69
591.49	73.69
591.7	88.69
591.91	88.69
592.119	78.69
592.329	78.69
592.539	86.69
592.748	72.69
592.958	80.69
593.167	87.69
593.377	83.69
593.587	89.69
593.796	89.69
594.006	86.69
594.215	71.69
594.424	78.69
594.634	93.69
594.843	83.69
595.053	85.69
595.262	78.69
595.472	98.69
595.681	90.69
595.89	93.69
596.1	85.69
596.309	91.69
596.518	82.69
596.727	86.69
596.937	80.69
597.146	88.69
597.355	95.69
597.564	80.69
597.774	88.69
597.983	82.69
598.192	89.69
598.401	82.69
598.61	88.69
598.819	72.69
599.028	68.69
599.237	88.69
599.446	88.69
599.655	86.69
599.864	86.69
600.073	84.69
600.282	94.69
600.491	77.69
600.7	89.69
600.909	70.69
601.118	81.69
601.327	88.69
601.536	94.69
601.745	94.69
601.953	83.69
602.162	93.69
602.371	87.69
602.58	99.69
602.789	89.69
602.997	96.69
603.206	90.69
603.415	96.69
603.623	85.69
603.832	93.69
604.041	86.69
604.249	91.69
604.458	86.69
604.666	90.69
604.875	87.69
605.084	97.69
605.292	84.69
605.501	94.69
605.709	96.69
605.918	98.69
606.126	88.69
606.334	86.69
606.543	103.69
606.751	104.69
606.96	104.69
607.168	103.69
607.376	107.69
607.585	95.69
607.793	103.69
608.001	87.69
608.21	96.69
608.418	94.69
608.626	83.69
608.834	95.69
609.043	90.69
609.251	101.69
609.459	87.69
609.667	96.69
609.875	88.69
610.083	91.69
610.291	90.69
610.499	88.69
610.707	96.69
610.916	88.69
611.124	103.69
611.332	97.69
611.54	88.69
611.748	93.69
611.955	81.69
612.163	78.69
612.371	109.69
612.579	95.69
612.787	81.69
612.995	102.69
613.203	90.69
613.411	100.69
613.618	80.69
613.826	82.69
614.034	87.69
614.242	87.69
614.449	90.69
614.657	93.69
614.865	87.69
615.072	70.69
615.28	86.69
615.488	90.69
615.695	101.69
615.903	102.69
616.111	93.69
616.318	98.69
616.526	95.69
616.733	105.69
616.941	97.69
617.148	86.69
617.356	88.69
617.563	88.69
617.771	100.69
617.978	90.69
618.185	94.69
618.393	75.69
618.6	93.69
618.807	82.69
619.015	92.69
619.222	87.69
619.429	84.69
619.637	89.69
619.844	89.69
620.051	89.69
620.258	84.69
620.466	89.69
620.673	76.69
620.88	99.69
621.087	85.69
621.294	97.69
621.501	92.69
621.708	88.69
621.915	97.69
622.122	96.69
622.329	87.69
622.536	96.69
622.743	115.69
622.95	93.69
623.157	95.69
623.364	87.69
623.571	97.69
623.778	77.69
623.985	89.69
624.192	89.69
624.399	79.69
624.606	102.69
624.812	89.69
625.019	94.69
625.226	94.69
625.433	94.69
625.639	84.69
625.846	80.69
626.053	102.69
626.259	97.69
626.466	84.69
626.673	93.69
626.879	80.69
627.086	86.69
627.293	103.69
627.499	84.69
627.706	91.69
627.912	96.69
628.119	83.69
628.325	103.69
628.532	82.69
628.738	85.69
628.945	100.69
629.151	105.69
629.357	88.69
629.564	89.69
629.77	110.69
629.976	98.69
630.183	84.69
630.389	79.69
630.595	80.69
630.802	86.69
631.008	94.69
631.214	90.69
631.42	79.69
631.627	98.69
631.833	86.69
632.039	79.69
632.245	86.69
632.451	88.69
632.657	88.69
632.863	85.69
633.069	97.69
633.275	85.69
633.481	97.69
633.688	95.69
633.893	97.69
634.099	97.69
634.305	91.69
634.511	90.69
634.717	88.69
634.923	88.69
635.129	83.69
635.335	79.69
635.541	94.69
635.747	80.69
635.952	87.69
636.158	81.69
636.364	88.69
636.57	99.69
636.775	87.69
636.981	97.69
637.187	89.69
637.392	97.69
637.598	75.69
637.804	86.69
638.009	89.69
638.215	104.69
638.421	89.69
638.626	84.69
638.832	84.69
639.037	78.69
639.243	85.69
639.448	69.69
639.654	86.69
639.859	88.69
640.065	100.69
640.27	90.69
640.475	90.69
640.681	85.69
640.886	107.69
641.091	88.69
641.297	100.69
641.502	92.69
641.707	80.69
641.913	90.69
642.118	82.69
642.323	99.69
642.528	90.69
642.733	96.69
642.939	102.69
643.144	79.69
643.349	87.69
643.554	79.69
643.759	86.69
643.964	91.69
644.169	96.69
644.374	86.69
644.579	84.69
644.784	91.69
644.989	65.69
645.194	81.69
645.399	86.69
645.604	86.69
645.809	87.69
646.014	80.69
646.219	95.69
646.423	80.69
646.628	94.69
646.833	84.69
647.038	98.69
647.243	86.69
647.447	70.69
647.652	85.69
647.857	89.69
648.062	84.69
648.266	94.69
648.471	103.69
648.676	80.69
648.88	97.69
649.085	70.69
649.289	88.69
649.494	86.69
649.698	73.69
649.903	86.69
650.107	82.69
650.312	81.69
650.516	93.69
650.721	96.69
650.925	103.69
651.13	85.69
651.334	76.69
651.539	80.69
651.743	67.69
651.947	84.69
652.152	89.69
652.356	80.69
652.56	90.69
652.764	72.69
652.969	75.69
653.173	81.69
653.377	94.69
653.581	74.69
653.785	93.69
653.99	81.69
654.194	75.69
654.398	69.69
654.602	80.69
654.806	71.69
655.01	90.69
655.214	77.69
655.418	79.69
655.622	83.69
655.826	82.69
656.03	84.69
656.234	74.69
656.438	82.69
656.642	84.69
656.846	84.69
657.049	72.69
657.253	94.69
657.457	84.69
657.661	78.69
657.865	76.69
658.068	87.69
658.272	78.69
658.476	100.69
658.68	77.69
658.883	77.69
659.087	74.69
659.291	82.69
659.494	94.69
659.698	82.69
659.901	73.69
660.105	88.69
660.309	88.69
660.512	76.69
660.716	87.69
660.919	83.69
661.123	76.69
661.326	89.69
661.53	89.69
661.733	75.69
661.936	89.69
662.14	79.69
662.343	74.69
662.546	86.69
662.75	73.69
662.953	81.69
663.156	97.69
663.36	73.69
663.563	80.69
663.766	71.69
663.969	73.69
664.173	96.69
664.376	86.69
664.579	80.69
664.782	92.69
664.985	86.69
665.188	75.69
665.391	86.69
665.594	88.69
665.797	90.69
666	94.69
666.203	80.69
666.406	77.69
666.609	98.69
666.812	82.69
667.015	84.69
667.218	67.69
667.421	84.69
667.624	74.69
667.827	93.69
668.03	95.69
668.232	81.69
668.435	89.69
668.638	87.69
668.841	85.69
669.043	81.69
669.246	80.69
669.449	82.69
669.651	73.69
669.854	76.69
670.057	88.69
670.259	91.69
670.462	83.69
670.665	75.69
670.867	85.69
671.07	98.69
671.272	81.69
671.475	81.69
671.677	78.69
671.88	89.69
672.082	82.69
672.284	84.69
672.487	79.69
672.689	70.69
672.892	61.69
