Data from Location3.07152019.Energy5.Lamp.07192019.3%Agarose_HRD10591_15-19-37-270.txt Node
Date: Fri Jul 19 15:19:37 EDT 2019
User: cochatt
Spectrometer: HR+D1059
Trigger mode: 1
Integration Time (sec): 1.000000E-1
Scans to average: 1
Electric dark correction enabled: true
Nonlinearity correction enabled: false
Boxcar width: 0
XAxis mode: Wavelengths
Number of Pixels in Spectrum: 2048
>>>>>Begin Spectral Data<<<<<
223.165	-14.62
223.4	-14.62
223.635	-14.62
223.869	-20.62
224.104	-10.62
224.338	-9.62
224.573	-19.62
224.808	3.38
225.042	-10.62
225.277	-4.62
225.511	-6.62
225.746	-5.62
225.98	-3.62
226.215	17.38
226.449	26.38
226.683	18.38
226.918	21.38
227.152	19.38
227.387	44.38
227.621	46.38
227.856	45.38
228.09	51.38
228.324	53.38
228.559	39.38
228.793	53.38
229.027	58.38
229.262	63.38
229.496	74.38
229.73	66.38
229.964	80.38
230.199	58.38
230.433	71.38
230.667	85.38
230.901	78.38
231.136	88.38
231.37	77.38
231.604	92.38
231.838	83.38
232.072	75.38
232.306	100.38
232.541	85.38
232.775	76.38
233.009	78.38
233.243	78.38
233.477	90.38
233.711	89.38
233.945	71.38
234.179	92.38
234.413	94.38
234.647	76.38
234.881	78.38
235.115	77.38
235.349	60.38
235.583	84.38
235.817	70.38
236.051	79.38
236.285	74.38
236.519	73.38
236.753	79.38
236.987	99.38
237.221	68.38
237.455	89.38
237.689	67.38
237.922	77.38
238.156	73.38
238.39	69.38
238.624	69.38
238.858	74.38
239.091	70.38
239.325	77.38
239.559	74.38
239.793	74.38
240.027	73.38
240.26	85.38
240.494	74.38
240.728	67.38
240.961	79.38
241.195	87.38
241.429	88.38
241.662	96.38
241.896	74.38
242.13	67.38
242.363	79.38
242.597	88.38
242.83	78.38
243.064	67.38
243.298	76.38
243.531	83.38
243.765	80.38
243.998	93.38
244.232	89.38
244.465	72.38
244.699	86.38
244.932	81.38
245.166	75.38
245.399	91.38
245.633	76.38
245.866	74.38
246.099	90.38
246.333	75.38
246.566	82.38
246.8	84.38
247.033	73.38
247.266	75.38
247.5	73.38
247.733	86.38
247.966	85.38
248.2	94.38
248.433	83.38
248.666	72.38
248.899	75.38
249.133	82.38
249.366	82.38
249.599	90.38
249.832	77.38
250.066	76.38
250.299	83.38
250.532	83.38
250.765	75.38
250.998	78.38
251.231	78.38
251.465	79.38
251.698	93.38
251.931	81.38
252.164	93.38
252.397	70.38
252.63	77.38
252.863	89.38
253.096	88.38
253.329	89.38
253.562	79.38
253.795	70.38
254.028	85.38
254.261	85.38
254.494	79.38
254.727	77.38
254.96	94.38
255.193	85.38
255.426	78.38
255.659	77.38
255.892	95.38
256.124	87.38
256.357	74.38
256.59	85.38
256.823	95.38
257.056	79.38
257.289	83.38
257.521	86.38
257.754	71.38
257.987	100.38
258.22	81.38
258.452	92.38
258.685	103.38
258.918	77.38
259.151	68.38
259.383	74.38
259.616	76.38
259.849	80.38
260.081	85.38
260.314	84.38
260.547	77.38
260.779	96.38
261.012	74.38
261.244	77.38
261.477	80.38
261.71	83.38
261.942	84.38
262.175	96.38
262.407	90.38
262.64	79.38
262.872	86.38
263.105	86.38
263.337	85.38
263.57	89.38
263.802	86.38
264.035	101.38
264.267	87.38
264.499	95.38
264.732	84.38
264.964	76.38
265.197	88.38
265.429	77.38
265.661	95.38
265.894	96.38
266.126	97.38
266.358	90.38
266.591	90.38
266.823	71.38
267.055	68.38
267.287	95.38
267.52	92.38
267.752	85.38
267.984	80.38
268.216	85.38
268.448	91.38
268.681	91.38
268.913	92.38
269.145	87.38
269.377	93.38
269.609	109.38
269.841	84.38
270.073	82.38
270.306	78.38
270.538	80.38
270.77	100.38
271.002	90.38
271.234	87.38
271.466	80.38
271.698	90.38
271.93	85.38
272.162	94.38
272.394	79.38
272.626	89.38
272.858	80.38
273.09	87.38
273.322	75.38
273.553	78.38
273.785	80.38
274.017	82.38
274.249	75.38
274.481	91.38
274.713	85.38
274.945	87.38
275.176	89.38
275.408	91.38
275.64	85.38
275.872	92.38
276.104	89.38
276.335	84.38
276.567	91.38
276.799	81.38
277.031	82.38
277.262	89.38
277.494	104.38
277.726	75.38
277.957	91.38
278.189	99.38
278.421	85.38
278.652	85.38
278.884	81.38
279.115	70.38
279.347	83.38
279.579	77.38
279.81	87.38
280.042	85.38
280.273	90.38
280.505	81.38
280.736	83.38
280.968	84.38
281.199	89.38
281.431	91.38
281.662	87.38
281.894	98.38
282.125	79.38
282.356	89.38
282.588	88.38
282.819	84.38
283.051	75.38
283.282	88.38
283.513	88.38
283.745	90.38
283.976	74.38
284.207	77.38
284.439	78.38
284.67	90.38
284.901	96.38
285.132	75.38
285.364	77.38
285.595	87.38
285.826	79.38
286.057	89.38
286.288	86.38
286.52	88.38
286.751	87.38
286.982	86.38
287.213	94.38
287.444	88.38
287.675	86.38
287.906	92.38
288.138	94.38
288.369	73.38
288.6	74.38
288.831	77.38
289.062	70.38
289.293	99.38
289.524	88.38
289.755	93.38
289.986	93.38
290.217	94.38
290.448	91.38
290.679	83.38
290.91	81.38
291.141	89.38
291.371	94.38
291.602	93.38
291.833	94.38
292.064	87.38
292.295	86.38
292.526	82.38
292.757	75.38
292.987	75.38
293.218	91.38
293.449	87.38
293.68	88.38
293.91	76.38
294.141	98.38
294.372	93.38
294.603	95.38
294.833	89.38
295.064	76.38
295.295	83.38
295.525	76.38
295.756	74.38
295.987	78.38
296.217	95.38
296.448	96.38
296.679	84.38
296.909	80.38
297.14	82.38
297.37	77.38
297.601	82.38
297.831	89.38
298.062	90.38
298.292	102.38
298.523	86.38
298.753	93.38
298.984	80.38
299.214	84.38
299.445	76.38
299.675	85.38
299.905	95.38
300.136	91.38
300.366	88.38
300.597	91.38
300.827	91.38
301.057	86.38
301.288	97.38
301.518	71.38
301.748	83.38
301.979	93.38
302.209	86.38
302.439	80.38
302.669	84.38
302.9	78.38
303.13	87.38
303.36	83.38
303.59	87.38
303.82	91.38
304.051	83.38
304.281	74.38
304.511	86.38
304.741	89.38
304.971	80.38
305.201	83.38
305.431	91.38
305.661	88.38
305.891	100.38
306.121	84.38
306.352	89.38
306.582	79.38
306.812	75.38
307.042	80.38
307.272	93.38
307.502	83.38
307.731	103.38
307.961	100.38
308.191	91.38
308.421	88.38
308.651	78.38
308.881	87.38
309.111	91.38
309.341	83.38
309.571	69.38
309.8	87.38
310.03	99.38
310.26	87.38
310.49	82.38
310.72	87.38
310.949	78.38
311.179	74.38
311.409	89.38
311.639	93.38
311.868	90.38
312.098	94.38
312.328	90.38
312.557	82.38
312.787	85.38
313.017	90.38
313.246	88.38
313.476	87.38
313.706	80.38
313.935	74.38
314.165	84.38
314.394	79.38
314.624	87.38
314.853	86.38
315.083	82.38
315.312	85.38
315.542	92.38
315.771	101.38
316.001	75.38
316.23	75.38
316.46	99.38
316.689	83.38
316.919	84.38
317.148	91.38
317.377	92.38
317.607	83.38
317.836	86.38
318.065	99.38
318.295	108.38
318.524	80.38
318.753	84.38
318.983	84.38
319.212	98.38
319.441	85.38
319.67	85.38
319.9	92.38
320.129	76.38
320.358	94.38
320.587	96.38
320.816	77.38
321.046	91.38
321.275	100.38
321.504	84.38
321.733	89.38
321.962	83.38
322.191	79.38
322.42	82.38
322.649	83.38
322.878	76.38
323.108	90.38
323.337	72.38
323.566	84.38
323.795	84.38
324.024	81.38
324.253	96.38
324.482	78.38
324.71	78.38
324.939	82.38
325.168	87.38
325.397	103.38
325.626	90.38
325.855	89.38
326.084	85.38
326.313	74.38
326.542	95.38
326.77	95.38
326.999	84.38
327.228	89.38
327.457	99.38
327.686	96.38
327.914	79.38
328.143	88.38
328.372	88.38
328.6	85.38
328.829	94.38
329.058	77.38
329.287	88.38
329.515	86.38
329.744	86.38
329.972	78.38
330.201	83.38
330.43	93.38
330.658	85.38
330.887	85.38
331.115	87.38
331.344	96.38
331.572	89.38
331.801	89.38
332.03	83.38
332.258	85.38
332.486	93.38
332.715	79.38
332.943	81.38
333.172	81.38
333.4	94.38
333.629	89.38
333.857	83.38
334.085	81.38
334.314	89.38
334.542	84.38
334.771	97.38
334.999	78.38
335.227	90.38
335.455	87.38
335.684	90.38
335.912	83.38
336.14	81.38
336.369	86.38
336.597	97.38
336.825	89.38
337.053	95.38
337.281	87.38
337.51	105.38
337.738	89.38
337.966	89.38
338.194	84.38
338.422	79.38
338.65	85.38
338.878	90.38
339.106	89.38
339.334	86.38
339.562	94.38
339.79	74.38
340.018	92.38
340.246	103.38
340.474	78.38
340.702	85.38
340.93	79.38
341.158	78.38
341.386	90.38
341.614	91.38
341.842	76.38
342.07	85.38
342.298	100.38
342.526	91.38
342.754	94.38
342.981	85.38
343.209	91.38
343.437	105.38
343.665	84.38
343.893	85.38
344.12	82.38
344.348	76.38
344.576	107.38
344.804	91.38
345.031	74.38
345.259	86.38
345.487	97.38
345.714	82.38
345.942	83.38
346.17	79.38
346.397	92.38
346.625	84.38
346.853	84.38
347.08	93.38
347.308	82.38
347.535	87.38
347.763	79.38
347.99	85.38
348.218	88.38
348.445	81.38
348.673	89.38
348.9	80.38
349.128	103.38
349.355	91.38
349.583	83.38
349.81	93.38
350.037	87.38
350.265	89.38
350.492	101.38
350.72	84.38
350.947	93.38
351.174	92.38
351.402	66.38
351.629	92.38
351.856	89.38
352.083	69.38
352.311	91.38
352.538	74.38
352.765	84.38
352.992	90.38
353.22	94.38
353.447	78.38
353.674	83.38
353.901	88.38
354.128	93.38
354.355	85.38
354.583	86.38
354.81	86.38
355.037	92.38
355.264	94.38
355.491	89.38
355.718	89.38
355.945	98.38
356.172	81.38
356.399	103.38
356.626	89.38
356.853	77.38
357.08	81.38
357.307	93.38
357.534	79.38
357.761	93.38
357.988	96.38
358.215	81.38
358.441	92.38
358.668	79.38
358.895	85.38
359.122	90.38
359.349	78.38
359.576	81.38
359.802	92.38
360.029	67.38
360.256	80.38
360.483	81.38
360.709	82.38
360.936	82.38
361.163	86.38
361.39	93.38
361.616	98.38
361.843	86.38
362.07	74.38
362.296	88.38
362.523	85.38
362.749	97.38
362.976	78.38
363.203	94.38
363.429	85.38
363.656	91.38
363.882	76.38
364.109	84.38
364.335	82.38
364.562	87.38
364.788	83.38
365.015	92.38
365.241	97.38
365.468	103.38
365.694	89.38
365.92	76.38
366.147	79.38
366.373	96.38
366.599	89.38
366.826	87.38
367.052	93.38
367.278	85.38
367.505	84.38
367.731	96.38
367.957	96.38
368.184	78.38
368.41	99.38
368.636	94.38
368.862	105.38
369.089	83.38
369.315	83.38
369.541	80.38
369.767	76.38
369.993	90.38
370.219	82.38
370.445	88.38
370.672	84.38
370.898	82.38
371.124	90.38
371.35	81.38
371.576	84.38
371.802	93.38
372.028	85.38
372.254	74.38
372.48	94.38
372.706	78.38
372.932	82.38
373.158	89.38
373.384	100.38
373.61	89.38
373.835	98.38
374.061	92.38
374.287	90.38
374.513	85.38
374.739	89.38
374.965	90.38
375.191	90.38
375.416	105.38
375.642	78.38
375.868	88.38
376.094	73.38
376.319	88.38
376.545	89.38
376.771	92.38
376.997	90.38
377.222	94.38
377.448	81.38
377.674	99.38
377.899	98.38
378.125	82.38
378.35	87.38
378.576	94.38
378.802	83.38
379.027	84.38
379.253	82.38
379.478	99.38
379.704	92.38
379.929	83.38
380.155	79.38
380.38	89.38
380.606	87.38
380.831	84.38
381.057	98.38
381.282	97.38
381.507	95.38
381.733	93.38
381.958	84.38
382.184	84.38
382.409	78.38
382.634	78.38
382.86	94.38
383.085	103.38
383.31	93.38
383.535	92.38
383.761	82.38
383.986	90.38
384.211	102.38
384.436	103.38
384.662	86.38
384.887	87.38
385.112	75.38
385.337	85.38
385.562	79.38
385.787	82.38
386.013	75.38
386.238	78.38
386.463	91.38
386.688	79.38
386.913	83.38
387.138	91.38
387.363	75.38
387.588	91.38
387.813	95.38
388.038	86.38
388.263	107.38
388.488	88.38
388.713	105.38
388.938	95.38
389.163	92.38
389.387	109.38
389.612	79.38
389.837	78.38
390.062	93.38
390.287	82.38
390.512	93.38
390.736	81.38
390.961	99.38
391.186	105.38
391.411	83.38
391.636	90.38
391.86	85.38
392.085	102.38
392.31	86.38
392.534	78.38
392.759	91.38
392.984	84.38
393.208	92.38
393.433	97.38
393.658	102.38
393.882	94.38
394.107	81.38
394.331	96.38
394.556	103.38
394.78	94.38
395.005	92.38
395.229	100.38
395.454	85.38
395.678	90.38
395.903	91.38
396.127	95.38
396.352	100.38
396.576	90.38
396.801	96.38
397.025	74.38
397.249	97.38
397.474	102.38
397.698	91.38
397.922	99.38
398.147	79.38
398.371	86.38
398.595	101.38
398.82	92.38
399.044	94.38
399.268	79.38
399.492	92.38
399.717	99.38
399.941	100.38
400.165	94.38
400.389	83.38
400.613	99.38
400.837	95.38
401.062	99.38
401.286	92.38
401.51	86.38
401.734	95.38
401.958	105.38
402.182	95.38
402.406	86.38
402.63	90.38
402.854	94.38
403.078	95.38
403.302	94.38
403.526	82.38
403.75	86.38
403.974	79.38
404.198	93.38
404.422	102.38
404.645	93.38
404.869	94.38
405.093	79.38
405.317	95.38
405.541	100.38
405.765	89.38
405.988	91.38
406.212	104.38
406.436	87.38
406.66	85.38
406.883	91.38
407.107	77.38
407.331	97.38
407.555	85.38
407.778	94.38
408.002	93.38
408.226	79.38
408.449	88.38
408.673	89.38
408.896	103.38
409.12	99.38
409.344	107.38
409.567	77.38
409.791	88.38
410.014	100.38
410.238	100.38
410.461	91.38
410.685	108.38
410.908	102.38
411.132	105.38
411.355	92.38
411.578	89.38
411.802	80.38
412.025	92.38
412.249	106.38
412.472	86.38
412.695	80.38
412.919	93.38
413.142	98.38
413.365	110.38
413.589	100.38
413.812	91.38
414.035	94.38
414.258	88.38
414.482	89.38
414.705	86.38
414.928	103.38
415.151	100.38
415.374	98.38
415.597	109.38
415.821	97.38
416.044	89.38
416.267	86.38
416.49	88.38
416.713	91.38
416.936	107.38
417.159	101.38
417.382	83.38
417.605	83.38
417.828	86.38
418.051	89.38
418.274	100.38
418.497	98.38
418.72	103.38
418.943	99.38
419.166	77.38
419.389	102.38
419.611	113.38
419.834	103.38
420.057	98.38
420.28	102.38
420.503	104.38
420.726	89.38
420.948	101.38
421.171	99.38
421.394	95.38
421.617	105.38
421.839	115.38
422.062	108.38
422.285	105.38
422.507	103.38
422.73	107.38
422.953	102.38
423.175	95.38
423.398	89.38
423.621	102.38
423.843	77.38
424.066	98.38
424.288	93.38
424.511	107.38
424.733	88.38
424.956	88.38
425.178	103.38
425.401	107.38
425.623	94.38
425.846	97.38
426.068	107.38
426.291	89.38
426.513	98.38
426.735	106.38
426.958	98.38
427.18	90.38
427.402	108.38
427.625	99.38
427.847	86.38
428.069	95.38
428.292	96.38
428.514	98.38
428.736	101.38
428.958	95.38
429.181	98.38
429.403	109.38
429.625	98.38
429.847	99.38
430.069	90.38
430.292	105.38
430.514	101.38
430.736	95.38
430.958	94.38
431.18	87.38
431.402	106.38
431.624	83.38
431.846	102.38
432.068	89.38
432.29	97.38
432.512	101.38
432.734	98.38
432.956	110.38
433.178	100.38
433.4	104.38
433.622	103.38
433.844	111.38
434.066	102.38
434.287	85.38
434.509	99.38
434.731	94.38
434.953	107.38
435.175	96.38
435.397	94.38
435.618	95.38
435.84	91.38
436.062	84.38
436.284	105.38
436.505	87.38
436.727	89.38
436.949	81.38
437.17	104.38
437.392	102.38
437.614	104.38
437.835	99.38
438.057	80.38
438.278	84.38
438.5	78.38
438.721	92.38
438.943	93.38
439.165	100.38
439.386	92.38
439.608	94.38
439.829	94.38
440.05	101.38
440.272	102.38
440.493	106.38
440.715	92.38
440.936	79.38
441.158	103.38
441.379	106.38
441.6	92.38
441.822	100.38
442.043	90.38
442.264	101.38
442.486	92.38
442.707	95.38
442.928	96.38
443.149	97.38
443.371	90.38
443.592	99.38
443.813	95.38
444.034	114.38
444.255	107.38
444.476	104.38
444.698	103.38
444.919	107.38
445.14	227.38
445.361	161.38
445.582	95.38
445.803	116.38
446.024	102.38
446.245	118.38
446.466	102.38
446.687	96.38
446.908	99.38
447.129	98.38
447.35	105.38
447.571	99.38
447.792	114.38
448.013	104.38
448.234	91.38
448.455	95.38
448.675	101.38
448.896	113.38
449.117	109.38
449.338	90.38
449.559	93.38
449.779	110.38
450	86.38
450.221	109.38
450.442	94.38
450.662	98.38
450.883	106.38
451.104	89.38
451.324	84.38
451.545	84.38
451.766	97.38
451.986	99.38
452.207	94.38
452.428	89.38
452.648	107.38
452.869	98.38
453.089	86.38
453.31	89.38
453.53	90.38
453.751	81.38
453.971	91.38
454.192	81.38
454.412	94.38
454.633	86.38
454.853	96.38
455.073	99.38
455.294	85.38
455.514	102.38
455.734	85.38
455.955	93.38
456.175	93.38
456.395	98.38
456.616	89.38
456.836	94.38
457.056	107.38
457.276	86.38
457.497	96.38
457.717	90.38
457.937	96.38
458.157	90.38
458.377	86.38
458.598	90.38
458.818	92.38
459.038	101.38
459.258	85.38
459.478	89.38
459.698	94.38
459.918	90.38
460.138	86.38
460.358	93.38
460.578	90.38
460.798	88.38
461.018	94.38
461.238	97.38
461.458	107.38
461.678	98.38
461.898	100.38
462.118	93.38
462.338	100.38
462.558	87.38
462.777	99.38
462.997	98.38
463.217	86.38
463.437	89.38
463.657	86.38
463.876	83.38
464.096	83.38
464.316	85.38
464.536	90.38
464.755	90.38
464.975	102.38
465.195	102.38
465.414	88.38
465.634	91.38
465.854	93.38
466.073	89.38
466.293	100.38
466.512	102.38
466.732	108.38
466.951	106.38
467.171	95.38
467.391	91.38
467.61	93.38
467.829	95.38
468.049	96.38
468.268	85.38
468.488	108.38
468.707	99.38
468.927	102.38
469.146	103.38
469.365	108.38
469.585	84.38
469.804	114.38
470.023	100.38
470.243	105.38
470.462	123.38
470.681	113.38
470.901	103.38
471.12	113.38
471.339	117.38
471.558	117.38
471.777	107.38
471.997	90.38
472.216	113.38
472.435	84.38
472.654	98.38
472.873	77.38
473.092	101.38
473.311	93.38
473.53	107.38
473.749	101.38
473.968	110.38
474.187	98.38
474.406	91.38
474.625	90.38
474.844	93.38
475.063	103.38
475.282	100.38
475.501	101.38
475.72	93.38
475.939	91.38
476.158	94.38
476.377	94.38
476.596	109.38
476.814	100.38
477.033	93.38
477.252	91.38
477.471	95.38
477.69	98.38
477.908	106.38
478.127	109.38
478.346	100.38
478.564	99.38
478.783	114.38
479.002	94.38
479.22	92.38
479.439	93.38
479.658	87.38
479.876	94.38
480.095	98.38
480.313	96.38
480.532	87.38
480.751	91.38
480.969	106.38
481.188	78.38
481.406	83.38
481.624	89.38
481.843	93.38
482.061	89.38
482.28	73.38
482.498	98.38
482.717	96.38
482.935	94.38
483.153	88.38
483.372	94.38
483.59	102.38
483.808	108.38
484.027	95.38
484.245	108.38
484.463	94.38
484.681	111.38
484.9	96.38
485.118	98.38
485.336	109.38
485.554	99.38
485.772	105.38
485.99	91.38
486.209	77.38
486.427	96.38
486.645	83.38
486.863	88.38
487.081	97.38
487.299	93.38
487.517	103.38
487.735	102.38
487.953	119.38
488.171	105.38
488.389	113.38
488.607	96.38
488.825	94.38
489.043	92.38
489.261	92.38
489.479	85.38
489.696	88.38
489.914	106.38
490.132	119.38
490.35	90.38
490.568	100.38
490.786	105.38
491.003	115.38
491.221	118.38
491.439	134.38
491.657	124.38
491.874	120.38
492.092	110.38
492.31	135.38
492.527	131.38
492.745	133.38
492.963	123.38
493.18	114.38
493.398	114.38
493.615	117.38
493.833	119.38
494.05	119.38
494.268	115.38
494.485	105.38
494.703	124.38
494.92	110.38
495.138	119.38
495.355	131.38
495.573	114.38
495.79	117.38
496.008	117.38
496.225	119.38
496.442	106.38
496.66	114.38
496.877	104.38
497.094	95.38
497.312	115.38
497.529	109.38
497.746	101.38
497.963	96.38
498.181	105.38
498.398	90.38
498.615	102.38
498.832	87.38
499.049	99.38
499.267	97.38
499.484	95.38
499.701	107.38
499.918	102.38
500.135	93.38
500.352	100.38
500.569	110.38
500.786	101.38
501.003	101.38
501.22	107.38
501.437	94.38
501.654	117.38
501.871	85.38
502.088	91.38
502.305	83.38
502.522	115.38
502.739	98.38
502.956	110.38
503.172	99.38
503.389	93.38
503.606	98.38
503.823	89.38
504.04	77.38
504.256	90.38
504.473	99.38
504.69	102.38
504.907	88.38
505.123	117.38
505.34	113.38
505.557	102.38
505.773	91.38
505.99	92.38
506.207	103.38
506.423	102.38
506.64	99.38
506.856	82.38
507.073	92.38
507.289	103.38
507.506	95.38
507.722	105.38
507.939	99.38
508.155	106.38
508.372	95.38
508.588	83.38
508.805	83.38
509.021	87.38
509.238	79.38
509.454	102.38
509.67	91.38
509.887	102.38
510.103	75.38
510.319	98.38
510.536	86.38
510.752	93.38
510.968	77.38
511.184	88.38
511.401	88.38
511.617	88.38
511.833	85.38
512.049	74.38
512.265	80.38
512.481	80.38
512.698	88.38
512.914	105.38
513.13	84.38
513.346	74.38
513.562	75.38
513.778	84.38
513.994	89.38
514.21	105.38
514.426	94.38
514.642	98.38
514.858	89.38
515.074	94.38
515.29	101.38
515.506	87.38
515.721	82.38
515.937	80.38
516.153	87.38
516.369	89.38
516.585	89.38
516.801	90.38
517.016	89.38
517.232	81.38
517.448	89.38
517.664	99.38
517.879	100.38
518.095	96.38
518.311	93.38
518.527	92.38
518.742	86.38
518.958	86.38
519.173	95.38
519.389	105.38
519.605	93.38
519.82	86.38
520.036	89.38
520.251	93.38
520.467	89.38
520.682	94.38
520.898	94.38
521.113	86.38
521.329	104.38
521.544	92.38
521.76	93.38
521.975	105.38
522.19	104.38
522.406	81.38
522.621	86.38
522.836	91.38
523.052	95.38
523.267	100.38
523.482	98.38
523.698	106.38
523.913	92.38
524.128	91.38
524.343	100.38
524.559	110.38
524.774	101.38
524.989	104.38
525.204	99.38
525.419	90.38
525.634	95.38
525.849	102.38
526.064	91.38
526.28	102.38
526.495	84.38
526.71	79.38
526.925	87.38
527.14	89.38
527.355	85.38
527.57	72.38
527.785	85.38
527.999	101.38
528.214	86.38
528.429	96.38
528.644	93.38
528.859	99.38
529.074	117.38
529.289	98.38
529.503	105.38
529.718	100.38
529.933	101.38
530.148	96.38
530.363	106.38
530.577	85.38
530.792	79.38
531.007	81.38
531.221	82.38
531.436	85.38
531.651	79.38
531.865	91.38
532.08	88.38
532.295	81.38
532.509	87.38
532.724	94.38
532.938	85.38
533.153	85.38
533.367	104.38
533.582	99.38
533.796	97.38
534.011	102.38
534.225	84.38
534.44	90.38
534.654	100.38
534.868	91.38
535.083	93.38
535.297	102.38
535.511	80.38
535.726	84.38
535.94	85.38
536.154	88.38
536.369	81.38
536.583	97.38
536.797	82.38
537.011	92.38
537.225	94.38
537.44	89.38
537.654	104.38
537.868	78.38
538.082	82.38
538.296	74.38
538.51	95.38
538.724	85.38
538.938	93.38
539.153	108.38
539.367	86.38
539.581	97.38
539.795	92.38
540.009	102.38
540.222	101.38
540.436	106.38
540.65	83.38
540.864	100.38
541.078	116.38
541.292	114.38
541.506	100.38
541.72	117.38
541.934	108.38
542.147	133.38
542.361	105.38
542.575	119.38
542.789	93.38
543.002	93.38
543.216	102.38
543.43	109.38
543.644	90.38
543.857	98.38
544.071	110.38
544.285	108.38
544.498	114.38
544.712	113.38
544.925	126.38
545.139	110.38
545.352	119.38
545.566	98.38
545.779	116.38
545.993	113.38
546.206	105.38
546.42	118.38
546.633	117.38
546.847	115.38
547.06	95.38
547.274	124.38
547.487	107.38
547.7	115.38
547.914	118.38
548.127	121.38
548.34	107.38
548.554	107.38
548.767	109.38
548.98	108.38
549.193	114.38
549.407	118.38
549.62	119.38
549.833	112.38
550.046	98.38
550.259	105.38
550.473	109.38
550.686	91.38
550.899	113.38
551.112	124.38
551.325	108.38
551.538	99.38
551.751	103.38
551.964	109.38
552.177	106.38
552.39	104.38
552.603	122.38
552.816	93.38
553.029	122.38
553.242	103.38
553.455	104.38
553.667	120.38
553.88	104.38
554.093	103.38
554.306	93.38
554.519	109.38
554.732	114.38
554.944	111.38
555.157	107.38
555.37	105.38
555.583	118.38
555.795	101.38
556.008	111.38
556.221	101.38
556.433	112.38
556.646	95.38
556.859	92.38
557.071	101.38
557.284	103.38
557.496	121.38
557.709	107.38
557.921	107.38
558.134	92.38
558.346	112.38
558.559	94.38
558.771	91.38
558.984	117.38
559.196	92.38
559.409	94.38
559.621	98.38
559.833	103.38
560.046	95.38
560.258	98.38
560.47	87.38
560.683	103.38
560.895	104.38
561.107	93.38
561.32	115.38
561.532	98.38
561.744	101.38
561.956	104.38
562.168	102.38
562.381	93.38
562.593	103.38
562.805	92.38
563.017	106.38
563.229	94.38
563.441	96.38
563.653	104.38
563.865	91.38
564.077	86.38
564.289	103.38
564.501	102.38
564.713	108.38
564.925	115.38
565.137	99.38
565.349	96.38
565.561	105.38
565.773	90.38
565.985	104.38
566.197	103.38
566.408	118.38
566.62	114.38
566.832	115.38
567.044	90.38
567.255	103.38
567.467	94.38
567.679	95.38
567.891	89.38
568.102	93.38
568.314	93.38
568.526	65.38
568.737	91.38
568.949	97.38
569.161	99.38
569.372	90.38
569.584	113.38
569.795	85.38
570.007	89.38
570.218	100.38
570.43	89.38
570.641	84.38
570.853	92.38
571.064	106.38
571.276	84.38
571.487	94.38
571.698	105.38
571.91	98.38
572.121	94.38
572.333	93.38
572.544	93.38
572.755	87.38
572.966	90.38
573.178	92.38
573.389	95.38
573.6	100.38
573.811	78.38
574.023	99.38
574.234	93.38
574.445	85.38
574.656	93.38
574.867	87.38
575.078	83.38
575.289	75.38
575.501	98.38
575.712	95.38
575.923	90.38
576.134	88.38
576.345	88.38
576.556	101.38
576.767	97.38
576.978	90.38
577.188	89.38
577.399	84.38
577.61	89.38
577.821	92.38
578.032	88.38
578.243	91.38
578.454	91.38
578.665	93.38
578.875	92.38
579.086	100.38
579.297	89.38
579.508	71.38
579.718	92.38
579.929	83.38
580.14	78.38
580.35	91.38
580.561	93.38
580.772	93.38
580.982	81.38
581.193	91.38
581.403	85.38
581.614	85.38
581.825	75.38
582.035	87.38
582.246	89.38
582.456	89.38
582.667	90.38
582.877	106.38
583.087	95.38
583.298	89.38
583.508	75.38
583.719	89.38
583.929	103.38
584.139	101.38
584.35	77.38
584.56	84.38
584.77	81.38
584.981	91.38
585.191	95.38
585.401	84.38
585.611	81.38
585.821	89.38
586.032	88.38
586.242	83.38
586.452	102.38
586.662	71.38
586.872	87.38
587.082	86.38
587.292	74.38
587.502	89.38
587.713	86.38
587.923	76.38
588.133	78.38
588.343	77.38
588.553	83.38
588.762	94.38
588.972	88.38
589.182	95.38
589.392	106.38
589.602	101.38
589.812	95.38
590.022	99.38
590.232	89.38
590.441	90.38
590.651	98.38
590.861	81.38
591.071	75.38
591.281	100.38
591.49	81.38
591.7	94.38
591.91	97.38
592.119	74.38
592.329	85.38
592.539	94.38
592.748	89.38
592.958	93.38
593.167	79.38
593.377	82.38
593.587	90.38
593.796	73.38
594.006	81.38
594.215	99.38
594.424	82.38
594.634	92.38
594.843	92.38
595.053	78.38
595.262	74.38
595.472	103.38
595.681	91.38
595.89	84.38
596.1	98.38
596.309	84.38
596.518	90.38
596.727	85.38
596.937	80.38
597.146	84.38
597.355	100.38
597.564	83.38
597.774	80.38
597.983	93.38
598.192	78.38
598.401	97.38
598.61	85.38
598.819	85.38
599.028	95.38
599.237	93.38
599.446	96.38
599.655	99.38
599.864	82.38
600.073	90.38
600.282	81.38
600.491	79.38
600.7	88.38
600.909	104.38
601.118	91.38
601.327	97.38
601.536	94.38
601.745	102.38
601.953	108.38
602.162	91.38
602.371	97.38
602.58	93.38
602.789	98.38
602.997	94.38
603.206	99.38
603.415	102.38
603.623	99.38
603.832	90.38
604.041	102.38
604.249	92.38
604.458	90.38
604.666	81.38
604.875	90.38
605.084	89.38
605.292	89.38
605.501	101.38
605.709	97.38
605.918	93.38
606.126	98.38
606.334	92.38
606.543	91.38
606.751	92.38
606.96	78.38
607.168	107.38
607.376	93.38
607.585	105.38
607.793	97.38
608.001	105.38
608.21	107.38
608.418	106.38
608.626	79.38
608.834	88.38
609.043	95.38
609.251	92.38
609.459	78.38
609.667	101.38
609.875	89.38
610.083	94.38
610.291	91.38
610.499	88.38
610.707	100.38
610.916	98.38
611.124	81.38
611.332	103.38
611.54	98.38
611.748	98.38
611.955	91.38
612.163	88.38
612.371	95.38
612.579	99.38
612.787	75.38
612.995	94.38
613.203	90.38
613.411	86.38
613.618	93.38
613.826	111.38
614.034	102.38
614.242	97.38
614.449	102.38
614.657	96.38
614.865	100.38
615.072	94.38
615.28	98.38
615.488	83.38
615.695	96.38
615.903	91.38
616.111	100.38
616.318	94.38
616.526	100.38
616.733	74.38
616.941	107.38
617.148	88.38
617.356	100.38
617.563	103.38
617.771	94.38
617.978	100.38
618.185	103.38
618.393	99.38
618.6	101.38
618.807	94.38
619.015	94.38
619.222	104.38
619.429	79.38
619.637	85.38
619.844	89.38
620.051	94.38
620.258	81.38
620.466	93.38
620.673	98.38
620.88	95.38
621.087	83.38
621.294	86.38
621.501	101.38
621.708	91.38
621.915	94.38
622.122	105.38
622.329	90.38
622.536	79.38
622.743	99.38
622.95	103.38
623.157	90.38
623.364	101.38
623.571	101.38
623.778	84.38
623.985	93.38
624.192	95.38
624.399	106.38
624.606	103.38
624.812	100.38
625.019	82.38
625.226	89.38
625.433	88.38
625.639	87.38
625.846	86.38
626.053	90.38
626.259	93.38
626.466	90.38
626.673	82.38
626.879	93.38
627.086	70.38
627.293	86.38
627.499	97.38
627.706	82.38
627.912	78.38
628.119	99.38
628.325	94.38
628.532	85.38
628.738	95.38
628.945	92.38
629.151	88.38
629.357	87.38
629.564	92.38
629.77	83.38
629.976	106.38
630.183	91.38
630.389	102.38
630.595	105.38
630.802	87.38
631.008	96.38
631.214	92.38
631.42	82.38
631.627	92.38
631.833	87.38
632.039	85.38
632.245	92.38
632.451	100.38
632.657	82.38
632.863	95.38
633.069	86.38
633.275	73.38
633.481	86.38
633.688	91.38
633.893	99.38
634.099	94.38
634.305	99.38
634.511	87.38
634.717	94.38
634.923	92.38
635.129	83.38
635.335	97.38
635.541	96.38
635.747	90.38
635.952	83.38
636.158	88.38
636.364	88.38
636.57	96.38
636.775	78.38
636.981	89.38
637.187	94.38
637.392	95.38
637.598	106.38
637.804	103.38
638.009	96.38
638.215	92.38
638.421	88.38
638.626	90.38
638.832	84.38
639.037	81.38
639.243	71.38
639.448	91.38
639.654	87.38
639.859	91.38
640.065	76.38
640.27	101.38
640.475	92.38
640.681	97.38
640.886	97.38
641.091	87.38
641.297	97.38
641.502	78.38
641.707	97.38
641.913	85.38
642.118	71.38
642.323	77.38
642.528	94.38
642.733	96.38
642.939	97.38
643.144	82.38
643.349	96.38
643.554	91.38
643.759	83.38
643.964	94.38
644.169	96.38
644.374	96.38
644.579	93.38
644.784	86.38
644.989	82.38
645.194	83.38
645.399	92.38
645.604	84.38
645.809	87.38
646.014	92.38
646.219	85.38
646.423	101.38
646.628	94.38
646.833	73.38
647.038	95.38
647.243	79.38
647.447	85.38
647.652	83.38
647.857	89.38
648.062	83.38
648.266	99.38
648.471	87.38
648.676	83.38
648.88	85.38
649.085	96.38
649.289	92.38
649.494	78.38
649.698	80.38
649.903	81.38
650.107	88.38
650.312	107.38
650.516	79.38
650.721	100.38
650.925	86.38
651.13	69.38
651.334	91.38
651.539	97.38
651.743	101.38
651.947	98.38
652.152	81.38
652.356	79.38
652.56	93.38
652.764	99.38
652.969	89.38
653.173	89.38
653.377	81.38
653.581	76.38
653.785	75.38
653.99	84.38
654.194	81.38
654.398	89.38
654.602	96.38
654.806	80.38
655.01	85.38
655.214	112.38
655.418	91.38
655.622	78.38
655.826	79.38
656.03	77.38
656.234	74.38
656.438	98.38
656.642	87.38
656.846	83.38
657.049	87.38
657.253	92.38
657.457	90.38
657.661	88.38
657.865	93.38
658.068	75.38
658.272	89.38
658.476	84.38
658.68	91.38
658.883	84.38
659.087	83.38
659.291	106.38
659.494	83.38
659.698	80.38
659.901	80.38
660.105	92.38
660.309	85.38
660.512	88.38
660.716	72.38
660.919	78.38
661.123	88.38
661.326	90.38
661.53	84.38
661.733	87.38
661.936	83.38
662.14	98.38
662.343	80.38
662.546	78.38
662.75	105.38
662.953	84.38
663.156	87.38
663.36	85.38
663.563	101.38
663.766	72.38
663.969	95.38
664.173	97.38
664.376	72.38
664.579	87.38
664.782	80.38
664.985	85.38
665.188	83.38
665.391	70.38
665.594	90.38
665.797	87.38
666	78.38
666.203	80.38
666.406	82.38
666.609	84.38
666.812	83.38
667.015	93.38
667.218	91.38
667.421	73.38
667.624	85.38
667.827	87.38
668.03	94.38
668.232	99.38
668.435	84.38
668.638	83.38
668.841	98.38
669.043	92.38
669.246	82.38
669.449	77.38
669.651	84.38
669.854	82.38
670.057	80.38
670.259	84.38
670.462	90.38
670.665	86.38
670.867	77.38
671.07	90.38
671.272	86.38
671.475	82.38
671.677	84.38
671.88	76.38
672.082	81.38
672.284	93.38
672.487	82.38
672.689	79.38
672.892	77.38
