Data from Location3.07152019.Energy5.Lamp.07192019.3%Agarose_HRD10591_15-19-08-269.txt Node
Date: Fri Jul 19 15:19:08 EDT 2019
User: cochatt
Spectrometer: HR+D1059
Trigger mode: 1
Integration Time (sec): 1.000000E-1
Scans to average: 1
Electric dark correction enabled: true
Nonlinearity correction enabled: false
Boxcar width: 0
XAxis mode: Wavelengths
Number of Pixels in Spectrum: 2048
>>>>>Begin Spectral Data<<<<<
223.165	-6.31
223.4	-6.31
223.635	-6.31
223.869	-27.31
224.104	-16.31
224.338	-12.31
224.573	-0.31
224.808	-13.31
225.042	-13.31
225.277	8.69
225.511	-5.31
225.746	-9.31
225.98	-4.31
226.215	8.69
226.449	14.69
226.683	30.69
226.918	18.69
227.152	26.69
227.387	26.69
227.621	42.69
227.856	55.69
228.09	49.69
228.324	40.69
228.559	32.69
228.793	55.69
229.027	59.69
229.262	62.69
229.496	61.69
229.73	62.69
229.964	64.69
230.199	78.69
230.433	67.69
230.667	78.69
230.901	70.69
231.136	83.69
231.37	82.69
231.604	67.69
231.838	76.69
232.072	73.69
232.306	66.69
232.541	80.69
232.775	71.69
233.009	72.69
233.243	73.69
233.477	87.69
233.711	89.69
233.945	76.69
234.179	74.69
234.413	77.69
234.647	81.69
234.881	71.69
235.115	73.69
235.349	77.69
235.583	79.69
235.817	87.69
236.051	64.69
236.285	67.69
236.519	83.69
236.753	78.69
236.987	84.69
237.221	77.69
237.455	75.69
237.689	68.69
237.922	69.69
238.156	71.69
238.39	89.69
238.624	70.69
238.858	67.69
239.091	64.69
239.325	82.69
239.559	69.69
239.793	82.69
240.027	66.69
240.26	61.69
240.494	56.69
240.728	72.69
240.961	69.69
241.195	80.69
241.429	69.69
241.662	74.69
241.896	75.69
242.13	90.69
242.363	79.69
242.597	66.69
242.83	82.69
243.064	68.69
243.298	75.69
243.531	85.69
243.765	85.69
243.998	86.69
244.232	91.69
244.465	63.69
244.699	63.69
244.932	73.69
245.166	79.69
245.399	94.69
245.633	72.69
245.866	68.69
246.099	80.69
246.333	59.69
246.566	82.69
246.8	76.69
247.033	80.69
247.266	78.69
247.5	87.69
247.733	78.69
247.966	69.69
248.2	65.69
248.433	83.69
248.666	69.69
248.899	67.69
249.133	80.69
249.366	79.69
249.599	76.69
249.832	67.69
250.066	82.69
250.299	68.69
250.532	71.69
250.765	75.69
250.998	79.69
251.231	75.69
251.465	93.69
251.698	64.69
251.931	76.69
252.164	70.69
252.397	63.69
252.63	76.69
252.863	74.69
253.096	79.69
253.329	78.69
253.562	94.69
253.795	84.69
254.028	75.69
254.261	75.69
254.494	65.69
254.727	84.69
254.96	76.69
255.193	67.69
255.426	84.69
255.659	91.69
255.892	74.69
256.124	87.69
256.357	79.69
256.59	70.69
256.823	74.69
257.056	75.69
257.289	87.69
257.521	83.69
257.754	80.69
257.987	76.69
258.22	88.69
258.452	81.69
258.685	79.69
258.918	82.69
259.151	79.69
259.383	83.69
259.616	84.69
259.849	66.69
260.081	85.69
260.314	99.69
260.547	83.69
260.779	59.69
261.012	80.69
261.244	79.69
261.477	79.69
261.71	85.69
261.942	81.69
262.175	80.69
262.407	70.69
262.64	80.69
262.872	78.69
263.105	79.69
263.337	77.69
263.57	71.69
263.802	92.69
264.035	85.69
264.267	81.69
264.499	69.69
264.732	96.69
264.964	68.69
265.197	82.69
265.429	79.69
265.661	67.69
265.894	71.69
266.126	78.69
266.358	64.69
266.591	67.69
266.823	89.69
267.055	82.69
267.287	79.69
267.52	59.69
267.752	81.69
267.984	75.69
268.216	75.69
268.448	76.69
268.681	86.69
268.913	88.69
269.145	92.69
269.377	86.69
269.609	78.69
269.841	78.69
270.073	87.69
270.306	80.69
270.538	82.69
270.77	69.69
271.002	79.69
271.234	74.69
271.466	89.69
271.698	80.69
271.93	80.69
272.162	81.69
272.394	81.69
272.626	75.69
272.858	98.69
273.09	79.69
273.322	72.69
273.553	76.69
273.785	78.69
274.017	78.69
274.249	79.69
274.481	77.69
274.713	92.69
274.945	82.69
275.176	78.69
275.408	70.69
275.64	72.69
275.872	79.69
276.104	90.69
276.335	76.69
276.567	85.69
276.799	76.69
277.031	92.69
277.262	80.69
277.494	82.69
277.726	60.69
277.957	71.69
278.189	84.69
278.421	103.69
278.652	80.69
278.884	79.69
279.115	83.69
279.347	85.69
279.579	75.69
279.81	84.69
280.042	82.69
280.273	92.69
280.505	71.69
280.736	77.69
280.968	83.69
281.199	79.69
281.431	70.69
281.662	82.69
281.894	70.69
282.125	85.69
282.356	79.69
282.588	79.69
282.819	86.69
283.051	84.69
283.282	95.69
283.513	93.69
283.745	81.69
283.976	92.69
284.207	91.69
284.439	75.69
284.67	84.69
284.901	99.69
285.132	80.69
285.364	80.69
285.595	85.69
285.826	78.69
286.057	81.69
286.288	77.69
286.52	88.69
286.751	99.69
286.982	75.69
287.213	73.69
287.444	89.69
287.675	78.69
287.906	92.69
288.138	74.69
288.369	65.69
288.6	82.69
288.831	94.69
289.062	92.69
289.293	75.69
289.524	78.69
289.755	67.69
289.986	71.69
290.217	79.69
290.448	82.69
290.679	81.69
290.91	68.69
291.141	82.69
291.371	90.69
291.602	77.69
291.833	85.69
292.064	85.69
292.295	72.69
292.526	91.69
292.757	74.69
292.987	82.69
293.218	78.69
293.449	90.69
293.68	79.69
293.91	77.69
294.141	92.69
294.372	86.69
294.603	90.69
294.833	79.69
295.064	86.69
295.295	75.69
295.525	93.69
295.756	90.69
295.987	87.69
296.217	76.69
296.448	80.69
296.679	91.69
296.909	88.69
297.14	91.69
297.37	80.69
297.601	82.69
297.831	75.69
298.062	72.69
298.292	86.69
298.523	90.69
298.753	98.69
298.984	76.69
299.214	73.69
299.445	90.69
299.675	79.69
299.905	89.69
300.136	89.69
300.366	85.69
300.597	89.69
300.827	83.69
301.057	79.69
301.288	90.69
301.518	71.69
301.748	78.69
301.979	92.69
302.209	90.69
302.439	83.69
302.669	88.69
302.9	83.69
303.13	102.69
303.36	84.69
303.59	84.69
303.82	75.69
304.051	83.69
304.281	84.69
304.511	77.69
304.741	82.69
304.971	86.69
305.201	90.69
305.431	76.69
305.661	75.69
305.891	82.69
306.121	81.69
306.352	84.69
306.582	76.69
306.812	73.69
307.042	80.69
307.272	74.69
307.502	75.69
307.731	59.69
307.961	85.69
308.191	90.69
308.421	83.69
308.651	77.69
308.881	75.69
309.111	99.69
309.341	90.69
309.571	83.69
309.8	93.69
310.03	84.69
310.26	86.69
310.49	88.69
310.72	69.69
310.949	88.69
311.179	80.69
311.409	67.69
311.639	79.69
311.868	80.69
312.098	75.69
312.328	82.69
312.557	87.69
312.787	74.69
313.017	84.69
313.246	81.69
313.476	74.69
313.706	79.69
313.935	72.69
314.165	81.69
314.394	75.69
314.624	92.69
314.853	79.69
315.083	87.69
315.312	98.69
315.542	76.69
315.771	92.69
316.001	86.69
316.23	78.69
316.46	85.69
316.689	76.69
316.919	87.69
317.148	98.69
317.377	75.69
317.607	91.69
317.836	87.69
318.065	72.69
318.295	88.69
318.524	94.69
318.753	82.69
318.983	83.69
319.212	109.69
319.441	86.69
319.67	74.69
319.9	81.69
320.129	83.69
320.358	70.69
320.587	79.69
320.816	70.69
321.046	82.69
321.275	87.69
321.504	75.69
321.733	75.69
321.962	69.69
322.191	86.69
322.42	77.69
322.649	75.69
322.878	82.69
323.108	88.69
323.337	85.69
323.566	76.69
323.795	79.69
324.024	93.69
324.253	83.69
324.482	79.69
324.71	81.69
324.939	86.69
325.168	90.69
325.397	77.69
325.626	70.69
325.855	81.69
326.084	87.69
326.313	82.69
326.542	85.69
326.77	87.69
326.999	88.69
327.228	87.69
327.457	89.69
327.686	85.69
327.914	76.69
328.143	92.69
328.372	92.69
328.6	75.69
328.829	84.69
329.058	77.69
329.287	84.69
329.515	80.69
329.744	82.69
329.972	71.69
330.201	78.69
330.43	83.69
330.658	87.69
330.887	81.69
331.115	78.69
331.344	96.69
331.572	91.69
331.801	78.69
332.03	91.69
332.258	86.69
332.486	78.69
332.715	79.69
332.943	78.69
333.172	69.69
333.4	77.69
333.629	68.69
333.857	85.69
334.085	84.69
334.314	75.69
334.542	73.69
334.771	78.69
334.999	88.69
335.227	65.69
335.455	86.69
335.684	95.69
335.912	84.69
336.14	69.69
336.369	86.69
336.597	86.69
336.825	93.69
337.053	78.69
337.281	79.69
337.51	79.69
337.738	80.69
337.966	95.69
338.194	84.69
338.422	73.69
338.65	73.69
338.878	91.69
339.106	82.69
339.334	95.69
339.562	71.69
339.79	63.69
340.018	83.69
340.246	70.69
340.474	76.69
340.702	70.69
340.93	78.69
341.158	78.69
341.386	72.69
341.614	86.69
341.842	79.69
342.07	84.69
342.298	96.69
342.526	90.69
342.754	92.69
342.981	88.69
343.209	81.69
343.437	86.69
343.665	78.69
343.893	95.69
344.12	86.69
344.348	82.69
344.576	83.69
344.804	73.69
345.031	93.69
345.259	81.69
345.487	83.69
345.714	94.69
345.942	79.69
346.17	57.69
346.397	86.69
346.625	86.69
346.853	82.69
347.08	91.69
347.308	72.69
347.535	80.69
347.763	86.69
347.99	87.69
348.218	86.69
348.445	82.69
348.673	74.69
348.9	78.69
349.128	77.69
349.355	84.69
349.583	82.69
349.81	95.69
350.037	89.69
350.265	81.69
350.492	76.69
350.72	83.69
350.947	83.69
351.174	80.69
351.402	82.69
351.629	82.69
351.856	84.69
352.083	83.69
352.311	92.69
352.538	80.69
352.765	72.69
352.992	82.69
353.22	75.69
353.447	70.69
353.674	82.69
353.901	75.69
354.128	77.69
354.355	92.69
354.583	87.69
354.81	90.69
355.037	77.69
355.264	92.69
355.491	76.69
355.718	68.69
355.945	90.69
356.172	94.69
356.399	72.69
356.626	80.69
356.853	79.69
357.08	72.69
357.307	80.69
357.534	88.69
357.761	77.69
357.988	87.69
358.215	75.69
358.441	72.69
358.668	73.69
358.895	80.69
359.122	78.69
359.349	60.69
359.576	95.69
359.802	78.69
360.029	78.69
360.256	73.69
360.483	73.69
360.709	84.69
360.936	88.69
361.163	76.69
361.39	90.69
361.616	83.69
361.843	73.69
362.07	79.69
362.296	82.69
362.523	72.69
362.749	63.69
362.976	63.69
363.203	79.69
363.429	84.69
363.656	94.69
363.882	78.69
364.109	83.69
364.335	93.69
364.562	80.69
364.788	83.69
365.015	84.69
365.241	80.69
365.468	82.69
365.694	89.69
365.92	76.69
366.147	67.69
366.373	75.69
366.599	78.69
366.826	80.69
367.052	85.69
367.278	102.69
367.505	83.69
367.731	101.69
367.957	82.69
368.184	79.69
368.41	78.69
368.636	97.69
368.862	72.69
369.089	74.69
369.315	76.69
369.541	82.69
369.767	77.69
369.993	87.69
370.219	78.69
370.445	72.69
370.672	77.69
370.898	74.69
371.124	75.69
371.35	58.69
371.576	74.69
371.802	99.69
372.028	89.69
372.254	83.69
372.48	77.69
372.706	76.69
372.932	73.69
373.158	72.69
373.384	76.69
373.61	68.69
373.835	76.69
374.061	72.69
374.287	76.69
374.513	79.69
374.739	85.69
374.965	83.69
375.191	80.69
375.416	84.69
375.642	84.69
375.868	74.69
376.094	84.69
376.319	70.69
376.545	67.69
376.771	90.69
376.997	69.69
377.222	56.69
377.448	83.69
377.674	79.69
377.899	77.69
378.125	82.69
378.35	83.69
378.576	87.69
378.802	89.69
379.027	83.69
379.253	82.69
379.478	79.69
379.704	74.69
379.929	83.69
380.155	74.69
380.38	72.69
380.606	75.69
380.831	83.69
381.057	88.69
381.282	78.69
381.507	78.69
381.733	75.69
381.958	67.69
382.184	79.69
382.409	93.69
382.634	67.69
382.86	92.69
383.085	87.69
383.31	82.69
383.535	69.69
383.761	74.69
383.986	66.69
384.211	75.69
384.436	68.69
384.662	78.69
384.887	79.69
385.112	77.69
385.337	83.69
385.562	78.69
385.787	76.69
386.013	81.69
386.238	79.69
386.463	91.69
386.688	82.69
386.913	81.69
387.138	72.69
387.363	71.69
387.588	91.69
387.813	80.69
388.038	84.69
388.263	82.69
388.488	76.69
388.713	82.69
388.938	72.69
389.163	71.69
389.387	88.69
389.612	86.69
389.837	100.69
390.062	93.69
390.287	81.69
390.512	76.69
390.736	99.69
390.961	73.69
391.186	87.69
391.411	80.69
391.636	81.69
391.86	76.69
392.085	80.69
392.31	86.69
392.534	99.69
392.759	89.69
392.984	81.69
393.208	83.69
393.433	83.69
393.658	79.69
393.882	86.69
394.107	86.69
394.331	84.69
394.556	82.69
394.78	91.69
395.005	100.69
395.229	84.69
395.454	88.69
395.678	81.69
395.903	84.69
396.127	90.69
396.352	81.69
396.576	75.69
396.801	70.69
397.025	80.69
397.249	80.69
397.474	104.69
397.698	87.69
397.922	94.69
398.147	89.69
398.371	88.69
398.595	87.69
398.82	66.69
399.044	79.69
399.268	71.69
399.492	80.69
399.717	88.69
399.941	80.69
400.165	79.69
400.389	82.69
400.613	94.69
400.837	88.69
401.062	73.69
401.286	78.69
401.51	91.69
401.734	91.69
401.958	77.69
402.182	79.69
402.406	78.69
402.63	101.69
402.854	84.69
403.078	85.69
403.302	75.69
403.526	82.69
403.75	88.69
403.974	104.69
404.198	82.69
404.422	84.69
404.645	82.69
404.869	90.69
405.093	85.69
405.317	78.69
405.541	95.69
405.765	102.69
405.988	91.69
406.212	95.69
406.436	79.69
406.66	80.69
406.883	82.69
407.107	72.69
407.331	90.69
407.555	89.69
407.778	84.69
408.002	91.69
408.226	84.69
408.449	86.69
408.673	76.69
408.896	99.69
409.12	83.69
409.344	88.69
409.567	78.69
409.791	79.69
410.014	76.69
410.238	95.69
410.461	83.69
410.685	85.69
410.908	82.69
411.132	83.69
411.355	83.69
411.578	78.69
411.802	86.69
412.025	92.69
412.249	79.69
412.472	83.69
412.695	100.69
412.919	89.69
413.142	81.69
413.365	93.69
413.589	94.69
413.812	95.69
414.035	98.69
414.258	86.69
414.482	87.69
414.705	110.69
414.928	92.69
415.151	95.69
415.374	78.69
415.597	93.69
415.821	96.69
416.044	87.69
416.267	94.69
416.49	94.69
416.713	83.69
416.936	106.69
417.159	90.69
417.382	101.69
417.605	77.69
417.828	87.69
418.051	88.69
418.274	85.69
418.497	100.69
418.72	94.69
418.943	86.69
419.166	104.69
419.389	94.69
419.611	77.69
419.834	99.69
420.057	84.69
420.28	88.69
420.503	94.69
420.726	89.69
420.948	76.69
421.171	96.69
421.394	96.69
421.617	92.69
421.839	96.69
422.062	91.69
422.285	90.69
422.507	94.69
422.73	96.69
422.953	84.69
423.175	91.69
423.398	88.69
423.621	93.69
423.843	95.69
424.066	101.69
424.288	86.69
424.511	90.69
424.733	97.69
424.956	91.69
425.178	86.69
425.401	92.69
425.623	88.69
425.846	106.69
426.068	95.69
426.291	87.69
426.513	94.69
426.735	84.69
426.958	95.69
427.18	84.69
427.402	94.69
427.625	90.69
427.847	99.69
428.069	92.69
428.292	99.69
428.514	80.69
428.736	83.69
428.958	73.69
429.181	88.69
429.403	83.69
429.625	79.69
429.847	99.69
430.069	100.69
430.292	89.69
430.514	81.69
430.736	96.69
430.958	93.69
431.18	94.69
431.402	88.69
431.624	97.69
431.846	94.69
432.068	83.69
432.29	77.69
432.512	84.69
432.734	92.69
432.956	100.69
433.178	102.69
433.4	96.69
433.622	84.69
433.844	95.69
434.066	92.69
434.287	90.69
434.509	86.69
434.731	77.69
434.953	75.69
435.175	77.69
435.397	84.69
435.618	91.69
435.84	72.69
436.062	93.69
436.284	86.69
436.505	97.69
436.727	86.69
436.949	82.69
437.17	86.69
437.392	95.69
437.614	79.69
437.835	94.69
438.057	89.69
438.278	97.69
438.5	106.69
438.721	85.69
438.943	104.69
439.165	89.69
439.386	101.69
439.608	107.69
439.829	87.69
440.05	89.69
440.272	111.69
440.493	87.69
440.715	101.69
440.936	94.69
441.158	106.69
441.379	96.69
441.6	94.69
441.822	109.69
442.043	102.69
442.264	106.69
442.486	84.69
442.707	102.69
442.928	108.69
443.149	100.69
443.371	96.69
443.592	87.69
443.813	98.69
444.034	99.69
444.255	95.69
444.476	95.69
444.698	89.69
444.919	92.69
445.14	223.69
445.361	156.69
445.582	96.69
445.803	96.69
446.024	95.69
446.245	106.69
446.466	84.69
446.687	93.69
446.908	95.69
447.129	92.69
447.35	92.69
447.571	111.69
447.792	114.69
448.013	95.69
448.234	97.69
448.455	89.69
448.675	82.69
448.896	91.69
449.117	86.69
449.338	106.69
449.559	106.69
449.779	98.69
450	99.69
450.221	97.69
450.442	93.69
450.662	73.69
450.883	95.69
451.104	83.69
451.324	92.69
451.545	98.69
451.766	81.69
451.986	88.69
452.207	84.69
452.428	103.69
452.648	86.69
452.869	97.69
453.089	80.69
453.31	92.69
453.53	81.69
453.751	81.69
453.971	67.69
454.192	76.69
454.412	90.69
454.633	75.69
454.853	92.69
455.073	87.69
455.294	86.69
455.514	86.69
455.734	84.69
455.955	95.69
456.175	88.69
456.395	72.69
456.616	90.69
456.836	86.69
457.056	85.69
457.276	96.69
457.497	78.69
457.717	80.69
457.937	88.69
458.157	91.69
458.377	74.69
458.598	81.69
458.818	81.69
459.038	83.69
459.258	81.69
459.478	65.69
459.698	75.69
459.918	74.69
460.138	98.69
460.358	88.69
460.578	82.69
460.798	91.69
461.018	90.69
461.238	87.69
461.458	84.69
461.678	93.69
461.898	94.69
462.118	97.69
462.338	98.69
462.558	90.69
462.777	90.69
462.997	89.69
463.217	90.69
463.437	84.69
463.657	87.69
463.876	80.69
464.096	80.69
464.316	101.69
464.536	86.69
464.755	103.69
464.975	93.69
465.195	95.69
465.414	109.69
465.634	91.69
465.854	83.69
466.073	97.69
466.293	107.69
466.512	74.69
466.732	96.69
466.951	91.69
467.171	82.69
467.391	94.69
467.61	97.69
467.829	95.69
468.049	92.69
468.268	96.69
468.488	107.69
468.707	85.69
468.927	87.69
469.146	100.69
469.365	100.69
469.585	97.69
469.804	99.69
470.023	86.69
470.243	94.69
470.462	100.69
470.681	90.69
470.901	92.69
471.12	109.69
471.339	103.69
471.558	98.69
471.777	91.69
471.997	79.69
472.216	80.69
472.435	104.69
472.654	72.69
472.873	84.69
473.092	87.69
473.311	88.69
473.53	91.69
473.749	95.69
473.968	100.69
474.187	90.69
474.406	84.69
474.625	102.69
474.844	89.69
475.063	92.69
475.282	93.69
475.501	112.69
475.72	99.69
475.939	99.69
476.158	107.69
476.377	101.69
476.596	72.69
476.814	92.69
477.033	84.69
477.252	97.69
477.471	100.69
477.69	111.69
477.908	90.69
478.127	98.69
478.346	89.69
478.564	81.69
478.783	101.69
479.002	102.69
479.22	79.69
479.439	96.69
479.658	95.69
479.876	90.69
480.095	86.69
480.313	85.69
480.532	92.69
480.751	78.69
480.969	82.69
481.188	81.69
481.406	77.69
481.624	87.69
481.843	75.69
482.061	78.69
482.28	86.69
482.498	72.69
482.717	84.69
482.935	109.69
483.153	82.69
483.372	111.69
483.59	126.69
483.808	100.69
484.027	97.69
484.245	104.69
484.463	86.69
484.681	103.69
484.9	101.69
485.118	98.69
485.336	103.69
485.554	107.69
485.772	83.69
485.99	86.69
486.209	86.69
486.427	96.69
486.645	100.69
486.863	93.69
487.081	91.69
487.299	98.69
487.517	101.69
487.735	104.69
487.953	102.69
488.171	99.69
488.389	108.69
488.607	86.69
488.825	101.69
489.043	91.69
489.261	108.69
489.479	85.69
489.696	93.69
489.914	104.69
490.132	101.69
490.35	94.69
490.568	91.69
490.786	81.69
491.003	98.69
491.221	106.69
491.439	115.69
491.657	108.69
491.874	102.69
492.092	107.69
492.31	126.69
492.527	134.69
492.745	110.69
492.963	126.69
493.18	123.69
493.398	109.69
493.615	100.69
493.833	104.69
494.05	100.69
494.268	111.69
494.485	110.69
494.703	103.69
494.92	114.69
495.138	124.69
495.355	100.69
495.573	115.69
495.79	94.69
496.008	120.69
496.225	103.69
496.442	103.69
496.66	113.69
496.877	101.69
497.094	104.69
497.312	84.69
497.529	112.69
497.746	116.69
497.963	105.69
498.181	95.69
498.398	79.69
498.615	79.69
498.832	90.69
499.049	94.69
499.267	85.69
499.484	94.69
499.701	85.69
499.918	90.69
500.135	92.69
500.352	88.69
500.569	95.69
500.786	95.69
501.003	107.69
501.22	98.69
501.437	104.69
501.654	98.69
501.871	88.69
502.088	77.69
502.305	88.69
502.522	92.69
502.739	88.69
502.956	94.69
503.172	82.69
503.389	90.69
503.606	102.69
503.823	80.69
504.04	86.69
504.256	96.69
504.473	86.69
504.69	101.69
504.907	106.69
505.123	84.69
505.34	110.69
505.557	94.69
505.773	85.69
505.99	90.69
506.207	79.69
506.423	81.69
506.64	93.69
506.856	99.69
507.073	90.69
507.289	90.69
507.506	83.69
507.722	98.69
507.939	89.69
508.155	96.69
508.372	84.69
508.588	86.69
508.805	90.69
509.021	84.69
509.238	96.69
509.454	86.69
509.67	92.69
509.887	86.69
510.103	82.69
510.319	83.69
510.536	82.69
510.752	76.69
510.968	72.69
511.184	81.69
511.401	90.69
511.617	70.69
511.833	79.69
512.049	97.69
512.265	81.69
512.481	75.69
512.698	78.69
512.914	77.69
513.13	69.69
513.346	87.69
513.562	84.69
513.778	89.69
513.994	72.69
514.21	92.69
514.426	83.69
514.642	70.69
514.858	86.69
515.074	99.69
515.29	79.69
515.506	75.69
515.721	86.69
515.937	83.69
516.153	79.69
516.369	86.69
516.585	72.69
516.801	70.69
517.016	78.69
517.232	90.69
517.448	72.69
517.664	83.69
517.879	86.69
518.095	85.69
518.311	81.69
518.527	90.69
518.742	88.69
518.958	86.69
519.173	84.69
519.389	81.69
519.605	73.69
519.82	84.69
520.036	89.69
520.251	81.69
520.467	87.69
520.682	74.69
520.898	71.69
521.113	91.69
521.329	104.69
521.544	75.69
521.76	85.69
521.975	74.69
522.19	88.69
522.406	78.69
522.621	91.69
522.836	82.69
523.052	78.69
523.267	79.69
523.482	84.69
523.698	97.69
523.913	92.69
524.128	96.69
524.343	82.69
524.559	97.69
524.774	107.69
524.989	96.69
525.204	86.69
525.419	85.69
525.634	90.69
525.849	91.69
526.064	84.69
526.28	96.69
526.495	69.69
526.71	78.69
526.925	92.69
527.14	83.69
527.355	74.69
527.57	80.69
527.785	81.69
527.999	70.69
528.214	82.69
528.429	83.69
528.644	86.69
528.859	80.69
529.074	95.69
529.289	107.69
529.503	100.69
529.718	90.69
529.933	77.69
530.148	87.69
530.363	82.69
530.577	82.69
530.792	83.69
531.007	82.69
531.221	81.69
531.436	68.69
531.651	94.69
531.865	87.69
532.08	92.69
532.295	84.69
532.509	85.69
532.724	67.69
532.938	88.69
533.153	86.69
533.367	106.69
533.582	88.69
533.796	91.69
534.011	92.69
534.225	85.69
534.44	86.69
534.654	96.69
534.868	81.69
535.083	87.69
535.297	86.69
535.511	87.69
535.726	68.69
535.94	83.69
536.154	80.69
536.369	97.69
536.583	92.69
536.797	72.69
537.011	82.69
537.225	87.69
537.44	83.69
537.654	80.69
537.868	89.69
538.082	72.69
538.296	83.69
538.51	84.69
538.724	79.69
538.938	98.69
539.153	83.69
539.367	91.69
539.581	92.69
539.795	89.69
540.009	91.69
540.222	93.69
540.436	93.69
540.65	86.69
540.864	91.69
541.078	97.69
541.292	95.69
541.506	107.69
541.72	106.69
541.934	117.69
542.147	118.69
542.361	115.69
542.575	107.69
542.789	111.69
543.002	104.69
543.216	110.69
543.43	91.69
543.644	90.69
543.857	108.69
544.071	90.69
544.285	105.69
544.498	92.69
544.712	105.69
544.925	92.69
545.139	107.69
545.352	100.69
545.566	104.69
545.779	111.69
545.993	96.69
546.206	102.69
546.42	116.69
546.633	102.69
546.847	111.69
547.06	113.69
547.274	110.69
547.487	97.69
547.7	119.69
547.914	119.69
548.127	122.69
548.34	99.69
548.554	109.69
548.767	96.69
548.98	103.69
549.193	113.69
549.407	90.69
549.62	93.69
549.833	85.69
550.046	113.69
550.259	97.69
550.473	97.69
550.686	106.69
550.899	100.69
551.112	85.69
551.325	101.69
551.538	86.69
551.751	94.69
551.964	92.69
552.177	101.69
552.39	108.69
552.603	93.69
552.816	102.69
553.029	114.69
553.242	93.69
553.455	92.69
553.667	101.69
553.88	100.69
554.093	99.69
554.306	108.69
554.519	101.69
554.732	115.69
554.944	116.69
555.157	116.69
555.37	94.69
555.583	106.69
555.795	112.69
556.008	100.69
556.221	102.69
556.433	85.69
556.646	113.69
556.859	94.69
557.071	87.69
557.284	94.69
557.496	115.69
557.709	90.69
557.921	110.69
558.134	94.69
558.346	102.69
558.559	101.69
558.771	100.69
558.984	103.69
559.196	105.69
559.409	99.69
559.621	95.69
559.833	90.69
560.046	79.69
560.258	92.69
560.47	111.69
560.683	102.69
560.895	93.69
561.107	90.69
561.32	93.69
561.532	106.69
561.744	97.69
561.956	99.69
562.168	90.69
562.381	96.69
562.593	87.69
562.805	98.69
563.017	106.69
563.229	97.69
563.441	83.69
563.653	99.69
563.865	86.69
564.077	102.69
564.289	90.69
564.501	93.69
564.713	112.69
564.925	94.69
565.137	88.69
565.349	95.69
565.561	94.69
565.773	91.69
565.985	103.69
566.197	91.69
566.408	87.69
566.62	81.69
566.832	79.69
567.044	92.69
567.255	81.69
567.467	86.69
567.679	99.69
567.891	77.69
568.102	83.69
568.314	91.69
568.526	82.69
568.737	85.69
568.949	87.69
569.161	88.69
569.372	83.69
569.584	92.69
569.795	80.69
570.007	97.69
570.218	90.69
570.43	87.69
570.641	101.69
570.853	83.69
571.064	82.69
571.276	87.69
571.487	88.69
571.698	81.69
571.91	94.69
572.121	92.69
572.333	85.69
572.544	77.69
572.755	74.69
572.966	92.69
573.178	71.69
573.389	86.69
573.6	80.69
573.811	88.69
574.023	93.69
574.234	86.69
574.445	92.69
574.656	86.69
574.867	79.69
575.078	91.69
575.289	76.69
575.501	89.69
575.712	82.69
575.923	64.69
576.134	89.69
576.345	87.69
576.556	97.69
576.767	94.69
576.978	88.69
577.188	74.69
577.399	80.69
577.61	86.69
577.821	90.69
578.032	90.69
578.243	88.69
578.454	87.69
578.665	69.69
578.875	73.69
579.086	82.69
579.297	80.69
579.508	69.69
579.718	84.69
579.929	93.69
580.14	79.69
580.35	82.69
580.561	79.69
580.772	91.69
580.982	82.69
581.193	83.69
581.403	92.69
581.614	77.69
581.825	90.69
582.035	87.69
582.246	90.69
582.456	86.69
582.667	81.69
582.877	80.69
583.087	70.69
583.298	77.69
583.508	72.69
583.719	84.69
583.929	69.69
584.139	73.69
584.35	69.69
584.56	83.69
584.77	80.69
584.981	90.69
585.191	83.69
585.401	89.69
585.611	74.69
585.821	91.69
586.032	83.69
586.242	78.69
586.452	82.69
586.662	77.69
586.872	75.69
587.082	62.69
587.292	80.69
587.502	83.69
587.713	83.69
587.923	92.69
588.133	87.69
588.343	86.69
588.553	86.69
588.762	80.69
588.972	84.69
589.182	83.69
589.392	76.69
589.602	80.69
589.812	81.69
590.022	84.69
590.232	76.69
590.441	85.69
590.651	87.69
590.861	84.69
591.071	73.69
591.281	82.69
591.49	76.69
591.7	76.69
591.91	87.69
592.119	81.69
592.329	82.69
592.539	91.69
592.748	83.69
592.958	87.69
593.167	72.69
593.377	87.69
593.587	88.69
593.796	64.69
594.006	70.69
594.215	101.69
594.424	79.69
594.634	86.69
594.843	86.69
595.053	85.69
595.262	85.69
595.472	77.69
595.681	92.69
595.89	67.69
596.1	89.69
596.309	84.69
596.518	72.69
596.727	95.69
596.937	88.69
597.146	86.69
597.355	80.69
597.564	63.69
597.774	87.69
597.983	79.69
598.192	103.69
598.401	91.69
598.61	79.69
598.819	78.69
599.028	95.69
599.237	86.69
599.446	80.69
599.655	80.69
599.864	92.69
600.073	92.69
600.282	86.69
600.491	86.69
600.7	76.69
600.909	82.69
601.118	87.69
601.327	84.69
601.536	82.69
601.745	94.69
601.953	100.69
602.162	87.69
602.371	86.69
602.58	83.69
602.789	87.69
602.997	86.69
603.206	89.69
603.415	78.69
603.623	87.69
603.832	87.69
604.041	88.69
604.249	91.69
604.458	92.69
604.666	95.69
604.875	86.69
605.084	90.69
605.292	81.69
605.501	78.69
605.709	86.69
605.918	76.69
606.126	80.69
606.334	85.69
606.543	93.69
606.751	94.69
606.96	87.69
607.168	84.69
607.376	72.69
607.585	99.69
607.793	95.69
608.001	102.69
608.21	80.69
608.418	74.69
608.626	79.69
608.834	97.69
609.043	78.69
609.251	82.69
609.459	92.69
609.667	94.69
609.875	92.69
610.083	88.69
610.291	98.69
610.499	96.69
610.707	83.69
610.916	87.69
611.124	93.69
611.332	94.69
611.54	97.69
611.748	81.69
611.955	86.69
612.163	94.69
612.371	92.69
612.579	92.69
612.787	87.69
612.995	82.69
613.203	93.69
613.411	102.69
613.618	91.69
613.826	85.69
614.034	99.69
614.242	92.69
614.449	73.69
614.657	80.69
614.865	81.69
615.072	92.69
615.28	87.69
615.488	83.69
615.695	90.69
615.903	94.69
616.111	82.69
616.318	105.69
616.526	96.69
616.733	86.69
616.941	86.69
617.148	90.69
617.356	93.69
617.563	83.69
617.771	91.69
617.978	82.69
618.185	87.69
618.393	86.69
618.6	81.69
618.807	87.69
619.015	95.69
619.222	86.69
619.429	88.69
619.637	80.69
619.844	76.69
620.051	87.69
620.258	79.69
620.466	81.69
620.673	91.69
620.88	96.69
621.087	98.69
621.294	85.69
621.501	80.69
621.708	80.69
621.915	86.69
622.122	91.69
622.329	88.69
622.536	92.69
622.743	84.69
622.95	94.69
623.157	99.69
623.364	87.69
623.571	85.69
623.778	76.69
623.985	79.69
624.192	78.69
624.399	95.69
624.606	102.69
624.812	90.69
625.019	97.69
625.226	93.69
625.433	79.69
625.639	78.69
625.846	86.69
626.053	89.69
626.259	89.69
626.466	81.69
626.673	84.69
626.879	88.69
627.086	99.69
627.293	85.69
627.499	83.69
627.706	85.69
627.912	90.69
628.119	77.69
628.325	88.69
628.532	80.69
628.738	91.69
628.945	79.69
629.151	75.69
629.357	91.69
629.564	91.69
629.77	95.69
629.976	92.69
630.183	98.69
630.389	82.69
630.595	71.69
630.802	85.69
631.008	83.69
631.214	84.69
631.42	79.69
631.627	91.69
631.833	91.69
632.039	108.69
632.245	82.69
632.451	93.69
632.657	77.69
632.863	75.69
633.069	92.69
633.275	90.69
633.481	92.69
633.688	98.69
633.893	95.69
634.099	77.69
634.305	78.69
634.511	84.69
634.717	84.69
634.923	76.69
635.129	83.69
635.335	79.69
635.541	80.69
635.747	90.69
635.952	90.69
636.158	70.69
636.364	93.69
636.57	70.69
636.775	93.69
636.981	82.69
637.187	71.69
637.392	85.69
637.598	86.69
637.804	81.69
638.009	87.69
638.215	86.69
638.421	82.69
638.626	88.69
638.832	86.69
639.037	93.69
639.243	82.69
639.448	97.69
639.654	90.69
639.859	90.69
640.065	94.69
640.27	95.69
640.475	74.69
640.681	81.69
640.886	85.69
641.091	84.69
641.297	98.69
641.502	82.69
641.707	91.69
641.913	85.69
642.118	76.69
642.323	86.69
642.528	99.69
642.733	86.69
642.939	80.69
643.144	81.69
643.349	94.69
643.554	84.69
643.759	83.69
643.964	84.69
644.169	87.69
644.374	91.69
644.579	75.69
644.784	87.69
644.989	75.69
645.194	90.69
645.399	73.69
645.604	88.69
645.809	96.69
646.014	92.69
646.219	86.69
646.423	76.69
646.628	75.69
646.833	76.69
647.038	95.69
647.243	76.69
647.447	70.69
647.652	86.69
647.857	94.69
648.062	90.69
648.266	87.69
648.471	83.69
648.676	89.69
648.88	92.69
649.085	93.69
649.289	83.69
649.494	85.69
649.698	95.69
649.903	74.69
650.107	86.69
650.312	92.69
650.516	95.69
650.721	71.69
650.925	89.69
651.13	92.69
651.334	96.69
651.539	82.69
651.743	86.69
651.947	87.69
652.152	87.69
652.356	93.69
652.56	92.69
652.764	93.69
652.969	92.69
653.173	94.69
653.377	80.69
653.581	84.69
653.785	88.69
653.99	80.69
654.194	76.69
654.398	88.69
654.602	69.69
654.806	83.69
655.01	85.69
655.214	77.69
655.418	74.69
655.622	83.69
655.826	80.69
656.03	96.69
656.234	76.69
656.438	83.69
656.642	76.69
656.846	79.69
657.049	76.69
657.253	67.69
657.457	79.69
657.661	75.69
657.865	83.69
658.068	75.69
658.272	86.69
658.476	73.69
658.68	95.69
658.883	71.69
659.087	76.69
659.291	79.69
659.494	83.69
659.698	81.69
659.901	76.69
660.105	80.69
660.309	75.69
660.512	89.69
660.716	86.69
660.919	84.69
661.123	86.69
661.326	82.69
661.53	81.69
661.733	94.69
661.936	87.69
662.14	76.69
662.343	82.69
662.546	81.69
662.75	83.69
662.953	82.69
663.156	75.69
663.36	70.69
663.563	78.69
663.766	91.69
663.969	74.69
664.173	84.69
664.376	90.69
664.579	79.69
664.782	81.69
664.985	71.69
665.188	86.69
665.391	77.69
665.594	75.69
665.797	82.69
666	76.69
666.203	68.69
666.406	65.69
666.609	77.69
666.812	77.69
667.015	90.69
667.218	76.69
667.421	89.69
667.624	79.69
667.827	75.69
668.03	68.69
668.232	79.69
668.435	82.69
668.638	73.69
668.841	78.69
669.043	69.69
669.246	71.69
669.449	80.69
669.651	90.69
669.854	74.69
670.057	70.69
670.259	77.69
670.462	72.69
670.665	78.69
670.867	86.69
671.07	80.69
671.272	76.69
671.475	83.69
671.677	73.69
671.88	90.69
672.082	78.69
672.284	92.69
672.487	68.69
672.689	76.69
672.892	73.69
