Data from Location3.07152019.Energy5.Lamp.07192019.3%Agarose_HRD10591_15-17-26-269.txt Node
Date: Fri Jul 19 15:17:26 EDT 2019
User: cochatt
Spectrometer: HR+D1059
Trigger mode: 1
Integration Time (sec): 1.000000E-1
Scans to average: 1
Electric dark correction enabled: true
Nonlinearity correction enabled: false
Boxcar width: 0
XAxis mode: Wavelengths
Number of Pixels in Spectrum: 2048
>>>>>Begin Spectral Data<<<<<
223.165	-14.31
223.4	-14.31
223.635	-14.31
223.869	-28.31
224.104	-22.31
224.338	-12.31
224.573	-15.31
224.808	-14.31
225.042	-1.31
225.277	-10.31
225.511	-6.31
225.746	7.69
225.98	9.69
226.215	7.69
226.449	19.69
226.683	15.69
226.918	33.69
227.152	30.69
227.387	31.69
227.621	28.69
227.856	39.69
228.09	41.69
228.324	60.69
228.559	70.69
228.793	57.69
229.027	51.69
229.262	55.69
229.496	62.69
229.73	64.69
229.964	75.69
230.199	75.69
230.433	69.69
230.667	84.69
230.901	67.69
231.136	66.69
231.37	70.69
231.604	75.69
231.838	78.69
232.072	75.69
232.306	95.69
232.541	75.69
232.775	75.69
233.009	98.69
233.243	84.69
233.477	86.69
233.711	83.69
233.945	68.69
234.179	78.69
234.413	70.69
234.647	81.69
234.881	90.69
235.115	87.69
235.349	88.69
235.583	76.69
235.817	97.69
236.051	72.69
236.285	65.69
236.519	86.69
236.753	86.69
236.987	84.69
237.221	81.69
237.455	77.69
237.689	71.69
237.922	73.69
238.156	61.69
238.39	72.69
238.624	71.69
238.858	71.69
239.091	76.69
239.325	62.69
239.559	72.69
239.793	73.69
240.027	75.69
240.26	82.69
240.494	74.69
240.728	82.69
240.961	70.69
241.195	66.69
241.429	63.69
241.662	82.69
241.896	67.69
242.13	74.69
242.363	67.69
242.597	86.69
242.83	74.69
243.064	86.69
243.298	86.69
243.531	91.69
243.765	81.69
243.998	75.69
244.232	70.69
244.465	86.69
244.699	80.69
244.932	78.69
245.166	88.69
245.399	76.69
245.633	86.69
245.866	83.69
246.099	76.69
246.333	75.69
246.566	81.69
246.8	83.69
247.033	75.69
247.266	79.69
247.5	71.69
247.733	83.69
247.966	79.69
248.2	66.69
248.433	75.69
248.666	87.69
248.899	78.69
249.133	82.69
249.366	89.69
249.599	81.69
249.832	79.69
250.066	77.69
250.299	71.69
250.532	80.69
250.765	81.69
250.998	72.69
251.231	81.69
251.465	69.69
251.698	75.69
251.931	85.69
252.164	75.69
252.397	92.69
252.63	77.69
252.863	78.69
253.096	89.69
253.329	88.69
253.562	82.69
253.795	94.69
254.028	88.69
254.261	77.69
254.494	87.69
254.727	70.69
254.96	67.69
255.193	87.69
255.426	85.69
255.659	90.69
255.892	79.69
256.124	82.69
256.357	67.69
256.59	103.69
256.823	74.69
257.056	88.69
257.289	78.69
257.521	67.69
257.754	74.69
257.987	80.69
258.22	95.69
258.452	76.69
258.685	71.69
258.918	95.69
259.151	80.69
259.383	84.69
259.616	90.69
259.849	75.69
260.081	79.69
260.314	74.69
260.547	78.69
260.779	79.69
261.012	80.69
261.244	84.69
261.477	91.69
261.71	94.69
261.942	94.69
262.175	83.69
262.407	95.69
262.64	89.69
262.872	85.69
263.105	86.69
263.337	95.69
263.57	79.69
263.802	95.69
264.035	83.69
264.267	82.69
264.499	70.69
264.732	79.69
264.964	86.69
265.197	80.69
265.429	87.69
265.661	83.69
265.894	76.69
266.126	75.69
266.358	80.69
266.591	83.69
266.823	79.69
267.055	92.69
267.287	80.69
267.52	89.69
267.752	89.69
267.984	97.69
268.216	93.69
268.448	74.69
268.681	92.69
268.913	74.69
269.145	94.69
269.377	96.69
269.609	87.69
269.841	77.69
270.073	96.69
270.306	86.69
270.538	76.69
270.77	71.69
271.002	80.69
271.234	86.69
271.466	87.69
271.698	84.69
271.93	84.69
272.162	85.69
272.394	74.69
272.626	69.69
272.858	88.69
273.09	87.69
273.322	83.69
273.553	78.69
273.785	79.69
274.017	84.69
274.249	80.69
274.481	79.69
274.713	84.69
274.945	94.69
275.176	71.69
275.408	81.69
275.64	76.69
275.872	95.69
276.104	91.69
276.335	84.69
276.567	88.69
276.799	73.69
277.031	80.69
277.262	88.69
277.494	91.69
277.726	83.69
277.957	86.69
278.189	87.69
278.421	77.69
278.652	83.69
278.884	92.69
279.115	76.69
279.347	92.69
279.579	76.69
279.81	85.69
280.042	68.69
280.273	82.69
280.505	95.69
280.736	83.69
280.968	75.69
281.199	78.69
281.431	82.69
281.662	81.69
281.894	79.69
282.125	89.69
282.356	83.69
282.588	92.69
282.819	80.69
283.051	73.69
283.282	86.69
283.513	84.69
283.745	90.69
283.976	93.69
284.207	90.69
284.439	87.69
284.67	89.69
284.901	89.69
285.132	68.69
285.364	92.69
285.595	88.69
285.826	90.69
286.057	86.69
286.288	90.69
286.52	90.69
286.751	88.69
286.982	76.69
287.213	84.69
287.444	81.69
287.675	88.69
287.906	97.69
288.138	82.69
288.369	82.69
288.6	80.69
288.831	90.69
289.062	86.69
289.293	81.69
289.524	76.69
289.755	71.69
289.986	68.69
290.217	94.69
290.448	80.69
290.679	88.69
290.91	85.69
291.141	87.69
291.371	96.69
291.602	86.69
291.833	87.69
292.064	80.69
292.295	80.69
292.526	76.69
292.757	81.69
292.987	83.69
293.218	99.69
293.449	91.69
293.68	96.69
293.91	93.69
294.141	83.69
294.372	79.69
294.603	88.69
294.833	81.69
295.064	78.69
295.295	91.69
295.525	84.69
295.756	86.69
295.987	90.69
296.217	94.69
296.448	90.69
296.679	77.69
296.909	88.69
297.14	84.69
297.37	96.69
297.601	81.69
297.831	83.69
298.062	94.69
298.292	87.69
298.523	96.69
298.753	79.69
298.984	97.69
299.214	82.69
299.445	85.69
299.675	82.69
299.905	87.69
300.136	79.69
300.366	86.69
300.597	80.69
300.827	90.69
301.057	84.69
301.288	91.69
301.518	85.69
301.748	82.69
301.979	79.69
302.209	86.69
302.439	89.69
302.669	74.69
302.9	96.69
303.13	73.69
303.36	85.69
303.59	87.69
303.82	87.69
304.051	87.69
304.281	81.69
304.511	76.69
304.741	79.69
304.971	86.69
305.201	76.69
305.431	95.69
305.661	81.69
305.891	80.69
306.121	84.69
306.352	89.69
306.582	72.69
306.812	87.69
307.042	89.69
307.272	103.69
307.502	85.69
307.731	94.69
307.961	91.69
308.191	88.69
308.421	83.69
308.651	76.69
308.881	89.69
309.111	80.69
309.341	86.69
309.571	80.69
309.8	83.69
310.03	66.69
310.26	99.69
310.49	95.69
310.72	85.69
310.949	99.69
311.179	86.69
311.409	88.69
311.639	83.69
311.868	90.69
312.098	84.69
312.328	78.69
312.557	83.69
312.787	83.69
313.017	95.69
313.246	74.69
313.476	90.69
313.706	84.69
313.935	81.69
314.165	64.69
314.394	99.69
314.624	77.69
314.853	74.69
315.083	80.69
315.312	70.69
315.542	95.69
315.771	82.69
316.001	89.69
316.23	99.69
316.46	78.69
316.689	91.69
316.919	85.69
317.148	94.69
317.377	91.69
317.607	87.69
317.836	79.69
318.065	91.69
318.295	84.69
318.524	78.69
318.753	82.69
318.983	90.69
319.212	86.69
319.441	84.69
319.67	80.69
319.9	87.69
320.129	87.69
320.358	95.69
320.587	88.69
320.816	87.69
321.046	85.69
321.275	101.69
321.504	87.69
321.733	84.69
321.962	86.69
322.191	74.69
322.42	90.69
322.649	88.69
322.878	82.69
323.108	86.69
323.337	81.69
323.566	84.69
323.795	83.69
324.024	82.69
324.253	76.69
324.482	86.69
324.71	85.69
324.939	89.69
325.168	83.69
325.397	96.69
325.626	76.69
325.855	84.69
326.084	75.69
326.313	83.69
326.542	89.69
326.77	75.69
326.999	82.69
327.228	85.69
327.457	86.69
327.686	79.69
327.914	101.69
328.143	74.69
328.372	90.69
328.6	83.69
328.829	88.69
329.058	91.69
329.287	91.69
329.515	86.69
329.744	78.69
329.972	78.69
330.201	85.69
330.43	88.69
330.658	93.69
330.887	83.69
331.115	84.69
331.344	82.69
331.572	81.69
331.801	86.69
332.03	74.69
332.258	90.69
332.486	94.69
332.715	88.69
332.943	97.69
333.172	81.69
333.4	74.69
333.629	87.69
333.857	84.69
334.085	85.69
334.314	90.69
334.542	86.69
334.771	76.69
334.999	87.69
335.227	90.69
335.455	88.69
335.684	83.69
335.912	85.69
336.14	82.69
336.369	88.69
336.597	91.69
336.825	99.69
337.053	83.69
337.281	85.69
337.51	82.69
337.738	95.69
337.966	81.69
338.194	81.69
338.422	78.69
338.65	95.69
338.878	86.69
339.106	85.69
339.334	100.69
339.562	73.69
339.79	77.69
340.018	88.69
340.246	75.69
340.474	89.69
340.702	95.69
340.93	82.69
341.158	94.69
341.386	87.69
341.614	87.69
341.842	86.69
342.07	81.69
342.298	89.69
342.526	85.69
342.754	79.69
342.981	90.69
343.209	80.69
343.437	84.69
343.665	88.69
343.893	75.69
344.12	99.69
344.348	94.69
344.576	73.69
344.804	75.69
345.031	81.69
345.259	101.69
345.487	79.69
345.714	87.69
345.942	73.69
346.17	94.69
346.397	80.69
346.625	99.69
346.853	81.69
347.08	85.69
347.308	89.69
347.535	81.69
347.763	79.69
347.99	76.69
348.218	87.69
348.445	94.69
348.673	74.69
348.9	92.69
349.128	88.69
349.355	95.69
349.583	80.69
349.81	73.69
350.037	73.69
350.265	92.69
350.492	82.69
350.72	83.69
350.947	99.69
351.174	84.69
351.402	72.69
351.629	91.69
351.856	98.69
352.083	94.69
352.311	91.69
352.538	85.69
352.765	79.69
352.992	88.69
353.22	80.69
353.447	75.69
353.674	78.69
353.901	86.69
354.128	84.69
354.355	96.69
354.583	98.69
354.81	76.69
355.037	75.69
355.264	65.69
355.491	77.69
355.718	80.69
355.945	71.69
356.172	90.69
356.399	88.69
356.626	71.69
356.853	90.69
357.08	96.69
357.307	77.69
357.534	79.69
357.761	75.69
357.988	94.69
358.215	79.69
358.441	80.69
358.668	90.69
358.895	84.69
359.122	94.69
359.349	84.69
359.576	92.69
359.802	74.69
360.029	86.69
360.256	88.69
360.483	92.69
360.709	78.69
360.936	95.69
361.163	77.69
361.39	95.69
361.616	85.69
361.843	86.69
362.07	87.69
362.296	88.69
362.523	83.69
362.749	83.69
362.976	77.69
363.203	80.69
363.429	94.69
363.656	99.69
363.882	80.69
364.109	96.69
364.335	79.69
364.562	83.69
364.788	82.69
365.015	88.69
365.241	86.69
365.468	76.69
365.694	80.69
365.92	93.69
366.147	76.69
366.373	81.69
366.599	78.69
366.826	102.69
367.052	85.69
367.278	95.69
367.505	99.69
367.731	95.69
367.957	90.69
368.184	97.69
368.41	82.69
368.636	75.69
368.862	67.69
369.089	93.69
369.315	89.69
369.541	82.69
369.767	84.69
369.993	83.69
370.219	89.69
370.445	80.69
370.672	82.69
370.898	83.69
371.124	93.69
371.35	88.69
371.576	87.69
371.802	83.69
372.028	79.69
372.254	74.69
372.48	84.69
372.706	86.69
372.932	85.69
373.158	80.69
373.384	86.69
373.61	83.69
373.835	84.69
374.061	87.69
374.287	80.69
374.513	89.69
374.739	87.69
374.965	98.69
375.191	89.69
375.416	81.69
375.642	83.69
375.868	87.69
376.094	83.69
376.319	87.69
376.545	79.69
376.771	84.69
376.997	90.69
377.222	73.69
377.448	97.69
377.674	80.69
377.899	91.69
378.125	97.69
378.35	76.69
378.576	90.69
378.802	72.69
379.027	89.69
379.253	74.69
379.478	96.69
379.704	90.69
379.929	91.69
380.155	86.69
380.38	83.69
380.606	85.69
380.831	104.69
381.057	94.69
381.282	84.69
381.507	95.69
381.733	89.69
381.958	90.69
382.184	92.69
382.409	85.69
382.634	79.69
382.86	97.69
383.085	84.69
383.31	92.69
383.535	94.69
383.761	72.69
383.986	95.69
384.211	78.69
384.436	79.69
384.662	85.69
384.887	69.69
385.112	87.69
385.337	84.69
385.562	86.69
385.787	91.69
386.013	90.69
386.238	90.69
386.463	78.69
386.688	82.69
386.913	85.69
387.138	97.69
387.363	100.69
387.588	80.69
387.813	90.69
388.038	87.69
388.263	88.69
388.488	79.69
388.713	93.69
388.938	89.69
389.163	84.69
389.387	78.69
389.612	86.69
389.837	89.69
390.062	92.69
390.287	82.69
390.512	84.69
390.736	88.69
390.961	82.69
391.186	90.69
391.411	79.69
391.636	101.69
391.86	76.69
392.085	91.69
392.31	89.69
392.534	86.69
392.759	93.69
392.984	83.69
393.208	91.69
393.433	75.69
393.658	80.69
393.882	91.69
394.107	78.69
394.331	91.69
394.556	90.69
394.78	94.69
395.005	90.69
395.229	93.69
395.454	72.69
395.678	97.69
395.903	102.69
396.127	110.69
396.352	80.69
396.576	80.69
396.801	85.69
397.025	83.69
397.249	90.69
397.474	98.69
397.698	92.69
397.922	95.69
398.147	90.69
398.371	86.69
398.595	95.69
398.82	82.69
399.044	83.69
399.268	101.69
399.492	85.69
399.717	71.69
399.941	78.69
400.165	95.69
400.389	91.69
400.613	95.69
400.837	91.69
401.062	97.69
401.286	94.69
401.51	89.69
401.734	84.69
401.958	94.69
402.182	95.69
402.406	97.69
402.63	96.69
402.854	94.69
403.078	89.69
403.302	105.69
403.526	90.69
403.75	85.69
403.974	95.69
404.198	89.69
404.422	80.69
404.645	84.69
404.869	90.69
405.093	93.69
405.317	92.69
405.541	82.69
405.765	89.69
405.988	75.69
406.212	102.69
406.436	86.69
406.66	91.69
406.883	94.69
407.107	84.69
407.331	103.69
407.555	92.69
407.778	82.69
408.002	92.69
408.226	84.69
408.449	83.69
408.673	69.69
408.896	88.69
409.12	98.69
409.344	95.69
409.567	95.69
409.791	89.69
410.014	90.69
410.238	83.69
410.461	80.69
410.685	87.69
410.908	71.69
411.132	93.69
411.355	82.69
411.578	85.69
411.802	93.69
412.025	98.69
412.249	85.69
412.472	98.69
412.695	106.69
412.919	92.69
413.142	100.69
413.365	93.69
413.589	85.69
413.812	80.69
414.035	94.69
414.258	94.69
414.482	100.69
414.705	82.69
414.928	81.69
415.151	89.69
415.374	89.69
415.597	92.69
415.821	96.69
416.044	87.69
416.267	83.69
416.49	90.69
416.713	95.69
416.936	99.69
417.159	87.69
417.382	101.69
417.605	82.69
417.828	93.69
418.051	90.69
418.274	89.69
418.497	96.69
418.72	94.69
418.943	95.69
419.166	98.69
419.389	93.69
419.611	99.69
419.834	86.69
420.057	94.69
420.28	88.69
420.503	95.69
420.726	88.69
420.948	88.69
421.171	79.69
421.394	100.69
421.617	99.69
421.839	101.69
422.062	104.69
422.285	84.69
422.507	98.69
422.73	87.69
422.953	85.69
423.175	85.69
423.398	89.69
423.621	87.69
423.843	86.69
424.066	89.69
424.288	102.69
424.511	106.69
424.733	100.69
424.956	92.69
425.178	93.69
425.401	84.69
425.623	85.69
425.846	90.69
426.068	100.69
426.291	84.69
426.513	107.69
426.735	95.69
426.958	86.69
427.18	96.69
427.402	90.69
427.625	91.69
427.847	103.69
428.069	87.69
428.292	114.69
428.514	86.69
428.736	88.69
428.958	88.69
429.181	81.69
429.403	99.69
429.625	99.69
429.847	97.69
430.069	104.69
430.292	104.69
430.514	97.69
430.736	98.69
430.958	91.69
431.18	90.69
431.402	86.69
431.624	85.69
431.846	99.69
432.068	92.69
432.29	99.69
432.512	92.69
432.734	82.69
432.956	72.69
433.178	96.69
433.4	97.69
433.622	102.69
433.844	92.69
434.066	93.69
434.287	99.69
434.509	62.69
434.731	90.69
434.953	103.69
435.175	85.69
435.397	90.69
435.618	102.69
435.84	86.69
436.062	86.69
436.284	90.69
436.505	90.69
436.727	85.69
436.949	89.69
437.17	94.69
437.392	89.69
437.614	74.69
437.835	86.69
438.057	106.69
438.278	86.69
438.5	86.69
438.721	103.69
438.943	100.69
439.165	121.69
439.386	96.69
439.608	96.69
439.829	99.69
440.05	95.69
440.272	94.69
440.493	90.69
440.715	91.69
440.936	100.69
441.158	108.69
441.379	102.69
441.6	92.69
441.822	97.69
442.043	92.69
442.264	105.69
442.486	112.69
442.707	106.69
442.928	102.69
443.149	94.69
443.371	91.69
443.592	89.69
443.813	93.69
444.034	107.69
444.255	98.69
444.476	93.69
444.698	96.69
444.919	102.69
445.14	244.69
445.361	168.69
445.582	103.69
445.803	99.69
446.024	76.69
446.245	91.69
446.466	107.69
446.687	108.69
446.908	112.69
447.129	85.69
447.35	95.69
447.571	113.69
447.792	89.69
448.013	91.69
448.234	99.69
448.455	96.69
448.675	103.69
448.896	92.69
449.117	99.69
449.338	97.69
449.559	86.69
449.779	99.69
450	103.69
450.221	110.69
450.442	90.69
450.662	95.69
450.883	91.69
451.104	122.69
451.324	112.69
451.545	101.69
451.766	96.69
451.986	113.69
452.207	101.69
452.428	96.69
452.648	95.69
452.869	92.69
453.089	92.69
453.31	92.69
453.53	105.69
453.751	81.69
453.971	91.69
454.192	72.69
454.412	106.69
454.633	106.69
454.853	96.69
455.073	84.69
455.294	98.69
455.514	98.69
455.734	87.69
455.955	99.69
456.175	85.69
456.395	89.69
456.616	76.69
456.836	97.69
457.056	94.69
457.276	85.69
457.497	94.69
457.717	94.69
457.937	101.69
458.157	90.69
458.377	87.69
458.598	87.69
458.818	87.69
459.038	97.69
459.258	98.69
459.478	75.69
459.698	93.69
459.918	82.69
460.138	103.69
460.358	99.69
460.578	82.69
460.798	84.69
461.018	98.69
461.238	81.69
461.458	88.69
461.678	98.69
461.898	98.69
462.118	92.69
462.338	75.69
462.558	96.69
462.777	99.69
462.997	98.69
463.217	90.69
463.437	95.69
463.657	75.69
463.876	83.69
464.096	90.69
464.316	82.69
464.536	95.69
464.755	83.69
464.975	79.69
465.195	103.69
465.414	105.69
465.634	92.69
465.854	89.69
466.073	100.69
466.293	98.69
466.512	84.69
466.732	92.69
466.951	100.69
467.171	88.69
467.391	104.69
467.61	87.69
467.829	87.69
468.049	97.69
468.268	83.69
468.488	104.69
468.707	84.69
468.927	105.69
469.146	98.69
469.365	83.69
469.585	109.69
469.804	89.69
470.023	100.69
470.243	96.69
470.462	104.69
470.681	94.69
470.901	105.69
471.12	102.69
471.339	90.69
471.558	111.69
471.777	94.69
471.997	99.69
472.216	91.69
472.435	91.69
472.654	89.69
472.873	103.69
473.092	84.69
473.311	108.69
473.53	104.69
473.749	102.69
473.968	98.69
474.187	99.69
474.406	91.69
474.625	107.69
474.844	106.69
475.063	102.69
475.282	97.69
475.501	107.69
475.72	92.69
475.939	80.69
476.158	95.69
476.377	89.69
476.596	98.69
476.814	107.69
477.033	85.69
477.252	83.69
477.471	98.69
477.69	98.69
477.908	91.69
478.127	86.69
478.346	100.69
478.564	96.69
478.783	102.69
479.002	109.69
479.22	96.69
479.439	99.69
479.658	92.69
479.876	89.69
480.095	83.69
480.313	93.69
480.532	87.69
480.751	86.69
480.969	88.69
481.188	88.69
481.406	72.69
481.624	89.69
481.843	92.69
482.061	77.69
482.28	102.69
482.498	98.69
482.717	87.69
482.935	96.69
483.153	98.69
483.372	91.69
483.59	99.69
483.808	107.69
484.027	110.69
484.245	103.69
484.463	97.69
484.681	111.69
484.9	94.69
485.118	95.69
485.336	97.69
485.554	82.69
485.772	94.69
485.99	76.69
486.209	88.69
486.427	78.69
486.645	101.69
486.863	91.69
487.081	85.69
487.299	97.69
487.517	79.69
487.735	101.69
487.953	123.69
488.171	122.69
488.389	98.69
488.607	126.69
488.825	105.69
489.043	92.69
489.261	107.69
489.479	89.69
489.696	105.69
489.914	110.69
490.132	105.69
490.35	86.69
490.568	106.69
490.786	106.69
491.003	115.69
491.221	112.69
491.439	114.69
491.657	120.69
491.874	120.69
492.092	111.69
492.31	127.69
492.527	138.69
492.745	119.69
492.963	122.69
493.18	114.69
493.398	118.69
493.615	118.69
493.833	102.69
494.05	96.69
494.268	111.69
494.485	113.69
494.703	99.69
494.92	99.69
495.138	114.69
495.355	114.69
495.573	110.69
495.79	84.69
496.008	110.69
496.225	103.69
496.442	105.69
496.66	108.69
496.877	100.69
497.094	115.69
497.312	104.69
497.529	107.69
497.746	107.69
497.963	100.69
498.181	88.69
498.398	90.69
498.615	97.69
498.832	97.69
499.049	99.69
499.267	88.69
499.484	85.69
499.701	102.69
499.918	90.69
500.135	85.69
500.352	90.69
500.569	111.69
500.786	98.69
501.003	119.69
501.22	91.69
501.437	88.69
501.654	95.69
501.871	106.69
502.088	87.69
502.305	91.69
502.522	87.69
502.739	88.69
502.956	85.69
503.172	96.69
503.389	94.69
503.606	101.69
503.823	97.69
504.04	98.69
504.256	100.69
504.473	100.69
504.69	91.69
504.907	78.69
505.123	96.69
505.34	97.69
505.557	102.69
505.773	97.69
505.99	86.69
506.207	95.69
506.423	89.69
506.64	87.69
506.856	90.69
507.073	104.69
507.289	98.69
507.506	94.69
507.722	97.69
507.939	98.69
508.155	83.69
508.372	103.69
508.588	89.69
508.805	82.69
509.021	89.69
509.238	91.69
509.454	89.69
509.67	92.69
509.887	90.69
510.103	89.69
510.319	84.69
510.536	90.69
510.752	67.69
510.968	84.69
511.184	72.69
511.401	81.69
511.617	105.69
511.833	87.69
512.049	87.69
512.265	87.69
512.481	95.69
512.698	84.69
512.914	87.69
513.13	86.69
513.346	92.69
513.562	80.69
513.778	89.69
513.994	79.69
514.21	90.69
514.426	84.69
514.642	88.69
514.858	80.69
515.074	98.69
515.29	97.69
515.506	89.69
515.721	91.69
515.937	85.69
516.153	89.69
516.369	92.69
516.585	95.69
516.801	75.69
517.016	86.69
517.232	92.69
517.448	74.69
517.664	84.69
517.879	83.69
518.095	89.69
518.311	83.69
518.527	79.69
518.742	102.69
518.958	92.69
519.173	86.69
519.389	82.69
519.605	92.69
519.82	93.69
520.036	96.69
520.251	98.69
520.467	96.69
520.682	76.69
520.898	90.69
521.113	80.69
521.329	89.69
521.544	74.69
521.76	94.69
521.975	92.69
522.19	87.69
522.406	87.69
522.621	98.69
522.836	94.69
523.052	95.69
523.267	90.69
523.482	92.69
523.698	86.69
523.913	98.69
524.128	92.69
524.343	102.69
524.559	90.69
524.774	98.69
524.989	110.69
525.204	83.69
525.419	87.69
525.634	94.69
525.849	92.69
526.064	88.69
526.28	80.69
526.495	91.69
526.71	91.69
526.925	68.69
527.14	90.69
527.355	95.69
527.57	79.69
527.785	99.69
527.999	87.69
528.214	101.69
528.429	91.69
528.644	94.69
528.859	96.69
529.074	105.69
529.289	110.69
529.503	115.69
529.718	99.69
529.933	87.69
530.148	90.69
530.363	98.69
530.577	85.69
530.792	81.69
531.007	94.69
531.221	81.69
531.436	90.69
531.651	80.69
531.865	74.69
532.08	78.69
532.295	84.69
532.509	90.69
532.724	84.69
532.938	95.69
533.153	89.69
533.367	91.69
533.582	96.69
533.796	100.69
534.011	87.69
534.225	74.69
534.44	91.69
534.654	79.69
534.868	85.69
535.083	95.69
535.297	96.69
535.511	105.69
535.726	97.69
535.94	88.69
536.154	87.69
536.369	92.69
536.583	88.69
536.797	80.69
537.011	99.69
537.225	84.69
537.44	80.69
537.654	81.69
537.868	87.69
538.082	82.69
538.296	84.69
538.51	82.69
538.724	92.69
538.938	116.69
539.153	97.69
539.367	97.69
539.581	94.69
539.795	85.69
540.009	81.69
540.222	80.69
540.436	81.69
540.65	96.69
540.864	99.69
541.078	97.69
541.292	113.69
541.506	112.69
541.72	119.69
541.934	124.69
542.147	126.69
542.361	108.69
542.575	114.69
542.789	112.69
543.002	100.69
543.216	104.69
543.43	94.69
543.644	107.69
543.857	113.69
544.071	100.69
544.285	108.69
544.498	105.69
544.712	115.69
544.925	110.69
545.139	111.69
545.352	110.69
545.566	128.69
545.779	122.69
545.993	102.69
546.206	100.69
546.42	103.69
546.633	112.69
546.847	108.69
547.06	111.69
547.274	117.69
547.487	119.69
547.7	114.69
547.914	125.69
548.127	97.69
548.34	103.69
548.554	95.69
548.767	118.69
548.98	110.69
549.193	110.69
549.407	104.69
549.62	114.69
549.833	100.69
550.046	91.69
550.259	115.69
550.473	111.69
550.686	110.69
550.899	98.69
551.112	106.69
551.325	97.69
551.538	94.69
551.751	89.69
551.964	111.69
552.177	118.69
552.39	103.69
552.603	106.69
552.816	110.69
553.029	98.69
553.242	103.69
553.455	110.69
553.667	107.69
553.88	120.69
554.093	110.69
554.306	103.69
554.519	115.69
554.732	107.69
554.944	98.69
555.157	90.69
555.37	105.69
555.583	110.69
555.795	113.69
556.008	88.69
556.221	86.69
556.433	91.69
556.646	89.69
556.859	119.69
557.071	93.69
557.284	94.69
557.496	94.69
557.709	101.69
557.921	97.69
558.134	120.69
558.346	98.69
558.559	88.69
558.771	102.69
558.984	111.69
559.196	81.69
559.409	86.69
559.621	83.69
559.833	92.69
560.046	105.69
560.258	108.69
560.47	108.69
560.683	107.69
560.895	96.69
561.107	93.69
561.32	97.69
561.532	97.69
561.744	101.69
561.956	101.69
562.168	110.69
562.381	96.69
562.593	93.69
562.805	96.69
563.017	99.69
563.229	86.69
563.441	94.69
563.653	83.69
563.865	90.69
564.077	90.69
564.289	95.69
564.501	94.69
564.713	100.69
564.925	100.69
565.137	93.69
565.349	98.69
565.561	98.69
565.773	89.69
565.985	91.69
566.197	93.69
566.408	102.69
566.62	100.69
566.832	97.69
567.044	92.69
567.255	85.69
567.467	95.69
567.679	91.69
567.891	83.69
568.102	99.69
568.314	78.69
568.526	79.69
568.737	88.69
568.949	96.69
569.161	79.69
569.372	84.69
569.584	92.69
569.795	88.69
570.007	84.69
570.218	86.69
570.43	86.69
570.641	90.69
570.853	89.69
571.064	80.69
571.276	87.69
571.487	101.69
571.698	89.69
571.91	101.69
572.121	92.69
572.333	101.69
572.544	97.69
572.755	85.69
572.966	92.69
573.178	84.69
573.389	98.69
573.6	79.69
573.811	94.69
574.023	101.69
574.234	115.69
574.445	90.69
574.656	91.69
574.867	96.69
575.078	96.69
575.289	77.69
575.501	76.69
575.712	92.69
575.923	89.69
576.134	90.69
576.345	86.69
576.556	83.69
576.767	97.69
576.978	82.69
577.188	86.69
577.399	94.69
577.61	96.69
577.821	91.69
578.032	89.69
578.243	90.69
578.454	87.69
578.665	87.69
578.875	96.69
579.086	84.69
579.297	90.69
579.508	82.69
579.718	94.69
579.929	98.69
580.14	84.69
580.35	82.69
580.561	91.69
580.772	81.69
580.982	85.69
581.193	91.69
581.403	91.69
581.614	93.69
581.825	83.69
582.035	89.69
582.246	91.69
582.456	81.69
582.667	83.69
582.877	77.69
583.087	79.69
583.298	96.69
583.508	84.69
583.719	99.69
583.929	102.69
584.139	87.69
584.35	84.69
584.56	76.69
584.77	75.69
584.981	87.69
585.191	93.69
585.401	81.69
585.611	84.69
585.821	107.69
586.032	99.69
586.242	102.69
586.452	89.69
586.662	85.69
586.872	96.69
587.082	79.69
587.292	94.69
587.502	83.69
587.713	91.69
587.923	85.69
588.133	100.69
588.343	85.69
588.553	80.69
588.762	96.69
588.972	95.69
589.182	87.69
589.392	80.69
589.602	88.69
589.812	87.69
590.022	90.69
590.232	79.69
590.441	90.69
590.651	85.69
590.861	72.69
591.071	111.69
591.281	91.69
591.49	83.69
591.7	82.69
591.91	85.69
592.119	81.69
592.329	88.69
592.539	84.69
592.748	73.69
592.958	90.69
593.167	82.69
593.377	88.69
593.587	83.69
593.796	87.69
594.006	79.69
594.215	89.69
594.424	80.69
594.634	90.69
594.843	100.69
595.053	84.69
595.262	94.69
595.472	78.69
595.681	90.69
595.89	82.69
596.1	87.69
596.309	96.69
596.518	94.69
596.727	90.69
596.937	95.69
597.146	97.69
597.355	89.69
597.564	82.69
597.774	90.69
597.983	93.69
598.192	94.69
598.401	87.69
598.61	91.69
598.819	92.69
599.028	94.69
599.237	94.69
599.446	73.69
599.655	102.69
599.864	96.69
600.073	76.69
600.282	104.69
600.491	94.69
600.7	84.69
600.909	98.69
601.118	88.69
601.327	106.69
601.536	104.69
601.745	87.69
601.953	110.69
602.162	82.69
602.371	86.69
602.58	86.69
602.789	104.69
602.997	86.69
603.206	110.69
603.415	101.69
603.623	84.69
603.832	99.69
604.041	93.69
604.249	89.69
604.458	95.69
604.666	94.69
604.875	102.69
605.084	81.69
605.292	94.69
605.501	87.69
605.709	100.69
605.918	107.69
606.126	92.69
606.334	96.69
606.543	96.69
606.751	80.69
606.96	83.69
607.168	71.69
607.376	96.69
607.585	104.69
607.793	88.69
608.001	97.69
608.21	88.69
608.418	104.69
608.626	94.69
608.834	90.69
609.043	105.69
609.251	87.69
609.459	99.69
609.667	92.69
609.875	93.69
610.083	99.69
610.291	97.69
610.499	96.69
610.707	99.69
610.916	103.69
611.124	98.69
611.332	84.69
611.54	104.69
611.748	95.69
611.955	98.69
612.163	102.69
612.371	101.69
612.579	88.69
612.787	89.69
612.995	86.69
613.203	90.69
613.411	93.69
613.618	89.69
613.826	101.69
614.034	99.69
614.242	87.69
614.449	90.69
614.657	91.69
614.865	86.69
615.072	108.69
615.28	80.69
615.488	88.69
615.695	92.69
615.903	85.69
616.111	87.69
616.318	89.69
616.526	97.69
616.733	97.69
616.941	107.69
617.148	104.69
617.356	78.69
617.563	110.69
617.771	94.69
617.978	87.69
618.185	98.69
618.393	98.69
618.6	94.69
618.807	98.69
619.015	83.69
619.222	93.69
619.429	101.69
619.637	100.69
619.844	98.69
620.051	82.69
620.258	110.69
620.466	91.69
620.673	96.69
620.88	89.69
621.087	99.69
621.294	101.69
621.501	95.69
621.708	100.69
621.915	88.69
622.122	96.69
622.329	97.69
622.536	90.69
622.743	89.69
622.95	101.69
623.157	100.69
623.364	96.69
623.571	101.69
623.778	90.69
623.985	92.69
624.192	90.69
624.399	87.69
624.606	111.69
624.812	102.69
625.019	95.69
625.226	90.69
625.433	97.69
625.639	82.69
625.846	103.69
626.053	82.69
626.259	80.69
626.466	83.69
626.673	88.69
626.879	88.69
627.086	92.69
627.293	95.69
627.499	91.69
627.706	95.69
627.912	95.69
628.119	108.69
628.325	86.69
628.532	91.69
628.738	92.69
628.945	90.69
629.151	82.69
629.357	99.69
629.564	91.69
629.77	90.69
629.976	87.69
630.183	98.69
630.389	80.69
630.595	94.69
630.802	93.69
631.008	77.69
631.214	98.69
631.42	99.69
631.627	102.69
631.833	97.69
632.039	84.69
632.245	82.69
632.451	107.69
632.657	83.69
632.863	92.69
633.069	103.69
633.275	84.69
633.481	88.69
633.688	81.69
633.893	83.69
634.099	76.69
634.305	84.69
634.511	89.69
634.717	89.69
634.923	93.69
635.129	86.69
635.335	80.69
635.541	92.69
635.747	98.69
635.952	84.69
636.158	85.69
636.364	88.69
636.57	101.69
636.775	98.69
636.981	92.69
637.187	88.69
637.392	97.69
637.598	90.69
637.804	86.69
638.009	84.69
638.215	96.69
638.421	86.69
638.626	102.69
638.832	106.69
639.037	89.69
639.243	95.69
639.448	91.69
639.654	99.69
639.859	100.69
640.065	97.69
640.27	88.69
640.475	75.69
640.681	88.69
640.886	95.69
641.091	91.69
641.297	85.69
641.502	94.69
641.707	79.69
641.913	96.69
642.118	95.69
642.323	94.69
642.528	91.69
642.733	87.69
642.939	108.69
643.144	97.69
643.349	105.69
643.554	103.69
643.759	87.69
643.964	82.69
644.169	85.69
644.374	86.69
644.579	86.69
644.784	90.69
644.989	94.69
645.194	89.69
645.399	91.69
645.604	89.69
645.809	93.69
646.014	82.69
646.219	94.69
646.423	89.69
646.628	90.69
646.833	97.69
647.038	90.69
647.243	83.69
647.447	83.69
647.652	101.69
647.857	94.69
648.062	95.69
648.266	88.69
648.471	84.69
648.676	78.69
648.88	68.69
649.085	87.69
649.289	95.69
649.494	93.69
649.698	89.69
649.903	80.69
650.107	94.69
650.312	76.69
650.516	80.69
650.721	88.69
650.925	94.69
651.13	84.69
651.334	88.69
651.539	89.69
651.743	79.69
651.947	93.69
652.152	89.69
652.356	91.69
652.56	88.69
652.764	84.69
652.969	83.69
653.173	81.69
653.377	101.69
653.581	83.69
653.785	97.69
653.99	90.69
654.194	82.69
654.398	100.69
654.602	84.69
654.806	89.69
655.01	96.69
655.214	83.69
655.418	90.69
655.622	83.69
655.826	91.69
656.03	89.69
656.234	76.69
656.438	94.69
656.642	87.69
656.846	76.69
657.049	75.69
657.253	85.69
657.457	80.69
657.661	86.69
657.865	94.69
658.068	63.69
658.272	78.69
658.476	81.69
658.68	89.69
658.883	84.69
659.087	92.69
659.291	79.69
659.494	76.69
659.698	86.69
659.901	77.69
660.105	93.69
660.309	85.69
660.512	76.69
660.716	87.69
660.919	80.69
661.123	73.69
661.326	82.69
661.53	96.69
661.733	72.69
661.936	89.69
662.14	74.69
662.343	89.69
662.546	94.69
662.75	82.69
662.953	94.69
663.156	89.69
663.36	82.69
663.563	77.69
663.766	86.69
663.969	94.69
664.173	83.69
664.376	80.69
664.579	75.69
664.782	73.69
664.985	82.69
665.188	88.69
665.391	112.69
665.594	84.69
665.797	80.69
666	87.69
666.203	81.69
666.406	88.69
666.609	79.69
666.812	86.69
667.015	90.69
667.218	80.69
667.421	97.69
667.624	84.69
667.827	91.69
668.03	85.69
668.232	76.69
668.435	89.69
668.638	90.69
668.841	89.69
669.043	74.69
669.246	75.69
669.449	73.69
669.651	70.69
669.854	71.69
670.057	89.69
670.259	84.69
670.462	84.69
670.665	85.69
670.867	81.69
671.07	78.69
671.272	92.69
671.475	83.69
671.677	83.69
671.88	72.69
672.082	86.69
672.284	76.69
672.487	85.69
672.689	71.69
672.892	74.69
