Data from Location3.07152019.Energy5.Lamp.07192019.3%Agarose_HRD10591_15-17-13-268.txt Node
Date: Fri Jul 19 15:17:13 EDT 2019
User: cochatt
Spectrometer: HR+D1059
Trigger mode: 1
Integration Time (sec): 1.000000E-1
Scans to average: 1
Electric dark correction enabled: true
Nonlinearity correction enabled: false
Boxcar width: 0
XAxis mode: Wavelengths
Number of Pixels in Spectrum: 2048
>>>>>Begin Spectral Data<<<<<
223.165	-9.12
223.4	-9.12
223.635	-9.12
223.869	-25.12
224.104	-37.12
224.338	-2.12
224.573	-19.12
224.808	-17.12
225.042	-2.12
225.277	2.88
225.511	5.88
225.746	-3.12
225.98	4.88
226.215	12.88
226.449	16.88
226.683	6.88
226.918	22.88
227.152	41.88
227.387	30.88
227.621	28.88
227.856	33.88
228.09	59.88
228.324	41.88
228.559	48.88
228.793	48.88
229.027	77.88
229.262	57.88
229.496	65.88
229.73	64.88
229.964	67.88
230.199	58.88
230.433	71.88
230.667	60.88
230.901	82.88
231.136	75.88
231.37	84.88
231.604	64.88
231.838	69.88
232.072	82.88
232.306	99.88
232.541	88.88
232.775	88.88
233.009	86.88
233.243	72.88
233.477	85.88
233.711	75.88
233.945	74.88
234.179	71.88
234.413	91.88
234.647	77.88
234.881	79.88
235.115	84.88
235.349	78.88
235.583	74.88
235.817	87.88
236.051	77.88
236.285	86.88
236.519	65.88
236.753	74.88
236.987	81.88
237.221	65.88
237.455	87.88
237.689	81.88
237.922	78.88
238.156	80.88
238.39	81.88
238.624	70.88
238.858	73.88
239.091	79.88
239.325	64.88
239.559	81.88
239.793	66.88
240.027	69.88
240.26	77.88
240.494	76.88
240.728	71.88
240.961	62.88
241.195	66.88
241.429	78.88
241.662	72.88
241.896	80.88
242.13	77.88
242.363	83.88
242.597	54.88
242.83	73.88
243.064	64.88
243.298	65.88
243.531	72.88
243.765	78.88
243.998	83.88
244.232	75.88
244.465	78.88
244.699	71.88
244.932	70.88
245.166	74.88
245.399	77.88
245.633	69.88
245.866	84.88
246.099	64.88
246.333	74.88
246.566	72.88
246.8	74.88
247.033	91.88
247.266	88.88
247.5	77.88
247.733	62.88
247.966	76.88
248.2	70.88
248.433	86.88
248.666	77.88
248.899	73.88
249.133	78.88
249.366	78.88
249.599	75.88
249.832	79.88
250.066	88.88
250.299	62.88
250.532	82.88
250.765	76.88
250.998	93.88
251.231	76.88
251.465	50.88
251.698	92.88
251.931	76.88
252.164	90.88
252.397	89.88
252.63	74.88
252.863	84.88
253.096	93.88
253.329	70.88
253.562	77.88
253.795	75.88
254.028	76.88
254.261	65.88
254.494	80.88
254.727	77.88
254.96	80.88
255.193	72.88
255.426	72.88
255.659	75.88
255.892	84.88
256.124	60.88
256.357	75.88
256.59	80.88
256.823	65.88
257.056	77.88
257.289	81.88
257.521	68.88
257.754	87.88
257.987	74.88
258.22	76.88
258.452	76.88
258.685	73.88
258.918	74.88
259.151	78.88
259.383	76.88
259.616	66.88
259.849	78.88
260.081	76.88
260.314	75.88
260.547	87.88
260.779	75.88
261.012	76.88
261.244	80.88
261.477	76.88
261.71	74.88
261.942	72.88
262.175	79.88
262.407	86.88
262.64	71.88
262.872	64.88
263.105	84.88
263.337	78.88
263.57	75.88
263.802	82.88
264.035	88.88
264.267	87.88
264.499	89.88
264.732	78.88
264.964	87.88
265.197	74.88
265.429	77.88
265.661	81.88
265.894	94.88
266.126	73.88
266.358	82.88
266.591	95.88
266.823	91.88
267.055	72.88
267.287	88.88
267.52	74.88
267.752	74.88
267.984	86.88
268.216	80.88
268.448	81.88
268.681	94.88
268.913	84.88
269.145	88.88
269.377	71.88
269.609	93.88
269.841	87.88
270.073	82.88
270.306	88.88
270.538	87.88
270.77	78.88
271.002	81.88
271.234	83.88
271.466	85.88
271.698	77.88
271.93	88.88
272.162	73.88
272.394	84.88
272.626	70.88
272.858	77.88
273.09	89.88
273.322	80.88
273.553	80.88
273.785	84.88
274.017	87.88
274.249	69.88
274.481	80.88
274.713	82.88
274.945	75.88
275.176	65.88
275.408	67.88
275.64	76.88
275.872	87.88
276.104	83.88
276.335	88.88
276.567	74.88
276.799	69.88
277.031	72.88
277.262	75.88
277.494	79.88
277.726	83.88
277.957	86.88
278.189	82.88
278.421	75.88
278.652	88.88
278.884	77.88
279.115	78.88
279.347	84.88
279.579	70.88
279.81	85.88
280.042	84.88
280.273	89.88
280.505	71.88
280.736	82.88
280.968	85.88
281.199	69.88
281.431	96.88
281.662	78.88
281.894	68.88
282.125	74.88
282.356	77.88
282.588	78.88
282.819	79.88
283.051	90.88
283.282	73.88
283.513	89.88
283.745	69.88
283.976	73.88
284.207	69.88
284.439	72.88
284.67	79.88
284.901	89.88
285.132	69.88
285.364	66.88
285.595	87.88
285.826	88.88
286.057	77.88
286.288	85.88
286.52	82.88
286.751	74.88
286.982	74.88
287.213	75.88
287.444	88.88
287.675	77.88
287.906	94.88
288.138	77.88
288.369	65.88
288.6	89.88
288.831	91.88
289.062	80.88
289.293	96.88
289.524	86.88
289.755	70.88
289.986	66.88
290.217	80.88
290.448	88.88
290.679	52.88
290.91	96.88
291.141	81.88
291.371	68.88
291.602	81.88
291.833	83.88
292.064	64.88
292.295	82.88
292.526	89.88
292.757	87.88
292.987	78.88
293.218	88.88
293.449	81.88
293.68	84.88
293.91	66.88
294.141	90.88
294.372	88.88
294.603	85.88
294.833	79.88
295.064	73.88
295.295	76.88
295.525	80.88
295.756	97.88
295.987	76.88
296.217	87.88
296.448	66.88
296.679	80.88
296.909	85.88
297.14	90.88
297.37	100.88
297.601	86.88
297.831	72.88
298.062	87.88
298.292	83.88
298.523	81.88
298.753	77.88
298.984	76.88
299.214	72.88
299.445	89.88
299.675	88.88
299.905	56.88
300.136	81.88
300.366	88.88
300.597	81.88
300.827	86.88
301.057	85.88
301.288	85.88
301.518	82.88
301.748	80.88
301.979	78.88
302.209	88.88
302.439	83.88
302.669	78.88
302.9	86.88
303.13	89.88
303.36	73.88
303.59	82.88
303.82	78.88
304.051	78.88
304.281	84.88
304.511	82.88
304.741	94.88
304.971	89.88
305.201	86.88
305.431	76.88
305.661	81.88
305.891	88.88
306.121	86.88
306.352	73.88
306.582	72.88
306.812	78.88
307.042	77.88
307.272	80.88
307.502	88.88
307.731	80.88
307.961	78.88
308.191	82.88
308.421	71.88
308.651	78.88
308.881	81.88
309.111	81.88
309.341	82.88
309.571	94.88
309.8	82.88
310.03	85.88
310.26	70.88
310.49	81.88
310.72	72.88
310.949	71.88
311.179	94.88
311.409	78.88
311.639	81.88
311.868	96.88
312.098	82.88
312.328	79.88
312.557	67.88
312.787	85.88
313.017	85.88
313.246	70.88
313.476	80.88
313.706	74.88
313.935	88.88
314.165	93.88
314.394	84.88
314.624	79.88
314.853	81.88
315.083	83.88
315.312	87.88
315.542	90.88
315.771	87.88
316.001	83.88
316.23	82.88
316.46	84.88
316.689	85.88
316.919	95.88
317.148	81.88
317.377	81.88
317.607	87.88
317.836	87.88
318.065	82.88
318.295	88.88
318.524	107.88
318.753	86.88
318.983	81.88
319.212	84.88
319.441	76.88
319.67	75.88
319.9	87.88
320.129	74.88
320.358	89.88
320.587	88.88
320.816	71.88
321.046	82.88
321.275	77.88
321.504	81.88
321.733	80.88
321.962	83.88
322.191	85.88
322.42	87.88
322.649	95.88
322.878	92.88
323.108	77.88
323.337	87.88
323.566	76.88
323.795	70.88
324.024	85.88
324.253	81.88
324.482	77.88
324.71	86.88
324.939	70.88
325.168	75.88
325.397	76.88
325.626	89.88
325.855	91.88
326.084	79.88
326.313	95.88
326.542	82.88
326.77	65.88
326.999	88.88
327.228	82.88
327.457	84.88
327.686	84.88
327.914	87.88
328.143	89.88
328.372	82.88
328.6	99.88
328.829	69.88
329.058	86.88
329.287	84.88
329.515	88.88
329.744	83.88
329.972	80.88
330.201	81.88
330.43	67.88
330.658	89.88
330.887	86.88
331.115	107.88
331.344	84.88
331.572	82.88
331.801	72.88
332.03	79.88
332.258	90.88
332.486	78.88
332.715	93.88
332.943	80.88
333.172	94.88
333.4	70.88
333.629	78.88
333.857	77.88
334.085	86.88
334.314	81.88
334.542	84.88
334.771	89.88
334.999	72.88
335.227	78.88
335.455	84.88
335.684	81.88
335.912	86.88
336.14	81.88
336.369	79.88
336.597	94.88
336.825	65.88
337.053	87.88
337.281	80.88
337.51	72.88
337.738	86.88
337.966	76.88
338.194	79.88
338.422	87.88
338.65	90.88
338.878	80.88
339.106	78.88
339.334	75.88
339.562	85.88
339.79	88.88
340.018	99.88
340.246	90.88
340.474	82.88
340.702	73.88
340.93	67.88
341.158	73.88
341.386	79.88
341.614	87.88
341.842	65.88
342.07	70.88
342.298	81.88
342.526	79.88
342.754	77.88
342.981	92.88
343.209	84.88
343.437	87.88
343.665	80.88
343.893	80.88
344.12	76.88
344.348	89.88
344.576	89.88
344.804	78.88
345.031	78.88
345.259	77.88
345.487	103.88
345.714	87.88
345.942	71.88
346.17	80.88
346.397	88.88
346.625	78.88
346.853	89.88
347.08	86.88
347.308	81.88
347.535	85.88
347.763	85.88
347.99	91.88
348.218	92.88
348.445	77.88
348.673	82.88
348.9	84.88
349.128	77.88
349.355	72.88
349.583	69.88
349.81	75.88
350.037	79.88
350.265	79.88
350.492	87.88
350.72	71.88
350.947	85.88
351.174	80.88
351.402	79.88
351.629	93.88
351.856	84.88
352.083	83.88
352.311	84.88
352.538	76.88
352.765	98.88
352.992	80.88
353.22	81.88
353.447	78.88
353.674	90.88
353.901	69.88
354.128	74.88
354.355	79.88
354.583	72.88
354.81	74.88
355.037	80.88
355.264	102.88
355.491	77.88
355.718	68.88
355.945	82.88
356.172	85.88
356.399	80.88
356.626	92.88
356.853	78.88
357.08	70.88
357.307	90.88
357.534	84.88
357.761	70.88
357.988	90.88
358.215	97.88
358.441	69.88
358.668	82.88
358.895	99.88
359.122	87.88
359.349	92.88
359.576	87.88
359.802	87.88
360.029	82.88
360.256	93.88
360.483	84.88
360.709	72.88
360.936	84.88
361.163	86.88
361.39	87.88
361.616	78.88
361.843	74.88
362.07	80.88
362.296	74.88
362.523	90.88
362.749	84.88
362.976	79.88
363.203	70.88
363.429	76.88
363.656	80.88
363.882	88.88
364.109	84.88
364.335	87.88
364.562	83.88
364.788	88.88
365.015	86.88
365.241	83.88
365.468	79.88
365.694	81.88
365.92	78.88
366.147	83.88
366.373	74.88
366.599	77.88
366.826	82.88
367.052	97.88
367.278	76.88
367.505	79.88
367.731	95.88
367.957	77.88
368.184	74.88
368.41	94.88
368.636	83.88
368.862	81.88
369.089	79.88
369.315	78.88
369.541	96.88
369.767	82.88
369.993	86.88
370.219	65.88
370.445	83.88
370.672	91.88
370.898	84.88
371.124	74.88
371.35	82.88
371.576	95.88
371.802	91.88
372.028	88.88
372.254	85.88
372.48	78.88
372.706	73.88
372.932	80.88
373.158	65.88
373.384	83.88
373.61	93.88
373.835	86.88
374.061	78.88
374.287	100.88
374.513	89.88
374.739	74.88
374.965	78.88
375.191	84.88
375.416	90.88
375.642	83.88
375.868	90.88
376.094	88.88
376.319	81.88
376.545	82.88
376.771	94.88
376.997	83.88
377.222	87.88
377.448	75.88
377.674	105.88
377.899	86.88
378.125	86.88
378.35	96.88
378.576	77.88
378.802	81.88
379.027	90.88
379.253	92.88
379.478	92.88
379.704	88.88
379.929	99.88
380.155	70.88
380.38	86.88
380.606	83.88
380.831	82.88
381.057	94.88
381.282	87.88
381.507	81.88
381.733	98.88
381.958	93.88
382.184	85.88
382.409	83.88
382.634	92.88
382.86	86.88
383.085	85.88
383.31	88.88
383.535	88.88
383.761	69.88
383.986	90.88
384.211	81.88
384.436	83.88
384.662	87.88
384.887	85.88
385.112	88.88
385.337	74.88
385.562	74.88
385.787	81.88
386.013	78.88
386.238	80.88
386.463	90.88
386.688	88.88
386.913	83.88
387.138	95.88
387.363	86.88
387.588	93.88
387.813	71.88
388.038	85.88
388.263	87.88
388.488	81.88
388.713	80.88
388.938	87.88
389.163	92.88
389.387	77.88
389.612	81.88
389.837	103.88
390.062	97.88
390.287	86.88
390.512	82.88
390.736	89.88
390.961	90.88
391.186	88.88
391.411	82.88
391.636	75.88
391.86	92.88
392.085	85.88
392.31	85.88
392.534	100.88
392.759	83.88
392.984	80.88
393.208	90.88
393.433	96.88
393.658	88.88
393.882	95.88
394.107	86.88
394.331	105.88
394.556	85.88
394.78	74.88
395.005	76.88
395.229	81.88
395.454	74.88
395.678	89.88
395.903	92.88
396.127	86.88
396.352	88.88
396.576	78.88
396.801	80.88
397.025	88.88
397.249	86.88
397.474	89.88
397.698	88.88
397.922	75.88
398.147	78.88
398.371	73.88
398.595	96.88
398.82	82.88
399.044	83.88
399.268	79.88
399.492	81.88
399.717	92.88
399.941	91.88
400.165	90.88
400.389	79.88
400.613	94.88
400.837	106.88
401.062	81.88
401.286	78.88
401.51	80.88
401.734	74.88
401.958	89.88
402.182	87.88
402.406	96.88
402.63	94.88
402.854	89.88
403.078	80.88
403.302	87.88
403.526	83.88
403.75	92.88
403.974	106.88
404.198	88.88
404.422	82.88
404.645	93.88
404.869	84.88
405.093	77.88
405.317	89.88
405.541	89.88
405.765	93.88
405.988	101.88
406.212	96.88
406.436	95.88
406.66	92.88
406.883	101.88
407.107	89.88
407.331	82.88
407.555	79.88
407.778	90.88
408.002	90.88
408.226	105.88
408.449	105.88
408.673	88.88
408.896	105.88
409.12	92.88
409.344	99.88
409.567	88.88
409.791	96.88
410.014	94.88
410.238	99.88
410.461	104.88
410.685	99.88
410.908	88.88
411.132	90.88
411.355	84.88
411.578	97.88
411.802	78.88
412.025	87.88
412.249	100.88
412.472	90.88
412.695	106.88
412.919	90.88
413.142	84.88
413.365	102.88
413.589	92.88
413.812	93.88
414.035	95.88
414.258	87.88
414.482	83.88
414.705	91.88
414.928	94.88
415.151	104.88
415.374	90.88
415.597	92.88
415.821	102.88
416.044	97.88
416.267	94.88
416.49	93.88
416.713	81.88
416.936	98.88
417.159	105.88
417.382	92.88
417.605	78.88
417.828	90.88
418.051	92.88
418.274	82.88
418.497	97.88
418.72	86.88
418.943	85.88
419.166	87.88
419.389	92.88
419.611	102.88
419.834	99.88
420.057	111.88
420.28	90.88
420.503	84.88
420.726	88.88
420.948	85.88
421.171	98.88
421.394	103.88
421.617	101.88
421.839	81.88
422.062	104.88
422.285	85.88
422.507	89.88
422.73	78.88
422.953	80.88
423.175	83.88
423.398	92.88
423.621	88.88
423.843	110.88
424.066	90.88
424.288	102.88
424.511	109.88
424.733	100.88
424.956	111.88
425.178	112.88
425.401	89.88
425.623	99.88
425.846	103.88
426.068	91.88
426.291	77.88
426.513	98.88
426.735	92.88
426.958	109.88
427.18	90.88
427.402	84.88
427.625	98.88
427.847	98.88
428.069	106.88
428.292	95.88
428.514	94.88
428.736	87.88
428.958	95.88
429.181	90.88
429.403	92.88
429.625	81.88
429.847	88.88
430.069	85.88
430.292	93.88
430.514	102.88
430.736	101.88
430.958	94.88
431.18	93.88
431.402	101.88
431.624	97.88
431.846	90.88
432.068	85.88
432.29	89.88
432.512	94.88
432.734	94.88
432.956	99.88
433.178	105.88
433.4	94.88
433.622	98.88
433.844	91.88
434.066	85.88
434.287	80.88
434.509	82.88
434.731	86.88
434.953	84.88
435.175	88.88
435.397	92.88
435.618	85.88
435.84	86.88
436.062	87.88
436.284	77.88
436.505	81.88
436.727	84.88
436.949	83.88
437.17	82.88
437.392	82.88
437.614	94.88
437.835	90.88
438.057	88.88
438.278	88.88
438.5	109.88
438.721	92.88
438.943	99.88
439.165	96.88
439.386	108.88
439.608	95.88
439.829	89.88
440.05	111.88
440.272	98.88
440.493	89.88
440.715	90.88
440.936	81.88
441.158	96.88
441.379	92.88
441.6	109.88
441.822	93.88
442.043	87.88
442.264	101.88
442.486	95.88
442.707	106.88
442.928	96.88
443.149	92.88
443.371	90.88
443.592	98.88
443.813	83.88
444.034	92.88
444.255	99.88
444.476	99.88
444.698	102.88
444.919	100.88
445.14	225.88
445.361	160.88
445.582	102.88
445.803	89.88
446.024	99.88
446.245	96.88
446.466	101.88
446.687	87.88
446.908	111.88
447.129	105.88
447.35	112.88
447.571	99.88
447.792	104.88
448.013	103.88
448.234	95.88
448.455	86.88
448.675	86.88
448.896	92.88
449.117	99.88
449.338	105.88
449.559	99.88
449.779	96.88
450	108.88
450.221	100.88
450.442	100.88
450.662	90.88
450.883	91.88
451.104	92.88
451.324	95.88
451.545	88.88
451.766	90.88
451.986	85.88
452.207	93.88
452.428	92.88
452.648	90.88
452.869	85.88
453.089	92.88
453.31	92.88
453.53	79.88
453.751	104.88
453.971	83.88
454.192	74.88
454.412	81.88
454.633	100.88
454.853	99.88
455.073	92.88
455.294	104.88
455.514	95.88
455.734	80.88
455.955	95.88
456.175	86.88
456.395	85.88
456.616	90.88
456.836	98.88
457.056	96.88
457.276	90.88
457.497	94.88
457.717	84.88
457.937	89.88
458.157	86.88
458.377	90.88
458.598	91.88
458.818	83.88
459.038	69.88
459.258	62.88
459.478	81.88
459.698	85.88
459.918	109.88
460.138	95.88
460.358	76.88
460.578	78.88
460.798	87.88
461.018	90.88
461.238	94.88
461.458	82.88
461.678	77.88
461.898	85.88
462.118	77.88
462.338	80.88
462.558	102.88
462.777	93.88
462.997	86.88
463.217	96.88
463.437	94.88
463.657	90.88
463.876	99.88
464.096	85.88
464.316	72.88
464.536	74.88
464.755	97.88
464.975	87.88
465.195	83.88
465.414	87.88
465.634	80.88
465.854	97.88
466.073	93.88
466.293	71.88
466.512	79.88
466.732	78.88
466.951	89.88
467.171	90.88
467.391	98.88
467.61	89.88
467.829	96.88
468.049	103.88
468.268	84.88
468.488	86.88
468.707	112.88
468.927	93.88
469.146	94.88
469.365	102.88
469.585	99.88
469.804	93.88
470.023	102.88
470.243	88.88
470.462	91.88
470.681	90.88
470.901	94.88
471.12	98.88
471.339	103.88
471.558	103.88
471.777	95.88
471.997	87.88
472.216	88.88
472.435	100.88
472.654	85.88
472.873	87.88
473.092	101.88
473.311	84.88
473.53	83.88
473.749	111.88
473.968	86.88
474.187	91.88
474.406	84.88
474.625	90.88
474.844	88.88
475.063	97.88
475.282	99.88
475.501	90.88
475.72	85.88
475.939	100.88
476.158	92.88
476.377	98.88
476.596	105.88
476.814	79.88
477.033	88.88
477.252	86.88
477.471	99.88
477.69	100.88
477.908	98.88
478.127	110.88
478.346	84.88
478.564	92.88
478.783	100.88
479.002	95.88
479.22	91.88
479.439	101.88
479.658	90.88
479.876	85.88
480.095	91.88
480.313	93.88
480.532	94.88
480.751	79.88
480.969	92.88
481.188	89.88
481.406	86.88
481.624	85.88
481.843	84.88
482.061	86.88
482.28	93.88
482.498	97.88
482.717	89.88
482.935	93.88
483.153	96.88
483.372	98.88
483.59	111.88
483.808	95.88
484.027	110.88
484.245	85.88
484.463	96.88
484.681	103.88
484.9	100.88
485.118	103.88
485.336	103.88
485.554	85.88
485.772	83.88
485.99	79.88
486.209	95.88
486.427	86.88
486.645	88.88
486.863	96.88
487.081	99.88
487.299	95.88
487.517	108.88
487.735	105.88
487.953	113.88
488.171	98.88
488.389	110.88
488.607	103.88
488.825	90.88
489.043	98.88
489.261	95.88
489.479	87.88
489.696	105.88
489.914	96.88
490.132	94.88
490.35	96.88
490.568	98.88
490.786	117.88
491.003	101.88
491.221	104.88
491.439	101.88
491.657	94.88
491.874	108.88
492.092	116.88
492.31	133.88
492.527	124.88
492.745	121.88
492.963	119.88
493.18	122.88
493.398	130.88
493.615	118.88
493.833	102.88
494.05	102.88
494.268	103.88
494.485	98.88
494.703	118.88
494.92	107.88
495.138	100.88
495.355	108.88
495.573	102.88
495.79	111.88
496.008	102.88
496.225	107.88
496.442	98.88
496.66	118.88
496.877	96.88
497.094	104.88
497.312	96.88
497.529	105.88
497.746	103.88
497.963	97.88
498.181	99.88
498.398	102.88
498.615	86.88
498.832	84.88
499.049	96.88
499.267	73.88
499.484	86.88
499.701	96.88
499.918	102.88
500.135	99.88
500.352	95.88
500.569	74.88
500.786	97.88
501.003	96.88
501.22	82.88
501.437	93.88
501.654	102.88
501.871	88.88
502.088	97.88
502.305	98.88
502.522	108.88
502.739	97.88
502.956	89.88
503.172	86.88
503.389	99.88
503.606	76.88
503.823	85.88
504.04	95.88
504.256	93.88
504.473	83.88
504.69	101.88
504.907	96.88
505.123	103.88
505.34	80.88
505.557	92.88
505.773	101.88
505.99	88.88
506.207	92.88
506.423	92.88
506.64	96.88
506.856	96.88
507.073	93.88
507.289	92.88
507.506	91.88
507.722	92.88
507.939	80.88
508.155	84.88
508.372	81.88
508.588	87.88
508.805	92.88
509.021	79.88
509.238	89.88
509.454	79.88
509.67	94.88
509.887	78.88
510.103	81.88
510.319	92.88
510.536	88.88
510.752	82.88
510.968	90.88
511.184	88.88
511.401	93.88
511.617	83.88
511.833	97.88
512.049	74.88
512.265	87.88
512.481	91.88
512.698	89.88
512.914	87.88
513.13	90.88
513.346	91.88
513.562	88.88
513.778	86.88
513.994	68.88
514.21	71.88
514.426	75.88
514.642	73.88
514.858	91.88
515.074	80.88
515.29	101.88
515.506	73.88
515.721	92.88
515.937	91.88
516.153	78.88
516.369	92.88
516.585	86.88
516.801	72.88
517.016	78.88
517.232	89.88
517.448	84.88
517.664	82.88
517.879	81.88
518.095	91.88
518.311	77.88
518.527	80.88
518.742	92.88
518.958	84.88
519.173	90.88
519.389	105.88
519.605	106.88
519.82	84.88
520.036	88.88
520.251	88.88
520.467	95.88
520.682	73.88
520.898	81.88
521.113	97.88
521.329	81.88
521.544	77.88
521.76	84.88
521.975	85.88
522.19	90.88
522.406	89.88
522.621	87.88
522.836	76.88
523.052	77.88
523.267	91.88
523.482	105.88
523.698	94.88
523.913	85.88
524.128	91.88
524.343	98.88
524.559	97.88
524.774	108.88
524.989	88.88
525.204	89.88
525.419	87.88
525.634	81.88
525.849	79.88
526.064	77.88
526.28	95.88
526.495	92.88
526.71	85.88
526.925	80.88
527.14	68.88
527.355	81.88
527.57	73.88
527.785	62.88
527.999	80.88
528.214	93.88
528.429	92.88
528.644	90.88
528.859	94.88
529.074	98.88
529.289	122.88
529.503	99.88
529.718	81.88
529.933	92.88
530.148	84.88
530.363	92.88
530.577	92.88
530.792	85.88
531.007	93.88
531.221	91.88
531.436	87.88
531.651	78.88
531.865	93.88
532.08	97.88
532.295	78.88
532.509	73.88
532.724	85.88
532.938	79.88
533.153	83.88
533.367	74.88
533.582	90.88
533.796	91.88
534.011	82.88
534.225	103.88
534.44	88.88
534.654	79.88
534.868	83.88
535.083	97.88
535.297	87.88
535.511	76.88
535.726	94.88
535.94	104.88
536.154	79.88
536.369	80.88
536.583	81.88
536.797	77.88
537.011	81.88
537.225	80.88
537.44	78.88
537.654	74.88
537.868	84.88
538.082	83.88
538.296	94.88
538.51	88.88
538.724	94.88
538.938	118.88
539.153	104.88
539.367	96.88
539.581	81.88
539.795	96.88
540.009	81.88
540.222	85.88
540.436	95.88
540.65	86.88
540.864	111.88
541.078	99.88
541.292	102.88
541.506	106.88
541.72	103.88
541.934	111.88
542.147	126.88
542.361	112.88
542.575	109.88
542.789	106.88
543.002	101.88
543.216	102.88
543.43	84.88
543.644	95.88
543.857	92.88
544.071	103.88
544.285	105.88
544.498	104.88
544.712	104.88
544.925	96.88
545.139	109.88
545.352	104.88
545.566	100.88
545.779	101.88
545.993	99.88
546.206	120.88
546.42	102.88
546.633	100.88
546.847	116.88
547.06	113.88
547.274	104.88
547.487	108.88
547.7	109.88
547.914	105.88
548.127	101.88
548.34	105.88
548.554	104.88
548.767	110.88
548.98	125.88
549.193	97.88
549.407	114.88
549.62	97.88
549.833	102.88
550.046	107.88
550.259	110.88
550.473	109.88
550.686	115.88
550.899	114.88
551.112	98.88
551.325	99.88
551.538	86.88
551.751	89.88
551.964	91.88
552.177	92.88
552.39	88.88
552.603	90.88
552.816	87.88
553.029	107.88
553.242	106.88
553.455	111.88
553.667	92.88
553.88	117.88
554.093	108.88
554.306	105.88
554.519	116.88
554.732	106.88
554.944	105.88
555.157	112.88
555.37	110.88
555.583	105.88
555.795	110.88
556.008	99.88
556.221	108.88
556.433	91.88
556.646	108.88
556.859	93.88
557.071	85.88
557.284	72.88
557.496	104.88
557.709	98.88
557.921	88.88
558.134	109.88
558.346	88.88
558.559	96.88
558.771	100.88
558.984	97.88
559.196	94.88
559.409	97.88
559.621	86.88
559.833	109.88
560.046	94.88
560.258	94.88
560.47	93.88
560.683	94.88
560.895	94.88
561.107	92.88
561.32	90.88
561.532	95.88
561.744	98.88
561.956	105.88
562.168	91.88
562.381	106.88
562.593	95.88
562.805	100.88
563.017	90.88
563.229	98.88
563.441	86.88
563.653	90.88
563.865	98.88
564.077	91.88
564.289	95.88
564.501	88.88
564.713	94.88
564.925	92.88
565.137	97.88
565.349	85.88
565.561	112.88
565.773	80.88
565.985	110.88
566.197	93.88
566.408	96.88
566.62	85.88
566.832	105.88
567.044	85.88
567.255	89.88
567.467	92.88
567.679	86.88
567.891	95.88
568.102	88.88
568.314	90.88
568.526	81.88
568.737	77.88
568.949	86.88
569.161	72.88
569.372	88.88
569.584	78.88
569.795	79.88
570.007	88.88
570.218	80.88
570.43	80.88
570.641	73.88
570.853	76.88
571.064	88.88
571.276	80.88
571.487	99.88
571.698	88.88
571.91	86.88
572.121	88.88
572.333	88.88
572.544	87.88
572.755	85.88
572.966	90.88
573.178	80.88
573.389	80.88
573.6	88.88
573.811	84.88
574.023	83.88
574.234	91.88
574.445	83.88
574.656	86.88
574.867	89.88
575.078	89.88
575.289	91.88
575.501	86.88
575.712	86.88
575.923	92.88
576.134	72.88
576.345	72.88
576.556	74.88
576.767	84.88
576.978	100.88
577.188	75.88
577.399	85.88
577.61	92.88
577.821	84.88
578.032	78.88
578.243	73.88
578.454	95.88
578.665	77.88
578.875	74.88
579.086	64.88
579.297	94.88
579.508	83.88
579.718	70.88
579.929	87.88
580.14	97.88
580.35	73.88
580.561	89.88
580.772	90.88
580.982	97.88
581.193	68.88
581.403	78.88
581.614	84.88
581.825	81.88
582.035	82.88
582.246	87.88
582.456	85.88
582.667	75.88
582.877	99.88
583.087	77.88
583.298	77.88
583.508	87.88
583.719	62.88
583.929	74.88
584.139	79.88
584.35	70.88
584.56	90.88
584.77	84.88
584.981	94.88
585.191	84.88
585.401	89.88
585.611	84.88
585.821	93.88
586.032	81.88
586.242	88.88
586.452	77.88
586.662	71.88
586.872	81.88
587.082	85.88
587.292	78.88
587.502	77.88
587.713	78.88
587.923	87.88
588.133	85.88
588.343	80.88
588.553	80.88
588.762	84.88
588.972	81.88
589.182	82.88
589.392	90.88
589.602	82.88
589.812	70.88
590.022	87.88
590.232	83.88
590.441	66.88
590.651	84.88
590.861	89.88
591.071	85.88
591.281	80.88
591.49	75.88
591.7	97.88
591.91	79.88
592.119	78.88
592.329	92.88
592.539	102.88
592.748	83.88
592.958	81.88
593.167	72.88
593.377	82.88
593.587	81.88
593.796	74.88
594.006	76.88
594.215	81.88
594.424	82.88
594.634	96.88
594.843	85.88
595.053	88.88
595.262	87.88
595.472	108.88
595.681	86.88
595.89	82.88
596.1	80.88
596.309	81.88
596.518	81.88
596.727	90.88
596.937	100.88
597.146	77.88
597.355	81.88
597.564	91.88
597.774	91.88
597.983	77.88
598.192	82.88
598.401	72.88
598.61	76.88
598.819	84.88
599.028	91.88
599.237	73.88
599.446	84.88
599.655	81.88
599.864	82.88
600.073	85.88
600.282	88.88
600.491	75.88
600.7	90.88
600.909	87.88
601.118	92.88
601.327	97.88
601.536	103.88
601.745	106.88
601.953	97.88
602.162	100.88
602.371	85.88
602.58	80.88
602.789	94.88
602.997	86.88
603.206	93.88
603.415	100.88
603.623	99.88
603.832	86.88
604.041	89.88
604.249	97.88
604.458	79.88
604.666	73.88
604.875	101.88
605.084	96.88
605.292	80.88
605.501	90.88
605.709	98.88
605.918	98.88
606.126	95.88
606.334	89.88
606.543	98.88
606.751	76.88
606.96	104.88
607.168	85.88
607.376	93.88
607.585	97.88
607.793	84.88
608.001	94.88
608.21	95.88
608.418	94.88
608.626	90.88
608.834	97.88
609.043	96.88
609.251	86.88
609.459	99.88
609.667	98.88
609.875	94.88
610.083	97.88
610.291	91.88
610.499	81.88
610.707	93.88
610.916	94.88
611.124	99.88
611.332	84.88
611.54	88.88
611.748	83.88
611.955	89.88
612.163	88.88
612.371	88.88
612.579	75.88
612.787	83.88
612.995	90.88
613.203	101.88
613.411	89.88
613.618	102.88
613.826	83.88
614.034	85.88
614.242	103.88
614.449	82.88
614.657	102.88
614.865	75.88
615.072	90.88
615.28	88.88
615.488	88.88
615.695	95.88
615.903	90.88
616.111	95.88
616.318	99.88
616.526	99.88
616.733	81.88
616.941	90.88
617.148	96.88
617.356	88.88
617.563	87.88
617.771	92.88
617.978	89.88
618.185	93.88
618.393	82.88
618.6	85.88
618.807	93.88
619.015	77.88
619.222	90.88
619.429	97.88
619.637	95.88
619.844	81.88
620.051	79.88
620.258	89.88
620.466	98.88
620.673	96.88
620.88	96.88
621.087	79.88
621.294	87.88
621.501	98.88
621.708	83.88
621.915	94.88
622.122	90.88
622.329	91.88
622.536	97.88
622.743	91.88
622.95	81.88
623.157	94.88
623.364	75.88
623.571	85.88
623.778	100.88
623.985	96.88
624.192	93.88
624.399	67.88
624.606	82.88
624.812	80.88
625.019	93.88
625.226	89.88
625.433	80.88
625.639	97.88
625.846	77.88
626.053	80.88
626.259	78.88
626.466	77.88
626.673	74.88
626.879	89.88
627.086	82.88
627.293	77.88
627.499	87.88
627.706	94.88
627.912	89.88
628.119	88.88
628.325	78.88
628.532	103.88
628.738	85.88
628.945	85.88
629.151	75.88
629.357	82.88
629.564	89.88
629.77	94.88
629.976	92.88
630.183	86.88
630.389	95.88
630.595	86.88
630.802	101.88
631.008	84.88
631.214	78.88
631.42	88.88
631.627	96.88
631.833	86.88
632.039	75.88
632.245	87.88
632.451	89.88
632.657	92.88
632.863	92.88
633.069	82.88
633.275	102.88
633.481	83.88
633.688	94.88
633.893	93.88
634.099	81.88
634.305	75.88
634.511	81.88
634.717	100.88
634.923	82.88
635.129	89.88
635.335	86.88
635.541	78.88
635.747	82.88
635.952	96.88
636.158	83.88
636.364	93.88
636.57	83.88
636.775	96.88
636.981	98.88
637.187	82.88
637.392	98.88
637.598	80.88
637.804	93.88
638.009	78.88
638.215	89.88
638.421	80.88
638.626	87.88
638.832	96.88
639.037	86.88
639.243	93.88
639.448	77.88
639.654	93.88
639.859	93.88
640.065	77.88
640.27	95.88
640.475	81.88
640.681	86.88
640.886	91.88
641.091	82.88
641.297	79.88
641.502	87.88
641.707	93.88
641.913	91.88
642.118	91.88
642.323	85.88
642.528	93.88
642.733	75.88
642.939	93.88
643.144	74.88
643.349	85.88
643.554	84.88
643.759	80.88
643.964	94.88
644.169	91.88
644.374	78.88
644.579	89.88
644.784	85.88
644.989	102.88
645.194	79.88
645.399	98.88
645.604	79.88
645.809	79.88
646.014	92.88
646.219	92.88
646.423	86.88
646.628	97.88
646.833	96.88
647.038	81.88
647.243	89.88
647.447	85.88
647.652	81.88
647.857	67.88
648.062	82.88
648.266	87.88
648.471	108.88
648.676	108.88
648.88	99.88
649.085	93.88
649.289	83.88
649.494	80.88
649.698	104.88
649.903	90.88
650.107	81.88
650.312	95.88
650.516	90.88
650.721	96.88
650.925	80.88
651.13	102.88
651.334	78.88
651.539	77.88
651.743	97.88
651.947	81.88
652.152	79.88
652.356	89.88
652.56	94.88
652.764	97.88
652.969	85.88
653.173	81.88
653.377	83.88
653.581	97.88
653.785	83.88
653.99	100.88
654.194	97.88
654.398	83.88
654.602	88.88
654.806	80.88
655.01	85.88
655.214	84.88
655.418	86.88
655.622	73.88
655.826	81.88
656.03	90.88
656.234	89.88
656.438	88.88
656.642	89.88
656.846	88.88
657.049	87.88
657.253	81.88
657.457	95.88
657.661	93.88
657.865	81.88
658.068	87.88
658.272	89.88
658.476	80.88
658.68	84.88
658.883	88.88
659.087	79.88
659.291	64.88
659.494	76.88
659.698	70.88
659.901	82.88
660.105	72.88
660.309	89.88
660.512	80.88
660.716	94.88
660.919	96.88
661.123	93.88
661.326	87.88
661.53	82.88
661.733	78.88
661.936	79.88
662.14	82.88
662.343	72.88
662.546	79.88
662.75	92.88
662.953	93.88
663.156	84.88
663.36	93.88
663.563	89.88
663.766	81.88
663.969	75.88
664.173	100.88
664.376	80.88
664.579	78.88
664.782	79.88
664.985	102.88
665.188	90.88
665.391	70.88
665.594	74.88
665.797	84.88
666	72.88
666.203	76.88
666.406	95.88
666.609	84.88
666.812	88.88
667.015	85.88
667.218	82.88
667.421	84.88
667.624	98.88
667.827	85.88
668.03	86.88
668.232	77.88
668.435	93.88
668.638	85.88
668.841	96.88
669.043	92.88
669.246	79.88
669.449	71.88
669.651	78.88
669.854	84.88
670.057	74.88
670.259	70.88
670.462	72.88
670.665	85.88
670.867	80.88
671.07	73.88
671.272	82.88
671.475	79.88
671.677	63.88
671.88	73.88
672.082	70.88
672.284	81.88
672.487	74.88
672.689	74.88
672.892	90.88
