Data from Location3.07152019.Energy5.Lamp.07192019.3%Agarose_HRD10591_15-17-39-269.txt Node
Date: Fri Jul 19 15:17:39 EDT 2019
User: cochatt
Spectrometer: HR+D1059
Trigger mode: 1
Integration Time (sec): 1.000000E-1
Scans to average: 1
Electric dark correction enabled: true
Nonlinearity correction enabled: false
Boxcar width: 0
XAxis mode: Wavelengths
Number of Pixels in Spectrum: 2048
>>>>>Begin Spectral Data<<<<<
223.165	-19.62
223.4	-19.62
223.635	-19.62
223.869	-14.62
224.104	-10.62
224.338	-19.62
224.573	-17.62
224.808	-9.62
225.042	-1.62
225.277	0.38
225.511	2.38
225.746	5.38
225.98	-6.62
226.215	8.38
226.449	16.38
226.683	20.38
226.918	26.38
227.152	20.38
227.387	32.38
227.621	35.38
227.856	54.38
228.09	48.38
228.324	29.38
228.559	48.38
228.793	63.38
229.027	52.38
229.262	53.38
229.496	67.38
229.73	56.38
229.964	63.38
230.199	79.38
230.433	64.38
230.667	82.38
230.901	64.38
231.136	69.38
231.37	78.38
231.604	87.38
231.838	73.38
232.072	83.38
232.306	64.38
232.541	68.38
232.775	77.38
233.009	76.38
233.243	87.38
233.477	71.38
233.711	68.38
233.945	80.38
234.179	81.38
234.413	99.38
234.647	68.38
234.881	78.38
235.115	77.38
235.349	69.38
235.583	71.38
235.817	66.38
236.051	80.38
236.285	77.38
236.519	71.38
236.753	76.38
236.987	82.38
237.221	64.38
237.455	81.38
237.689	80.38
237.922	69.38
238.156	66.38
238.39	69.38
238.624	66.38
238.858	76.38
239.091	74.38
239.325	75.38
239.559	78.38
239.793	70.38
240.027	71.38
240.26	71.38
240.494	82.38
240.728	79.38
240.961	67.38
241.195	76.38
241.429	70.38
241.662	73.38
241.896	70.38
242.13	81.38
242.363	68.38
242.597	72.38
242.83	70.38
243.064	72.38
243.298	75.38
243.531	89.38
243.765	74.38
243.998	70.38
244.232	64.38
244.465	67.38
244.699	79.38
244.932	71.38
245.166	76.38
245.399	77.38
245.633	68.38
245.866	72.38
246.099	82.38
246.333	91.38
246.566	77.38
246.8	78.38
247.033	84.38
247.266	74.38
247.5	63.38
247.733	78.38
247.966	82.38
248.2	72.38
248.433	93.38
248.666	54.38
248.899	78.38
249.133	77.38
249.366	74.38
249.599	88.38
249.832	84.38
250.066	74.38
250.299	80.38
250.532	81.38
250.765	78.38
250.998	79.38
251.231	70.38
251.465	81.38
251.698	68.38
251.931	85.38
252.164	75.38
252.397	85.38
252.63	79.38
252.863	72.38
253.096	70.38
253.329	70.38
253.562	72.38
253.795	69.38
254.028	83.38
254.261	70.38
254.494	78.38
254.727	82.38
254.96	83.38
255.193	78.38
255.426	80.38
255.659	75.38
255.892	70.38
256.124	86.38
256.357	79.38
256.59	67.38
256.823	82.38
257.056	71.38
257.289	80.38
257.521	76.38
257.754	77.38
257.987	82.38
258.22	79.38
258.452	76.38
258.685	72.38
258.918	64.38
259.151	73.38
259.383	63.38
259.616	79.38
259.849	94.38
260.081	84.38
260.314	80.38
260.547	65.38
260.779	69.38
261.012	74.38
261.244	67.38
261.477	67.38
261.71	78.38
261.942	71.38
262.175	76.38
262.407	81.38
262.64	87.38
262.872	72.38
263.105	76.38
263.337	82.38
263.57	76.38
263.802	89.38
264.035	84.38
264.267	85.38
264.499	86.38
264.732	79.38
264.964	63.38
265.197	67.38
265.429	79.38
265.661	86.38
265.894	68.38
266.126	72.38
266.358	80.38
266.591	71.38
266.823	81.38
267.055	78.38
267.287	72.38
267.52	76.38
267.752	83.38
267.984	84.38
268.216	86.38
268.448	77.38
268.681	77.38
268.913	81.38
269.145	100.38
269.377	79.38
269.609	82.38
269.841	88.38
270.073	86.38
270.306	66.38
270.538	74.38
270.77	81.38
271.002	79.38
271.234	82.38
271.466	72.38
271.698	77.38
271.93	77.38
272.162	91.38
272.394	71.38
272.626	66.38
272.858	87.38
273.09	79.38
273.322	86.38
273.553	89.38
273.785	73.38
274.017	78.38
274.249	82.38
274.481	71.38
274.713	70.38
274.945	92.38
275.176	78.38
275.408	82.38
275.64	72.38
275.872	86.38
276.104	82.38
276.335	73.38
276.567	77.38
276.799	91.38
277.031	72.38
277.262	88.38
277.494	64.38
277.726	75.38
277.957	66.38
278.189	80.38
278.421	66.38
278.652	85.38
278.884	87.38
279.115	79.38
279.347	75.38
279.579	87.38
279.81	80.38
280.042	81.38
280.273	72.38
280.505	77.38
280.736	71.38
280.968	88.38
281.199	75.38
281.431	54.38
281.662	73.38
281.894	77.38
282.125	89.38
282.356	83.38
282.588	86.38
282.819	75.38
283.051	72.38
283.282	77.38
283.513	79.38
283.745	82.38
283.976	75.38
284.207	80.38
284.439	83.38
284.67	72.38
284.901	76.38
285.132	78.38
285.364	78.38
285.595	74.38
285.826	84.38
286.057	89.38
286.288	60.38
286.52	69.38
286.751	71.38
286.982	85.38
287.213	87.38
287.444	79.38
287.675	67.38
287.906	74.38
288.138	88.38
288.369	90.38
288.6	81.38
288.831	93.38
289.062	77.38
289.293	82.38
289.524	81.38
289.755	83.38
289.986	51.38
290.217	70.38
290.448	72.38
290.679	88.38
290.91	88.38
291.141	76.38
291.371	78.38
291.602	80.38
291.833	84.38
292.064	84.38
292.295	90.38
292.526	74.38
292.757	88.38
292.987	79.38
293.218	88.38
293.449	70.38
293.68	79.38
293.91	79.38
294.141	87.38
294.372	86.38
294.603	74.38
294.833	82.38
295.064	81.38
295.295	75.38
295.525	75.38
295.756	80.38
295.987	81.38
296.217	83.38
296.448	73.38
296.679	87.38
296.909	83.38
297.14	83.38
297.37	80.38
297.601	91.38
297.831	87.38
298.062	103.38
298.292	93.38
298.523	88.38
298.753	83.38
298.984	72.38
299.214	77.38
299.445	78.38
299.675	75.38
299.905	78.38
300.136	79.38
300.366	81.38
300.597	90.38
300.827	79.38
301.057	80.38
301.288	90.38
301.518	102.38
301.748	79.38
301.979	80.38
302.209	87.38
302.439	82.38
302.669	83.38
302.9	83.38
303.13	66.38
303.36	71.38
303.59	68.38
303.82	80.38
304.051	76.38
304.281	81.38
304.511	78.38
304.741	78.38
304.971	77.38
305.201	81.38
305.431	75.38
305.661	78.38
305.891	77.38
306.121	73.38
306.352	88.38
306.582	91.38
306.812	81.38
307.042	78.38
307.272	87.38
307.502	79.38
307.731	78.38
307.961	84.38
308.191	74.38
308.421	72.38
308.651	70.38
308.881	82.38
309.111	91.38
309.341	84.38
309.571	81.38
309.8	89.38
310.03	68.38
310.26	81.38
310.49	79.38
310.72	89.38
310.949	96.38
311.179	92.38
311.409	74.38
311.639	66.38
311.868	84.38
312.098	80.38
312.328	84.38
312.557	75.38
312.787	87.38
313.017	69.38
313.246	82.38
313.476	80.38
313.706	79.38
313.935	86.38
314.165	80.38
314.394	82.38
314.624	75.38
314.853	90.38
315.083	82.38
315.312	88.38
315.542	107.38
315.771	80.38
316.001	73.38
316.23	77.38
316.46	77.38
316.689	86.38
316.919	94.38
317.148	63.38
317.377	70.38
317.607	78.38
317.836	73.38
318.065	83.38
318.295	86.38
318.524	75.38
318.753	86.38
318.983	80.38
319.212	87.38
319.441	73.38
319.67	80.38
319.9	80.38
320.129	87.38
320.358	90.38
320.587	91.38
320.816	82.38
321.046	83.38
321.275	74.38
321.504	74.38
321.733	91.38
321.962	80.38
322.191	74.38
322.42	85.38
322.649	72.38
322.878	83.38
323.108	89.38
323.337	96.38
323.566	80.38
323.795	84.38
324.024	83.38
324.253	77.38
324.482	69.38
324.71	77.38
324.939	85.38
325.168	85.38
325.397	82.38
325.626	85.38
325.855	64.38
326.084	86.38
326.313	90.38
326.542	84.38
326.77	88.38
326.999	91.38
327.228	89.38
327.457	82.38
327.686	93.38
327.914	75.38
328.143	77.38
328.372	84.38
328.6	76.38
328.829	71.38
329.058	90.38
329.287	92.38
329.515	79.38
329.744	79.38
329.972	75.38
330.201	82.38
330.43	85.38
330.658	84.38
330.887	74.38
331.115	82.38
331.344	88.38
331.572	97.38
331.801	81.38
332.03	77.38
332.258	77.38
332.486	85.38
332.715	80.38
332.943	78.38
333.172	83.38
333.4	73.38
333.629	84.38
333.857	83.38
334.085	77.38
334.314	86.38
334.542	86.38
334.771	90.38
334.999	79.38
335.227	89.38
335.455	81.38
335.684	88.38
335.912	84.38
336.14	69.38
336.369	81.38
336.597	75.38
336.825	88.38
337.053	82.38
337.281	75.38
337.51	83.38
337.738	74.38
337.966	77.38
338.194	81.38
338.422	75.38
338.65	85.38
338.878	82.38
339.106	72.38
339.334	94.38
339.562	73.38
339.79	88.38
340.018	84.38
340.246	79.38
340.474	83.38
340.702	78.38
340.93	79.38
341.158	82.38
341.386	74.38
341.614	71.38
341.842	72.38
342.07	82.38
342.298	82.38
342.526	71.38
342.754	73.38
342.981	83.38
343.209	72.38
343.437	82.38
343.665	82.38
343.893	74.38
344.12	72.38
344.348	76.38
344.576	85.38
344.804	81.38
345.031	76.38
345.259	94.38
345.487	80.38
345.714	81.38
345.942	68.38
346.17	95.38
346.397	88.38
346.625	79.38
346.853	85.38
347.08	83.38
347.308	88.38
347.535	73.38
347.763	85.38
347.99	83.38
348.218	72.38
348.445	86.38
348.673	84.38
348.9	89.38
349.128	80.38
349.355	92.38
349.583	76.38
349.81	86.38
350.037	85.38
350.265	71.38
350.492	92.38
350.72	95.38
350.947	76.38
351.174	86.38
351.402	78.38
351.629	83.38
351.856	93.38
352.083	83.38
352.311	82.38
352.538	85.38
352.765	77.38
352.992	78.38
353.22	77.38
353.447	92.38
353.674	88.38
353.901	83.38
354.128	88.38
354.355	71.38
354.583	86.38
354.81	72.38
355.037	93.38
355.264	85.38
355.491	74.38
355.718	83.38
355.945	75.38
356.172	78.38
356.399	66.38
356.626	86.38
356.853	88.38
357.08	85.38
357.307	85.38
357.534	84.38
357.761	83.38
357.988	79.38
358.215	74.38
358.441	76.38
358.668	80.38
358.895	84.38
359.122	69.38
359.349	78.38
359.576	64.38
359.802	77.38
360.029	75.38
360.256	77.38
360.483	99.38
360.709	90.38
360.936	76.38
361.163	76.38
361.39	83.38
361.616	78.38
361.843	88.38
362.07	85.38
362.296	93.38
362.523	87.38
362.749	82.38
362.976	82.38
363.203	89.38
363.429	76.38
363.656	72.38
363.882	80.38
364.109	88.38
364.335	90.38
364.562	71.38
364.788	71.38
365.015	85.38
365.241	82.38
365.468	74.38
365.694	87.38
365.92	86.38
366.147	67.38
366.373	86.38
366.599	87.38
366.826	89.38
367.052	91.38
367.278	94.38
367.505	74.38
367.731	82.38
367.957	75.38
368.184	74.38
368.41	80.38
368.636	83.38
368.862	77.38
369.089	80.38
369.315	73.38
369.541	84.38
369.767	73.38
369.993	82.38
370.219	82.38
370.445	90.38
370.672	86.38
370.898	77.38
371.124	84.38
371.35	81.38
371.576	70.38
371.802	74.38
372.028	82.38
372.254	78.38
372.48	95.38
372.706	85.38
372.932	80.38
373.158	93.38
373.384	87.38
373.61	85.38
373.835	67.38
374.061	83.38
374.287	77.38
374.513	73.38
374.739	82.38
374.965	75.38
375.191	82.38
375.416	86.38
375.642	80.38
375.868	81.38
376.094	75.38
376.319	78.38
376.545	71.38
376.771	82.38
376.997	84.38
377.222	85.38
377.448	80.38
377.674	83.38
377.899	88.38
378.125	86.38
378.35	75.38
378.576	88.38
378.802	68.38
379.027	90.38
379.253	86.38
379.478	89.38
379.704	87.38
379.929	79.38
380.155	78.38
380.38	74.38
380.606	77.38
380.831	78.38
381.057	75.38
381.282	90.38
381.507	90.38
381.733	81.38
381.958	84.38
382.184	85.38
382.409	76.38
382.634	84.38
382.86	84.38
383.085	87.38
383.31	81.38
383.535	82.38
383.761	80.38
383.986	85.38
384.211	89.38
384.436	94.38
384.662	80.38
384.887	78.38
385.112	71.38
385.337	84.38
385.562	85.38
385.787	84.38
386.013	81.38
386.238	89.38
386.463	90.38
386.688	85.38
386.913	73.38
387.138	88.38
387.363	89.38
387.588	82.38
387.813	79.38
388.038	61.38
388.263	68.38
388.488	79.38
388.713	82.38
388.938	81.38
389.163	71.38
389.387	70.38
389.612	87.38
389.837	83.38
390.062	92.38
390.287	97.38
390.512	81.38
390.736	76.38
390.961	87.38
391.186	82.38
391.411	70.38
391.636	91.38
391.86	83.38
392.085	93.38
392.31	80.38
392.534	81.38
392.759	80.38
392.984	83.38
393.208	79.38
393.433	77.38
393.658	74.38
393.882	88.38
394.107	87.38
394.331	87.38
394.556	90.38
394.78	82.38
395.005	74.38
395.229	92.38
395.454	81.38
395.678	88.38
395.903	87.38
396.127	85.38
396.352	78.38
396.576	77.38
396.801	99.38
397.025	82.38
397.249	80.38
397.474	92.38
397.698	88.38
397.922	97.38
398.147	78.38
398.371	78.38
398.595	83.38
398.82	85.38
399.044	89.38
399.268	88.38
399.492	85.38
399.717	81.38
399.941	81.38
400.165	86.38
400.389	81.38
400.613	86.38
400.837	67.38
401.062	84.38
401.286	95.38
401.51	79.38
401.734	68.38
401.958	83.38
402.182	89.38
402.406	98.38
402.63	97.38
402.854	86.38
403.078	101.38
403.302	87.38
403.526	75.38
403.75	90.38
403.974	76.38
404.198	75.38
404.422	90.38
404.645	85.38
404.869	85.38
405.093	84.38
405.317	76.38
405.541	97.38
405.765	91.38
405.988	90.38
406.212	87.38
406.436	83.38
406.66	98.38
406.883	95.38
407.107	91.38
407.331	81.38
407.555	79.38
407.778	93.38
408.002	80.38
408.226	98.38
408.449	96.38
408.673	91.38
408.896	78.38
409.12	80.38
409.344	82.38
409.567	94.38
409.791	100.38
410.014	102.38
410.238	90.38
410.461	80.38
410.685	97.38
410.908	86.38
411.132	83.38
411.355	91.38
411.578	94.38
411.802	88.38
412.025	73.38
412.249	93.38
412.472	85.38
412.695	94.38
412.919	97.38
413.142	85.38
413.365	86.38
413.589	90.38
413.812	76.38
414.035	79.38
414.258	81.38
414.482	86.38
414.705	83.38
414.928	84.38
415.151	82.38
415.374	84.38
415.597	83.38
415.821	86.38
416.044	103.38
416.267	91.38
416.49	95.38
416.713	91.38
416.936	103.38
417.159	87.38
417.382	92.38
417.605	70.38
417.828	86.38
418.051	94.38
418.274	86.38
418.497	87.38
418.72	92.38
418.943	78.38
419.166	82.38
419.389	86.38
419.611	98.38
419.834	84.38
420.057	91.38
420.28	99.38
420.503	98.38
420.726	100.38
420.948	102.38
421.171	88.38
421.394	104.38
421.617	94.38
421.839	95.38
422.062	88.38
422.285	86.38
422.507	87.38
422.73	78.38
422.953	99.38
423.175	83.38
423.398	97.38
423.621	96.38
423.843	109.38
424.066	83.38
424.288	90.38
424.511	114.38
424.733	96.38
424.956	92.38
425.178	80.38
425.401	92.38
425.623	96.38
425.846	99.38
426.068	98.38
426.291	84.38
426.513	79.38
426.735	90.38
426.958	106.38
427.18	111.38
427.402	92.38
427.625	99.38
427.847	99.38
428.069	98.38
428.292	95.38
428.514	100.38
428.736	87.38
428.958	79.38
429.181	87.38
429.403	93.38
429.625	90.38
429.847	85.38
430.069	96.38
430.292	94.38
430.514	102.38
430.736	103.38
430.958	101.38
431.18	90.38
431.402	93.38
431.624	82.38
431.846	95.38
432.068	85.38
432.29	74.38
432.512	97.38
432.734	91.38
432.956	94.38
433.178	90.38
433.4	89.38
433.622	99.38
433.844	86.38
434.066	82.38
434.287	79.38
434.509	86.38
434.731	88.38
434.953	68.38
435.175	77.38
435.397	78.38
435.618	88.38
435.84	75.38
436.062	91.38
436.284	116.38
436.505	103.38
436.727	93.38
436.949	95.38
437.17	98.38
437.392	92.38
437.614	100.38
437.835	87.38
438.057	92.38
438.278	76.38
438.5	69.38
438.721	104.38
438.943	97.38
439.165	102.38
439.386	86.38
439.608	90.38
439.829	87.38
440.05	95.38
440.272	99.38
440.493	91.38
440.715	83.38
440.936	87.38
441.158	92.38
441.379	91.38
441.6	92.38
441.822	96.38
442.043	92.38
442.264	90.38
442.486	75.38
442.707	76.38
442.928	108.38
443.149	85.38
443.371	82.38
443.592	97.38
443.813	86.38
444.034	92.38
444.255	83.38
444.476	103.38
444.698	96.38
444.919	89.38
445.14	208.38
445.361	122.38
445.582	79.38
445.803	106.38
446.024	110.38
446.245	94.38
446.466	90.38
446.687	91.38
446.908	110.38
447.129	103.38
447.35	93.38
447.571	91.38
447.792	84.38
448.013	90.38
448.234	97.38
448.455	85.38
448.675	79.38
448.896	85.38
449.117	86.38
449.338	91.38
449.559	90.38
449.779	98.38
450	91.38
450.221	103.38
450.442	95.38
450.662	101.38
450.883	96.38
451.104	86.38
451.324	85.38
451.545	95.38
451.766	84.38
451.986	79.38
452.207	92.38
452.428	100.38
452.648	90.38
452.869	80.38
453.089	101.38
453.31	78.38
453.53	71.38
453.751	81.38
453.971	82.38
454.192	85.38
454.412	76.38
454.633	91.38
454.853	94.38
455.073	93.38
455.294	94.38
455.514	92.38
455.734	78.38
455.955	75.38
456.175	79.38
456.395	75.38
456.616	82.38
456.836	83.38
457.056	85.38
457.276	81.38
457.497	86.38
457.717	88.38
457.937	82.38
458.157	84.38
458.377	93.38
458.598	85.38
458.818	87.38
459.038	56.38
459.258	81.38
459.478	68.38
459.698	91.38
459.918	78.38
460.138	90.38
460.358	91.38
460.578	81.38
460.798	85.38
461.018	80.38
461.238	94.38
461.458	92.38
461.678	77.38
461.898	91.38
462.118	87.38
462.338	86.38
462.558	88.38
462.777	93.38
462.997	82.38
463.217	90.38
463.437	104.38
463.657	85.38
463.876	94.38
464.096	84.38
464.316	88.38
464.536	82.38
464.755	81.38
464.975	107.38
465.195	77.38
465.414	87.38
465.634	96.38
465.854	89.38
466.073	84.38
466.293	88.38
466.512	83.38
466.732	88.38
466.951	95.38
467.171	91.38
467.391	97.38
467.61	83.38
467.829	93.38
468.049	100.38
468.268	90.38
468.488	85.38
468.707	95.38
468.927	83.38
469.146	87.38
469.365	106.38
469.585	73.38
469.804	97.38
470.023	89.38
470.243	91.38
470.462	99.38
470.681	109.38
470.901	96.38
471.12	93.38
471.339	89.38
471.558	93.38
471.777	88.38
471.997	83.38
472.216	88.38
472.435	82.38
472.654	98.38
472.873	83.38
473.092	95.38
473.311	96.38
473.53	87.38
473.749	88.38
473.968	77.38
474.187	87.38
474.406	105.38
474.625	84.38
474.844	101.38
475.063	89.38
475.282	91.38
475.501	83.38
475.72	81.38
475.939	85.38
476.158	93.38
476.377	93.38
476.596	80.38
476.814	75.38
477.033	72.38
477.252	85.38
477.471	98.38
477.69	89.38
477.908	91.38
478.127	100.38
478.346	99.38
478.564	88.38
478.783	88.38
479.002	91.38
479.22	88.38
479.439	92.38
479.658	95.38
479.876	92.38
480.095	78.38
480.313	86.38
480.532	79.38
480.751	88.38
480.969	65.38
481.188	76.38
481.406	84.38
481.624	98.38
481.843	77.38
482.061	93.38
482.28	90.38
482.498	79.38
482.717	93.38
482.935	94.38
483.153	106.38
483.372	92.38
483.59	78.38
483.808	87.38
484.027	87.38
484.245	87.38
484.463	91.38
484.681	79.38
484.9	90.38
485.118	111.38
485.336	85.38
485.554	91.38
485.772	65.38
485.99	74.38
486.209	87.38
486.427	80.38
486.645	77.38
486.863	98.38
487.081	95.38
487.299	88.38
487.517	87.38
487.735	85.38
487.953	102.38
488.171	106.38
488.389	108.38
488.607	99.38
488.825	111.38
489.043	84.38
489.261	89.38
489.479	101.38
489.696	81.38
489.914	95.38
490.132	91.38
490.35	103.38
490.568	98.38
490.786	117.38
491.003	114.38
491.221	116.38
491.439	114.38
491.657	102.38
491.874	122.38
492.092	118.38
492.31	105.38
492.527	120.38
492.745	106.38
492.963	115.38
493.18	122.38
493.398	98.38
493.615	96.38
493.833	106.38
494.05	101.38
494.268	106.38
494.485	102.38
494.703	104.38
494.92	96.38
495.138	99.38
495.355	101.38
495.573	114.38
495.79	109.38
496.008	83.38
496.225	114.38
496.442	90.38
496.66	108.38
496.877	116.38
497.094	91.38
497.312	92.38
497.529	95.38
497.746	103.38
497.963	79.38
498.181	94.38
498.398	92.38
498.615	88.38
498.832	94.38
499.049	89.38
499.267	86.38
499.484	102.38
499.701	83.38
499.918	93.38
500.135	99.38
500.352	102.38
500.569	97.38
500.786	95.38
501.003	96.38
501.22	107.38
501.437	80.38
501.654	82.38
501.871	88.38
502.088	86.38
502.305	80.38
502.522	108.38
502.739	82.38
502.956	93.38
503.172	97.38
503.389	103.38
503.606	95.38
503.823	103.38
504.04	80.38
504.256	100.38
504.473	90.38
504.69	81.38
504.907	83.38
505.123	86.38
505.34	91.38
505.557	98.38
505.773	90.38
505.99	82.38
506.207	96.38
506.423	90.38
506.64	84.38
506.856	96.38
507.073	97.38
507.289	95.38
507.506	97.38
507.722	68.38
507.939	110.38
508.155	97.38
508.372	76.38
508.588	82.38
508.805	78.38
509.021	72.38
509.238	67.38
509.454	91.38
509.67	89.38
509.887	79.38
510.103	79.38
510.319	90.38
510.536	83.38
510.752	101.38
510.968	73.38
511.184	73.38
511.401	76.38
511.617	67.38
511.833	70.38
512.049	83.38
512.265	75.38
512.481	97.38
512.698	92.38
512.914	83.38
513.13	85.38
513.346	77.38
513.562	83.38
513.778	88.38
513.994	85.38
514.21	67.38
514.426	86.38
514.642	81.38
514.858	77.38
515.074	101.38
515.29	89.38
515.506	67.38
515.721	91.38
515.937	85.38
516.153	73.38
516.369	80.38
516.585	83.38
516.801	91.38
517.016	82.38
517.232	69.38
517.448	81.38
517.664	88.38
517.879	84.38
518.095	84.38
518.311	83.38
518.527	86.38
518.742	88.38
518.958	86.38
519.173	83.38
519.389	89.38
519.605	82.38
519.82	89.38
520.036	83.38
520.251	82.38
520.467	86.38
520.682	72.38
520.898	74.38
521.113	76.38
521.329	96.38
521.544	95.38
521.76	82.38
521.975	80.38
522.19	78.38
522.406	77.38
522.621	79.38
522.836	83.38
523.052	79.38
523.267	68.38
523.482	82.38
523.698	98.38
523.913	102.38
524.128	90.38
524.343	82.38
524.559	86.38
524.774	94.38
524.989	81.38
525.204	110.38
525.419	100.38
525.634	84.38
525.849	77.38
526.064	83.38
526.28	74.38
526.495	84.38
526.71	78.38
526.925	72.38
527.14	79.38
527.355	83.38
527.57	70.38
527.785	88.38
527.999	78.38
528.214	89.38
528.429	106.38
528.644	83.38
528.859	106.38
529.074	93.38
529.289	88.38
529.503	103.38
529.718	94.38
529.933	92.38
530.148	86.38
530.363	82.38
530.577	80.38
530.792	79.38
531.007	76.38
531.221	94.38
531.436	78.38
531.651	77.38
531.865	85.38
532.08	79.38
532.295	75.38
532.509	78.38
532.724	94.38
532.938	91.38
533.153	92.38
533.367	88.38
533.582	92.38
533.796	95.38
534.011	93.38
534.225	85.38
534.44	81.38
534.654	82.38
534.868	73.38
535.083	78.38
535.297	89.38
535.511	100.38
535.726	83.38
535.94	85.38
536.154	93.38
536.369	83.38
536.583	76.38
536.797	82.38
537.011	59.38
537.225	70.38
537.44	72.38
537.654	79.38
537.868	94.38
538.082	88.38
538.296	103.38
538.51	83.38
538.724	92.38
538.938	89.38
539.153	90.38
539.367	85.38
539.581	92.38
539.795	68.38
540.009	87.38
540.222	92.38
540.436	95.38
540.65	83.38
540.864	96.38
541.078	111.38
541.292	99.38
541.506	92.38
541.72	114.38
541.934	102.38
542.147	122.38
542.361	115.38
542.575	115.38
542.789	105.38
543.002	90.38
543.216	93.38
543.43	94.38
543.644	93.38
543.857	101.38
544.071	106.38
544.285	105.38
544.498	94.38
544.712	95.38
544.925	111.38
545.139	98.38
545.352	103.38
545.566	91.38
545.779	116.38
545.993	103.38
546.206	112.38
546.42	112.38
546.633	119.38
546.847	113.38
547.06	109.38
547.274	102.38
547.487	113.38
547.7	112.38
547.914	114.38
548.127	110.38
548.34	104.38
548.554	110.38
548.767	108.38
548.98	93.38
549.193	111.38
549.407	107.38
549.62	99.38
549.833	95.38
550.046	99.38
550.259	98.38
550.473	93.38
550.686	96.38
550.899	102.38
551.112	99.38
551.325	100.38
551.538	89.38
551.751	95.38
551.964	80.38
552.177	97.38
552.39	95.38
552.603	106.38
552.816	103.38
553.029	107.38
553.242	119.38
553.455	110.38
553.667	122.38
553.88	95.38
554.093	92.38
554.306	101.38
554.519	95.38
554.732	99.38
554.944	108.38
555.157	89.38
555.37	102.38
555.583	92.38
555.795	108.38
556.008	99.38
556.221	83.38
556.433	91.38
556.646	101.38
556.859	90.38
557.071	94.38
557.284	92.38
557.496	107.38
557.709	98.38
557.921	91.38
558.134	102.38
558.346	95.38
558.559	86.38
558.771	103.38
558.984	101.38
559.196	90.38
559.409	89.38
559.621	94.38
559.833	95.38
560.046	98.38
560.258	86.38
560.47	103.38
560.683	89.38
560.895	88.38
561.107	101.38
561.32	85.38
561.532	107.38
561.744	98.38
561.956	96.38
562.168	87.38
562.381	92.38
562.593	110.38
562.805	78.38
563.017	86.38
563.229	90.38
563.441	91.38
563.653	107.38
563.865	97.38
564.077	79.38
564.289	91.38
564.501	87.38
564.713	88.38
564.925	91.38
565.137	86.38
565.349	95.38
565.561	96.38
565.773	93.38
565.985	90.38
566.197	82.38
566.408	107.38
566.62	94.38
566.832	90.38
567.044	90.38
567.255	83.38
567.467	88.38
567.679	94.38
567.891	93.38
568.102	88.38
568.314	85.38
568.526	79.38
568.737	56.38
568.949	77.38
569.161	72.38
569.372	88.38
569.584	76.38
569.795	81.38
570.007	79.38
570.218	83.38
570.43	83.38
570.641	83.38
570.853	69.38
571.064	94.38
571.276	95.38
571.487	91.38
571.698	93.38
571.91	86.38
572.121	85.38
572.333	95.38
572.544	97.38
572.755	78.38
572.966	72.38
573.178	90.38
573.389	84.38
573.6	73.38
573.811	76.38
574.023	82.38
574.234	72.38
574.445	87.38
574.656	76.38
574.867	71.38
575.078	84.38
575.289	69.38
575.501	73.38
575.712	83.38
575.923	84.38
576.134	81.38
576.345	98.38
576.556	82.38
576.767	82.38
576.978	98.38
577.188	76.38
577.399	79.38
577.61	79.38
577.821	106.38
578.032	92.38
578.243	84.38
578.454	81.38
578.665	82.38
578.875	87.38
579.086	69.38
579.297	68.38
579.508	58.38
579.718	80.38
579.929	95.38
580.14	91.38
580.35	95.38
580.561	91.38
580.772	89.38
580.982	84.38
581.193	86.38
581.403	77.38
581.614	75.38
581.825	79.38
582.035	74.38
582.246	69.38
582.456	90.38
582.667	90.38
582.877	72.38
583.087	90.38
583.298	83.38
583.508	70.38
583.719	79.38
583.929	80.38
584.139	73.38
584.35	86.38
584.56	76.38
584.77	76.38
584.981	75.38
585.191	93.38
585.401	82.38
585.611	78.38
585.821	74.38
586.032	72.38
586.242	80.38
586.452	84.38
586.662	79.38
586.872	66.38
587.082	76.38
587.292	85.38
587.502	76.38
587.713	79.38
587.923	84.38
588.133	79.38
588.343	70.38
588.553	74.38
588.762	81.38
588.972	77.38
589.182	77.38
589.392	75.38
589.602	72.38
589.812	79.38
590.022	67.38
590.232	83.38
590.441	88.38
590.651	80.38
590.861	93.38
591.071	83.38
591.281	74.38
591.49	74.38
591.7	80.38
591.91	80.38
592.119	81.38
592.329	89.38
592.539	77.38
592.748	91.38
592.958	93.38
593.167	83.38
593.377	69.38
593.587	88.38
593.796	74.38
594.006	96.38
594.215	78.38
594.424	83.38
594.634	87.38
594.843	86.38
595.053	95.38
595.262	89.38
595.472	88.38
595.681	86.38
595.89	66.38
596.1	85.38
596.309	100.38
596.518	82.38
596.727	76.38
596.937	89.38
597.146	86.38
597.355	90.38
597.564	82.38
597.774	80.38
597.983	82.38
598.192	68.38
598.401	76.38
598.61	73.38
598.819	85.38
599.028	83.38
599.237	82.38
599.446	81.38
599.655	83.38
599.864	94.38
600.073	82.38
600.282	90.38
600.491	77.38
600.7	80.38
600.909	89.38
601.118	94.38
601.327	96.38
601.536	71.38
601.745	76.38
601.953	86.38
602.162	88.38
602.371	76.38
602.58	93.38
602.789	98.38
602.997	93.38
603.206	86.38
603.415	80.38
603.623	78.38
603.832	83.38
604.041	82.38
604.249	83.38
604.458	95.38
604.666	93.38
604.875	79.38
605.084	93.38
605.292	90.38
605.501	90.38
605.709	86.38
605.918	68.38
606.126	77.38
606.334	92.38
606.543	84.38
606.751	73.38
606.96	98.38
607.168	84.38
607.376	86.38
607.585	97.38
607.793	92.38
608.001	90.38
608.21	107.38
608.418	79.38
608.626	99.38
608.834	103.38
609.043	98.38
609.251	88.38
609.459	107.38
609.667	94.38
609.875	106.38
610.083	102.38
610.291	80.38
610.499	76.38
610.707	94.38
610.916	92.38
611.124	97.38
611.332	91.38
611.54	77.38
611.748	82.38
611.955	93.38
612.163	93.38
612.371	108.38
612.579	103.38
612.787	78.38
612.995	98.38
613.203	92.38
613.411	95.38
613.618	94.38
613.826	95.38
614.034	89.38
614.242	103.38
614.449	94.38
614.657	87.38
614.865	92.38
615.072	94.38
615.28	98.38
615.488	92.38
615.695	102.38
615.903	79.38
616.111	92.38
616.318	100.38
616.526	83.38
616.733	88.38
616.941	84.38
617.148	106.38
617.356	92.38
617.563	91.38
617.771	96.38
617.978	83.38
618.185	85.38
618.393	81.38
618.6	93.38
618.807	82.38
619.015	87.38
619.222	83.38
619.429	78.38
619.637	73.38
619.844	82.38
620.051	85.38
620.258	90.38
620.466	93.38
620.673	93.38
620.88	91.38
621.087	80.38
621.294	88.38
621.501	80.38
621.708	88.38
621.915	93.38
622.122	88.38
622.329	101.38
622.536	101.38
622.743	83.38
622.95	89.38
623.157	87.38
623.364	89.38
623.571	109.38
623.778	88.38
623.985	89.38
624.192	94.38
624.399	89.38
624.606	82.38
624.812	94.38
625.019	82.38
625.226	91.38
625.433	89.38
625.639	89.38
625.846	81.38
626.053	75.38
626.259	88.38
626.466	85.38
626.673	91.38
626.879	79.38
627.086	80.38
627.293	87.38
627.499	95.38
627.706	91.38
627.912	79.38
628.119	94.38
628.325	83.38
628.532	82.38
628.738	85.38
628.945	87.38
629.151	83.38
629.357	80.38
629.564	79.38
629.77	90.38
629.976	79.38
630.183	91.38
630.389	76.38
630.595	82.38
630.802	78.38
631.008	98.38
631.214	92.38
631.42	95.38
631.627	92.38
631.833	89.38
632.039	93.38
632.245	97.38
632.451	79.38
632.657	84.38
632.863	83.38
633.069	86.38
633.275	89.38
633.481	82.38
633.688	87.38
633.893	91.38
634.099	93.38
634.305	73.38
634.511	82.38
634.717	76.38
634.923	77.38
635.129	102.38
635.335	94.38
635.541	69.38
635.747	85.38
635.952	80.38
636.158	85.38
636.364	94.38
636.57	78.38
636.775	87.38
636.981	91.38
637.187	86.38
637.392	88.38
637.598	90.38
637.804	104.38
638.009	94.38
638.215	92.38
638.421	70.38
638.626	78.38
638.832	90.38
639.037	66.38
639.243	87.38
639.448	80.38
639.654	80.38
639.859	85.38
640.065	94.38
640.27	93.38
640.475	67.38
640.681	68.38
640.886	87.38
641.091	80.38
641.297	96.38
641.502	81.38
641.707	72.38
641.913	88.38
642.118	86.38
642.323	85.38
642.528	74.38
642.733	91.38
642.939	91.38
643.144	90.38
643.349	75.38
643.554	91.38
643.759	85.38
643.964	90.38
644.169	74.38
644.374	84.38
644.579	85.38
644.784	81.38
644.989	82.38
645.194	94.38
645.399	71.38
645.604	86.38
645.809	83.38
646.014	97.38
646.219	74.38
646.423	76.38
646.628	91.38
646.833	67.38
647.038	78.38
647.243	85.38
647.447	75.38
647.652	84.38
647.857	83.38
648.062	82.38
648.266	100.38
648.471	87.38
648.676	87.38
648.88	72.38
649.085	88.38
649.289	88.38
649.494	90.38
649.698	92.38
649.903	84.38
650.107	86.38
650.312	85.38
650.516	90.38
650.721	82.38
650.925	90.38
651.13	87.38
651.334	96.38
651.539	78.38
651.743	76.38
651.947	90.38
652.152	87.38
652.356	90.38
652.56	78.38
652.764	83.38
652.969	94.38
653.173	80.38
653.377	81.38
653.581	71.38
653.785	66.38
653.99	83.38
654.194	80.38
654.398	79.38
654.602	79.38
654.806	70.38
655.01	85.38
655.214	68.38
655.418	98.38
655.622	71.38
655.826	87.38
656.03	88.38
656.234	87.38
656.438	72.38
656.642	82.38
656.846	80.38
657.049	82.38
657.253	87.38
657.457	79.38
657.661	90.38
657.865	81.38
658.068	85.38
658.272	82.38
658.476	85.38
658.68	70.38
658.883	77.38
659.087	68.38
659.291	77.38
659.494	84.38
659.698	79.38
659.901	69.38
660.105	92.38
660.309	91.38
660.512	79.38
660.716	88.38
660.919	80.38
661.123	86.38
661.326	80.38
661.53	83.38
661.733	75.38
661.936	75.38
662.14	83.38
662.343	68.38
662.546	86.38
662.75	73.38
662.953	94.38
663.156	88.38
663.36	77.38
663.563	86.38
663.766	84.38
663.969	80.38
664.173	79.38
664.376	86.38
664.579	71.38
664.782	67.38
664.985	86.38
665.188	83.38
665.391	72.38
665.594	76.38
665.797	80.38
666	76.38
666.203	79.38
666.406	66.38
666.609	76.38
666.812	82.38
667.015	78.38
667.218	75.38
667.421	70.38
667.624	77.38
667.827	74.38
668.03	84.38
668.232	72.38
668.435	77.38
668.638	72.38
668.841	76.38
669.043	79.38
669.246	68.38
669.449	78.38
669.651	69.38
669.854	77.38
670.057	82.38
670.259	73.38
670.462	77.38
670.665	83.38
670.867	87.38
671.07	72.38
671.272	70.38
671.475	85.38
671.677	72.38
671.88	78.38
672.082	82.38
672.284	89.38
672.487	81.38
672.689	70.38
672.892	81.38
