Data from Location3.07152019.Energy5.Lamp.07192019.3%Agarose_HRD10591_15-18-01-270.txt Node
Date: Fri Jul 19 15:18:01 EDT 2019
User: cochatt
Spectrometer: HR+D1059
Trigger mode: 1
Integration Time (sec): 1.000000E-1
Scans to average: 1
Electric dark correction enabled: true
Nonlinearity correction enabled: false
Boxcar width: 0
XAxis mode: Wavelengths
Number of Pixels in Spectrum: 2048
>>>>>Begin Spectral Data<<<<<
223.165	-12.25
223.4	-12.25
223.635	-12.25
223.869	-24.25
224.104	-23.25
224.338	-17.25
224.573	-3.25
224.808	-24.25
225.042	-10.25
225.277	-6.25
225.511	-14.25
225.746	-5.25
225.98	12.75
226.215	16.75
226.449	22.75
226.683	32.75
226.918	27.75
227.152	27.75
227.387	29.75
227.621	39.75
227.856	53.75
228.09	45.75
228.324	57.75
228.559	55.75
228.793	56.75
229.027	57.75
229.262	69.75
229.496	77.75
229.73	66.75
229.964	83.75
230.199	65.75
230.433	83.75
230.667	87.75
230.901	84.75
231.136	65.75
231.37	73.75
231.604	84.75
231.838	67.75
232.072	85.75
232.306	74.75
232.541	73.75
232.775	71.75
233.009	94.75
233.243	91.75
233.477	73.75
233.711	89.75
233.945	96.75
234.179	92.75
234.413	74.75
234.647	70.75
234.881	77.75
235.115	68.75
235.349	89.75
235.583	76.75
235.817	69.75
236.051	83.75
236.285	82.75
236.519	89.75
236.753	83.75
236.987	73.75
237.221	74.75
237.455	88.75
237.689	82.75
237.922	74.75
238.156	89.75
238.39	85.75
238.624	87.75
238.858	68.75
239.091	69.75
239.325	78.75
239.559	79.75
239.793	85.75
240.027	84.75
240.26	87.75
240.494	74.75
240.728	81.75
240.961	76.75
241.195	93.75
241.429	90.75
241.662	75.75
241.896	75.75
242.13	68.75
242.363	73.75
242.597	77.75
242.83	86.75
243.064	66.75
243.298	82.75
243.531	82.75
243.765	71.75
243.998	60.75
244.232	72.75
244.465	72.75
244.699	83.75
244.932	95.75
245.166	74.75
245.399	69.75
245.633	91.75
245.866	75.75
246.099	75.75
246.333	85.75
246.566	77.75
246.8	79.75
247.033	82.75
247.266	83.75
247.5	69.75
247.733	76.75
247.966	72.75
248.2	89.75
248.433	83.75
248.666	68.75
248.899	76.75
249.133	76.75
249.366	100.75
249.599	85.75
249.832	63.75
250.066	87.75
250.299	82.75
250.532	76.75
250.765	73.75
250.998	88.75
251.231	83.75
251.465	83.75
251.698	87.75
251.931	77.75
252.164	89.75
252.397	80.75
252.63	77.75
252.863	79.75
253.096	69.75
253.329	83.75
253.562	91.75
253.795	68.75
254.028	71.75
254.261	74.75
254.494	59.75
254.727	79.75
254.96	81.75
255.193	76.75
255.426	81.75
255.659	85.75
255.892	84.75
256.124	89.75
256.357	79.75
256.59	83.75
256.823	84.75
257.056	72.75
257.289	82.75
257.521	91.75
257.754	92.75
257.987	94.75
258.22	84.75
258.452	79.75
258.685	92.75
258.918	100.75
259.151	77.75
259.383	69.75
259.616	79.75
259.849	73.75
260.081	87.75
260.314	82.75
260.547	93.75
260.779	84.75
261.012	76.75
261.244	97.75
261.477	90.75
261.71	88.75
261.942	84.75
262.175	80.75
262.407	71.75
262.64	81.75
262.872	79.75
263.105	89.75
263.337	85.75
263.57	94.75
263.802	85.75
264.035	81.75
264.267	80.75
264.499	91.75
264.732	84.75
264.964	84.75
265.197	88.75
265.429	91.75
265.661	84.75
265.894	79.75
266.126	86.75
266.358	80.75
266.591	74.75
266.823	77.75
267.055	76.75
267.287	82.75
267.52	101.75
267.752	77.75
267.984	82.75
268.216	88.75
268.448	73.75
268.681	96.75
268.913	72.75
269.145	75.75
269.377	90.75
269.609	79.75
269.841	77.75
270.073	75.75
270.306	97.75
270.538	80.75
270.77	84.75
271.002	81.75
271.234	82.75
271.466	74.75
271.698	84.75
271.93	83.75
272.162	85.75
272.394	82.75
272.626	78.75
272.858	85.75
273.09	85.75
273.322	89.75
273.553	77.75
273.785	77.75
274.017	90.75
274.249	77.75
274.481	102.75
274.713	88.75
274.945	87.75
275.176	85.75
275.408	84.75
275.64	76.75
275.872	76.75
276.104	81.75
276.335	84.75
276.567	79.75
276.799	88.75
277.031	77.75
277.262	91.75
277.494	72.75
277.726	83.75
277.957	86.75
278.189	70.75
278.421	69.75
278.652	80.75
278.884	92.75
279.115	74.75
279.347	98.75
279.579	87.75
279.81	89.75
280.042	90.75
280.273	83.75
280.505	85.75
280.736	84.75
280.968	78.75
281.199	80.75
281.431	82.75
281.662	80.75
281.894	97.75
282.125	84.75
282.356	94.75
282.588	88.75
282.819	78.75
283.051	88.75
283.282	81.75
283.513	84.75
283.745	77.75
283.976	83.75
284.207	72.75
284.439	90.75
284.67	90.75
284.901	92.75
285.132	81.75
285.364	88.75
285.595	92.75
285.826	78.75
286.057	92.75
286.288	88.75
286.52	78.75
286.751	85.75
286.982	83.75
287.213	88.75
287.444	81.75
287.675	76.75
287.906	91.75
288.138	90.75
288.369	86.75
288.6	75.75
288.831	87.75
289.062	85.75
289.293	68.75
289.524	89.75
289.755	82.75
289.986	78.75
290.217	79.75
290.448	69.75
290.679	81.75
290.91	81.75
291.141	74.75
291.371	82.75
291.602	90.75
291.833	77.75
292.064	82.75
292.295	91.75
292.526	87.75
292.757	88.75
292.987	77.75
293.218	86.75
293.449	89.75
293.68	77.75
293.91	83.75
294.141	84.75
294.372	85.75
294.603	91.75
294.833	80.75
295.064	95.75
295.295	85.75
295.525	69.75
295.756	83.75
295.987	86.75
296.217	89.75
296.448	89.75
296.679	80.75
296.909	80.75
297.14	85.75
297.37	78.75
297.601	86.75
297.831	81.75
298.062	97.75
298.292	81.75
298.523	76.75
298.753	85.75
298.984	96.75
299.214	77.75
299.445	77.75
299.675	81.75
299.905	101.75
300.136	90.75
300.366	86.75
300.597	79.75
300.827	78.75
301.057	80.75
301.288	90.75
301.518	77.75
301.748	85.75
301.979	95.75
302.209	84.75
302.439	78.75
302.669	93.75
302.9	86.75
303.13	86.75
303.36	86.75
303.59	76.75
303.82	83.75
304.051	76.75
304.281	75.75
304.511	83.75
304.741	95.75
304.971	84.75
305.201	87.75
305.431	70.75
305.661	73.75
305.891	75.75
306.121	77.75
306.352	85.75
306.582	81.75
306.812	85.75
307.042	85.75
307.272	81.75
307.502	91.75
307.731	89.75
307.961	79.75
308.191	75.75
308.421	75.75
308.651	88.75
308.881	84.75
309.111	82.75
309.341	83.75
309.571	83.75
309.8	94.75
310.03	91.75
310.26	71.75
310.49	81.75
310.72	90.75
310.949	84.75
311.179	101.75
311.409	93.75
311.639	82.75
311.868	83.75
312.098	92.75
312.328	80.75
312.557	74.75
312.787	68.75
313.017	85.75
313.246	84.75
313.476	76.75
313.706	69.75
313.935	80.75
314.165	77.75
314.394	77.75
314.624	92.75
314.853	83.75
315.083	76.75
315.312	73.75
315.542	89.75
315.771	88.75
316.001	87.75
316.23	76.75
316.46	99.75
316.689	92.75
316.919	102.75
317.148	84.75
317.377	91.75
317.607	81.75
317.836	101.75
318.065	102.75
318.295	91.75
318.524	106.75
318.753	89.75
318.983	87.75
319.212	76.75
319.441	75.75
319.67	92.75
319.9	78.75
320.129	87.75
320.358	97.75
320.587	85.75
320.816	78.75
321.046	88.75
321.275	92.75
321.504	79.75
321.733	92.75
321.962	75.75
322.191	89.75
322.42	79.75
322.649	87.75
322.878	91.75
323.108	75.75
323.337	88.75
323.566	89.75
323.795	84.75
324.024	72.75
324.253	92.75
324.482	85.75
324.71	65.75
324.939	94.75
325.168	76.75
325.397	83.75
325.626	88.75
325.855	84.75
326.084	71.75
326.313	86.75
326.542	87.75
326.77	85.75
326.999	80.75
327.228	90.75
327.457	95.75
327.686	80.75
327.914	91.75
328.143	75.75
328.372	94.75
328.6	88.75
328.829	89.75
329.058	91.75
329.287	88.75
329.515	96.75
329.744	70.75
329.972	83.75
330.201	98.75
330.43	81.75
330.658	78.75
330.887	84.75
331.115	84.75
331.344	85.75
331.572	90.75
331.801	82.75
332.03	73.75
332.258	74.75
332.486	99.75
332.715	95.75
332.943	84.75
333.172	81.75
333.4	71.75
333.629	71.75
333.857	90.75
334.085	84.75
334.314	88.75
334.542	97.75
334.771	88.75
334.999	77.75
335.227	85.75
335.455	111.75
335.684	88.75
335.912	87.75
336.14	80.75
336.369	85.75
336.597	78.75
336.825	96.75
337.053	93.75
337.281	70.75
337.51	88.75
337.738	83.75
337.966	82.75
338.194	84.75
338.422	71.75
338.65	83.75
338.878	86.75
339.106	78.75
339.334	88.75
339.562	84.75
339.79	81.75
340.018	65.75
340.246	87.75
340.474	95.75
340.702	83.75
340.93	90.75
341.158	75.75
341.386	85.75
341.614	65.75
341.842	85.75
342.07	87.75
342.298	73.75
342.526	74.75
342.754	94.75
342.981	91.75
343.209	79.75
343.437	87.75
343.665	81.75
343.893	85.75
344.12	73.75
344.348	74.75
344.576	91.75
344.804	87.75
345.031	95.75
345.259	81.75
345.487	86.75
345.714	85.75
345.942	85.75
346.17	80.75
346.397	77.75
346.625	82.75
346.853	80.75
347.08	76.75
347.308	85.75
347.535	78.75
347.763	83.75
347.99	68.75
348.218	76.75
348.445	85.75
348.673	76.75
348.9	87.75
349.128	85.75
349.355	75.75
349.583	93.75
349.81	90.75
350.037	69.75
350.265	82.75
350.492	86.75
350.72	65.75
350.947	83.75
351.174	88.75
351.402	91.75
351.629	72.75
351.856	92.75
352.083	75.75
352.311	69.75
352.538	88.75
352.765	85.75
352.992	94.75
353.22	84.75
353.447	83.75
353.674	81.75
353.901	87.75
354.128	81.75
354.355	87.75
354.583	96.75
354.81	77.75
355.037	83.75
355.264	70.75
355.491	75.75
355.718	70.75
355.945	82.75
356.172	78.75
356.399	77.75
356.626	76.75
356.853	87.75
357.08	76.75
357.307	88.75
357.534	79.75
357.761	75.75
357.988	81.75
358.215	90.75
358.441	73.75
358.668	93.75
358.895	83.75
359.122	87.75
359.349	89.75
359.576	67.75
359.802	77.75
360.029	96.75
360.256	94.75
360.483	91.75
360.709	84.75
360.936	83.75
361.163	89.75
361.39	87.75
361.616	84.75
361.843	76.75
362.07	81.75
362.296	86.75
362.523	85.75
362.749	72.75
362.976	84.75
363.203	82.75
363.429	75.75
363.656	93.75
363.882	82.75
364.109	84.75
364.335	84.75
364.562	91.75
364.788	81.75
365.015	78.75
365.241	77.75
365.468	89.75
365.694	95.75
365.92	75.75
366.147	92.75
366.373	103.75
366.599	91.75
366.826	82.75
367.052	92.75
367.278	93.75
367.505	75.75
367.731	95.75
367.957	76.75
368.184	82.75
368.41	71.75
368.636	90.75
368.862	92.75
369.089	85.75
369.315	77.75
369.541	104.75
369.767	92.75
369.993	87.75
370.219	92.75
370.445	63.75
370.672	81.75
370.898	89.75
371.124	88.75
371.35	83.75
371.576	84.75
371.802	86.75
372.028	81.75
372.254	83.75
372.48	74.75
372.706	83.75
372.932	95.75
373.158	78.75
373.384	88.75
373.61	75.75
373.835	87.75
374.061	77.75
374.287	94.75
374.513	95.75
374.739	90.75
374.965	85.75
375.191	93.75
375.416	84.75
375.642	90.75
375.868	90.75
376.094	89.75
376.319	76.75
376.545	99.75
376.771	91.75
376.997	83.75
377.222	84.75
377.448	84.75
377.674	82.75
377.899	76.75
378.125	73.75
378.35	88.75
378.576	81.75
378.802	70.75
379.027	93.75
379.253	75.75
379.478	89.75
379.704	93.75
379.929	89.75
380.155	76.75
380.38	86.75
380.606	84.75
380.831	100.75
381.057	93.75
381.282	79.75
381.507	90.75
381.733	82.75
381.958	94.75
382.184	83.75
382.409	89.75
382.634	76.75
382.86	73.75
383.085	82.75
383.31	94.75
383.535	81.75
383.761	84.75
383.986	72.75
384.211	88.75
384.436	89.75
384.662	91.75
384.887	81.75
385.112	89.75
385.337	71.75
385.562	89.75
385.787	79.75
386.013	95.75
386.238	102.75
386.463	87.75
386.688	75.75
386.913	89.75
387.138	84.75
387.363	86.75
387.588	93.75
387.813	91.75
388.038	91.75
388.263	95.75
388.488	81.75
388.713	90.75
388.938	92.75
389.163	86.75
389.387	93.75
389.612	88.75
389.837	88.75
390.062	74.75
390.287	83.75
390.512	96.75
390.736	76.75
390.961	96.75
391.186	83.75
391.411	100.75
391.636	73.75
391.86	71.75
392.085	88.75
392.31	80.75
392.534	84.75
392.759	86.75
392.984	86.75
393.208	72.75
393.433	95.75
393.658	85.75
393.882	78.75
394.107	97.75
394.331	92.75
394.556	81.75
394.78	89.75
395.005	78.75
395.229	79.75
395.454	86.75
395.678	60.75
395.903	99.75
396.127	92.75
396.352	92.75
396.576	87.75
396.801	91.75
397.025	85.75
397.249	78.75
397.474	89.75
397.698	86.75
397.922	90.75
398.147	79.75
398.371	88.75
398.595	91.75
398.82	72.75
399.044	69.75
399.268	82.75
399.492	95.75
399.717	78.75
399.941	92.75
400.165	77.75
400.389	87.75
400.613	84.75
400.837	91.75
401.062	86.75
401.286	85.75
401.51	89.75
401.734	77.75
401.958	91.75
402.182	89.75
402.406	86.75
402.63	82.75
402.854	96.75
403.078	80.75
403.302	83.75
403.526	83.75
403.75	97.75
403.974	88.75
404.198	97.75
404.422	98.75
404.645	83.75
404.869	98.75
405.093	83.75
405.317	85.75
405.541	82.75
405.765	83.75
405.988	78.75
406.212	79.75
406.436	84.75
406.66	72.75
406.883	74.75
407.107	88.75
407.331	79.75
407.555	88.75
407.778	94.75
408.002	97.75
408.226	97.75
408.449	101.75
408.673	86.75
408.896	93.75
409.12	83.75
409.344	83.75
409.567	81.75
409.791	81.75
410.014	88.75
410.238	84.75
410.461	108.75
410.685	94.75
410.908	91.75
411.132	87.75
411.355	92.75
411.578	107.75
411.802	101.75
412.025	94.75
412.249	79.75
412.472	92.75
412.695	93.75
412.919	108.75
413.142	98.75
413.365	100.75
413.589	86.75
413.812	91.75
414.035	89.75
414.258	98.75
414.482	83.75
414.705	95.75
414.928	95.75
415.151	107.75
415.374	81.75
415.597	95.75
415.821	108.75
416.044	100.75
416.267	80.75
416.49	97.75
416.713	91.75
416.936	86.75
417.159	84.75
417.382	86.75
417.605	93.75
417.828	99.75
418.051	84.75
418.274	115.75
418.497	92.75
418.72	78.75
418.943	100.75
419.166	82.75
419.389	96.75
419.611	103.75
419.834	96.75
420.057	88.75
420.28	109.75
420.503	97.75
420.726	107.75
420.948	92.75
421.171	90.75
421.394	99.75
421.617	83.75
421.839	88.75
422.062	81.75
422.285	106.75
422.507	99.75
422.73	94.75
422.953	83.75
423.175	98.75
423.398	93.75
423.621	80.75
423.843	90.75
424.066	89.75
424.288	90.75
424.511	95.75
424.733	111.75
424.956	95.75
425.178	90.75
425.401	94.75
425.623	99.75
425.846	90.75
426.068	100.75
426.291	101.75
426.513	89.75
426.735	88.75
426.958	85.75
427.18	106.75
427.402	89.75
427.625	97.75
427.847	95.75
428.069	92.75
428.292	92.75
428.514	83.75
428.736	81.75
428.958	81.75
429.181	88.75
429.403	111.75
429.625	84.75
429.847	96.75
430.069	91.75
430.292	95.75
430.514	97.75
430.736	103.75
430.958	89.75
431.18	87.75
431.402	93.75
431.624	95.75
431.846	105.75
432.068	83.75
432.29	94.75
432.512	94.75
432.734	91.75
432.956	90.75
433.178	84.75
433.4	93.75
433.622	86.75
433.844	91.75
434.066	97.75
434.287	82.75
434.509	63.75
434.731	82.75
434.953	83.75
435.175	79.75
435.397	97.75
435.618	90.75
435.84	83.75
436.062	108.75
436.284	106.75
436.505	105.75
436.727	89.75
436.949	100.75
437.17	102.75
437.392	87.75
437.614	84.75
437.835	72.75
438.057	85.75
438.278	90.75
438.5	94.75
438.721	89.75
438.943	97.75
439.165	97.75
439.386	111.75
439.608	83.75
439.829	87.75
440.05	107.75
440.272	88.75
440.493	99.75
440.715	108.75
440.936	90.75
441.158	91.75
441.379	104.75
441.6	83.75
441.822	89.75
442.043	98.75
442.264	98.75
442.486	108.75
442.707	86.75
442.928	104.75
443.149	93.75
443.371	100.75
443.592	97.75
443.813	109.75
444.034	112.75
444.255	92.75
444.476	105.75
444.698	94.75
444.919	92.75
445.14	201.75
445.361	133.75
445.582	106.75
445.803	100.75
446.024	103.75
446.245	103.75
446.466	99.75
446.687	100.75
446.908	93.75
447.129	91.75
447.35	96.75
447.571	99.75
447.792	98.75
448.013	103.75
448.234	101.75
448.455	106.75
448.675	96.75
448.896	95.75
449.117	85.75
449.338	86.75
449.559	113.75
449.779	101.75
450	98.75
450.221	101.75
450.442	95.75
450.662	91.75
450.883	103.75
451.104	95.75
451.324	90.75
451.545	95.75
451.766	98.75
451.986	97.75
452.207	88.75
452.428	90.75
452.648	89.75
452.869	104.75
453.089	93.75
453.31	97.75
453.53	109.75
453.751	93.75
453.971	73.75
454.192	91.75
454.412	90.75
454.633	104.75
454.853	89.75
455.073	91.75
455.294	81.75
455.514	88.75
455.734	96.75
455.955	97.75
456.175	93.75
456.395	88.75
456.616	81.75
456.836	76.75
457.056	102.75
457.276	89.75
457.497	90.75
457.717	90.75
457.937	75.75
458.157	103.75
458.377	85.75
458.598	82.75
458.818	77.75
459.038	87.75
459.258	89.75
459.478	76.75
459.698	85.75
459.918	73.75
460.138	96.75
460.358	90.75
460.578	91.75
460.798	96.75
461.018	98.75
461.238	82.75
461.458	92.75
461.678	83.75
461.898	104.75
462.118	87.75
462.338	82.75
462.558	93.75
462.777	88.75
462.997	84.75
463.217	89.75
463.437	103.75
463.657	89.75
463.876	86.75
464.096	88.75
464.316	90.75
464.536	81.75
464.755	95.75
464.975	94.75
465.195	75.75
465.414	88.75
465.634	89.75
465.854	99.75
466.073	100.75
466.293	102.75
466.512	119.75
466.732	97.75
466.951	87.75
467.171	87.75
467.391	99.75
467.61	97.75
467.829	99.75
468.049	88.75
468.268	98.75
468.488	85.75
468.707	95.75
468.927	96.75
469.146	94.75
469.365	92.75
469.585	97.75
469.804	111.75
470.023	91.75
470.243	92.75
470.462	91.75
470.681	93.75
470.901	85.75
471.12	99.75
471.339	105.75
471.558	103.75
471.777	109.75
471.997	109.75
472.216	92.75
472.435	94.75
472.654	81.75
472.873	84.75
473.092	103.75
473.311	94.75
473.53	88.75
473.749	100.75
473.968	79.75
474.187	85.75
474.406	100.75
474.625	90.75
474.844	92.75
475.063	97.75
475.282	97.75
475.501	89.75
475.72	99.75
475.939	101.75
476.158	91.75
476.377	83.75
476.596	87.75
476.814	94.75
477.033	84.75
477.252	89.75
477.471	81.75
477.69	104.75
477.908	105.75
478.127	107.75
478.346	98.75
478.564	96.75
478.783	92.75
479.002	96.75
479.22	96.75
479.439	88.75
479.658	96.75
479.876	94.75
480.095	80.75
480.313	96.75
480.532	94.75
480.751	95.75
480.969	77.75
481.188	86.75
481.406	78.75
481.624	76.75
481.843	91.75
482.061	83.75
482.28	83.75
482.498	100.75
482.717	77.75
482.935	92.75
483.153	103.75
483.372	97.75
483.59	95.75
483.808	104.75
484.027	103.75
484.245	95.75
484.463	106.75
484.681	99.75
484.9	103.75
485.118	108.75
485.336	97.75
485.554	82.75
485.772	80.75
485.99	103.75
486.209	78.75
486.427	84.75
486.645	86.75
486.863	101.75
487.081	94.75
487.299	83.75
487.517	96.75
487.735	107.75
487.953	119.75
488.171	120.75
488.389	119.75
488.607	93.75
488.825	102.75
489.043	101.75
489.261	96.75
489.479	120.75
489.696	92.75
489.914	98.75
490.132	94.75
490.35	95.75
490.568	113.75
490.786	108.75
491.003	120.75
491.221	98.75
491.439	108.75
491.657	112.75
491.874	115.75
492.092	127.75
492.31	129.75
492.527	122.75
492.745	120.75
492.963	118.75
493.18	124.75
493.398	112.75
493.615	115.75
493.833	103.75
494.05	99.75
494.268	100.75
494.485	102.75
494.703	109.75
494.92	118.75
495.138	104.75
495.355	91.75
495.573	97.75
495.79	93.75
496.008	100.75
496.225	113.75
496.442	99.75
496.66	118.75
496.877	114.75
497.094	122.75
497.312	105.75
497.529	103.75
497.746	112.75
497.963	104.75
498.181	100.75
498.398	87.75
498.615	101.75
498.832	92.75
499.049	78.75
499.267	105.75
499.484	100.75
499.701	103.75
499.918	98.75
500.135	113.75
500.352	101.75
500.569	98.75
500.786	118.75
501.003	115.75
501.22	108.75
501.437	100.75
501.654	92.75
501.871	101.75
502.088	108.75
502.305	97.75
502.522	75.75
502.739	90.75
502.956	100.75
503.172	94.75
503.389	89.75
503.606	95.75
503.823	98.75
504.04	104.75
504.256	114.75
504.473	93.75
504.69	93.75
504.907	105.75
505.123	92.75
505.34	95.75
505.557	95.75
505.773	89.75
505.99	91.75
506.207	96.75
506.423	104.75
506.64	100.75
506.856	98.75
507.073	66.75
507.289	97.75
507.506	81.75
507.722	95.75
507.939	95.75
508.155	86.75
508.372	75.75
508.588	83.75
508.805	87.75
509.021	87.75
509.238	89.75
509.454	101.75
509.67	103.75
509.887	84.75
510.103	88.75
510.319	96.75
510.536	86.75
510.752	75.75
510.968	98.75
511.184	84.75
511.401	84.75
511.617	91.75
511.833	73.75
512.049	93.75
512.265	79.75
512.481	87.75
512.698	90.75
512.914	100.75
513.13	78.75
513.346	90.75
513.562	90.75
513.778	80.75
513.994	94.75
514.21	99.75
514.426	82.75
514.642	90.75
514.858	80.75
515.074	83.75
515.29	85.75
515.506	92.75
515.721	99.75
515.937	95.75
516.153	68.75
516.369	86.75
516.585	93.75
516.801	69.75
517.016	79.75
517.232	76.75
517.448	93.75
517.664	85.75
517.879	82.75
518.095	90.75
518.311	83.75
518.527	79.75
518.742	78.75
518.958	91.75
519.173	77.75
519.389	85.75
519.605	105.75
519.82	108.75
520.036	87.75
520.251	81.75
520.467	86.75
520.682	87.75
520.898	82.75
521.113	85.75
521.329	84.75
521.544	91.75
521.76	82.75
521.975	77.75
522.19	83.75
522.406	88.75
522.621	91.75
522.836	84.75
523.052	79.75
523.267	84.75
523.482	90.75
523.698	99.75
523.913	90.75
524.128	91.75
524.343	95.75
524.559	95.75
524.774	88.75
524.989	89.75
525.204	104.75
525.419	101.75
525.634	79.75
525.849	98.75
526.064	95.75
526.28	78.75
526.495	86.75
526.71	95.75
526.925	80.75
527.14	87.75
527.355	95.75
527.57	87.75
527.785	76.75
527.999	92.75
528.214	85.75
528.429	85.75
528.644	84.75
528.859	104.75
529.074	109.75
529.289	134.75
529.503	103.75
529.718	99.75
529.933	99.75
530.148	73.75
530.363	89.75
530.577	74.75
530.792	71.75
531.007	80.75
531.221	76.75
531.436	91.75
531.651	81.75
531.865	65.75
532.08	70.75
532.295	80.75
532.509	90.75
532.724	80.75
532.938	91.75
533.153	77.75
533.367	90.75
533.582	89.75
533.796	89.75
534.011	101.75
534.225	85.75
534.44	83.75
534.654	78.75
534.868	103.75
535.083	104.75
535.297	103.75
535.511	93.75
535.726	98.75
535.94	100.75
536.154	92.75
536.369	90.75
536.583	87.75
536.797	90.75
537.011	89.75
537.225	83.75
537.44	81.75
537.654	88.75
537.868	98.75
538.082	91.75
538.296	80.75
538.51	105.75
538.724	97.75
538.938	109.75
539.153	99.75
539.367	93.75
539.581	82.75
539.795	97.75
540.009	98.75
540.222	76.75
540.436	77.75
540.65	92.75
540.864	109.75
541.078	103.75
541.292	112.75
541.506	123.75
541.72	108.75
541.934	119.75
542.147	121.75
542.361	117.75
542.575	113.75
542.789	102.75
543.002	95.75
543.216	92.75
543.43	96.75
543.644	105.75
543.857	112.75
544.071	113.75
544.285	105.75
544.498	115.75
544.712	105.75
544.925	117.75
545.139	123.75
545.352	108.75
545.566	112.75
545.779	101.75
545.993	109.75
546.206	114.75
546.42	113.75
546.633	117.75
546.847	120.75
547.06	113.75
547.274	114.75
547.487	106.75
547.7	113.75
547.914	111.75
548.127	106.75
548.34	100.75
548.554	116.75
548.767	106.75
548.98	97.75
549.193	103.75
549.407	107.75
549.62	111.75
549.833	118.75
550.046	109.75
550.259	105.75
550.473	117.75
550.686	117.75
550.899	99.75
551.112	103.75
551.325	96.75
551.538	94.75
551.751	86.75
551.964	112.75
552.177	111.75
552.39	105.75
552.603	117.75
552.816	101.75
553.029	105.75
553.242	113.75
553.455	103.75
553.667	101.75
553.88	98.75
554.093	108.75
554.306	118.75
554.519	106.75
554.732	109.75
554.944	115.75
555.157	93.75
555.37	96.75
555.583	96.75
555.795	99.75
556.008	117.75
556.221	97.75
556.433	94.75
556.646	97.75
556.859	108.75
557.071	101.75
557.284	108.75
557.496	119.75
557.709	92.75
557.921	102.75
558.134	111.75
558.346	107.75
558.559	91.75
558.771	96.75
558.984	104.75
559.196	101.75
559.409	90.75
559.621	101.75
559.833	96.75
560.046	81.75
560.258	85.75
560.47	105.75
560.683	111.75
560.895	110.75
561.107	99.75
561.32	96.75
561.532	98.75
561.744	100.75
561.956	100.75
562.168	96.75
562.381	84.75
562.593	96.75
562.805	90.75
563.017	93.75
563.229	100.75
563.441	96.75
563.653	102.75
563.865	85.75
564.077	103.75
564.289	87.75
564.501	91.75
564.713	107.75
564.925	90.75
565.137	104.75
565.349	93.75
565.561	87.75
565.773	99.75
565.985	95.75
566.197	83.75
566.408	83.75
566.62	87.75
566.832	109.75
567.044	104.75
567.255	100.75
567.467	94.75
567.679	97.75
567.891	93.75
568.102	99.75
568.314	84.75
568.526	68.75
568.737	100.75
568.949	104.75
569.161	96.75
569.372	83.75
569.584	85.75
569.795	73.75
570.007	89.75
570.218	84.75
570.43	85.75
570.641	88.75
570.853	71.75
571.064	96.75
571.276	95.75
571.487	98.75
571.698	95.75
571.91	86.75
572.121	83.75
572.333	88.75
572.544	74.75
572.755	73.75
572.966	91.75
573.178	83.75
573.389	77.75
573.6	95.75
573.811	90.75
574.023	74.75
574.234	84.75
574.445	90.75
574.656	90.75
574.867	89.75
575.078	101.75
575.289	91.75
575.501	87.75
575.712	97.75
575.923	100.75
576.134	81.75
576.345	89.75
576.556	84.75
576.767	86.75
576.978	84.75
577.188	81.75
577.399	87.75
577.61	93.75
577.821	89.75
578.032	77.75
578.243	89.75
578.454	96.75
578.665	92.75
578.875	76.75
579.086	98.75
579.297	85.75
579.508	77.75
579.718	96.75
579.929	87.75
580.14	77.75
580.35	83.75
580.561	77.75
580.772	93.75
580.982	92.75
581.193	91.75
581.403	92.75
581.614	94.75
581.825	85.75
582.035	91.75
582.246	86.75
582.456	97.75
582.667	94.75
582.877	89.75
583.087	89.75
583.298	88.75
583.508	89.75
583.719	95.75
583.929	102.75
584.139	89.75
584.35	77.75
584.56	95.75
584.77	88.75
584.981	95.75
585.191	82.75
585.401	84.75
585.611	83.75
585.821	84.75
586.032	87.75
586.242	87.75
586.452	86.75
586.662	87.75
586.872	83.75
587.082	90.75
587.292	87.75
587.502	100.75
587.713	83.75
587.923	88.75
588.133	87.75
588.343	92.75
588.553	77.75
588.762	101.75
588.972	93.75
589.182	91.75
589.392	92.75
589.602	71.75
589.812	89.75
590.022	82.75
590.232	85.75
590.441	96.75
590.651	82.75
590.861	71.75
591.071	79.75
591.281	84.75
591.49	72.75
591.7	73.75
591.91	86.75
592.119	84.75
592.329	81.75
592.539	87.75
592.748	86.75
592.958	89.75
593.167	91.75
593.377	78.75
593.587	89.75
593.796	111.75
594.006	88.75
594.215	78.75
594.424	84.75
594.634	84.75
594.843	81.75
595.053	81.75
595.262	83.75
595.472	76.75
595.681	76.75
595.89	93.75
596.1	91.75
596.309	67.75
596.518	84.75
596.727	87.75
596.937	81.75
597.146	92.75
597.355	96.75
597.564	84.75
597.774	82.75
597.983	84.75
598.192	71.75
598.401	91.75
598.61	73.75
598.819	92.75
599.028	100.75
599.237	93.75
599.446	89.75
599.655	97.75
599.864	68.75
600.073	83.75
600.282	99.75
600.491	88.75
600.7	74.75
600.909	97.75
601.118	76.75
601.327	89.75
601.536	81.75
601.745	73.75
601.953	92.75
602.162	92.75
602.371	97.75
602.58	81.75
602.789	93.75
602.997	91.75
603.206	98.75
603.415	87.75
603.623	88.75
603.832	91.75
604.041	83.75
604.249	93.75
604.458	76.75
604.666	93.75
604.875	74.75
605.084	86.75
605.292	77.75
605.501	98.75
605.709	85.75
605.918	78.75
606.126	112.75
606.334	78.75
606.543	92.75
606.751	96.75
606.96	105.75
607.168	106.75
607.376	95.75
607.585	108.75
607.793	96.75
608.001	86.75
608.21	96.75
608.418	80.75
608.626	100.75
608.834	98.75
609.043	97.75
609.251	77.75
609.459	81.75
609.667	100.75
609.875	112.75
610.083	87.75
610.291	89.75
610.499	97.75
610.707	88.75
610.916	100.75
611.124	103.75
611.332	103.75
611.54	94.75
611.748	86.75
611.955	98.75
612.163	91.75
612.371	98.75
612.579	86.75
612.787	93.75
612.995	98.75
613.203	94.75
613.411	103.75
613.618	91.75
613.826	98.75
614.034	75.75
614.242	87.75
614.449	88.75
614.657	88.75
614.865	88.75
615.072	111.75
615.28	88.75
615.488	84.75
615.695	95.75
615.903	99.75
616.111	80.75
616.318	99.75
616.526	97.75
616.733	84.75
616.941	79.75
617.148	89.75
617.356	98.75
617.563	84.75
617.771	90.75
617.978	93.75
618.185	96.75
618.393	80.75
618.6	90.75
618.807	93.75
619.015	86.75
619.222	102.75
619.429	84.75
619.637	83.75
619.844	100.75
620.051	77.75
620.258	79.75
620.466	85.75
620.673	89.75
620.88	90.75
621.087	80.75
621.294	83.75
621.501	100.75
621.708	85.75
621.915	97.75
622.122	77.75
622.329	106.75
622.536	86.75
622.743	87.75
622.95	88.75
623.157	90.75
623.364	92.75
623.571	92.75
623.778	93.75
623.985	75.75
624.192	92.75
624.399	93.75
624.606	84.75
624.812	80.75
625.019	82.75
625.226	89.75
625.433	83.75
625.639	100.75
625.846	89.75
626.053	78.75
626.259	84.75
626.466	91.75
626.673	88.75
626.879	91.75
627.086	87.75
627.293	85.75
627.499	89.75
627.706	86.75
627.912	84.75
628.119	93.75
628.325	74.75
628.532	86.75
628.738	75.75
628.945	83.75
629.151	90.75
629.357	87.75
629.564	100.75
629.77	86.75
629.976	91.75
630.183	93.75
630.389	85.75
630.595	73.75
630.802	96.75
631.008	88.75
631.214	83.75
631.42	72.75
631.627	104.75
631.833	88.75
632.039	89.75
632.245	91.75
632.451	91.75
632.657	88.75
632.863	87.75
633.069	92.75
633.275	82.75
633.481	103.75
633.688	70.75
633.893	94.75
634.099	99.75
634.305	64.75
634.511	83.75
634.717	78.75
634.923	84.75
635.129	77.75
635.335	73.75
635.541	77.75
635.747	78.75
635.952	91.75
636.158	92.75
636.364	91.75
636.57	82.75
636.775	76.75
636.981	91.75
637.187	96.75
637.392	87.75
637.598	85.75
637.804	90.75
638.009	85.75
638.215	85.75
638.421	84.75
638.626	83.75
638.832	88.75
639.037	85.75
639.243	77.75
639.448	88.75
639.654	89.75
639.859	94.75
640.065	89.75
640.27	113.75
640.475	92.75
640.681	84.75
640.886	95.75
641.091	97.75
641.297	100.75
641.502	105.75
641.707	83.75
641.913	102.75
642.118	87.75
642.323	83.75
642.528	84.75
642.733	78.75
642.939	93.75
643.144	77.75
643.349	77.75
643.554	84.75
643.759	77.75
643.964	89.75
644.169	93.75
644.374	95.75
644.579	98.75
644.784	84.75
644.989	74.75
645.194	89.75
645.399	83.75
645.604	89.75
645.809	85.75
646.014	97.75
646.219	75.75
646.423	93.75
646.628	89.75
646.833	96.75
647.038	97.75
647.243	97.75
647.447	85.75
647.652	89.75
647.857	80.75
648.062	92.75
648.266	87.75
648.471	80.75
648.676	98.75
648.88	93.75
649.085	89.75
649.289	92.75
649.494	84.75
649.698	91.75
649.903	76.75
650.107	97.75
650.312	82.75
650.516	85.75
650.721	96.75
650.925	93.75
651.13	86.75
651.334	92.75
651.539	98.75
651.743	91.75
651.947	91.75
652.152	92.75
652.356	87.75
652.56	81.75
652.764	83.75
652.969	101.75
653.173	96.75
653.377	87.75
653.581	86.75
653.785	92.75
653.99	89.75
654.194	84.75
654.398	90.75
654.602	89.75
654.806	88.75
655.01	96.75
655.214	84.75
655.418	89.75
655.622	73.75
655.826	90.75
656.03	89.75
656.234	83.75
656.438	79.75
656.642	81.75
656.846	84.75
657.049	87.75
657.253	93.75
657.457	82.75
657.661	67.75
657.865	83.75
658.068	82.75
658.272	84.75
658.476	86.75
658.68	81.75
658.883	82.75
659.087	77.75
659.291	81.75
659.494	84.75
659.698	85.75
659.901	86.75
660.105	71.75
660.309	77.75
660.512	80.75
660.716	87.75
660.919	83.75
661.123	85.75
661.326	91.75
661.53	76.75
661.733	78.75
661.936	91.75
662.14	83.75
662.343	87.75
662.546	76.75
662.75	86.75
662.953	87.75
663.156	72.75
663.36	83.75
663.563	79.75
663.766	87.75
663.969	83.75
664.173	76.75
664.376	81.75
664.579	67.75
664.782	94.75
664.985	80.75
665.188	97.75
665.391	80.75
665.594	82.75
665.797	90.75
666	80.75
666.203	88.75
666.406	75.75
666.609	79.75
666.812	79.75
667.015	79.75
667.218	82.75
667.421	81.75
667.624	83.75
667.827	71.75
668.03	81.75
668.232	82.75
668.435	88.75
668.638	79.75
668.841	83.75
669.043	75.75
669.246	75.75
669.449	83.75
669.651	101.75
669.854	86.75
670.057	87.75
670.259	79.75
670.462	75.75
670.665	81.75
670.867	73.75
671.07	66.75
671.272	76.75
671.475	80.75
671.677	85.75
671.88	91.75
672.082	74.75
672.284	76.75
672.487	73.75
672.689	83.75
672.892	75.75
