Data from Location3.07152019.Energy5.Lamp.07192019.3%Agarose_HRD10591_15-19-30-270.txt Node
Date: Fri Jul 19 15:19:30 EDT 2019
User: cochatt
Spectrometer: HR+D1059
Trigger mode: 1
Integration Time (sec): 1.000000E-1
Scans to average: 1
Electric dark correction enabled: true
Nonlinearity correction enabled: false
Boxcar width: 0
XAxis mode: Wavelengths
Number of Pixels in Spectrum: 2048
>>>>>Begin Spectral Data<<<<<
223.165	0.06
223.4	0.06
223.635	0.06
223.869	-19.94
224.104	-14.94
224.338	-8.94
224.573	-19.94
224.808	-20.94
225.042	-21.94
225.277	-1.94
225.511	-4.94
225.746	5.06
225.98	3.06
226.215	4.06
226.449	17.06
226.683	21.06
226.918	26.06
227.152	37.06
227.387	22.06
227.621	40.06
227.856	43.06
228.09	50.06
228.324	49.06
228.559	40.06
228.793	55.06
229.027	73.06
229.262	63.06
229.496	73.06
229.73	64.06
229.964	73.06
230.199	85.06
230.433	74.06
230.667	72.06
230.901	86.06
231.136	76.06
231.37	91.06
231.604	83.06
231.838	84.06
232.072	78.06
232.306	75.06
232.541	72.06
232.775	88.06
233.009	82.06
233.243	84.06
233.477	88.06
233.711	81.06
233.945	76.06
234.179	77.06
234.413	88.06
234.647	73.06
234.881	81.06
235.115	85.06
235.349	82.06
235.583	92.06
235.817	83.06
236.051	82.06
236.285	67.06
236.519	79.06
236.753	75.06
236.987	74.06
237.221	77.06
237.455	80.06
237.689	58.06
237.922	82.06
238.156	72.06
238.39	75.06
238.624	89.06
238.858	73.06
239.091	71.06
239.325	64.06
239.559	91.06
239.793	81.06
240.027	85.06
240.26	87.06
240.494	70.06
240.728	66.06
240.961	81.06
241.195	83.06
241.429	85.06
241.662	83.06
241.896	75.06
242.13	81.06
242.363	81.06
242.597	82.06
242.83	69.06
243.064	75.06
243.298	73.06
243.531	89.06
243.765	82.06
243.998	79.06
244.232	90.06
244.465	81.06
244.699	70.06
244.932	80.06
245.166	87.06
245.399	69.06
245.633	83.06
245.866	88.06
246.099	87.06
246.333	81.06
246.566	70.06
246.8	75.06
247.033	84.06
247.266	75.06
247.5	87.06
247.733	79.06
247.966	75.06
248.2	85.06
248.433	89.06
248.666	84.06
248.899	90.06
249.133	92.06
249.366	86.06
249.599	81.06
249.832	82.06
250.066	90.06
250.299	83.06
250.532	81.06
250.765	76.06
250.998	74.06
251.231	66.06
251.465	104.06
251.698	84.06
251.931	66.06
252.164	87.06
252.397	80.06
252.63	74.06
252.863	84.06
253.096	70.06
253.329	79.06
253.562	74.06
253.795	77.06
254.028	71.06
254.261	79.06
254.494	65.06
254.727	87.06
254.96	96.06
255.193	82.06
255.426	74.06
255.659	79.06
255.892	74.06
256.124	80.06
256.357	75.06
256.59	74.06
256.823	82.06
257.056	67.06
257.289	74.06
257.521	87.06
257.754	88.06
257.987	74.06
258.22	97.06
258.452	80.06
258.685	81.06
258.918	80.06
259.151	80.06
259.383	78.06
259.616	84.06
259.849	84.06
260.081	92.06
260.314	83.06
260.547	87.06
260.779	88.06
261.012	86.06
261.244	76.06
261.477	84.06
261.71	80.06
261.942	96.06
262.175	81.06
262.407	89.06
262.64	73.06
262.872	82.06
263.105	87.06
263.337	71.06
263.57	75.06
263.802	90.06
264.035	96.06
264.267	84.06
264.499	83.06
264.732	89.06
264.964	82.06
265.197	73.06
265.429	74.06
265.661	81.06
265.894	75.06
266.126	88.06
266.358	91.06
266.591	78.06
266.823	88.06
267.055	96.06
267.287	68.06
267.52	73.06
267.752	83.06
267.984	77.06
268.216	79.06
268.448	86.06
268.681	90.06
268.913	84.06
269.145	89.06
269.377	78.06
269.609	90.06
269.841	88.06
270.073	81.06
270.306	87.06
270.538	90.06
270.77	82.06
271.002	72.06
271.234	71.06
271.466	65.06
271.698	83.06
271.93	88.06
272.162	92.06
272.394	88.06
272.626	69.06
272.858	73.06
273.09	81.06
273.322	96.06
273.553	86.06
273.785	97.06
274.017	83.06
274.249	85.06
274.481	85.06
274.713	87.06
274.945	83.06
275.176	68.06
275.408	88.06
275.64	90.06
275.872	83.06
276.104	90.06
276.335	87.06
276.567	93.06
276.799	85.06
277.031	80.06
277.262	81.06
277.494	94.06
277.726	100.06
277.957	91.06
278.189	79.06
278.421	91.06
278.652	80.06
278.884	89.06
279.115	84.06
279.347	78.06
279.579	84.06
279.81	78.06
280.042	89.06
280.273	96.06
280.505	95.06
280.736	75.06
280.968	84.06
281.199	85.06
281.431	84.06
281.662	87.06
281.894	86.06
282.125	96.06
282.356	81.06
282.588	71.06
282.819	86.06
283.051	77.06
283.282	85.06
283.513	81.06
283.745	83.06
283.976	92.06
284.207	84.06
284.439	84.06
284.67	83.06
284.901	94.06
285.132	87.06
285.364	93.06
285.595	77.06
285.826	77.06
286.057	78.06
286.288	95.06
286.52	93.06
286.751	85.06
286.982	80.06
287.213	86.06
287.444	93.06
287.675	78.06
287.906	87.06
288.138	95.06
288.369	95.06
288.6	67.06
288.831	95.06
289.062	91.06
289.293	85.06
289.524	81.06
289.755	70.06
289.986	81.06
290.217	91.06
290.448	75.06
290.679	89.06
290.91	84.06
291.141	91.06
291.371	84.06
291.602	87.06
291.833	103.06
292.064	84.06
292.295	85.06
292.526	95.06
292.757	99.06
292.987	85.06
293.218	81.06
293.449	98.06
293.68	97.06
293.91	85.06
294.141	76.06
294.372	85.06
294.603	93.06
294.833	85.06
295.064	95.06
295.295	86.06
295.525	74.06
295.756	72.06
295.987	76.06
296.217	81.06
296.448	91.06
296.679	93.06
296.909	72.06
297.14	93.06
297.37	82.06
297.601	84.06
297.831	71.06
298.062	100.06
298.292	88.06
298.523	94.06
298.753	90.06
298.984	89.06
299.214	100.06
299.445	88.06
299.675	99.06
299.905	97.06
300.136	91.06
300.366	70.06
300.597	82.06
300.827	90.06
301.057	87.06
301.288	76.06
301.518	81.06
301.748	91.06
301.979	83.06
302.209	83.06
302.439	85.06
302.669	95.06
302.9	83.06
303.13	91.06
303.36	93.06
303.59	85.06
303.82	94.06
304.051	99.06
304.281	97.06
304.511	74.06
304.741	90.06
304.971	90.06
305.201	76.06
305.431	90.06
305.661	73.06
305.891	84.06
306.121	79.06
306.352	77.06
306.582	83.06
306.812	82.06
307.042	91.06
307.272	90.06
307.502	85.06
307.731	92.06
307.961	112.06
308.191	92.06
308.421	83.06
308.651	94.06
308.881	77.06
309.111	81.06
309.341	88.06
309.571	84.06
309.8	90.06
310.03	91.06
310.26	88.06
310.49	80.06
310.72	86.06
310.949	95.06
311.179	71.06
311.409	88.06
311.639	91.06
311.868	87.06
312.098	92.06
312.328	88.06
312.557	81.06
312.787	97.06
313.017	83.06
313.246	77.06
313.476	88.06
313.706	89.06
313.935	85.06
314.165	76.06
314.394	77.06
314.624	96.06
314.853	73.06
315.083	76.06
315.312	94.06
315.542	95.06
315.771	78.06
316.001	81.06
316.23	84.06
316.46	57.06
316.689	86.06
316.919	81.06
317.148	99.06
317.377	96.06
317.607	87.06
317.836	91.06
318.065	87.06
318.295	85.06
318.524	71.06
318.753	81.06
318.983	89.06
319.212	80.06
319.441	93.06
319.67	83.06
319.9	86.06
320.129	72.06
320.358	84.06
320.587	81.06
320.816	96.06
321.046	87.06
321.275	89.06
321.504	88.06
321.733	61.06
321.962	83.06
322.191	79.06
322.42	73.06
322.649	76.06
322.878	63.06
323.108	80.06
323.337	83.06
323.566	95.06
323.795	77.06
324.024	71.06
324.253	83.06
324.482	92.06
324.71	99.06
324.939	80.06
325.168	87.06
325.397	82.06
325.626	91.06
325.855	88.06
326.084	88.06
326.313	90.06
326.542	88.06
326.77	89.06
326.999	80.06
327.228	87.06
327.457	96.06
327.686	101.06
327.914	88.06
328.143	91.06
328.372	82.06
328.6	80.06
328.829	85.06
329.058	76.06
329.287	75.06
329.515	63.06
329.744	76.06
329.972	88.06
330.201	83.06
330.43	84.06
330.658	88.06
330.887	88.06
331.115	91.06
331.344	97.06
331.572	81.06
331.801	92.06
332.03	88.06
332.258	89.06
332.486	75.06
332.715	91.06
332.943	88.06
333.172	69.06
333.4	67.06
333.629	95.06
333.857	81.06
334.085	86.06
334.314	81.06
334.542	85.06
334.771	77.06
334.999	85.06
335.227	81.06
335.455	81.06
335.684	91.06
335.912	93.06
336.14	76.06
336.369	78.06
336.597	75.06
336.825	99.06
337.053	79.06
337.281	93.06
337.51	91.06
337.738	87.06
337.966	87.06
338.194	86.06
338.422	93.06
338.65	83.06
338.878	80.06
339.106	85.06
339.334	85.06
339.562	87.06
339.79	92.06
340.018	88.06
340.246	80.06
340.474	68.06
340.702	83.06
340.93	96.06
341.158	89.06
341.386	81.06
341.614	86.06
341.842	87.06
342.07	80.06
342.298	92.06
342.526	89.06
342.754	77.06
342.981	77.06
343.209	89.06
343.437	84.06
343.665	76.06
343.893	77.06
344.12	80.06
344.348	84.06
344.576	88.06
344.804	85.06
345.031	94.06
345.259	75.06
345.487	87.06
345.714	92.06
345.942	84.06
346.17	84.06
346.397	93.06
346.625	89.06
346.853	76.06
347.08	85.06
347.308	87.06
347.535	78.06
347.763	89.06
347.99	79.06
348.218	84.06
348.445	90.06
348.673	95.06
348.9	72.06
349.128	86.06
349.355	82.06
349.583	91.06
349.81	79.06
350.037	87.06
350.265	85.06
350.492	76.06
350.72	88.06
350.947	103.06
351.174	84.06
351.402	91.06
351.629	80.06
351.856	81.06
352.083	86.06
352.311	85.06
352.538	75.06
352.765	99.06
352.992	79.06
353.22	79.06
353.447	79.06
353.674	82.06
353.901	83.06
354.128	74.06
354.355	72.06
354.583	83.06
354.81	83.06
355.037	80.06
355.264	76.06
355.491	87.06
355.718	82.06
355.945	87.06
356.172	86.06
356.399	76.06
356.626	76.06
356.853	81.06
357.08	81.06
357.307	85.06
357.534	82.06
357.761	81.06
357.988	81.06
358.215	93.06
358.441	96.06
358.668	77.06
358.895	81.06
359.122	81.06
359.349	72.06
359.576	84.06
359.802	88.06
360.029	68.06
360.256	89.06
360.483	95.06
360.709	80.06
360.936	90.06
361.163	82.06
361.39	76.06
361.616	91.06
361.843	94.06
362.07	78.06
362.296	85.06
362.523	76.06
362.749	94.06
362.976	87.06
363.203	108.06
363.429	72.06
363.656	84.06
363.882	87.06
364.109	77.06
364.335	93.06
364.562	95.06
364.788	77.06
365.015	76.06
365.241	85.06
365.468	94.06
365.694	77.06
365.92	96.06
366.147	73.06
366.373	77.06
366.599	81.06
366.826	85.06
367.052	77.06
367.278	88.06
367.505	107.06
367.731	93.06
367.957	80.06
368.184	79.06
368.41	92.06
368.636	79.06
368.862	80.06
369.089	75.06
369.315	85.06
369.541	91.06
369.767	87.06
369.993	68.06
370.219	77.06
370.445	89.06
370.672	83.06
370.898	91.06
371.124	101.06
371.35	85.06
371.576	95.06
371.802	79.06
372.028	94.06
372.254	89.06
372.48	78.06
372.706	98.06
372.932	97.06
373.158	98.06
373.384	96.06
373.61	106.06
373.835	82.06
374.061	74.06
374.287	109.06
374.513	83.06
374.739	95.06
374.965	82.06
375.191	80.06
375.416	79.06
375.642	83.06
375.868	100.06
376.094	86.06
376.319	65.06
376.545	95.06
376.771	84.06
376.997	82.06
377.222	100.06
377.448	84.06
377.674	67.06
377.899	77.06
378.125	91.06
378.35	98.06
378.576	71.06
378.802	93.06
379.027	73.06
379.253	82.06
379.478	86.06
379.704	87.06
379.929	76.06
380.155	84.06
380.38	83.06
380.606	84.06
380.831	90.06
381.057	85.06
381.282	84.06
381.507	90.06
381.733	73.06
381.958	96.06
382.184	77.06
382.409	92.06
382.634	92.06
382.86	83.06
383.085	92.06
383.31	81.06
383.535	80.06
383.761	86.06
383.986	79.06
384.211	85.06
384.436	86.06
384.662	89.06
384.887	72.06
385.112	88.06
385.337	100.06
385.562	89.06
385.787	78.06
386.013	91.06
386.238	91.06
386.463	93.06
386.688	75.06
386.913	79.06
387.138	106.06
387.363	80.06
387.588	98.06
387.813	97.06
388.038	66.06
388.263	81.06
388.488	97.06
388.713	77.06
388.938	83.06
389.163	88.06
389.387	76.06
389.612	91.06
389.837	83.06
390.062	84.06
390.287	86.06
390.512	99.06
390.736	86.06
390.961	95.06
391.186	86.06
391.411	84.06
391.636	90.06
391.86	78.06
392.085	91.06
392.31	93.06
392.534	77.06
392.759	96.06
392.984	104.06
393.208	62.06
393.433	81.06
393.658	93.06
393.882	97.06
394.107	84.06
394.331	94.06
394.556	91.06
394.78	96.06
395.005	83.06
395.229	95.06
395.454	82.06
395.678	77.06
395.903	84.06
396.127	86.06
396.352	80.06
396.576	76.06
396.801	98.06
397.025	102.06
397.249	97.06
397.474	83.06
397.698	82.06
397.922	91.06
398.147	88.06
398.371	68.06
398.595	96.06
398.82	93.06
399.044	78.06
399.268	108.06
399.492	83.06
399.717	94.06
399.941	87.06
400.165	72.06
400.389	85.06
400.613	89.06
400.837	79.06
401.062	85.06
401.286	89.06
401.51	85.06
401.734	87.06
401.958	81.06
402.182	87.06
402.406	97.06
402.63	96.06
402.854	90.06
403.078	85.06
403.302	83.06
403.526	91.06
403.75	86.06
403.974	75.06
404.198	86.06
404.422	77.06
404.645	99.06
404.869	87.06
405.093	94.06
405.317	90.06
405.541	85.06
405.765	108.06
405.988	97.06
406.212	104.06
406.436	101.06
406.66	96.06
406.883	89.06
407.107	96.06
407.331	78.06
407.555	90.06
407.778	88.06
408.002	96.06
408.226	85.06
408.449	114.06
408.673	91.06
408.896	106.06
409.12	92.06
409.344	95.06
409.567	103.06
409.791	92.06
410.014	94.06
410.238	91.06
410.461	96.06
410.685	91.06
410.908	81.06
411.132	95.06
411.355	90.06
411.578	93.06
411.802	89.06
412.025	85.06
412.249	98.06
412.472	94.06
412.695	91.06
412.919	99.06
413.142	84.06
413.365	90.06
413.589	114.06
413.812	104.06
414.035	94.06
414.258	93.06
414.482	97.06
414.705	83.06
414.928	112.06
415.151	100.06
415.374	105.06
415.597	97.06
415.821	93.06
416.044	88.06
416.267	97.06
416.49	89.06
416.713	84.06
416.936	89.06
417.159	86.06
417.382	108.06
417.605	90.06
417.828	93.06
418.051	105.06
418.274	103.06
418.497	107.06
418.72	107.06
418.943	105.06
419.166	85.06
419.389	93.06
419.611	92.06
419.834	102.06
420.057	107.06
420.28	105.06
420.503	103.06
420.726	88.06
420.948	87.06
421.171	95.06
421.394	85.06
421.617	104.06
421.839	89.06
422.062	95.06
422.285	109.06
422.507	101.06
422.73	85.06
422.953	90.06
423.175	89.06
423.398	103.06
423.621	96.06
423.843	94.06
424.066	95.06
424.288	89.06
424.511	110.06
424.733	118.06
424.956	103.06
425.178	107.06
425.401	90.06
425.623	108.06
425.846	88.06
426.068	99.06
426.291	92.06
426.513	87.06
426.735	81.06
426.958	100.06
427.18	88.06
427.402	92.06
427.625	97.06
427.847	79.06
428.069	97.06
428.292	101.06
428.514	87.06
428.736	99.06
428.958	97.06
429.181	90.06
429.403	92.06
429.625	98.06
429.847	94.06
430.069	102.06
430.292	101.06
430.514	108.06
430.736	95.06
430.958	107.06
431.18	96.06
431.402	104.06
431.624	89.06
431.846	84.06
432.068	80.06
432.29	89.06
432.512	102.06
432.734	93.06
432.956	95.06
433.178	91.06
433.4	84.06
433.622	105.06
433.844	99.06
434.066	95.06
434.287	92.06
434.509	84.06
434.731	80.06
434.953	98.06
435.175	88.06
435.397	99.06
435.618	100.06
435.84	96.06
436.062	88.06
436.284	109.06
436.505	81.06
436.727	98.06
436.949	85.06
437.17	100.06
437.392	94.06
437.614	95.06
437.835	90.06
438.057	96.06
438.278	92.06
438.5	97.06
438.721	89.06
438.943	97.06
439.165	97.06
439.386	101.06
439.608	104.06
439.829	96.06
440.05	116.06
440.272	107.06
440.493	117.06
440.715	99.06
440.936	95.06
441.158	86.06
441.379	100.06
441.6	110.06
441.822	93.06
442.043	89.06
442.264	107.06
442.486	101.06
442.707	100.06
442.928	101.06
443.149	88.06
443.371	91.06
443.592	99.06
443.813	89.06
444.034	105.06
444.255	92.06
444.476	100.06
444.698	87.06
444.919	91.06
445.14	216.06
445.361	139.06
445.582	104.06
445.803	105.06
446.024	96.06
446.245	96.06
446.466	106.06
446.687	111.06
446.908	100.06
447.129	97.06
447.35	112.06
447.571	88.06
447.792	107.06
448.013	106.06
448.234	94.06
448.455	97.06
448.675	90.06
448.896	97.06
449.117	96.06
449.338	103.06
449.559	106.06
449.779	109.06
450	101.06
450.221	99.06
450.442	98.06
450.662	85.06
450.883	86.06
451.104	107.06
451.324	104.06
451.545	87.06
451.766	102.06
451.986	87.06
452.207	104.06
452.428	100.06
452.648	92.06
452.869	81.06
453.089	100.06
453.31	95.06
453.53	88.06
453.751	99.06
453.971	93.06
454.192	84.06
454.412	85.06
454.633	80.06
454.853	80.06
455.073	104.06
455.294	95.06
455.514	93.06
455.734	92.06
455.955	91.06
456.175	88.06
456.395	88.06
456.616	86.06
456.836	88.06
457.056	97.06
457.276	90.06
457.497	90.06
457.717	87.06
457.937	95.06
458.157	95.06
458.377	87.06
458.598	84.06
458.818	88.06
459.038	90.06
459.258	84.06
459.478	83.06
459.698	79.06
459.918	77.06
460.138	96.06
460.358	72.06
460.578	98.06
460.798	89.06
461.018	83.06
461.238	91.06
461.458	87.06
461.678	92.06
461.898	88.06
462.118	69.06
462.338	89.06
462.558	93.06
462.777	85.06
462.997	94.06
463.217	89.06
463.437	77.06
463.657	98.06
463.876	102.06
464.096	84.06
464.316	92.06
464.536	79.06
464.755	89.06
464.975	92.06
465.195	78.06
465.414	87.06
465.634	92.06
465.854	103.06
466.073	78.06
466.293	87.06
466.512	91.06
466.732	102.06
466.951	91.06
467.171	87.06
467.391	96.06
467.61	84.06
467.829	93.06
468.049	95.06
468.268	93.06
468.488	94.06
468.707	102.06
468.927	97.06
469.146	95.06
469.365	101.06
469.585	94.06
469.804	102.06
470.023	95.06
470.243	120.06
470.462	97.06
470.681	88.06
470.901	98.06
471.12	94.06
471.339	97.06
471.558	88.06
471.777	100.06
471.997	89.06
472.216	90.06
472.435	97.06
472.654	106.06
472.873	84.06
473.092	84.06
473.311	99.06
473.53	86.06
473.749	104.06
473.968	102.06
474.187	96.06
474.406	97.06
474.625	97.06
474.844	104.06
475.063	102.06
475.282	103.06
475.501	92.06
475.72	111.06
475.939	90.06
476.158	99.06
476.377	98.06
476.596	92.06
476.814	89.06
477.033	88.06
477.252	94.06
477.471	88.06
477.69	109.06
477.908	83.06
478.127	105.06
478.346	94.06
478.564	91.06
478.783	102.06
479.002	106.06
479.22	98.06
479.439	98.06
479.658	88.06
479.876	97.06
480.095	91.06
480.313	95.06
480.532	92.06
480.751	87.06
480.969	81.06
481.188	92.06
481.406	78.06
481.624	87.06
481.843	96.06
482.061	96.06
482.28	99.06
482.498	107.06
482.717	75.06
482.935	93.06
483.153	107.06
483.372	104.06
483.59	108.06
483.808	112.06
484.027	98.06
484.245	105.06
484.463	115.06
484.681	88.06
484.9	109.06
485.118	109.06
485.336	107.06
485.554	79.06
485.772	91.06
485.99	74.06
486.209	86.06
486.427	91.06
486.645	96.06
486.863	103.06
487.081	102.06
487.299	98.06
487.517	108.06
487.735	105.06
487.953	120.06
488.171	117.06
488.389	111.06
488.607	106.06
488.825	106.06
489.043	95.06
489.261	103.06
489.479	82.06
489.696	96.06
489.914	98.06
490.132	93.06
490.35	111.06
490.568	101.06
490.786	115.06
491.003	97.06
491.221	97.06
491.439	116.06
491.657	117.06
491.874	121.06
492.092	134.06
492.31	133.06
492.527	139.06
492.745	119.06
492.963	112.06
493.18	116.06
493.398	109.06
493.615	102.06
493.833	117.06
494.05	111.06
494.268	104.06
494.485	115.06
494.703	106.06
494.92	113.06
495.138	111.06
495.355	111.06
495.573	100.06
495.79	121.06
496.008	104.06
496.225	108.06
496.442	97.06
496.66	114.06
496.877	103.06
497.094	116.06
497.312	105.06
497.529	101.06
497.746	104.06
497.963	85.06
498.181	93.06
498.398	94.06
498.615	104.06
498.832	74.06
499.049	77.06
499.267	81.06
499.484	106.06
499.701	110.06
499.918	100.06
500.135	112.06
500.352	100.06
500.569	90.06
500.786	96.06
501.003	98.06
501.22	111.06
501.437	100.06
501.654	91.06
501.871	96.06
502.088	98.06
502.305	93.06
502.522	117.06
502.739	98.06
502.956	90.06
503.172	97.06
503.389	90.06
503.606	79.06
503.823	83.06
504.04	90.06
504.256	112.06
504.473	96.06
504.69	79.06
504.907	98.06
505.123	96.06
505.34	96.06
505.557	84.06
505.773	93.06
505.99	99.06
506.207	94.06
506.423	102.06
506.64	99.06
506.856	86.06
507.073	104.06
507.289	81.06
507.506	93.06
507.722	96.06
507.939	90.06
508.155	100.06
508.372	87.06
508.588	94.06
508.805	79.06
509.021	103.06
509.238	96.06
509.454	85.06
509.67	83.06
509.887	84.06
510.103	102.06
510.319	88.06
510.536	66.06
510.752	83.06
510.968	89.06
511.184	95.06
511.401	85.06
511.617	83.06
511.833	86.06
512.049	81.06
512.265	64.06
512.481	79.06
512.698	77.06
512.914	92.06
513.13	74.06
513.346	92.06
513.562	81.06
513.778	92.06
513.994	71.06
514.21	81.06
514.426	88.06
514.642	71.06
514.858	90.06
515.074	102.06
515.29	90.06
515.506	83.06
515.721	76.06
515.937	84.06
516.153	78.06
516.369	91.06
516.585	101.06
516.801	101.06
517.016	87.06
517.232	87.06
517.448	77.06
517.664	101.06
517.879	80.06
518.095	94.06
518.311	78.06
518.527	87.06
518.742	86.06
518.958	90.06
519.173	94.06
519.389	93.06
519.605	96.06
519.82	92.06
520.036	90.06
520.251	91.06
520.467	103.06
520.682	101.06
520.898	89.06
521.113	86.06
521.329	78.06
521.544	78.06
521.76	75.06
521.975	96.06
522.19	88.06
522.406	86.06
522.621	85.06
522.836	100.06
523.052	98.06
523.267	84.06
523.482	84.06
523.698	86.06
523.913	105.06
524.128	87.06
524.343	111.06
524.559	90.06
524.774	104.06
524.989	101.06
525.204	89.06
525.419	76.06
525.634	103.06
525.849	103.06
526.064	105.06
526.28	106.06
526.495	83.06
526.71	80.06
526.925	81.06
527.14	81.06
527.355	89.06
527.57	80.06
527.785	88.06
527.999	72.06
528.214	80.06
528.429	94.06
528.644	101.06
528.859	99.06
529.074	116.06
529.289	117.06
529.503	108.06
529.718	101.06
529.933	88.06
530.148	102.06
530.363	84.06
530.577	84.06
530.792	86.06
531.007	76.06
531.221	95.06
531.436	92.06
531.651	93.06
531.865	90.06
532.08	87.06
532.295	80.06
532.509	93.06
532.724	81.06
532.938	85.06
533.153	96.06
533.367	97.06
533.582	108.06
533.796	105.06
534.011	102.06
534.225	92.06
534.44	83.06
534.654	80.06
534.868	90.06
535.083	106.06
535.297	96.06
535.511	107.06
535.726	91.06
535.94	91.06
536.154	89.06
536.369	95.06
536.583	85.06
536.797	80.06
537.011	79.06
537.225	94.06
537.44	87.06
537.654	94.06
537.868	85.06
538.082	101.06
538.296	98.06
538.51	96.06
538.724	92.06
538.938	85.06
539.153	96.06
539.367	104.06
539.581	101.06
539.795	96.06
540.009	70.06
540.222	84.06
540.436	83.06
540.65	110.06
540.864	109.06
541.078	97.06
541.292	110.06
541.506	119.06
541.72	111.06
541.934	122.06
542.147	114.06
542.361	101.06
542.575	106.06
542.789	104.06
543.002	106.06
543.216	92.06
543.43	107.06
543.644	101.06
543.857	92.06
544.071	109.06
544.285	106.06
544.498	106.06
544.712	104.06
544.925	117.06
545.139	109.06
545.352	101.06
545.566	106.06
545.779	116.06
545.993	114.06
546.206	111.06
546.42	105.06
546.633	101.06
546.847	127.06
547.06	121.06
547.274	97.06
547.487	113.06
547.7	115.06
547.914	113.06
548.127	119.06
548.34	114.06
548.554	92.06
548.767	108.06
548.98	119.06
549.193	103.06
549.407	115.06
549.62	95.06
549.833	99.06
550.046	102.06
550.259	101.06
550.473	104.06
550.686	109.06
550.899	88.06
551.112	98.06
551.325	113.06
551.538	108.06
551.751	90.06
551.964	98.06
552.177	97.06
552.39	101.06
552.603	104.06
552.816	113.06
553.029	113.06
553.242	108.06
553.455	108.06
553.667	108.06
553.88	105.06
554.093	99.06
554.306	104.06
554.519	117.06
554.732	101.06
554.944	107.06
555.157	102.06
555.37	106.06
555.583	105.06
555.795	103.06
556.008	97.06
556.221	98.06
556.433	123.06
556.646	117.06
556.859	88.06
557.071	97.06
557.284	98.06
557.496	117.06
557.709	97.06
557.921	93.06
558.134	93.06
558.346	116.06
558.559	91.06
558.771	97.06
558.984	89.06
559.196	101.06
559.409	108.06
559.621	89.06
559.833	106.06
560.046	94.06
560.258	97.06
560.47	97.06
560.683	106.06
560.895	91.06
561.107	98.06
561.32	90.06
561.532	78.06
561.744	93.06
561.956	98.06
562.168	97.06
562.381	100.06
562.593	89.06
562.805	99.06
563.017	104.06
563.229	96.06
563.441	108.06
563.653	85.06
563.865	94.06
564.077	105.06
564.289	104.06
564.501	90.06
564.713	85.06
564.925	95.06
565.137	95.06
565.349	92.06
565.561	91.06
565.773	77.06
565.985	92.06
566.197	94.06
566.408	104.06
566.62	82.06
566.832	93.06
567.044	100.06
567.255	93.06
567.467	81.06
567.679	72.06
567.891	96.06
568.102	90.06
568.314	91.06
568.526	88.06
568.737	88.06
568.949	85.06
569.161	66.06
569.372	82.06
569.584	88.06
569.795	88.06
570.007	75.06
570.218	75.06
570.43	84.06
570.641	83.06
570.853	87.06
571.064	90.06
571.276	86.06
571.487	91.06
571.698	80.06
571.91	91.06
572.121	104.06
572.333	84.06
572.544	95.06
572.755	99.06
572.966	85.06
573.178	82.06
573.389	77.06
573.6	76.06
573.811	59.06
574.023	88.06
574.234	71.06
574.445	85.06
574.656	88.06
574.867	87.06
575.078	77.06
575.289	101.06
575.501	92.06
575.712	93.06
575.923	73.06
576.134	97.06
576.345	100.06
576.556	82.06
576.767	84.06
576.978	81.06
577.188	94.06
577.399	81.06
577.61	86.06
577.821	82.06
578.032	91.06
578.243	87.06
578.454	67.06
578.665	78.06
578.875	90.06
579.086	85.06
579.297	81.06
579.508	82.06
579.718	85.06
579.929	80.06
580.14	84.06
580.35	69.06
580.561	77.06
580.772	88.06
580.982	79.06
581.193	99.06
581.403	102.06
581.614	103.06
581.825	85.06
582.035	87.06
582.246	88.06
582.456	75.06
582.667	91.06
582.877	96.06
583.087	77.06
583.298	74.06
583.508	86.06
583.719	81.06
583.929	92.06
584.139	91.06
584.35	67.06
584.56	97.06
584.77	98.06
584.981	99.06
585.191	90.06
585.401	89.06
585.611	99.06
585.821	83.06
586.032	75.06
586.242	77.06
586.452	98.06
586.662	88.06
586.872	89.06
587.082	99.06
587.292	82.06
587.502	77.06
587.713	91.06
587.923	81.06
588.133	81.06
588.343	95.06
588.553	95.06
588.762	87.06
588.972	98.06
589.182	93.06
589.392	88.06
589.602	90.06
589.812	82.06
590.022	100.06
590.232	84.06
590.441	82.06
590.651	94.06
590.861	79.06
591.071	79.06
591.281	87.06
591.49	85.06
591.7	84.06
591.91	103.06
592.119	93.06
592.329	89.06
592.539	90.06
592.748	98.06
592.958	95.06
593.167	81.06
593.377	91.06
593.587	82.06
593.796	87.06
594.006	86.06
594.215	86.06
594.424	93.06
594.634	90.06
594.843	93.06
595.053	86.06
595.262	77.06
595.472	99.06
595.681	89.06
595.89	74.06
596.1	95.06
596.309	77.06
596.518	98.06
596.727	79.06
596.937	97.06
597.146	86.06
597.355	84.06
597.564	90.06
597.774	84.06
597.983	72.06
598.192	87.06
598.401	72.06
598.61	87.06
598.819	85.06
599.028	83.06
599.237	95.06
599.446	73.06
599.655	82.06
599.864	83.06
600.073	89.06
600.282	95.06
600.491	92.06
600.7	91.06
600.909	91.06
601.118	88.06
601.327	88.06
601.536	95.06
601.745	94.06
601.953	97.06
602.162	95.06
602.371	88.06
602.58	91.06
602.789	97.06
602.997	88.06
603.206	83.06
603.415	89.06
603.623	87.06
603.832	81.06
604.041	92.06
604.249	86.06
604.458	98.06
604.666	84.06
604.875	82.06
605.084	100.06
605.292	91.06
605.501	90.06
605.709	102.06
605.918	85.06
606.126	93.06
606.334	93.06
606.543	93.06
606.751	86.06
606.96	90.06
607.168	84.06
607.376	92.06
607.585	89.06
607.793	89.06
608.001	104.06
608.21	102.06
608.418	94.06
608.626	92.06
608.834	87.06
609.043	97.06
609.251	95.06
609.459	91.06
609.667	111.06
609.875	96.06
610.083	103.06
610.291	92.06
610.499	106.06
610.707	100.06
610.916	98.06
611.124	87.06
611.332	91.06
611.54	91.06
611.748	104.06
611.955	97.06
612.163	86.06
612.371	92.06
612.579	85.06
612.787	104.06
612.995	99.06
613.203	96.06
613.411	99.06
613.618	97.06
613.826	88.06
614.034	104.06
614.242	93.06
614.449	90.06
614.657	98.06
614.865	94.06
615.072	82.06
615.28	100.06
615.488	89.06
615.695	95.06
615.903	103.06
616.111	108.06
616.318	97.06
616.526	103.06
616.733	77.06
616.941	88.06
617.148	93.06
617.356	84.06
617.563	99.06
617.771	85.06
617.978	95.06
618.185	96.06
618.393	95.06
618.6	95.06
618.807	98.06
619.015	89.06
619.222	88.06
619.429	83.06
619.637	94.06
619.844	100.06
620.051	90.06
620.258	85.06
620.466	90.06
620.673	90.06
620.88	85.06
621.087	90.06
621.294	88.06
621.501	65.06
621.708	100.06
621.915	103.06
622.122	91.06
622.329	91.06
622.536	99.06
622.743	93.06
622.95	99.06
623.157	74.06
623.364	95.06
623.571	90.06
623.778	84.06
623.985	88.06
624.192	99.06
624.399	98.06
624.606	88.06
624.812	92.06
625.019	99.06
625.226	93.06
625.433	99.06
625.639	100.06
625.846	85.06
626.053	96.06
626.259	87.06
626.466	106.06
626.673	80.06
626.879	89.06
627.086	87.06
627.293	89.06
627.499	88.06
627.706	86.06
627.912	93.06
628.119	82.06
628.325	91.06
628.532	101.06
628.738	74.06
628.945	68.06
629.151	88.06
629.357	90.06
629.564	97.06
629.77	92.06
629.976	92.06
630.183	92.06
630.389	89.06
630.595	95.06
630.802	81.06
631.008	92.06
631.214	95.06
631.42	84.06
631.627	82.06
631.833	87.06
632.039	87.06
632.245	87.06
632.451	87.06
632.657	88.06
632.863	89.06
633.069	85.06
633.275	90.06
633.481	93.06
633.688	112.06
633.893	67.06
634.099	79.06
634.305	99.06
634.511	92.06
634.717	91.06
634.923	91.06
635.129	91.06
635.335	85.06
635.541	88.06
635.747	90.06
635.952	70.06
636.158	95.06
636.364	97.06
636.57	100.06
636.775	95.06
636.981	90.06
637.187	93.06
637.392	85.06
637.598	82.06
637.804	102.06
638.009	98.06
638.215	87.06
638.421	87.06
638.626	85.06
638.832	84.06
639.037	72.06
639.243	95.06
639.448	88.06
639.654	84.06
639.859	82.06
640.065	95.06
640.27	114.06
640.475	87.06
640.681	97.06
640.886	103.06
641.091	77.06
641.297	101.06
641.502	82.06
641.707	83.06
641.913	96.06
642.118	85.06
642.323	90.06
642.528	100.06
642.733	85.06
642.939	100.06
643.144	100.06
643.349	85.06
643.554	96.06
643.759	97.06
643.964	87.06
644.169	90.06
644.374	96.06
644.579	96.06
644.784	92.06
644.989	114.06
645.194	88.06
645.399	81.06
645.604	85.06
645.809	89.06
646.014	93.06
646.219	90.06
646.423	95.06
646.628	97.06
646.833	96.06
647.038	72.06
647.243	84.06
647.447	89.06
647.652	95.06
647.857	80.06
648.062	113.06
648.266	78.06
648.471	107.06
648.676	86.06
648.88	73.06
649.085	92.06
649.289	100.06
649.494	83.06
649.698	95.06
649.903	87.06
650.107	80.06
650.312	82.06
650.516	88.06
650.721	97.06
650.925	95.06
651.13	85.06
651.334	102.06
651.539	90.06
651.743	84.06
651.947	102.06
652.152	96.06
652.356	92.06
652.56	70.06
652.764	103.06
652.969	88.06
653.173	93.06
653.377	81.06
653.581	80.06
653.785	93.06
653.99	96.06
654.194	94.06
654.398	92.06
654.602	73.06
654.806	89.06
655.01	88.06
655.214	92.06
655.418	89.06
655.622	84.06
655.826	92.06
656.03	85.06
656.234	85.06
656.438	87.06
656.642	78.06
656.846	84.06
657.049	85.06
657.253	101.06
657.457	91.06
657.661	75.06
657.865	79.06
658.068	72.06
658.272	85.06
658.476	87.06
658.68	85.06
658.883	85.06
659.087	86.06
659.291	73.06
659.494	87.06
659.698	77.06
659.901	84.06
660.105	92.06
660.309	77.06
660.512	78.06
660.716	84.06
660.919	83.06
661.123	82.06
661.326	78.06
661.53	72.06
661.733	84.06
661.936	82.06
662.14	84.06
662.343	87.06
662.546	90.06
662.75	79.06
662.953	93.06
663.156	92.06
663.36	84.06
663.563	85.06
663.766	89.06
663.969	81.06
664.173	76.06
664.376	82.06
664.579	92.06
664.782	98.06
664.985	90.06
665.188	81.06
665.391	71.06
665.594	87.06
665.797	97.06
666	86.06
666.203	73.06
666.406	75.06
666.609	70.06
666.812	79.06
667.015	86.06
667.218	91.06
667.421	81.06
667.624	85.06
667.827	77.06
668.03	68.06
668.232	84.06
668.435	89.06
668.638	76.06
668.841	76.06
669.043	76.06
669.246	73.06
669.449	85.06
669.651	94.06
669.854	86.06
670.057	83.06
670.259	98.06
670.462	87.06
670.665	81.06
670.867	77.06
671.07	76.06
671.272	71.06
671.475	79.06
671.677	80.06
671.88	81.06
672.082	85.06
672.284	100.06
672.487	89.06
672.689	90.06
672.892	72.06
