Data from Location3.07152019.Energy5.Lamp.07192019.3%Agarose_HRD10591_15-16-32-268.txt Node
Date: Fri Jul 19 15:16:32 EDT 2019
User: cochatt
Spectrometer: HR+D1059
Trigger mode: 1
Integration Time (sec): 1.000000E-1
Scans to average: 1
Electric dark correction enabled: true
Nonlinearity correction enabled: false
Boxcar width: 0
XAxis mode: Wavelengths
Number of Pixels in Spectrum: 2048
>>>>>Begin Spectral Data<<<<<
223.165	1.88
223.4	1.88
223.635	1.88
223.869	-27.12
224.104	-27.12
224.338	-17.12
224.573	-13.12
224.808	-5.12
225.042	-6.12
225.277	-2.12
225.511	-2.12
225.746	0.88
225.98	2.88
226.215	3.88
226.449	6.88
226.683	18.88
226.918	32.88
227.152	31.88
227.387	37.88
227.621	47.88
227.856	36.88
228.09	52.88
228.324	47.88
228.559	47.88
228.793	42.88
229.027	72.88
229.262	59.88
229.496	59.88
229.73	80.88
229.964	82.88
230.199	69.88
230.433	70.88
230.667	81.88
230.901	81.88
231.136	99.88
231.37	80.88
231.604	73.88
231.838	74.88
232.072	81.88
232.306	86.88
232.541	90.88
232.775	79.88
233.009	80.88
233.243	74.88
233.477	71.88
233.711	76.88
233.945	85.88
234.179	88.88
234.413	73.88
234.647	67.88
234.881	90.88
235.115	89.88
235.349	74.88
235.583	84.88
235.817	69.88
236.051	80.88
236.285	86.88
236.519	70.88
236.753	74.88
236.987	83.88
237.221	76.88
237.455	85.88
237.689	67.88
237.922	84.88
238.156	88.88
238.39	79.88
238.624	70.88
238.858	64.88
239.091	85.88
239.325	76.88
239.559	69.88
239.793	65.88
240.027	70.88
240.26	92.88
240.494	62.88
240.728	75.88
240.961	82.88
241.195	82.88
241.429	93.88
241.662	78.88
241.896	93.88
242.13	75.88
242.363	84.88
242.597	83.88
242.83	74.88
243.064	77.88
243.298	83.88
243.531	71.88
243.765	80.88
243.998	80.88
244.232	78.88
244.465	85.88
244.699	74.88
244.932	73.88
245.166	80.88
245.399	71.88
245.633	77.88
245.866	91.88
246.099	88.88
246.333	80.88
246.566	77.88
246.8	80.88
247.033	78.88
247.266	78.88
247.5	85.88
247.733	77.88
247.966	72.88
248.2	75.88
248.433	87.88
248.666	67.88
248.899	64.88
249.133	70.88
249.366	75.88
249.599	89.88
249.832	85.88
250.066	85.88
250.299	79.88
250.532	75.88
250.765	80.88
250.998	77.88
251.231	67.88
251.465	73.88
251.698	68.88
251.931	75.88
252.164	90.88
252.397	82.88
252.63	84.88
252.863	78.88
253.096	83.88
253.329	82.88
253.562	79.88
253.795	88.88
254.028	85.88
254.261	76.88
254.494	75.88
254.727	72.88
254.96	76.88
255.193	86.88
255.426	88.88
255.659	80.88
255.892	88.88
256.124	76.88
256.357	68.88
256.59	84.88
256.823	76.88
257.056	87.88
257.289	82.88
257.521	86.88
257.754	75.88
257.987	72.88
258.22	95.88
258.452	81.88
258.685	79.88
258.918	77.88
259.151	73.88
259.383	76.88
259.616	84.88
259.849	88.88
260.081	72.88
260.314	97.88
260.547	75.88
260.779	75.88
261.012	88.88
261.244	70.88
261.477	80.88
261.71	82.88
261.942	79.88
262.175	84.88
262.407	85.88
262.64	83.88
262.872	85.88
263.105	69.88
263.337	77.88
263.57	73.88
263.802	71.88
264.035	75.88
264.267	81.88
264.499	86.88
264.732	85.88
264.964	91.88
265.197	90.88
265.429	85.88
265.661	77.88
265.894	81.88
266.126	79.88
266.358	76.88
266.591	73.88
266.823	74.88
267.055	90.88
267.287	85.88
267.52	82.88
267.752	83.88
267.984	83.88
268.216	91.88
268.448	91.88
268.681	87.88
268.913	85.88
269.145	84.88
269.377	83.88
269.609	74.88
269.841	95.88
270.073	102.88
270.306	76.88
270.538	76.88
270.77	81.88
271.002	95.88
271.234	93.88
271.466	79.88
271.698	83.88
271.93	76.88
272.162	89.88
272.394	88.88
272.626	78.88
272.858	71.88
273.09	77.88
273.322	87.88
273.553	89.88
273.785	91.88
274.017	85.88
274.249	85.88
274.481	81.88
274.713	81.88
274.945	88.88
275.176	86.88
275.408	78.88
275.64	97.88
275.872	98.88
276.104	80.88
276.335	88.88
276.567	85.88
276.799	91.88
277.031	74.88
277.262	95.88
277.494	82.88
277.726	84.88
277.957	95.88
278.189	84.88
278.421	87.88
278.652	90.88
278.884	72.88
279.115	79.88
279.347	84.88
279.579	90.88
279.81	95.88
280.042	80.88
280.273	79.88
280.505	97.88
280.736	80.88
280.968	88.88
281.199	82.88
281.431	85.88
281.662	80.88
281.894	71.88
282.125	87.88
282.356	99.88
282.588	77.88
282.819	91.88
283.051	84.88
283.282	86.88
283.513	80.88
283.745	86.88
283.976	74.88
284.207	57.88
284.439	87.88
284.67	87.88
284.901	85.88
285.132	100.88
285.364	81.88
285.595	90.88
285.826	74.88
286.057	96.88
286.288	75.88
286.52	71.88
286.751	84.88
286.982	98.88
287.213	74.88
287.444	91.88
287.675	84.88
287.906	81.88
288.138	92.88
288.369	97.88
288.6	84.88
288.831	82.88
289.062	80.88
289.293	77.88
289.524	84.88
289.755	85.88
289.986	83.88
290.217	86.88
290.448	83.88
290.679	76.88
290.91	89.88
291.141	88.88
291.371	88.88
291.602	81.88
291.833	99.88
292.064	86.88
292.295	86.88
292.526	91.88
292.757	104.88
292.987	90.88
293.218	79.88
293.449	85.88
293.68	95.88
293.91	97.88
294.141	86.88
294.372	71.88
294.603	83.88
294.833	76.88
295.064	79.88
295.295	100.88
295.525	88.88
295.756	79.88
295.987	81.88
296.217	75.88
296.448	82.88
296.679	92.88
296.909	89.88
297.14	72.88
297.37	94.88
297.601	90.88
297.831	85.88
298.062	94.88
298.292	94.88
298.523	77.88
298.753	82.88
298.984	84.88
299.214	81.88
299.445	85.88
299.675	81.88
299.905	82.88
300.136	81.88
300.366	90.88
300.597	90.88
300.827	79.88
301.057	72.88
301.288	73.88
301.518	84.88
301.748	87.88
301.979	79.88
302.209	90.88
302.439	73.88
302.669	89.88
302.9	85.88
303.13	81.88
303.36	83.88
303.59	76.88
303.82	80.88
304.051	76.88
304.281	82.88
304.511	74.88
304.741	81.88
304.971	83.88
305.201	84.88
305.431	81.88
305.661	84.88
305.891	90.88
306.121	92.88
306.352	76.88
306.582	73.88
306.812	83.88
307.042	90.88
307.272	87.88
307.502	100.88
307.731	84.88
307.961	84.88
308.191	81.88
308.421	83.88
308.651	94.88
308.881	94.88
309.111	82.88
309.341	96.88
309.571	76.88
309.8	88.88
310.03	81.88
310.26	82.88
310.49	75.88
310.72	91.88
310.949	82.88
311.179	87.88
311.409	90.88
311.639	85.88
311.868	85.88
312.098	79.88
312.328	87.88
312.557	88.88
312.787	80.88
313.017	94.88
313.246	82.88
313.476	81.88
313.706	85.88
313.935	91.88
314.165	84.88
314.394	79.88
314.624	95.88
314.853	89.88
315.083	89.88
315.312	73.88
315.542	97.88
315.771	89.88
316.001	89.88
316.23	74.88
316.46	88.88
316.689	80.88
316.919	81.88
317.148	96.88
317.377	81.88
317.607	92.88
317.836	84.88
318.065	79.88
318.295	63.88
318.524	88.88
318.753	82.88
318.983	95.88
319.212	83.88
319.441	82.88
319.67	91.88
319.9	83.88
320.129	81.88
320.358	83.88
320.587	74.88
320.816	76.88
321.046	76.88
321.275	102.88
321.504	82.88
321.733	76.88
321.962	73.88
322.191	82.88
322.42	87.88
322.649	95.88
322.878	92.88
323.108	72.88
323.337	90.88
323.566	79.88
323.795	88.88
324.024	94.88
324.253	77.88
324.482	88.88
324.71	83.88
324.939	98.88
325.168	82.88
325.397	86.88
325.626	87.88
325.855	86.88
326.084	72.88
326.313	86.88
326.542	85.88
326.77	97.88
326.999	83.88
327.228	94.88
327.457	80.88
327.686	70.88
327.914	88.88
328.143	83.88
328.372	87.88
328.6	97.88
328.829	85.88
329.058	83.88
329.287	73.88
329.515	74.88
329.744	88.88
329.972	84.88
330.201	67.88
330.43	74.88
330.658	93.88
330.887	95.88
331.115	93.88
331.344	85.88
331.572	90.88
331.801	87.88
332.03	83.88
332.258	92.88
332.486	77.88
332.715	77.88
332.943	78.88
333.172	76.88
333.4	91.88
333.629	82.88
333.857	79.88
334.085	83.88
334.314	81.88
334.542	79.88
334.771	79.88
334.999	84.88
335.227	78.88
335.455	86.88
335.684	96.88
335.912	85.88
336.14	68.88
336.369	78.88
336.597	86.88
336.825	86.88
337.053	80.88
337.281	88.88
337.51	92.88
337.738	88.88
337.966	89.88
338.194	87.88
338.422	80.88
338.65	99.88
338.878	88.88
339.106	88.88
339.334	93.88
339.562	91.88
339.79	93.88
340.018	83.88
340.246	91.88
340.474	74.88
340.702	76.88
340.93	80.88
341.158	86.88
341.386	84.88
341.614	87.88
341.842	82.88
342.07	94.88
342.298	83.88
342.526	86.88
342.754	78.88
342.981	94.88
343.209	68.88
343.437	82.88
343.665	90.88
343.893	101.88
344.12	86.88
344.348	70.88
344.576	87.88
344.804	73.88
345.031	80.88
345.259	79.88
345.487	90.88
345.714	73.88
345.942	90.88
346.17	81.88
346.397	90.88
346.625	89.88
346.853	90.88
347.08	84.88
347.308	86.88
347.535	92.88
347.763	68.88
347.99	87.88
348.218	89.88
348.445	76.88
348.673	78.88
348.9	82.88
349.128	92.88
349.355	90.88
349.583	88.88
349.81	78.88
350.037	80.88
350.265	73.88
350.492	78.88
350.72	76.88
350.947	82.88
351.174	76.88
351.402	90.88
351.629	83.88
351.856	81.88
352.083	96.88
352.311	87.88
352.538	79.88
352.765	75.88
352.992	82.88
353.22	79.88
353.447	81.88
353.674	94.88
353.901	91.88
354.128	82.88
354.355	68.88
354.583	81.88
354.81	77.88
355.037	75.88
355.264	77.88
355.491	84.88
355.718	75.88
355.945	81.88
356.172	81.88
356.399	98.88
356.626	89.88
356.853	82.88
357.08	86.88
357.307	70.88
357.534	76.88
357.761	85.88
357.988	78.88
358.215	78.88
358.441	87.88
358.668	77.88
358.895	67.88
359.122	91.88
359.349	80.88
359.576	72.88
359.802	94.88
360.029	76.88
360.256	85.88
360.483	73.88
360.709	70.88
360.936	86.88
361.163	80.88
361.39	81.88
361.616	82.88
361.843	95.88
362.07	85.88
362.296	77.88
362.523	81.88
362.749	90.88
362.976	71.88
363.203	74.88
363.429	73.88
363.656	88.88
363.882	76.88
364.109	86.88
364.335	94.88
364.562	108.88
364.788	69.88
365.015	87.88
365.241	78.88
365.468	86.88
365.694	82.88
365.92	73.88
366.147	83.88
366.373	73.88
366.599	77.88
366.826	72.88
367.052	93.88
367.278	77.88
367.505	86.88
367.731	93.88
367.957	75.88
368.184	86.88
368.41	75.88
368.636	87.88
368.862	78.88
369.089	86.88
369.315	86.88
369.541	87.88
369.767	96.88
369.993	72.88
370.219	81.88
370.445	81.88
370.672	75.88
370.898	79.88
371.124	90.88
371.35	103.88
371.576	97.88
371.802	106.88
372.028	87.88
372.254	72.88
372.48	81.88
372.706	96.88
372.932	91.88
373.158	86.88
373.384	90.88
373.61	92.88
373.835	86.88
374.061	93.88
374.287	77.88
374.513	86.88
374.739	87.88
374.965	61.88
375.191	86.88
375.416	70.88
375.642	84.88
375.868	84.88
376.094	91.88
376.319	85.88
376.545	78.88
376.771	86.88
376.997	79.88
377.222	82.88
377.448	84.88
377.674	95.88
377.899	90.88
378.125	84.88
378.35	89.88
378.576	95.88
378.802	91.88
379.027	91.88
379.253	76.88
379.478	87.88
379.704	88.88
379.929	80.88
380.155	81.88
380.38	78.88
380.606	91.88
380.831	84.88
381.057	87.88
381.282	85.88
381.507	80.88
381.733	89.88
381.958	83.88
382.184	91.88
382.409	83.88
382.634	91.88
382.86	85.88
383.085	96.88
383.31	83.88
383.535	77.88
383.761	79.88
383.986	87.88
384.211	90.88
384.436	77.88
384.662	99.88
384.887	83.88
385.112	88.88
385.337	88.88
385.562	86.88
385.787	84.88
386.013	88.88
386.238	83.88
386.463	85.88
386.688	88.88
386.913	70.88
387.138	90.88
387.363	87.88
387.588	91.88
387.813	82.88
388.038	78.88
388.263	94.88
388.488	71.88
388.713	90.88
388.938	88.88
389.163	87.88
389.387	80.88
389.612	98.88
389.837	87.88
390.062	93.88
390.287	89.88
390.512	84.88
390.736	82.88
390.961	99.88
391.186	92.88
391.411	82.88
391.636	86.88
391.86	102.88
392.085	90.88
392.31	89.88
392.534	81.88
392.759	92.88
392.984	94.88
393.208	85.88
393.433	83.88
393.658	86.88
393.882	74.88
394.107	82.88
394.331	90.88
394.556	90.88
394.78	96.88
395.005	70.88
395.229	71.88
395.454	86.88
395.678	89.88
395.903	79.88
396.127	78.88
396.352	104.88
396.576	92.88
396.801	90.88
397.025	84.88
397.249	88.88
397.474	94.88
397.698	87.88
397.922	80.88
398.147	69.88
398.371	76.88
398.595	90.88
398.82	89.88
399.044	87.88
399.268	85.88
399.492	101.88
399.717	87.88
399.941	90.88
400.165	89.88
400.389	86.88
400.613	82.88
400.837	87.88
401.062	69.88
401.286	101.88
401.51	91.88
401.734	82.88
401.958	82.88
402.182	92.88
402.406	100.88
402.63	82.88
402.854	92.88
403.078	75.88
403.302	95.88
403.526	76.88
403.75	85.88
403.974	98.88
404.198	82.88
404.422	97.88
404.645	96.88
404.869	90.88
405.093	96.88
405.317	81.88
405.541	92.88
405.765	86.88
405.988	99.88
406.212	88.88
406.436	88.88
406.66	98.88
406.883	96.88
407.107	114.88
407.331	92.88
407.555	108.88
407.778	98.88
408.002	87.88
408.226	82.88
408.449	80.88
408.673	85.88
408.896	96.88
409.12	90.88
409.344	89.88
409.567	93.88
409.791	95.88
410.014	84.88
410.238	106.88
410.461	89.88
410.685	86.88
410.908	86.88
411.132	95.88
411.355	94.88
411.578	90.88
411.802	88.88
412.025	82.88
412.249	94.88
412.472	84.88
412.695	98.88
412.919	73.88
413.142	84.88
413.365	95.88
413.589	87.88
413.812	86.88
414.035	94.88
414.258	77.88
414.482	86.88
414.705	99.88
414.928	86.88
415.151	73.88
415.374	93.88
415.597	94.88
415.821	94.88
416.044	96.88
416.267	86.88
416.49	86.88
416.713	93.88
416.936	91.88
417.159	82.88
417.382	96.88
417.605	81.88
417.828	81.88
418.051	85.88
418.274	76.88
418.497	88.88
418.72	97.88
418.943	97.88
419.166	96.88
419.389	99.88
419.611	97.88
419.834	93.88
420.057	118.88
420.28	82.88
420.503	84.88
420.726	90.88
420.948	91.88
421.171	100.88
421.394	89.88
421.617	90.88
421.839	104.88
422.062	90.88
422.285	80.88
422.507	80.88
422.73	105.88
422.953	98.88
423.175	91.88
423.398	91.88
423.621	83.88
423.843	103.88
424.066	97.88
424.288	108.88
424.511	112.88
424.733	108.88
424.956	114.88
425.178	104.88
425.401	88.88
425.623	103.88
425.846	86.88
426.068	82.88
426.291	95.88
426.513	93.88
426.735	91.88
426.958	97.88
427.18	89.88
427.402	94.88
427.625	100.88
427.847	87.88
428.069	93.88
428.292	103.88
428.514	92.88
428.736	93.88
428.958	90.88
429.181	92.88
429.403	100.88
429.625	96.88
429.847	89.88
430.069	99.88
430.292	105.88
430.514	92.88
430.736	94.88
430.958	92.88
431.18	85.88
431.402	89.88
431.624	82.88
431.846	91.88
432.068	86.88
432.29	91.88
432.512	100.88
432.734	97.88
432.956	83.88
433.178	95.88
433.4	98.88
433.622	112.88
433.844	114.88
434.066	92.88
434.287	84.88
434.509	84.88
434.731	77.88
434.953	91.88
435.175	91.88
435.397	92.88
435.618	95.88
435.84	78.88
436.062	86.88
436.284	91.88
436.505	97.88
436.727	91.88
436.949	83.88
437.17	90.88
437.392	93.88
437.614	103.88
437.835	86.88
438.057	91.88
438.278	89.88
438.5	94.88
438.721	92.88
438.943	101.88
439.165	96.88
439.386	82.88
439.608	103.88
439.829	104.88
440.05	101.88
440.272	92.88
440.493	100.88
440.715	104.88
440.936	86.88
441.158	95.88
441.379	88.88
441.6	101.88
441.822	100.88
442.043	101.88
442.264	97.88
442.486	106.88
442.707	96.88
442.928	105.88
443.149	90.88
443.371	97.88
443.592	87.88
443.813	81.88
444.034	95.88
444.255	90.88
444.476	88.88
444.698	98.88
444.919	103.88
445.14	164.88
445.361	138.88
445.582	95.88
445.803	90.88
446.024	114.88
446.245	91.88
446.466	94.88
446.687	105.88
446.908	90.88
447.129	112.88
447.35	93.88
447.571	86.88
447.792	107.88
448.013	94.88
448.234	103.88
448.455	108.88
448.675	99.88
448.896	110.88
449.117	110.88
449.338	87.88
449.559	97.88
449.779	99.88
450	108.88
450.221	94.88
450.442	97.88
450.662	94.88
450.883	83.88
451.104	83.88
451.324	90.88
451.545	101.88
451.766	86.88
451.986	87.88
452.207	93.88
452.428	93.88
452.648	99.88
452.869	103.88
453.089	93.88
453.31	94.88
453.53	91.88
453.751	93.88
453.971	94.88
454.192	96.88
454.412	87.88
454.633	82.88
454.853	83.88
455.073	86.88
455.294	114.88
455.514	100.88
455.734	107.88
455.955	96.88
456.175	86.88
456.395	95.88
456.616	92.88
456.836	92.88
457.056	98.88
457.276	83.88
457.497	67.88
457.717	84.88
457.937	83.88
458.157	84.88
458.377	93.88
458.598	75.88
458.818	71.88
459.038	103.88
459.258	85.88
459.478	83.88
459.698	89.88
459.918	95.88
460.138	86.88
460.358	89.88
460.578	93.88
460.798	78.88
461.018	86.88
461.238	95.88
461.458	90.88
461.678	94.88
461.898	89.88
462.118	88.88
462.338	98.88
462.558	99.88
462.777	91.88
462.997	88.88
463.217	92.88
463.437	101.88
463.657	95.88
463.876	106.88
464.096	82.88
464.316	80.88
464.536	96.88
464.755	88.88
464.975	90.88
465.195	70.88
465.414	86.88
465.634	91.88
465.854	95.88
466.073	84.88
466.293	94.88
466.512	91.88
466.732	93.88
466.951	90.88
467.171	87.88
467.391	103.88
467.61	94.88
467.829	86.88
468.049	92.88
468.268	106.88
468.488	114.88
468.707	106.88
468.927	85.88
469.146	105.88
469.365	105.88
469.585	90.88
469.804	108.88
470.023	112.88
470.243	102.88
470.462	87.88
470.681	106.88
470.901	99.88
471.12	102.88
471.339	99.88
471.558	96.88
471.777	98.88
471.997	102.88
472.216	103.88
472.435	89.88
472.654	86.88
472.873	84.88
473.092	86.88
473.311	104.88
473.53	88.88
473.749	108.88
473.968	80.88
474.187	103.88
474.406	86.88
474.625	103.88
474.844	89.88
475.063	95.88
475.282	83.88
475.501	75.88
475.72	89.88
475.939	94.88
476.158	101.88
476.377	100.88
476.596	88.88
476.814	112.88
477.033	93.88
477.252	88.88
477.471	95.88
477.69	106.88
477.908	110.88
478.127	95.88
478.346	98.88
478.564	81.88
478.783	108.88
479.002	98.88
479.22	99.88
479.439	98.88
479.658	91.88
479.876	98.88
480.095	109.88
480.313	88.88
480.532	89.88
480.751	90.88
480.969	97.88
481.188	82.88
481.406	86.88
481.624	90.88
481.843	82.88
482.061	93.88
482.28	91.88
482.498	83.88
482.717	84.88
482.935	90.88
483.153	101.88
483.372	102.88
483.59	98.88
483.808	101.88
484.027	107.88
484.245	88.88
484.463	92.88
484.681	105.88
484.9	102.88
485.118	98.88
485.336	96.88
485.554	78.88
485.772	97.88
485.99	78.88
486.209	100.88
486.427	92.88
486.645	93.88
486.863	98.88
487.081	87.88
487.299	98.88
487.517	112.88
487.735	107.88
487.953	99.88
488.171	108.88
488.389	119.88
488.607	104.88
488.825	104.88
489.043	91.88
489.261	98.88
489.479	103.88
489.696	108.88
489.914	97.88
490.132	95.88
490.35	96.88
490.568	79.88
490.786	97.88
491.003	95.88
491.221	107.88
491.439	106.88
491.657	119.88
491.874	126.88
492.092	143.88
492.31	129.88
492.527	125.88
492.745	114.88
492.963	108.88
493.18	128.88
493.398	103.88
493.615	122.88
493.833	100.88
494.05	105.88
494.268	122.88
494.485	112.88
494.703	108.88
494.92	106.88
495.138	119.88
495.355	103.88
495.573	104.88
495.79	121.88
496.008	106.88
496.225	123.88
496.442	102.88
496.66	99.88
496.877	104.88
497.094	105.88
497.312	110.88
497.529	83.88
497.746	92.88
497.963	101.88
498.181	94.88
498.398	85.88
498.615	95.88
498.832	90.88
499.049	94.88
499.267	93.88
499.484	99.88
499.701	101.88
499.918	85.88
500.135	105.88
500.352	107.88
500.569	103.88
500.786	98.88
501.003	96.88
501.22	100.88
501.437	99.88
501.654	108.88
501.871	98.88
502.088	94.88
502.305	93.88
502.522	108.88
502.739	91.88
502.956	88.88
503.172	103.88
503.389	93.88
503.606	95.88
503.823	104.88
504.04	112.88
504.256	90.88
504.473	86.88
504.69	101.88
504.907	99.88
505.123	101.88
505.34	100.88
505.557	91.88
505.773	88.88
505.99	88.88
506.207	95.88
506.423	89.88
506.64	99.88
506.856	92.88
507.073	97.88
507.289	86.88
507.506	90.88
507.722	89.88
507.939	104.88
508.155	104.88
508.372	101.88
508.588	102.88
508.805	105.88
509.021	104.88
509.238	88.88
509.454	94.88
509.67	110.88
509.887	93.88
510.103	90.88
510.319	97.88
510.536	94.88
510.752	92.88
510.968	84.88
511.184	82.88
511.401	76.88
511.617	81.88
511.833	91.88
512.049	77.88
512.265	97.88
512.481	95.88
512.698	83.88
512.914	80.88
513.13	95.88
513.346	99.88
513.562	90.88
513.778	86.88
513.994	81.88
514.21	98.88
514.426	75.88
514.642	85.88
514.858	79.88
515.074	103.88
515.29	93.88
515.506	82.88
515.721	75.88
515.937	85.88
516.153	80.88
516.369	89.88
516.585	96.88
516.801	80.88
517.016	76.88
517.232	81.88
517.448	85.88
517.664	95.88
517.879	81.88
518.095	92.88
518.311	106.88
518.527	84.88
518.742	80.88
518.958	64.88
519.173	90.88
519.389	82.88
519.605	96.88
519.82	69.88
520.036	87.88
520.251	96.88
520.467	101.88
520.682	94.88
520.898	85.88
521.113	88.88
521.329	70.88
521.544	84.88
521.76	88.88
521.975	71.88
522.19	84.88
522.406	96.88
522.621	90.88
522.836	83.88
523.052	101.88
523.267	92.88
523.482	89.88
523.698	106.88
523.913	98.88
524.128	98.88
524.343	99.88
524.559	91.88
524.774	115.88
524.989	106.88
525.204	84.88
525.419	84.88
525.634	78.88
525.849	92.88
526.064	94.88
526.28	109.88
526.495	84.88
526.71	86.88
526.925	76.88
527.14	89.88
527.355	84.88
527.57	82.88
527.785	94.88
527.999	98.88
528.214	97.88
528.429	101.88
528.644	92.88
528.859	99.88
529.074	116.88
529.289	121.88
529.503	105.88
529.718	86.88
529.933	102.88
530.148	88.88
530.363	90.88
530.577	89.88
530.792	102.88
531.007	83.88
531.221	77.88
531.436	74.88
531.651	67.88
531.865	79.88
532.08	86.88
532.295	74.88
532.509	89.88
532.724	88.88
532.938	94.88
533.153	94.88
533.367	105.88
533.582	94.88
533.796	93.88
534.011	88.88
534.225	83.88
534.44	86.88
534.654	90.88
534.868	91.88
535.083	79.88
535.297	99.88
535.511	91.88
535.726	79.88
535.94	102.88
536.154	90.88
536.369	87.88
536.583	82.88
536.797	90.88
537.011	86.88
537.225	86.88
537.44	96.88
537.654	80.88
537.868	83.88
538.082	86.88
538.296	80.88
538.51	90.88
538.724	87.88
538.938	103.88
539.153	93.88
539.367	91.88
539.581	107.88
539.795	88.88
540.009	85.88
540.222	104.88
540.436	82.88
540.65	103.88
540.864	98.88
541.078	90.88
541.292	96.88
541.506	94.88
541.72	109.88
541.934	130.88
542.147	124.88
542.361	100.88
542.575	112.88
542.789	106.88
543.002	95.88
543.216	99.88
543.43	91.88
543.644	108.88
543.857	107.88
544.071	107.88
544.285	106.88
544.498	114.88
544.712	112.88
544.925	110.88
545.139	108.88
545.352	103.88
545.566	94.88
545.779	111.88
545.993	110.88
546.206	127.88
546.42	112.88
546.633	106.88
546.847	108.88
547.06	114.88
547.274	112.88
547.487	106.88
547.7	121.88
547.914	106.88
548.127	105.88
548.34	116.88
548.554	119.88
548.767	101.88
548.98	108.88
549.193	99.88
549.407	110.88
549.62	110.88
549.833	102.88
550.046	110.88
550.259	114.88
550.473	115.88
550.686	105.88
550.899	111.88
551.112	95.88
551.325	103.88
551.538	89.88
551.751	93.88
551.964	88.88
552.177	108.88
552.39	92.88
552.603	107.88
552.816	105.88
553.029	109.88
553.242	101.88
553.455	92.88
553.667	104.88
553.88	122.88
554.093	113.88
554.306	112.88
554.519	117.88
554.732	97.88
554.944	116.88
555.157	100.88
555.37	97.88
555.583	105.88
555.795	103.88
556.008	99.88
556.221	101.88
556.433	99.88
556.646	108.88
556.859	108.88
557.071	96.88
557.284	108.88
557.496	104.88
557.709	105.88
557.921	102.88
558.134	107.88
558.346	114.88
558.559	107.88
558.771	96.88
558.984	86.88
559.196	109.88
559.409	94.88
559.621	91.88
559.833	102.88
560.046	104.88
560.258	85.88
560.47	106.88
560.683	93.88
560.895	96.88
561.107	88.88
561.32	95.88
561.532	96.88
561.744	107.88
561.956	98.88
562.168	110.88
562.381	103.88
562.593	111.88
562.805	91.88
563.017	84.88
563.229	85.88
563.441	81.88
563.653	87.88
563.865	97.88
564.077	89.88
564.289	91.88
564.501	100.88
564.713	114.88
564.925	110.88
565.137	104.88
565.349	103.88
565.561	93.88
565.773	101.88
565.985	111.88
566.197	105.88
566.408	106.88
566.62	100.88
566.832	91.88
567.044	94.88
567.255	96.88
567.467	85.88
567.679	93.88
567.891	81.88
568.102	97.88
568.314	88.88
568.526	88.88
568.737	82.88
568.949	93.88
569.161	84.88
569.372	90.88
569.584	90.88
569.795	87.88
570.007	80.88
570.218	91.88
570.43	78.88
570.641	88.88
570.853	97.88
571.064	99.88
571.276	68.88
571.487	83.88
571.698	85.88
571.91	89.88
572.121	87.88
572.333	103.88
572.544	83.88
572.755	83.88
572.966	75.88
573.178	97.88
573.389	100.88
573.6	89.88
573.811	84.88
574.023	93.88
574.234	90.88
574.445	80.88
574.656	79.88
574.867	93.88
575.078	94.88
575.289	99.88
575.501	97.88
575.712	82.88
575.923	87.88
576.134	87.88
576.345	77.88
576.556	96.88
576.767	97.88
576.978	88.88
577.188	96.88
577.399	96.88
577.61	98.88
577.821	85.88
578.032	78.88
578.243	81.88
578.454	80.88
578.665	87.88
578.875	78.88
579.086	100.88
579.297	90.88
579.508	90.88
579.718	94.88
579.929	96.88
580.14	87.88
580.35	75.88
580.561	109.88
580.772	95.88
580.982	88.88
581.193	73.88
581.403	85.88
581.614	88.88
581.825	88.88
582.035	84.88
582.246	81.88
582.456	78.88
582.667	79.88
582.877	89.88
583.087	78.88
583.298	83.88
583.508	78.88
583.719	73.88
583.929	86.88
584.139	90.88
584.35	92.88
584.56	86.88
584.77	84.88
584.981	91.88
585.191	106.88
585.401	85.88
585.611	84.88
585.821	92.88
586.032	93.88
586.242	93.88
586.452	90.88
586.662	92.88
586.872	74.88
587.082	90.88
587.292	84.88
587.502	99.88
587.713	92.88
587.923	91.88
588.133	98.88
588.343	89.88
588.553	72.88
588.762	89.88
588.972	90.88
589.182	89.88
589.392	89.88
589.602	97.88
589.812	89.88
590.022	85.88
590.232	90.88
590.441	80.88
590.651	88.88
590.861	88.88
591.071	86.88
591.281	87.88
591.49	59.88
591.7	92.88
591.91	93.88
592.119	66.88
592.329	78.88
592.539	92.88
592.748	84.88
592.958	85.88
593.167	89.88
593.377	79.88
593.587	93.88
593.796	91.88
594.006	84.88
594.215	72.88
594.424	88.88
594.634	84.88
594.843	95.88
595.053	80.88
595.262	92.88
595.472	98.88
595.681	98.88
595.89	87.88
596.1	88.88
596.309	85.88
596.518	104.88
596.727	88.88
596.937	78.88
597.146	89.88
597.355	95.88
597.564	83.88
597.774	81.88
597.983	78.88
598.192	76.88
598.401	75.88
598.61	94.88
598.819	72.88
599.028	81.88
599.237	91.88
599.446	73.88
599.655	66.88
599.864	92.88
600.073	76.88
600.282	90.88
600.491	80.88
600.7	92.88
600.909	85.88
601.118	82.88
601.327	95.88
601.536	99.88
601.745	84.88
601.953	89.88
602.162	85.88
602.371	90.88
602.58	95.88
602.789	103.88
602.997	109.88
603.206	76.88
603.415	95.88
603.623	95.88
603.832	97.88
604.041	98.88
604.249	78.88
604.458	99.88
604.666	94.88
604.875	80.88
605.084	89.88
605.292	87.88
605.501	88.88
605.709	99.88
605.918	99.88
606.126	97.88
606.334	96.88
606.543	90.88
606.751	92.88
606.96	85.88
607.168	82.88
607.376	79.88
607.585	86.88
607.793	94.88
608.001	101.88
608.21	94.88
608.418	100.88
608.626	91.88
608.834	90.88
609.043	94.88
609.251	92.88
609.459	81.88
609.667	98.88
609.875	99.88
610.083	97.88
610.291	78.88
610.499	95.88
610.707	98.88
610.916	94.88
611.124	94.88
611.332	72.88
611.54	93.88
611.748	86.88
611.955	100.88
612.163	108.88
612.371	98.88
612.579	89.88
612.787	87.88
612.995	96.88
613.203	91.88
613.411	98.88
613.618	91.88
613.826	88.88
614.034	85.88
614.242	107.88
614.449	77.88
614.657	88.88
614.865	91.88
615.072	74.88
615.28	82.88
615.488	76.88
615.695	101.88
615.903	94.88
616.111	100.88
616.318	91.88
616.526	94.88
616.733	96.88
616.941	95.88
617.148	91.88
617.356	83.88
617.563	91.88
617.771	83.88
617.978	98.88
618.185	88.88
618.393	113.88
618.6	88.88
618.807	96.88
619.015	94.88
619.222	96.88
619.429	85.88
619.637	88.88
619.844	85.88
620.051	88.88
620.258	98.88
620.466	102.88
620.673	97.88
620.88	84.88
621.087	83.88
621.294	94.88
621.501	80.88
621.708	91.88
621.915	96.88
622.122	97.88
622.329	80.88
622.536	90.88
622.743	96.88
622.95	87.88
623.157	83.88
623.364	86.88
623.571	104.88
623.778	94.88
623.985	102.88
624.192	89.88
624.399	89.88
624.606	102.88
624.812	102.88
625.019	99.88
625.226	90.88
625.433	96.88
625.639	96.88
625.846	89.88
626.053	79.88
626.259	96.88
626.466	96.88
626.673	101.88
626.879	82.88
627.086	100.88
627.293	85.88
627.499	88.88
627.706	110.88
627.912	86.88
628.119	94.88
628.325	94.88
628.532	79.88
628.738	92.88
628.945	88.88
629.151	93.88
629.357	103.88
629.564	94.88
629.77	97.88
629.976	83.88
630.183	100.88
630.389	91.88
630.595	81.88
630.802	82.88
631.008	99.88
631.214	84.88
631.42	82.88
631.627	95.88
631.833	94.88
632.039	74.88
632.245	96.88
632.451	83.88
632.657	78.88
632.863	100.88
633.069	90.88
633.275	92.88
633.481	96.88
633.688	85.88
633.893	95.88
634.099	103.88
634.305	78.88
634.511	84.88
634.717	93.88
634.923	91.88
635.129	68.88
635.335	87.88
635.541	89.88
635.747	95.88
635.952	94.88
636.158	72.88
636.364	88.88
636.57	95.88
636.775	100.88
636.981	100.88
637.187	82.88
637.392	86.88
637.598	81.88
637.804	84.88
638.009	84.88
638.215	92.88
638.421	91.88
638.626	95.88
638.832	100.88
639.037	94.88
639.243	78.88
639.448	90.88
639.654	84.88
639.859	83.88
640.065	86.88
640.27	98.88
640.475	90.88
640.681	90.88
640.886	88.88
641.091	82.88
641.297	99.88
641.502	83.88
641.707	101.88
641.913	84.88
642.118	77.88
642.323	85.88
642.528	85.88
642.733	83.88
642.939	97.88
643.144	86.88
643.349	87.88
643.554	101.88
643.759	89.88
643.964	88.88
644.169	68.88
644.374	77.88
644.579	61.88
644.784	69.88
644.989	86.88
645.194	79.88
645.399	99.88
645.604	89.88
645.809	101.88
646.014	85.88
646.219	102.88
646.423	82.88
646.628	87.88
646.833	87.88
647.038	100.88
647.243	95.88
647.447	85.88
647.652	84.88
647.857	91.88
648.062	93.88
648.266	86.88
648.471	91.88
648.676	91.88
648.88	84.88
649.085	87.88
649.289	83.88
649.494	80.88
649.698	91.88
649.903	75.88
650.107	78.88
650.312	83.88
650.516	79.88
650.721	82.88
650.925	71.88
651.13	86.88
651.334	96.88
651.539	82.88
651.743	93.88
651.947	82.88
652.152	81.88
652.356	90.88
652.56	88.88
652.764	87.88
652.969	80.88
653.173	83.88
653.377	78.88
653.581	89.88
653.785	96.88
653.99	83.88
654.194	93.88
654.398	88.88
654.602	84.88
654.806	90.88
655.01	82.88
655.214	84.88
655.418	91.88
655.622	83.88
655.826	87.88
656.03	76.88
656.234	91.88
656.438	76.88
656.642	83.88
656.846	96.88
657.049	88.88
657.253	76.88
657.457	69.88
657.661	74.88
657.865	67.88
658.068	80.88
658.272	92.88
658.476	87.88
658.68	94.88
658.883	80.88
659.087	85.88
659.291	87.88
659.494	88.88
659.698	77.88
659.901	81.88
660.105	81.88
660.309	63.88
660.512	84.88
660.716	78.88
660.919	84.88
661.123	82.88
661.326	79.88
661.53	90.88
661.733	91.88
661.936	91.88
662.14	76.88
662.343	75.88
662.546	79.88
662.75	80.88
662.953	75.88
663.156	84.88
663.36	81.88
663.563	77.88
663.766	78.88
663.969	79.88
664.173	89.88
664.376	68.88
664.579	73.88
664.782	78.88
664.985	84.88
665.188	75.88
665.391	97.88
665.594	85.88
665.797	76.88
666	71.88
666.203	74.88
666.406	82.88
666.609	72.88
666.812	75.88
667.015	83.88
667.218	89.88
667.421	81.88
667.624	90.88
667.827	82.88
668.03	78.88
668.232	75.88
668.435	86.88
668.638	92.88
668.841	79.88
669.043	70.88
669.246	83.88
669.449	82.88
669.651	88.88
669.854	75.88
670.057	85.88
670.259	80.88
670.462	84.88
670.665	85.88
670.867	86.88
671.07	83.88
671.272	80.88
671.475	90.88
671.677	82.88
671.88	72.88
672.082	80.88
672.284	78.88
672.487	91.88
672.689	80.88
672.892	74.88
