Data from Location3.07152019.Energy5.Lamp.07192019.3%Agarose_HRD10591_15-17-52-269.txt Node
Date: Fri Jul 19 15:17:52 EDT 2019
User: cochatt
Spectrometer: HR+D1059
Trigger mode: 1
Integration Time (sec): 1.000000E-1
Scans to average: 1
Electric dark correction enabled: true
Nonlinearity correction enabled: false
Boxcar width: 0
XAxis mode: Wavelengths
Number of Pixels in Spectrum: 2048
>>>>>Begin Spectral Data<<<<<
223.165	-13.25
223.4	-13.25
223.635	-13.25
223.869	-16.25
224.104	-11.25
224.338	-2.25
224.573	-12.25
224.808	-15.25
225.042	-19.25
225.277	-6.25
225.511	0.75
225.746	10.75
225.98	0.75
226.215	2.75
226.449	5.75
226.683	22.75
226.918	28.75
227.152	23.75
227.387	24.75
227.621	29.75
227.856	39.75
228.09	44.75
228.324	43.75
228.559	58.75
228.793	49.75
229.027	80.75
229.262	68.75
229.496	58.75
229.73	59.75
229.964	62.75
230.199	78.75
230.433	71.75
230.667	70.75
230.901	72.75
231.136	78.75
231.37	67.75
231.604	77.75
231.838	79.75
232.072	94.75
232.306	78.75
232.541	89.75
232.775	93.75
233.009	79.75
233.243	72.75
233.477	80.75
233.711	76.75
233.945	68.75
234.179	98.75
234.413	78.75
234.647	87.75
234.881	69.75
235.115	78.75
235.349	78.75
235.583	82.75
235.817	82.75
236.051	69.75
236.285	82.75
236.519	81.75
236.753	70.75
236.987	80.75
237.221	71.75
237.455	76.75
237.689	73.75
237.922	74.75
238.156	74.75
238.39	76.75
238.624	72.75
238.858	73.75
239.091	80.75
239.325	77.75
239.559	79.75
239.793	68.75
240.027	92.75
240.26	79.75
240.494	71.75
240.728	84.75
240.961	66.75
241.195	86.75
241.429	74.75
241.662	73.75
241.896	67.75
242.13	80.75
242.363	82.75
242.597	80.75
242.83	76.75
243.064	65.75
243.298	72.75
243.531	94.75
243.765	76.75
243.998	75.75
244.232	82.75
244.465	89.75
244.699	66.75
244.932	77.75
245.166	71.75
245.399	73.75
245.633	74.75
245.866	68.75
246.099	76.75
246.333	67.75
246.566	68.75
246.8	72.75
247.033	76.75
247.266	73.75
247.5	86.75
247.733	80.75
247.966	73.75
248.2	80.75
248.433	73.75
248.666	78.75
248.899	80.75
249.133	58.75
249.366	68.75
249.599	69.75
249.832	65.75
250.066	82.75
250.299	74.75
250.532	72.75
250.765	77.75
250.998	81.75
251.231	78.75
251.465	94.75
251.698	79.75
251.931	80.75
252.164	79.75
252.397	86.75
252.63	67.75
252.863	74.75
253.096	83.75
253.329	82.75
253.562	78.75
253.795	86.75
254.028	62.75
254.261	85.75
254.494	79.75
254.727	71.75
254.96	86.75
255.193	65.75
255.426	64.75
255.659	73.75
255.892	83.75
256.124	71.75
256.357	71.75
256.59	86.75
256.823	87.75
257.056	84.75
257.289	69.75
257.521	78.75
257.754	92.75
257.987	75.75
258.22	88.75
258.452	73.75
258.685	82.75
258.918	88.75
259.151	77.75
259.383	74.75
259.616	69.75
259.849	68.75
260.081	79.75
260.314	72.75
260.547	81.75
260.779	77.75
261.012	81.75
261.244	84.75
261.477	83.75
261.71	90.75
261.942	99.75
262.175	73.75
262.407	84.75
262.64	78.75
262.872	69.75
263.105	58.75
263.337	61.75
263.57	90.75
263.802	89.75
264.035	87.75
264.267	73.75
264.499	88.75
264.732	84.75
264.964	85.75
265.197	83.75
265.429	96.75
265.661	92.75
265.894	86.75
266.126	71.75
266.358	90.75
266.591	86.75
266.823	80.75
267.055	81.75
267.287	96.75
267.52	81.75
267.752	75.75
267.984	74.75
268.216	79.75
268.448	78.75
268.681	89.75
268.913	84.75
269.145	80.75
269.377	73.75
269.609	92.75
269.841	73.75
270.073	73.75
270.306	90.75
270.538	79.75
270.77	86.75
271.002	89.75
271.234	83.75
271.466	101.75
271.698	71.75
271.93	66.75
272.162	81.75
272.394	92.75
272.626	69.75
272.858	80.75
273.09	77.75
273.322	85.75
273.553	97.75
273.785	79.75
274.017	92.75
274.249	87.75
274.481	83.75
274.713	79.75
274.945	87.75
275.176	73.75
275.408	83.75
275.64	75.75
275.872	75.75
276.104	81.75
276.335	84.75
276.567	76.75
276.799	65.75
277.031	74.75
277.262	69.75
277.494	81.75
277.726	64.75
277.957	76.75
278.189	91.75
278.421	79.75
278.652	88.75
278.884	76.75
279.115	77.75
279.347	86.75
279.579	77.75
279.81	78.75
280.042	94.75
280.273	79.75
280.505	81.75
280.736	87.75
280.968	102.75
281.199	93.75
281.431	84.75
281.662	68.75
281.894	76.75
282.125	85.75
282.356	85.75
282.588	82.75
282.819	86.75
283.051	86.75
283.282	81.75
283.513	96.75
283.745	88.75
283.976	81.75
284.207	73.75
284.439	92.75
284.67	85.75
284.901	95.75
285.132	90.75
285.364	86.75
285.595	87.75
285.826	86.75
286.057	66.75
286.288	84.75
286.52	96.75
286.751	85.75
286.982	92.75
287.213	80.75
287.444	93.75
287.675	81.75
287.906	77.75
288.138	82.75
288.369	80.75
288.6	77.75
288.831	92.75
289.062	88.75
289.293	82.75
289.524	77.75
289.755	86.75
289.986	83.75
290.217	75.75
290.448	80.75
290.679	86.75
290.91	84.75
291.141	86.75
291.371	78.75
291.602	72.75
291.833	83.75
292.064	83.75
292.295	88.75
292.526	89.75
292.757	85.75
292.987	87.75
293.218	73.75
293.449	90.75
293.68	60.75
293.91	72.75
294.141	92.75
294.372	83.75
294.603	82.75
294.833	96.75
295.064	79.75
295.295	81.75
295.525	69.75
295.756	80.75
295.987	77.75
296.217	73.75
296.448	82.75
296.679	89.75
296.909	80.75
297.14	84.75
297.37	88.75
297.601	82.75
297.831	81.75
298.062	92.75
298.292	83.75
298.523	86.75
298.753	89.75
298.984	72.75
299.214	97.75
299.445	88.75
299.675	94.75
299.905	82.75
300.136	88.75
300.366	78.75
300.597	85.75
300.827	84.75
301.057	80.75
301.288	90.75
301.518	81.75
301.748	89.75
301.979	81.75
302.209	78.75
302.439	75.75
302.669	79.75
302.9	88.75
303.13	72.75
303.36	85.75
303.59	85.75
303.82	73.75
304.051	99.75
304.281	85.75
304.511	86.75
304.741	88.75
304.971	83.75
305.201	98.75
305.431	69.75
305.661	76.75
305.891	80.75
306.121	92.75
306.352	88.75
306.582	80.75
306.812	66.75
307.042	77.75
307.272	78.75
307.502	76.75
307.731	71.75
307.961	76.75
308.191	80.75
308.421	79.75
308.651	88.75
308.881	82.75
309.111	71.75
309.341	83.75
309.571	98.75
309.8	101.75
310.03	90.75
310.26	80.75
310.49	74.75
310.72	90.75
310.949	95.75
311.179	87.75
311.409	84.75
311.639	87.75
311.868	82.75
312.098	82.75
312.328	82.75
312.557	78.75
312.787	80.75
313.017	91.75
313.246	81.75
313.476	68.75
313.706	87.75
313.935	80.75
314.165	71.75
314.394	86.75
314.624	88.75
314.853	91.75
315.083	84.75
315.312	81.75
315.542	102.75
315.771	80.75
316.001	86.75
316.23	86.75
316.46	93.75
316.689	81.75
316.919	65.75
317.148	72.75
317.377	75.75
317.607	73.75
317.836	76.75
318.065	79.75
318.295	64.75
318.524	77.75
318.753	86.75
318.983	80.75
319.212	83.75
319.441	75.75
319.67	82.75
319.9	86.75
320.129	81.75
320.358	83.75
320.587	80.75
320.816	75.75
321.046	68.75
321.275	90.75
321.504	85.75
321.733	79.75
321.962	82.75
322.191	83.75
322.42	87.75
322.649	86.75
322.878	92.75
323.108	82.75
323.337	80.75
323.566	84.75
323.795	86.75
324.024	105.75
324.253	89.75
324.482	84.75
324.71	94.75
324.939	92.75
325.168	80.75
325.397	74.75
325.626	69.75
325.855	79.75
326.084	93.75
326.313	86.75
326.542	76.75
326.77	80.75
326.999	82.75
327.228	84.75
327.457	67.75
327.686	75.75
327.914	90.75
328.143	103.75
328.372	81.75
328.6	82.75
328.829	74.75
329.058	80.75
329.287	83.75
329.515	87.75
329.744	96.75
329.972	96.75
330.201	84.75
330.43	83.75
330.658	90.75
330.887	74.75
331.115	92.75
331.344	89.75
331.572	82.75
331.801	89.75
332.03	71.75
332.258	80.75
332.486	78.75
332.715	62.75
332.943	85.75
333.172	74.75
333.4	76.75
333.629	73.75
333.857	82.75
334.085	73.75
334.314	82.75
334.542	97.75
334.771	86.75
334.999	83.75
335.227	79.75
335.455	89.75
335.684	88.75
335.912	76.75
336.14	69.75
336.369	72.75
336.597	87.75
336.825	94.75
337.053	89.75
337.281	84.75
337.51	67.75
337.738	79.75
337.966	86.75
338.194	73.75
338.422	78.75
338.65	75.75
338.878	85.75
339.106	78.75
339.334	84.75
339.562	84.75
339.79	83.75
340.018	83.75
340.246	74.75
340.474	72.75
340.702	82.75
340.93	90.75
341.158	79.75
341.386	86.75
341.614	85.75
341.842	75.75
342.07	77.75
342.298	94.75
342.526	76.75
342.754	82.75
342.981	84.75
343.209	75.75
343.437	80.75
343.665	83.75
343.893	84.75
344.12	84.75
344.348	85.75
344.576	80.75
344.804	84.75
345.031	74.75
345.259	76.75
345.487	97.75
345.714	78.75
345.942	95.75
346.17	91.75
346.397	77.75
346.625	81.75
346.853	85.75
347.08	85.75
347.308	84.75
347.535	100.75
347.763	90.75
347.99	84.75
348.218	88.75
348.445	79.75
348.673	82.75
348.9	84.75
349.128	108.75
349.355	84.75
349.583	72.75
349.81	62.75
350.037	82.75
350.265	75.75
350.492	90.75
350.72	89.75
350.947	79.75
351.174	76.75
351.402	82.75
351.629	78.75
351.856	82.75
352.083	81.75
352.311	75.75
352.538	81.75
352.765	79.75
352.992	92.75
353.22	83.75
353.447	82.75
353.674	70.75
353.901	89.75
354.128	76.75
354.355	83.75
354.583	72.75
354.81	77.75
355.037	84.75
355.264	85.75
355.491	78.75
355.718	83.75
355.945	85.75
356.172	73.75
356.399	82.75
356.626	72.75
356.853	87.75
357.08	89.75
357.307	82.75
357.534	80.75
357.761	81.75
357.988	83.75
358.215	73.75
358.441	69.75
358.668	95.75
358.895	87.75
359.122	82.75
359.349	60.75
359.576	70.75
359.802	76.75
360.029	77.75
360.256	105.75
360.483	92.75
360.709	84.75
360.936	97.75
361.163	85.75
361.39	82.75
361.616	88.75
361.843	78.75
362.07	88.75
362.296	84.75
362.523	73.75
362.749	65.75
362.976	84.75
363.203	80.75
363.429	86.75
363.656	87.75
363.882	78.75
364.109	78.75
364.335	81.75
364.562	97.75
364.788	82.75
365.015	80.75
365.241	68.75
365.468	79.75
365.694	71.75
365.92	75.75
366.147	75.75
366.373	93.75
366.599	79.75
366.826	82.75
367.052	74.75
367.278	92.75
367.505	74.75
367.731	76.75
367.957	81.75
368.184	78.75
368.41	69.75
368.636	79.75
368.862	96.75
369.089	74.75
369.315	79.75
369.541	80.75
369.767	75.75
369.993	75.75
370.219	78.75
370.445	78.75
370.672	81.75
370.898	71.75
371.124	72.75
371.35	77.75
371.576	79.75
371.802	93.75
372.028	67.75
372.254	89.75
372.48	80.75
372.706	83.75
372.932	84.75
373.158	82.75
373.384	85.75
373.61	74.75
373.835	94.75
374.061	90.75
374.287	80.75
374.513	74.75
374.739	74.75
374.965	86.75
375.191	79.75
375.416	89.75
375.642	88.75
375.868	83.75
376.094	89.75
376.319	73.75
376.545	84.75
376.771	85.75
376.997	79.75
377.222	77.75
377.448	74.75
377.674	92.75
377.899	84.75
378.125	85.75
378.35	82.75
378.576	81.75
378.802	83.75
379.027	89.75
379.253	78.75
379.478	87.75
379.704	89.75
379.929	76.75
380.155	91.75
380.38	88.75
380.606	90.75
380.831	73.75
381.057	77.75
381.282	94.75
381.507	77.75
381.733	91.75
381.958	85.75
382.184	81.75
382.409	80.75
382.634	82.75
382.86	84.75
383.085	72.75
383.31	86.75
383.535	75.75
383.761	85.75
383.986	72.75
384.211	69.75
384.436	78.75
384.662	89.75
384.887	98.75
385.112	91.75
385.337	80.75
385.562	89.75
385.787	80.75
386.013	97.75
386.238	84.75
386.463	79.75
386.688	80.75
386.913	92.75
387.138	87.75
387.363	84.75
387.588	92.75
387.813	99.75
388.038	70.75
388.263	98.75
388.488	88.75
388.713	86.75
388.938	91.75
389.163	90.75
389.387	70.75
389.612	85.75
389.837	89.75
390.062	77.75
390.287	90.75
390.512	84.75
390.736	90.75
390.961	87.75
391.186	84.75
391.411	93.75
391.636	82.75
391.86	79.75
392.085	68.75
392.31	78.75
392.534	82.75
392.759	79.75
392.984	77.75
393.208	87.75
393.433	84.75
393.658	96.75
393.882	83.75
394.107	80.75
394.331	57.75
394.556	84.75
394.78	80.75
395.005	82.75
395.229	90.75
395.454	96.75
395.678	83.75
395.903	82.75
396.127	79.75
396.352	76.75
396.576	73.75
396.801	84.75
397.025	82.75
397.249	84.75
397.474	100.75
397.698	93.75
397.922	85.75
398.147	82.75
398.371	92.75
398.595	95.75
398.82	74.75
399.044	65.75
399.268	81.75
399.492	86.75
399.717	84.75
399.941	81.75
400.165	84.75
400.389	86.75
400.613	87.75
400.837	77.75
401.062	92.75
401.286	81.75
401.51	93.75
401.734	91.75
401.958	85.75
402.182	98.75
402.406	99.75
402.63	91.75
402.854	93.75
403.078	87.75
403.302	88.75
403.526	73.75
403.75	83.75
403.974	100.75
404.198	80.75
404.422	95.75
404.645	84.75
404.869	89.75
405.093	96.75
405.317	94.75
405.541	96.75
405.765	94.75
405.988	89.75
406.212	94.75
406.436	94.75
406.66	90.75
406.883	80.75
407.107	88.75
407.331	84.75
407.555	80.75
407.778	81.75
408.002	77.75
408.226	82.75
408.449	94.75
408.673	82.75
408.896	89.75
409.12	76.75
409.344	92.75
409.567	93.75
409.791	92.75
410.014	92.75
410.238	93.75
410.461	84.75
410.685	88.75
410.908	87.75
411.132	90.75
411.355	81.75
411.578	88.75
411.802	98.75
412.025	85.75
412.249	78.75
412.472	82.75
412.695	101.75
412.919	86.75
413.142	72.75
413.365	86.75
413.589	91.75
413.812	90.75
414.035	91.75
414.258	85.75
414.482	58.75
414.705	93.75
414.928	83.75
415.151	86.75
415.374	86.75
415.597	83.75
415.821	97.75
416.044	87.75
416.267	81.75
416.49	89.75
416.713	90.75
416.936	80.75
417.159	90.75
417.382	82.75
417.605	88.75
417.828	94.75
418.051	101.75
418.274	84.75
418.497	81.75
418.72	94.75
418.943	93.75
419.166	88.75
419.389	92.75
419.611	97.75
419.834	100.75
420.057	85.75
420.28	92.75
420.503	100.75
420.726	93.75
420.948	95.75
421.171	95.75
421.394	89.75
421.617	88.75
421.839	92.75
422.062	97.75
422.285	100.75
422.507	97.75
422.73	95.75
422.953	86.75
423.175	82.75
423.398	75.75
423.621	85.75
423.843	78.75
424.066	86.75
424.288	92.75
424.511	94.75
424.733	95.75
424.956	98.75
425.178	103.75
425.401	89.75
425.623	94.75
425.846	78.75
426.068	98.75
426.291	103.75
426.513	94.75
426.735	88.75
426.958	111.75
427.18	96.75
427.402	94.75
427.625	94.75
427.847	80.75
428.069	80.75
428.292	102.75
428.514	88.75
428.736	80.75
428.958	83.75
429.181	90.75
429.403	93.75
429.625	89.75
429.847	96.75
430.069	87.75
430.292	84.75
430.514	92.75
430.736	102.75
430.958	104.75
431.18	97.75
431.402	92.75
431.624	84.75
431.846	93.75
432.068	74.75
432.29	79.75
432.512	86.75
432.734	96.75
432.956	98.75
433.178	98.75
433.4	97.75
433.622	90.75
433.844	95.75
434.066	78.75
434.287	84.75
434.509	88.75
434.731	76.75
434.953	92.75
435.175	87.75
435.397	98.75
435.618	92.75
435.84	79.75
436.062	90.75
436.284	95.75
436.505	90.75
436.727	87.75
436.949	85.75
437.17	96.75
437.392	89.75
437.614	81.75
437.835	85.75
438.057	88.75
438.278	78.75
438.5	83.75
438.721	85.75
438.943	89.75
439.165	83.75
439.386	86.75
439.608	102.75
439.829	94.75
440.05	91.75
440.272	104.75
440.493	95.75
440.715	99.75
440.936	96.75
441.158	85.75
441.379	83.75
441.6	93.75
441.822	108.75
442.043	84.75
442.264	101.75
442.486	89.75
442.707	93.75
442.928	90.75
443.149	96.75
443.371	86.75
443.592	98.75
443.813	93.75
444.034	98.75
444.255	102.75
444.476	104.75
444.698	101.75
444.919	82.75
445.14	164.75
445.361	128.75
445.582	93.75
445.803	93.75
446.024	92.75
446.245	101.75
446.466	93.75
446.687	89.75
446.908	102.75
447.129	104.75
447.35	106.75
447.571	84.75
447.792	102.75
448.013	90.75
448.234	94.75
448.455	89.75
448.675	93.75
448.896	103.75
449.117	89.75
449.338	78.75
449.559	88.75
449.779	110.75
450	106.75
450.221	75.75
450.442	90.75
450.662	92.75
450.883	96.75
451.104	79.75
451.324	88.75
451.545	58.75
451.766	74.75
451.986	95.75
452.207	95.75
452.428	85.75
452.648	93.75
452.869	87.75
453.089	85.75
453.31	92.75
453.53	82.75
453.751	92.75
453.971	92.75
454.192	85.75
454.412	89.75
454.633	104.75
454.853	82.75
455.073	94.75
455.294	90.75
455.514	99.75
455.734	87.75
455.955	84.75
456.175	89.75
456.395	86.75
456.616	79.75
456.836	82.75
457.056	86.75
457.276	103.75
457.497	80.75
457.717	95.75
457.937	83.75
458.157	96.75
458.377	73.75
458.598	86.75
458.818	88.75
459.038	89.75
459.258	71.75
459.478	89.75
459.698	71.75
459.918	86.75
460.138	88.75
460.358	89.75
460.578	93.75
460.798	81.75
461.018	97.75
461.238	97.75
461.458	89.75
461.678	86.75
461.898	99.75
462.118	96.75
462.338	83.75
462.558	88.75
462.777	99.75
462.997	76.75
463.217	65.75
463.437	93.75
463.657	99.75
463.876	94.75
464.096	80.75
464.316	72.75
464.536	71.75
464.755	76.75
464.975	84.75
465.195	87.75
465.414	81.75
465.634	100.75
465.854	102.75
466.073	80.75
466.293	95.75
466.512	80.75
466.732	101.75
466.951	94.75
467.171	93.75
467.391	82.75
467.61	102.75
467.829	109.75
468.049	98.75
468.268	94.75
468.488	89.75
468.707	98.75
468.927	95.75
469.146	79.75
469.365	92.75
469.585	86.75
469.804	95.75
470.023	101.75
470.243	100.75
470.462	101.75
470.681	102.75
470.901	99.75
471.12	101.75
471.339	91.75
471.558	86.75
471.777	102.75
471.997	87.75
472.216	96.75
472.435	87.75
472.654	81.75
472.873	93.75
473.092	87.75
473.311	100.75
473.53	97.75
473.749	91.75
473.968	95.75
474.187	81.75
474.406	75.75
474.625	94.75
474.844	96.75
475.063	94.75
475.282	81.75
475.501	86.75
475.72	96.75
475.939	83.75
476.158	82.75
476.377	102.75
476.596	80.75
476.814	78.75
477.033	88.75
477.252	94.75
477.471	88.75
477.69	96.75
477.908	96.75
478.127	103.75
478.346	96.75
478.564	89.75
478.783	89.75
479.002	97.75
479.22	96.75
479.439	83.75
479.658	83.75
479.876	85.75
480.095	89.75
480.313	98.75
480.532	89.75
480.751	86.75
480.969	82.75
481.188	86.75
481.406	91.75
481.624	67.75
481.843	86.75
482.061	98.75
482.28	93.75
482.498	98.75
482.717	87.75
482.935	89.75
483.153	97.75
483.372	99.75
483.59	102.75
483.808	99.75
484.027	101.75
484.245	101.75
484.463	102.75
484.681	102.75
484.9	90.75
485.118	92.75
485.336	106.75
485.554	81.75
485.772	81.75
485.99	89.75
486.209	78.75
486.427	82.75
486.645	98.75
486.863	96.75
487.081	96.75
487.299	88.75
487.517	99.75
487.735	101.75
487.953	106.75
488.171	101.75
488.389	99.75
488.607	97.75
488.825	104.75
489.043	94.75
489.261	94.75
489.479	100.75
489.696	117.75
489.914	81.75
490.132	106.75
490.35	98.75
490.568	93.75
490.786	90.75
491.003	105.75
491.221	111.75
491.439	108.75
491.657	116.75
491.874	111.75
492.092	115.75
492.31	129.75
492.527	142.75
492.745	114.75
492.963	118.75
493.18	109.75
493.398	96.75
493.615	94.75
493.833	109.75
494.05	108.75
494.268	110.75
494.485	102.75
494.703	114.75
494.92	95.75
495.138	105.75
495.355	114.75
495.573	108.75
495.79	111.75
496.008	112.75
496.225	110.75
496.442	96.75
496.66	117.75
496.877	110.75
497.094	105.75
497.312	99.75
497.529	105.75
497.746	108.75
497.963	90.75
498.181	93.75
498.398	90.75
498.615	103.75
498.832	99.75
499.049	88.75
499.267	88.75
499.484	97.75
499.701	89.75
499.918	105.75
500.135	101.75
500.352	107.75
500.569	101.75
500.786	104.75
501.003	92.75
501.22	92.75
501.437	106.75
501.654	97.75
501.871	91.75
502.088	84.75
502.305	99.75
502.522	96.75
502.739	101.75
502.956	91.75
503.172	70.75
503.389	88.75
503.606	86.75
503.823	103.75
504.04	100.75
504.256	93.75
504.473	77.75
504.69	88.75
504.907	93.75
505.123	106.75
505.34	108.75
505.557	88.75
505.773	96.75
505.99	97.75
506.207	96.75
506.423	72.75
506.64	85.75
506.856	103.75
507.073	90.75
507.289	88.75
507.506	110.75
507.722	73.75
507.939	84.75
508.155	86.75
508.372	84.75
508.588	100.75
508.805	94.75
509.021	86.75
509.238	83.75
509.454	94.75
509.67	97.75
509.887	90.75
510.103	87.75
510.319	86.75
510.536	79.75
510.752	81.75
510.968	75.75
511.184	76.75
511.401	85.75
511.617	72.75
511.833	86.75
512.049	82.75
512.265	90.75
512.481	84.75
512.698	103.75
512.914	85.75
513.13	90.75
513.346	78.75
513.562	88.75
513.778	82.75
513.994	86.75
514.21	78.75
514.426	85.75
514.642	92.75
514.858	91.75
515.074	84.75
515.29	87.75
515.506	76.75
515.721	97.75
515.937	97.75
516.153	86.75
516.369	75.75
516.585	78.75
516.801	70.75
517.016	74.75
517.232	87.75
517.448	84.75
517.664	80.75
517.879	83.75
518.095	77.75
518.311	89.75
518.527	82.75
518.742	80.75
518.958	78.75
519.173	80.75
519.389	84.75
519.605	93.75
519.82	94.75
520.036	90.75
520.251	104.75
520.467	82.75
520.682	94.75
520.898	69.75
521.113	85.75
521.329	87.75
521.544	78.75
521.76	72.75
521.975	76.75
522.19	93.75
522.406	87.75
522.621	86.75
522.836	89.75
523.052	95.75
523.267	95.75
523.482	74.75
523.698	102.75
523.913	107.75
524.128	82.75
524.343	83.75
524.559	77.75
524.774	97.75
524.989	83.75
525.204	83.75
525.419	98.75
525.634	99.75
525.849	89.75
526.064	89.75
526.28	80.75
526.495	86.75
526.71	83.75
526.925	87.75
527.14	77.75
527.355	74.75
527.57	76.75
527.785	94.75
527.999	84.75
528.214	93.75
528.429	86.75
528.644	102.75
528.859	102.75
529.074	110.75
529.289	105.75
529.503	102.75
529.718	96.75
529.933	92.75
530.148	93.75
530.363	84.75
530.577	87.75
530.792	92.75
531.007	93.75
531.221	74.75
531.436	72.75
531.651	81.75
531.865	82.75
532.08	89.75
532.295	87.75
532.509	85.75
532.724	75.75
532.938	100.75
533.153	85.75
533.367	86.75
533.582	68.75
533.796	81.75
534.011	88.75
534.225	83.75
534.44	94.75
534.654	83.75
534.868	89.75
535.083	79.75
535.297	79.75
535.511	88.75
535.726	99.75
535.94	91.75
536.154	92.75
536.369	79.75
536.583	86.75
536.797	87.75
537.011	82.75
537.225	79.75
537.44	73.75
537.654	66.75
537.868	72.75
538.082	98.75
538.296	88.75
538.51	83.75
538.724	109.75
538.938	100.75
539.153	94.75
539.367	95.75
539.581	85.75
539.795	82.75
540.009	91.75
540.222	90.75
540.436	98.75
540.65	112.75
540.864	92.75
541.078	92.75
541.292	92.75
541.506	103.75
541.72	118.75
541.934	118.75
542.147	119.75
542.361	98.75
542.575	108.75
542.789	103.75
543.002	85.75
543.216	101.75
543.43	88.75
543.644	77.75
543.857	98.75
544.071	110.75
544.285	106.75
544.498	110.75
544.712	98.75
544.925	105.75
545.139	101.75
545.352	117.75
545.566	112.75
545.779	110.75
545.993	98.75
546.206	95.75
546.42	121.75
546.633	105.75
546.847	114.75
547.06	100.75
547.274	106.75
547.487	106.75
547.7	100.75
547.914	112.75
548.127	106.75
548.34	115.75
548.554	111.75
548.767	86.75
548.98	108.75
549.193	104.75
549.407	102.75
549.62	96.75
549.833	94.75
550.046	105.75
550.259	113.75
550.473	98.75
550.686	98.75
550.899	99.75
551.112	92.75
551.325	115.75
551.538	115.75
551.751	90.75
551.964	89.75
552.177	100.75
552.39	105.75
552.603	108.75
552.816	98.75
553.029	112.75
553.242	89.75
553.455	113.75
553.667	120.75
553.88	93.75
554.093	104.75
554.306	93.75
554.519	101.75
554.732	110.75
554.944	113.75
555.157	85.75
555.37	91.75
555.583	118.75
555.795	114.75
556.008	118.75
556.221	102.75
556.433	109.75
556.646	98.75
556.859	100.75
557.071	93.75
557.284	96.75
557.496	97.75
557.709	102.75
557.921	110.75
558.134	111.75
558.346	101.75
558.559	102.75
558.771	102.75
558.984	104.75
559.196	92.75
559.409	91.75
559.621	84.75
559.833	110.75
560.046	100.75
560.258	99.75
560.47	98.75
560.683	98.75
560.895	91.75
561.107	97.75
561.32	108.75
561.532	99.75
561.744	102.75
561.956	105.75
562.168	91.75
562.381	97.75
562.593	99.75
562.805	99.75
563.017	100.75
563.229	94.75
563.441	104.75
563.653	99.75
563.865	97.75
564.077	94.75
564.289	84.75
564.501	90.75
564.713	98.75
564.925	103.75
565.137	84.75
565.349	92.75
565.561	98.75
565.773	96.75
565.985	110.75
566.197	93.75
566.408	94.75
566.62	101.75
566.832	93.75
567.044	84.75
567.255	95.75
567.467	87.75
567.679	85.75
567.891	86.75
568.102	87.75
568.314	97.75
568.526	84.75
568.737	86.75
568.949	90.75
569.161	74.75
569.372	78.75
569.584	83.75
569.795	90.75
570.007	85.75
570.218	96.75
570.43	81.75
570.641	93.75
570.853	83.75
571.064	72.75
571.276	72.75
571.487	85.75
571.698	64.75
571.91	93.75
572.121	80.75
572.333	91.75
572.544	94.75
572.755	73.75
572.966	84.75
573.178	88.75
573.389	82.75
573.6	93.75
573.811	96.75
574.023	72.75
574.234	77.75
574.445	85.75
574.656	73.75
574.867	81.75
575.078	93.75
575.289	87.75
575.501	98.75
575.712	81.75
575.923	87.75
576.134	84.75
576.345	83.75
576.556	90.75
576.767	85.75
576.978	86.75
577.188	84.75
577.399	93.75
577.61	89.75
577.821	95.75
578.032	103.75
578.243	68.75
578.454	90.75
578.665	92.75
578.875	79.75
579.086	88.75
579.297	88.75
579.508	78.75
579.718	79.75
579.929	100.75
580.14	83.75
580.35	90.75
580.561	89.75
580.772	88.75
580.982	66.75
581.193	81.75
581.403	93.75
581.614	86.75
581.825	88.75
582.035	87.75
582.246	84.75
582.456	74.75
582.667	79.75
582.877	96.75
583.087	92.75
583.298	99.75
583.508	101.75
583.719	72.75
583.929	86.75
584.139	71.75
584.35	88.75
584.56	66.75
584.77	69.75
584.981	77.75
585.191	89.75
585.401	86.75
585.611	84.75
585.821	73.75
586.032	88.75
586.242	79.75
586.452	89.75
586.662	78.75
586.872	77.75
587.082	78.75
587.292	88.75
587.502	75.75
587.713	80.75
587.923	76.75
588.133	83.75
588.343	75.75
588.553	74.75
588.762	86.75
588.972	91.75
589.182	80.75
589.392	77.75
589.602	86.75
589.812	98.75
590.022	80.75
590.232	85.75
590.441	77.75
590.651	84.75
590.861	85.75
591.071	84.75
591.281	81.75
591.49	77.75
591.7	72.75
591.91	93.75
592.119	75.75
592.329	82.75
592.539	78.75
592.748	90.75
592.958	83.75
593.167	83.75
593.377	82.75
593.587	87.75
593.796	89.75
594.006	80.75
594.215	70.75
594.424	65.75
594.634	93.75
594.843	79.75
595.053	78.75
595.262	84.75
595.472	71.75
595.681	79.75
595.89	73.75
596.1	88.75
596.309	71.75
596.518	93.75
596.727	87.75
596.937	100.75
597.146	75.75
597.355	85.75
597.564	89.75
597.774	85.75
597.983	79.75
598.192	79.75
598.401	82.75
598.61	89.75
598.819	85.75
599.028	87.75
599.237	81.75
599.446	89.75
599.655	93.75
599.864	100.75
600.073	93.75
600.282	97.75
600.491	82.75
600.7	80.75
600.909	92.75
601.118	86.75
601.327	81.75
601.536	84.75
601.745	98.75
601.953	84.75
602.162	88.75
602.371	98.75
602.58	87.75
602.789	96.75
602.997	86.75
603.206	94.75
603.415	90.75
603.623	75.75
603.832	93.75
604.041	77.75
604.249	93.75
604.458	81.75
604.666	86.75
604.875	89.75
605.084	91.75
605.292	87.75
605.501	88.75
605.709	84.75
605.918	103.75
606.126	95.75
606.334	102.75
606.543	91.75
606.751	96.75
606.96	93.75
607.168	98.75
607.376	88.75
607.585	93.75
607.793	86.75
608.001	81.75
608.21	85.75
608.418	91.75
608.626	95.75
608.834	95.75
609.043	93.75
609.251	103.75
609.459	93.75
609.667	92.75
609.875	101.75
610.083	86.75
610.291	108.75
610.499	90.75
610.707	87.75
610.916	90.75
611.124	82.75
611.332	84.75
611.54	82.75
611.748	92.75
611.955	94.75
612.163	91.75
612.371	95.75
612.579	88.75
612.787	90.75
612.995	91.75
613.203	108.75
613.411	93.75
613.618	76.75
613.826	82.75
614.034	82.75
614.242	98.75
614.449	89.75
614.657	100.75
614.865	86.75
615.072	95.75
615.28	90.75
615.488	93.75
615.695	81.75
615.903	73.75
616.111	85.75
616.318	85.75
616.526	102.75
616.733	94.75
616.941	88.75
617.148	76.75
617.356	81.75
617.563	93.75
617.771	89.75
617.978	87.75
618.185	81.75
618.393	98.75
618.6	96.75
618.807	86.75
619.015	80.75
619.222	87.75
619.429	80.75
619.637	93.75
619.844	84.75
620.051	94.75
620.258	82.75
620.466	87.75
620.673	104.75
620.88	89.75
621.087	83.75
621.294	72.75
621.501	85.75
621.708	93.75
621.915	104.75
622.122	85.75
622.329	92.75
622.536	94.75
622.743	89.75
622.95	88.75
623.157	74.75
623.364	83.75
623.571	87.75
623.778	88.75
623.985	84.75
624.192	96.75
624.399	89.75
624.606	79.75
624.812	101.75
625.019	86.75
625.226	99.75
625.433	90.75
625.639	88.75
625.846	79.75
626.053	74.75
626.259	88.75
626.466	86.75
626.673	90.75
626.879	84.75
627.086	93.75
627.293	78.75
627.499	84.75
627.706	87.75
627.912	90.75
628.119	89.75
628.325	106.75
628.532	82.75
628.738	82.75
628.945	84.75
629.151	87.75
629.357	84.75
629.564	93.75
629.77	74.75
629.976	87.75
630.183	78.75
630.389	87.75
630.595	80.75
630.802	72.75
631.008	87.75
631.214	89.75
631.42	91.75
631.627	97.75
631.833	88.75
632.039	80.75
632.245	85.75
632.451	72.75
632.657	99.75
632.863	89.75
633.069	84.75
633.275	81.75
633.481	78.75
633.688	94.75
633.893	80.75
634.099	80.75
634.305	95.75
634.511	95.75
634.717	78.75
634.923	88.75
635.129	93.75
635.335	92.75
635.541	73.75
635.747	89.75
635.952	89.75
636.158	91.75
636.364	71.75
636.57	87.75
636.775	89.75
636.981	84.75
637.187	75.75
637.392	70.75
637.598	73.75
637.804	96.75
638.009	73.75
638.215	90.75
638.421	92.75
638.626	89.75
638.832	69.75
639.037	82.75
639.243	82.75
639.448	84.75
639.654	86.75
639.859	75.75
640.065	86.75
640.27	87.75
640.475	100.75
640.681	99.75
640.886	97.75
641.091	74.75
641.297	82.75
641.502	84.75
641.707	86.75
641.913	85.75
642.118	85.75
642.323	98.75
642.528	90.75
642.733	85.75
642.939	94.75
643.144	99.75
643.349	89.75
643.554	99.75
643.759	93.75
643.964	94.75
644.169	84.75
644.374	77.75
644.579	77.75
644.784	88.75
644.989	79.75
645.194	97.75
645.399	97.75
645.604	84.75
645.809	92.75
646.014	109.75
646.219	81.75
646.423	88.75
646.628	90.75
646.833	82.75
647.038	84.75
647.243	88.75
647.447	76.75
647.652	86.75
647.857	87.75
648.062	79.75
648.266	81.75
648.471	86.75
648.676	87.75
648.88	96.75
649.085	82.75
649.289	92.75
649.494	80.75
649.698	68.75
649.903	73.75
650.107	80.75
650.312	82.75
650.516	91.75
650.721	78.75
650.925	100.75
651.13	94.75
651.334	85.75
651.539	92.75
651.743	74.75
651.947	87.75
652.152	77.75
652.356	97.75
652.56	89.75
652.764	84.75
652.969	71.75
653.173	86.75
653.377	74.75
653.581	74.75
653.785	82.75
653.99	91.75
654.194	82.75
654.398	79.75
654.602	105.75
654.806	80.75
655.01	87.75
655.214	72.75
655.418	97.75
655.622	86.75
655.826	90.75
656.03	87.75
656.234	84.75
656.438	84.75
656.642	78.75
656.846	86.75
657.049	85.75
657.253	90.75
657.457	69.75
657.661	74.75
657.865	78.75
658.068	75.75
658.272	86.75
658.476	88.75
658.68	68.75
658.883	69.75
659.087	72.75
659.291	76.75
659.494	66.75
659.698	73.75
659.901	71.75
660.105	84.75
660.309	84.75
660.512	75.75
660.716	90.75
660.919	89.75
661.123	75.75
661.326	87.75
661.53	78.75
661.733	72.75
661.936	77.75
662.14	76.75
662.343	83.75
662.546	87.75
662.75	78.75
662.953	82.75
663.156	84.75
663.36	74.75
663.563	66.75
663.766	67.75
663.969	73.75
664.173	68.75
664.376	86.75
664.579	72.75
664.782	65.75
664.985	79.75
665.188	88.75
665.391	85.75
665.594	67.75
665.797	79.75
666	67.75
666.203	72.75
666.406	69.75
666.609	90.75
666.812	89.75
667.015	81.75
667.218	86.75
667.421	94.75
667.624	78.75
667.827	79.75
668.03	78.75
668.232	79.75
668.435	79.75
668.638	84.75
668.841	107.75
669.043	84.75
669.246	87.75
669.449	85.75
669.651	80.75
669.854	74.75
670.057	68.75
670.259	89.75
670.462	74.75
670.665	85.75
670.867	81.75
671.07	72.75
671.272	79.75
671.475	94.75
671.677	85.75
671.88	71.75
672.082	80.75
672.284	85.75
672.487	80.75
672.689	75.75
672.892	65.75
