Data from Location3.07152019.Energy5.Lamp.07192019.3%Agarose_HRD10591_15-17-43-269.txt Node
Date: Fri Jul 19 15:17:43 EDT 2019
User: cochatt
Spectrometer: HR+D1059
Trigger mode: 1
Integration Time (sec): 1.000000E-1
Scans to average: 1
Electric dark correction enabled: true
Nonlinearity correction enabled: false
Boxcar width: 0
XAxis mode: Wavelengths
Number of Pixels in Spectrum: 2048
>>>>>Begin Spectral Data<<<<<
223.165	-14.94
223.4	-14.94
223.635	-14.94
223.869	-7.94
224.104	-14.94
224.338	-5.94
224.573	-19.94
224.808	-14.94
225.042	-13.94
225.277	-1.94
225.511	-5.94
225.746	9.06
225.98	2.06
226.215	10.06
226.449	14.06
226.683	17.06
226.918	31.06
227.152	17.06
227.387	34.06
227.621	40.06
227.856	54.06
228.09	55.06
228.324	64.06
228.559	68.06
228.793	73.06
229.027	74.06
229.262	62.06
229.496	75.06
229.73	57.06
229.964	88.06
230.199	79.06
230.433	74.06
230.667	73.06
230.901	79.06
231.136	82.06
231.37	97.06
231.604	86.06
231.838	84.06
232.072	90.06
232.306	80.06
232.541	80.06
232.775	84.06
233.009	89.06
233.243	88.06
233.477	95.06
233.711	101.06
233.945	76.06
234.179	87.06
234.413	88.06
234.647	88.06
234.881	92.06
235.115	86.06
235.349	84.06
235.583	93.06
235.817	84.06
236.051	91.06
236.285	92.06
236.519	76.06
236.753	88.06
236.987	80.06
237.221	103.06
237.455	95.06
237.689	81.06
237.922	88.06
238.156	80.06
238.39	85.06
238.624	102.06
238.858	81.06
239.091	80.06
239.325	64.06
239.559	76.06
239.793	85.06
240.027	95.06
240.26	88.06
240.494	78.06
240.728	78.06
240.961	74.06
241.195	78.06
241.429	72.06
241.662	97.06
241.896	83.06
242.13	65.06
242.363	90.06
242.597	84.06
242.83	90.06
243.064	82.06
243.298	78.06
243.531	78.06
243.765	86.06
243.998	71.06
244.232	80.06
244.465	97.06
244.699	86.06
244.932	82.06
245.166	84.06
245.399	76.06
245.633	65.06
245.866	89.06
246.099	85.06
246.333	87.06
246.566	82.06
246.8	81.06
247.033	89.06
247.266	82.06
247.5	94.06
247.733	78.06
247.966	75.06
248.2	80.06
248.433	93.06
248.666	95.06
248.899	103.06
249.133	84.06
249.366	92.06
249.599	86.06
249.832	76.06
250.066	82.06
250.299	84.06
250.532	86.06
250.765	80.06
250.998	92.06
251.231	80.06
251.465	73.06
251.698	85.06
251.931	76.06
252.164	78.06
252.397	90.06
252.63	66.06
252.863	88.06
253.096	95.06
253.329	93.06
253.562	89.06
253.795	79.06
254.028	90.06
254.261	82.06
254.494	79.06
254.727	84.06
254.96	90.06
255.193	96.06
255.426	85.06
255.659	79.06
255.892	95.06
256.124	81.06
256.357	82.06
256.59	74.06
256.823	81.06
257.056	98.06
257.289	87.06
257.521	94.06
257.754	87.06
257.987	87.06
258.22	83.06
258.452	96.06
258.685	110.06
258.918	87.06
259.151	92.06
259.383	89.06
259.616	87.06
259.849	84.06
260.081	77.06
260.314	93.06
260.547	86.06
260.779	93.06
261.012	84.06
261.244	92.06
261.477	88.06
261.71	90.06
261.942	98.06
262.175	85.06
262.407	81.06
262.64	80.06
262.872	79.06
263.105	91.06
263.337	106.06
263.57	78.06
263.802	90.06
264.035	89.06
264.267	86.06
264.499	85.06
264.732	76.06
264.964	97.06
265.197	86.06
265.429	92.06
265.661	75.06
265.894	88.06
266.126	84.06
266.358	84.06
266.591	90.06
266.823	89.06
267.055	89.06
267.287	65.06
267.52	94.06
267.752	94.06
267.984	82.06
268.216	99.06
268.448	92.06
268.681	94.06
268.913	79.06
269.145	80.06
269.377	80.06
269.609	94.06
269.841	90.06
270.073	95.06
270.306	82.06
270.538	85.06
270.77	87.06
271.002	84.06
271.234	75.06
271.466	95.06
271.698	99.06
271.93	87.06
272.162	93.06
272.394	82.06
272.626	80.06
272.858	89.06
273.09	99.06
273.322	97.06
273.553	95.06
273.785	81.06
274.017	97.06
274.249	91.06
274.481	92.06
274.713	103.06
274.945	93.06
275.176	95.06
275.408	86.06
275.64	73.06
275.872	91.06
276.104	84.06
276.335	85.06
276.567	88.06
276.799	77.06
277.031	79.06
277.262	91.06
277.494	95.06
277.726	95.06
277.957	69.06
278.189	77.06
278.421	93.06
278.652	72.06
278.884	87.06
279.115	67.06
279.347	89.06
279.579	91.06
279.81	85.06
280.042	88.06
280.273	96.06
280.505	95.06
280.736	88.06
280.968	87.06
281.199	84.06
281.431	76.06
281.662	89.06
281.894	80.06
282.125	88.06
282.356	85.06
282.588	83.06
282.819	94.06
283.051	96.06
283.282	83.06
283.513	100.06
283.745	96.06
283.976	92.06
284.207	69.06
284.439	88.06
284.67	80.06
284.901	82.06
285.132	99.06
285.364	92.06
285.595	103.06
285.826	80.06
286.057	82.06
286.288	99.06
286.52	97.06
286.751	78.06
286.982	94.06
287.213	93.06
287.444	80.06
287.675	84.06
287.906	88.06
288.138	100.06
288.369	100.06
288.6	106.06
288.831	92.06
289.062	87.06
289.293	74.06
289.524	84.06
289.755	84.06
289.986	87.06
290.217	81.06
290.448	79.06
290.679	80.06
290.91	92.06
291.141	82.06
291.371	95.06
291.602	92.06
291.833	67.06
292.064	94.06
292.295	96.06
292.526	83.06
292.757	96.06
292.987	102.06
293.218	88.06
293.449	101.06
293.68	100.06
293.91	103.06
294.141	91.06
294.372	94.06
294.603	93.06
294.833	94.06
295.064	82.06
295.295	81.06
295.525	97.06
295.756	97.06
295.987	86.06
296.217	93.06
296.448	93.06
296.679	85.06
296.909	95.06
297.14	82.06
297.37	98.06
297.601	82.06
297.831	81.06
298.062	85.06
298.292	77.06
298.523	105.06
298.753	104.06
298.984	88.06
299.214	85.06
299.445	91.06
299.675	99.06
299.905	76.06
300.136	90.06
300.366	92.06
300.597	95.06
300.827	84.06
301.057	85.06
301.288	82.06
301.518	96.06
301.748	88.06
301.979	89.06
302.209	89.06
302.439	87.06
302.669	87.06
302.9	87.06
303.13	89.06
303.36	99.06
303.59	85.06
303.82	90.06
304.051	81.06
304.281	85.06
304.511	96.06
304.741	86.06
304.971	93.06
305.201	92.06
305.431	100.06
305.661	92.06
305.891	88.06
306.121	98.06
306.352	98.06
306.582	96.06
306.812	99.06
307.042	85.06
307.272	96.06
307.502	103.06
307.731	88.06
307.961	88.06
308.191	95.06
308.421	86.06
308.651	82.06
308.881	89.06
309.111	92.06
309.341	97.06
309.571	101.06
309.8	96.06
310.03	76.06
310.26	96.06
310.49	85.06
310.72	86.06
310.949	107.06
311.179	85.06
311.409	102.06
311.639	85.06
311.868	75.06
312.098	88.06
312.328	79.06
312.557	79.06
312.787	82.06
313.017	92.06
313.246	98.06
313.476	84.06
313.706	81.06
313.935	87.06
314.165	83.06
314.394	103.06
314.624	97.06
314.853	79.06
315.083	104.06
315.312	102.06
315.542	77.06
315.771	95.06
316.001	84.06
316.23	84.06
316.46	98.06
316.689	103.06
316.919	94.06
317.148	104.06
317.377	98.06
317.607	89.06
317.836	93.06
318.065	86.06
318.295	85.06
318.524	86.06
318.753	78.06
318.983	73.06
319.212	96.06
319.441	82.06
319.67	103.06
319.9	101.06
320.129	100.06
320.358	82.06
320.587	95.06
320.816	82.06
321.046	88.06
321.275	96.06
321.504	99.06
321.733	101.06
321.962	80.06
322.191	97.06
322.42	81.06
322.649	91.06
322.878	85.06
323.108	89.06
323.337	90.06
323.566	86.06
323.795	83.06
324.024	111.06
324.253	93.06
324.482	105.06
324.71	107.06
324.939	85.06
325.168	105.06
325.397	86.06
325.626	101.06
325.855	95.06
326.084	86.06
326.313	95.06
326.542	90.06
326.77	78.06
326.999	91.06
327.228	90.06
327.457	94.06
327.686	89.06
327.914	92.06
328.143	75.06
328.372	93.06
328.6	95.06
328.829	113.06
329.058	96.06
329.287	90.06
329.515	88.06
329.744	89.06
329.972	89.06
330.201	85.06
330.43	90.06
330.658	99.06
330.887	90.06
331.115	76.06
331.344	87.06
331.572	74.06
331.801	93.06
332.03	77.06
332.258	102.06
332.486	72.06
332.715	87.06
332.943	94.06
333.172	84.06
333.4	100.06
333.629	92.06
333.857	93.06
334.085	79.06
334.314	87.06
334.542	105.06
334.771	94.06
334.999	104.06
335.227	75.06
335.455	87.06
335.684	102.06
335.912	89.06
336.14	87.06
336.369	87.06
336.597	84.06
336.825	87.06
337.053	98.06
337.281	80.06
337.51	100.06
337.738	105.06
337.966	106.06
338.194	86.06
338.422	98.06
338.65	80.06
338.878	90.06
339.106	91.06
339.334	82.06
339.562	92.06
339.79	112.06
340.018	90.06
340.246	104.06
340.474	88.06
340.702	82.06
340.93	93.06
341.158	86.06
341.386	76.06
341.614	89.06
341.842	86.06
342.07	86.06
342.298	113.06
342.526	86.06
342.754	89.06
342.981	94.06
343.209	89.06
343.437	99.06
343.665	79.06
343.893	110.06
344.12	89.06
344.348	78.06
344.576	75.06
344.804	87.06
345.031	85.06
345.259	104.06
345.487	81.06
345.714	87.06
345.942	81.06
346.17	95.06
346.397	83.06
346.625	86.06
346.853	81.06
347.08	93.06
347.308	96.06
347.535	90.06
347.763	77.06
347.99	88.06
348.218	105.06
348.445	81.06
348.673	90.06
348.9	93.06
349.128	94.06
349.355	109.06
349.583	80.06
349.81	88.06
350.037	95.06
350.265	84.06
350.492	94.06
350.72	90.06
350.947	89.06
351.174	91.06
351.402	81.06
351.629	74.06
351.856	92.06
352.083	100.06
352.311	67.06
352.538	83.06
352.765	95.06
352.992	94.06
353.22	92.06
353.447	75.06
353.674	79.06
353.901	74.06
354.128	79.06
354.355	88.06
354.583	100.06
354.81	89.06
355.037	89.06
355.264	100.06
355.491	90.06
355.718	87.06
355.945	76.06
356.172	77.06
356.399	89.06
356.626	98.06
356.853	79.06
357.08	85.06
357.307	95.06
357.534	82.06
357.761	80.06
357.988	90.06
358.215	91.06
358.441	87.06
358.668	81.06
358.895	93.06
359.122	82.06
359.349	87.06
359.576	94.06
359.802	86.06
360.029	87.06
360.256	81.06
360.483	80.06
360.709	88.06
360.936	80.06
361.163	96.06
361.39	84.06
361.616	90.06
361.843	104.06
362.07	83.06
362.296	97.06
362.523	84.06
362.749	97.06
362.976	90.06
363.203	79.06
363.429	76.06
363.656	102.06
363.882	87.06
364.109	92.06
364.335	106.06
364.562	89.06
364.788	80.06
365.015	85.06
365.241	83.06
365.468	93.06
365.694	90.06
365.92	74.06
366.147	64.06
366.373	84.06
366.599	92.06
366.826	102.06
367.052	88.06
367.278	88.06
367.505	93.06
367.731	100.06
367.957	93.06
368.184	96.06
368.41	85.06
368.636	101.06
368.862	88.06
369.089	77.06
369.315	91.06
369.541	91.06
369.767	91.06
369.993	77.06
370.219	83.06
370.445	88.06
370.672	86.06
370.898	92.06
371.124	86.06
371.35	75.06
371.576	81.06
371.802	82.06
372.028	73.06
372.254	90.06
372.48	82.06
372.706	81.06
372.932	77.06
373.158	82.06
373.384	82.06
373.61	96.06
373.835	78.06
374.061	95.06
374.287	84.06
374.513	98.06
374.739	97.06
374.965	92.06
375.191	70.06
375.416	103.06
375.642	93.06
375.868	102.06
376.094	94.06
376.319	74.06
376.545	78.06
376.771	82.06
376.997	78.06
377.222	91.06
377.448	101.06
377.674	74.06
377.899	90.06
378.125	94.06
378.35	89.06
378.576	94.06
378.802	97.06
379.027	102.06
379.253	96.06
379.478	99.06
379.704	99.06
379.929	92.06
380.155	93.06
380.38	88.06
380.606	91.06
380.831	86.06
381.057	97.06
381.282	90.06
381.507	94.06
381.733	81.06
381.958	83.06
382.184	74.06
382.409	92.06
382.634	90.06
382.86	87.06
383.085	104.06
383.31	90.06
383.535	82.06
383.761	98.06
383.986	87.06
384.211	82.06
384.436	96.06
384.662	88.06
384.887	94.06
385.112	96.06
385.337	91.06
385.562	81.06
385.787	87.06
386.013	99.06
386.238	80.06
386.463	78.06
386.688	95.06
386.913	84.06
387.138	85.06
387.363	86.06
387.588	88.06
387.813	91.06
388.038	79.06
388.263	90.06
388.488	93.06
388.713	86.06
388.938	97.06
389.163	91.06
389.387	96.06
389.612	86.06
389.837	82.06
390.062	85.06
390.287	90.06
390.512	95.06
390.736	88.06
390.961	91.06
391.186	94.06
391.411	84.06
391.636	91.06
391.86	85.06
392.085	74.06
392.31	92.06
392.534	87.06
392.759	98.06
392.984	90.06
393.208	89.06
393.433	82.06
393.658	93.06
393.882	86.06
394.107	93.06
394.331	110.06
394.556	92.06
394.78	71.06
395.005	97.06
395.229	88.06
395.454	92.06
395.678	87.06
395.903	95.06
396.127	92.06
396.352	99.06
396.576	94.06
396.801	101.06
397.025	87.06
397.249	94.06
397.474	97.06
397.698	92.06
397.922	108.06
398.147	86.06
398.371	91.06
398.595	90.06
398.82	87.06
399.044	81.06
399.268	106.06
399.492	98.06
399.717	74.06
399.941	97.06
400.165	92.06
400.389	90.06
400.613	89.06
400.837	106.06
401.062	103.06
401.286	91.06
401.51	96.06
401.734	96.06
401.958	82.06
402.182	75.06
402.406	106.06
402.63	102.06
402.854	102.06
403.078	100.06
403.302	88.06
403.526	95.06
403.75	101.06
403.974	89.06
404.198	96.06
404.422	92.06
404.645	92.06
404.869	95.06
405.093	97.06
405.317	115.06
405.541	104.06
405.765	91.06
405.988	96.06
406.212	100.06
406.436	103.06
406.66	91.06
406.883	86.06
407.107	91.06
407.331	88.06
407.555	91.06
407.778	102.06
408.002	96.06
408.226	106.06
408.449	99.06
408.673	97.06
408.896	89.06
409.12	80.06
409.344	93.06
409.567	93.06
409.791	102.06
410.014	86.06
410.238	90.06
410.461	93.06
410.685	86.06
410.908	86.06
411.132	96.06
411.355	93.06
411.578	98.06
411.802	99.06
412.025	97.06
412.249	77.06
412.472	92.06
412.695	100.06
412.919	90.06
413.142	85.06
413.365	84.06
413.589	87.06
413.812	92.06
414.035	103.06
414.258	79.06
414.482	92.06
414.705	92.06
414.928	102.06
415.151	98.06
415.374	95.06
415.597	93.06
415.821	101.06
416.044	92.06
416.267	98.06
416.49	105.06
416.713	92.06
416.936	104.06
417.159	93.06
417.382	98.06
417.605	104.06
417.828	95.06
418.051	98.06
418.274	88.06
418.497	110.06
418.72	91.06
418.943	105.06
419.166	109.06
419.389	99.06
419.611	99.06
419.834	90.06
420.057	98.06
420.28	111.06
420.503	103.06
420.726	98.06
420.948	100.06
421.171	100.06
421.394	82.06
421.617	107.06
421.839	108.06
422.062	97.06
422.285	104.06
422.507	90.06
422.73	86.06
422.953	89.06
423.175	106.06
423.398	83.06
423.621	94.06
423.843	94.06
424.066	90.06
424.288	101.06
424.511	98.06
424.733	116.06
424.956	103.06
425.178	88.06
425.401	105.06
425.623	101.06
425.846	99.06
426.068	108.06
426.291	105.06
426.513	97.06
426.735	94.06
426.958	92.06
427.18	91.06
427.402	107.06
427.625	104.06
427.847	94.06
428.069	83.06
428.292	111.06
428.514	100.06
428.736	104.06
428.958	103.06
429.181	95.06
429.403	103.06
429.625	98.06
429.847	101.06
430.069	109.06
430.292	104.06
430.514	95.06
430.736	100.06
430.958	93.06
431.18	102.06
431.402	106.06
431.624	96.06
431.846	92.06
432.068	86.06
432.29	82.06
432.512	102.06
432.734	92.06
432.956	97.06
433.178	102.06
433.4	90.06
433.622	85.06
433.844	103.06
434.066	98.06
434.287	84.06
434.509	84.06
434.731	104.06
434.953	92.06
435.175	93.06
435.397	108.06
435.618	90.06
435.84	94.06
436.062	93.06
436.284	99.06
436.505	95.06
436.727	104.06
436.949	107.06
437.17	100.06
437.392	82.06
437.614	105.06
437.835	94.06
438.057	90.06
438.278	95.06
438.5	105.06
438.721	101.06
438.943	103.06
439.165	101.06
439.386	98.06
439.608	103.06
439.829	103.06
440.05	100.06
440.272	101.06
440.493	106.06
440.715	95.06
440.936	100.06
441.158	99.06
441.379	102.06
441.6	110.06
441.822	82.06
442.043	111.06
442.264	94.06
442.486	94.06
442.707	106.06
442.928	97.06
443.149	96.06
443.371	107.06
443.592	108.06
443.813	112.06
444.034	92.06
444.255	104.06
444.476	103.06
444.698	100.06
444.919	120.06
445.14	223.06
445.361	142.06
445.582	110.06
445.803	94.06
446.024	108.06
446.245	101.06
446.466	120.06
446.687	107.06
446.908	108.06
447.129	122.06
447.35	110.06
447.571	112.06
447.792	109.06
448.013	111.06
448.234	106.06
448.455	91.06
448.675	110.06
448.896	110.06
449.117	97.06
449.338	100.06
449.559	93.06
449.779	113.06
450	98.06
450.221	92.06
450.442	91.06
450.662	103.06
450.883	98.06
451.104	102.06
451.324	92.06
451.545	92.06
451.766	103.06
451.986	86.06
452.207	101.06
452.428	98.06
452.648	104.06
452.869	104.06
453.089	101.06
453.31	103.06
453.53	88.06
453.751	98.06
453.971	89.06
454.192	91.06
454.412	89.06
454.633	90.06
454.853	91.06
455.073	95.06
455.294	99.06
455.514	90.06
455.734	86.06
455.955	97.06
456.175	100.06
456.395	94.06
456.616	103.06
456.836	92.06
457.056	92.06
457.276	103.06
457.497	101.06
457.717	98.06
457.937	83.06
458.157	105.06
458.377	94.06
458.598	98.06
458.818	91.06
459.038	83.06
459.258	82.06
459.478	97.06
459.698	75.06
459.918	91.06
460.138	90.06
460.358	101.06
460.578	101.06
460.798	93.06
461.018	107.06
461.238	100.06
461.458	87.06
461.678	92.06
461.898	101.06
462.118	87.06
462.338	81.06
462.558	97.06
462.777	93.06
462.997	104.06
463.217	80.06
463.437	102.06
463.657	89.06
463.876	105.06
464.096	93.06
464.316	106.06
464.536	93.06
464.755	95.06
464.975	107.06
465.195	83.06
465.414	95.06
465.634	88.06
465.854	79.06
466.073	93.06
466.293	86.06
466.512	86.06
466.732	104.06
466.951	101.06
467.171	94.06
467.391	98.06
467.61	93.06
467.829	106.06
468.049	103.06
468.268	103.06
468.488	120.06
468.707	98.06
468.927	104.06
469.146	106.06
469.365	106.06
469.585	113.06
469.804	110.06
470.023	100.06
470.243	91.06
470.462	100.06
470.681	106.06
470.901	103.06
471.12	108.06
471.339	91.06
471.558	106.06
471.777	100.06
471.997	106.06
472.216	106.06
472.435	99.06
472.654	96.06
472.873	93.06
473.092	98.06
473.311	92.06
473.53	100.06
473.749	99.06
473.968	101.06
474.187	100.06
474.406	95.06
474.625	99.06
474.844	107.06
475.063	105.06
475.282	104.06
475.501	95.06
475.72	97.06
475.939	92.06
476.158	102.06
476.377	113.06
476.596	95.06
476.814	98.06
477.033	101.06
477.252	97.06
477.471	87.06
477.69	102.06
477.908	105.06
478.127	106.06
478.346	104.06
478.564	98.06
478.783	84.06
479.002	98.06
479.22	107.06
479.439	108.06
479.658	107.06
479.876	86.06
480.095	88.06
480.313	88.06
480.532	103.06
480.751	107.06
480.969	91.06
481.188	84.06
481.406	96.06
481.624	92.06
481.843	95.06
482.061	90.06
482.28	101.06
482.498	99.06
482.717	98.06
482.935	85.06
483.153	100.06
483.372	111.06
483.59	116.06
483.808	100.06
484.027	106.06
484.245	108.06
484.463	101.06
484.681	120.06
484.9	97.06
485.118	123.06
485.336	98.06
485.554	105.06
485.772	89.06
485.99	94.06
486.209	100.06
486.427	94.06
486.645	99.06
486.863	113.06
487.081	107.06
487.299	100.06
487.517	110.06
487.735	110.06
487.953	125.06
488.171	118.06
488.389	113.06
488.607	111.06
488.825	120.06
489.043	95.06
489.261	100.06
489.479	114.06
489.696	114.06
489.914	96.06
490.132	107.06
490.35	106.06
490.568	103.06
490.786	124.06
491.003	120.06
491.221	109.06
491.439	118.06
491.657	108.06
491.874	128.06
492.092	136.06
492.31	150.06
492.527	124.06
492.745	118.06
492.963	125.06
493.18	123.06
493.398	116.06
493.615	124.06
493.833	118.06
494.05	122.06
494.268	129.06
494.485	112.06
494.703	107.06
494.92	130.06
495.138	123.06
495.355	107.06
495.573	107.06
495.79	116.06
496.008	119.06
496.225	113.06
496.442	109.06
496.66	120.06
496.877	98.06
497.094	113.06
497.312	105.06
497.529	105.06
497.746	110.06
497.963	90.06
498.181	110.06
498.398	91.06
498.615	103.06
498.832	108.06
499.049	96.06
499.267	102.06
499.484	102.06
499.701	95.06
499.918	108.06
500.135	109.06
500.352	105.06
500.569	101.06
500.786	114.06
501.003	107.06
501.22	105.06
501.437	116.06
501.654	108.06
501.871	110.06
502.088	92.06
502.305	100.06
502.522	119.06
502.739	93.06
502.956	104.06
503.172	99.06
503.389	94.06
503.606	92.06
503.823	92.06
504.04	109.06
504.256	101.06
504.473	96.06
504.69	102.06
504.907	96.06
505.123	92.06
505.34	100.06
505.557	97.06
505.773	96.06
505.99	100.06
506.207	82.06
506.423	95.06
506.64	101.06
506.856	100.06
507.073	94.06
507.289	95.06
507.506	96.06
507.722	105.06
507.939	78.06
508.155	94.06
508.372	97.06
508.588	95.06
508.805	111.06
509.021	103.06
509.238	104.06
509.454	91.06
509.67	84.06
509.887	88.06
510.103	93.06
510.319	97.06
510.536	89.06
510.752	106.06
510.968	88.06
511.184	89.06
511.401	88.06
511.617	95.06
511.833	98.06
512.049	88.06
512.265	76.06
512.481	104.06
512.698	91.06
512.914	87.06
513.13	90.06
513.346	78.06
513.562	101.06
513.778	99.06
513.994	89.06
514.21	94.06
514.426	90.06
514.642	89.06
514.858	93.06
515.074	104.06
515.29	94.06
515.506	98.06
515.721	94.06
515.937	92.06
516.153	86.06
516.369	93.06
516.585	83.06
516.801	101.06
517.016	85.06
517.232	102.06
517.448	103.06
517.664	80.06
517.879	84.06
518.095	101.06
518.311	105.06
518.527	94.06
518.742	90.06
518.958	98.06
519.173	103.06
519.389	87.06
519.605	100.06
519.82	100.06
520.036	94.06
520.251	100.06
520.467	96.06
520.682	96.06
520.898	95.06
521.113	98.06
521.329	97.06
521.544	79.06
521.76	95.06
521.975	89.06
522.19	94.06
522.406	92.06
522.621	89.06
522.836	100.06
523.052	95.06
523.267	89.06
523.482	110.06
523.698	103.06
523.913	101.06
524.128	97.06
524.343	107.06
524.559	97.06
524.774	115.06
524.989	116.06
525.204	105.06
525.419	88.06
525.634	100.06
525.849	100.06
526.064	103.06
526.28	88.06
526.495	85.06
526.71	94.06
526.925	83.06
527.14	87.06
527.355	84.06
527.57	92.06
527.785	103.06
527.999	92.06
528.214	87.06
528.429	92.06
528.644	106.06
528.859	108.06
529.074	119.06
529.289	107.06
529.503	119.06
529.718	112.06
529.933	110.06
530.148	97.06
530.363	95.06
530.577	89.06
530.792	86.06
531.007	87.06
531.221	102.06
531.436	101.06
531.651	91.06
531.865	88.06
532.08	85.06
532.295	106.06
532.509	100.06
532.724	91.06
532.938	96.06
533.153	89.06
533.367	102.06
533.582	99.06
533.796	89.06
534.011	105.06
534.225	97.06
534.44	98.06
534.654	88.06
534.868	88.06
535.083	84.06
535.297	104.06
535.511	93.06
535.726	106.06
535.94	80.06
536.154	111.06
536.369	103.06
536.583	90.06
536.797	77.06
537.011	99.06
537.225	82.06
537.44	89.06
537.654	104.06
537.868	93.06
538.082	85.06
538.296	104.06
538.51	100.06
538.724	106.06
538.938	105.06
539.153	99.06
539.367	109.06
539.581	106.06
539.795	96.06
540.009	113.06
540.222	98.06
540.436	96.06
540.65	87.06
540.864	106.06
541.078	103.06
541.292	104.06
541.506	114.06
541.72	119.06
541.934	116.06
542.147	121.06
542.361	116.06
542.575	128.06
542.789	127.06
543.002	104.06
543.216	103.06
543.43	106.06
543.644	106.06
543.857	97.06
544.071	105.06
544.285	121.06
544.498	125.06
544.712	116.06
544.925	112.06
545.139	109.06
545.352	117.06
545.566	94.06
545.779	105.06
545.993	122.06
546.206	130.06
546.42	120.06
546.633	103.06
546.847	103.06
547.06	106.06
547.274	113.06
547.487	123.06
547.7	115.06
547.914	122.06
548.127	123.06
548.34	114.06
548.554	108.06
548.767	107.06
548.98	114.06
549.193	113.06
549.407	125.06
549.62	111.06
549.833	116.06
550.046	107.06
550.259	109.06
550.473	110.06
550.686	113.06
550.899	108.06
551.112	106.06
551.325	108.06
551.538	90.06
551.751	110.06
551.964	87.06
552.177	112.06
552.39	110.06
552.603	106.06
552.816	104.06
553.029	109.06
553.242	104.06
553.455	127.06
553.667	118.06
553.88	111.06
554.093	100.06
554.306	104.06
554.519	115.06
554.732	104.06
554.944	131.06
555.157	114.06
555.37	110.06
555.583	118.06
555.795	105.06
556.008	106.06
556.221	100.06
556.433	112.06
556.646	121.06
556.859	125.06
557.071	108.06
557.284	110.06
557.496	102.06
557.709	105.06
557.921	108.06
558.134	119.06
558.346	108.06
558.559	108.06
558.771	105.06
558.984	103.06
559.196	98.06
559.409	95.06
559.621	113.06
559.833	103.06
560.046	102.06
560.258	90.06
560.47	102.06
560.683	99.06
560.895	107.06
561.107	103.06
561.32	109.06
561.532	107.06
561.744	92.06
561.956	103.06
562.168	94.06
562.381	105.06
562.593	100.06
562.805	97.06
563.017	109.06
563.229	110.06
563.441	108.06
563.653	101.06
563.865	110.06
564.077	100.06
564.289	103.06
564.501	106.06
564.713	93.06
564.925	96.06
565.137	96.06
565.349	109.06
565.561	117.06
565.773	94.06
565.985	96.06
566.197	101.06
566.408	102.06
566.62	103.06
566.832	95.06
567.044	121.06
567.255	103.06
567.467	98.06
567.679	108.06
567.891	111.06
568.102	108.06
568.314	98.06
568.526	99.06
568.737	82.06
568.949	92.06
569.161	88.06
569.372	88.06
569.584	90.06
569.795	79.06
570.007	96.06
570.218	96.06
570.43	90.06
570.641	80.06
570.853	96.06
571.064	84.06
571.276	101.06
571.487	106.06
571.698	103.06
571.91	94.06
572.121	98.06
572.333	95.06
572.544	95.06
572.755	89.06
572.966	96.06
573.178	84.06
573.389	88.06
573.6	100.06
573.811	88.06
574.023	107.06
574.234	91.06
574.445	96.06
574.656	76.06
574.867	82.06
575.078	96.06
575.289	105.06
575.501	105.06
575.712	104.06
575.923	84.06
576.134	103.06
576.345	89.06
576.556	96.06
576.767	98.06
576.978	101.06
577.188	93.06
577.399	89.06
577.61	93.06
577.821	91.06
578.032	92.06
578.243	91.06
578.454	98.06
578.665	111.06
578.875	84.06
579.086	91.06
579.297	76.06
579.508	94.06
579.718	90.06
579.929	89.06
580.14	92.06
580.35	93.06
580.561	87.06
580.772	86.06
580.982	100.06
581.193	96.06
581.403	104.06
581.614	107.06
581.825	105.06
582.035	90.06
582.246	87.06
582.456	95.06
582.667	86.06
582.877	101.06
583.087	102.06
583.298	108.06
583.508	86.06
583.719	94.06
583.929	86.06
584.139	82.06
584.35	89.06
584.56	88.06
584.77	90.06
584.981	90.06
585.191	97.06
585.401	101.06
585.611	107.06
585.821	87.06
586.032	91.06
586.242	104.06
586.452	81.06
586.662	96.06
586.872	100.06
587.082	86.06
587.292	96.06
587.502	88.06
587.713	84.06
587.923	73.06
588.133	86.06
588.343	95.06
588.553	91.06
588.762	83.06
588.972	94.06
589.182	92.06
589.392	93.06
589.602	88.06
589.812	94.06
590.022	94.06
590.232	80.06
590.441	101.06
590.651	106.06
590.861	86.06
591.071	89.06
591.281	100.06
591.49	88.06
591.7	89.06
591.91	85.06
592.119	87.06
592.329	100.06
592.539	95.06
592.748	98.06
592.958	92.06
593.167	81.06
593.377	89.06
593.587	85.06
593.796	89.06
594.006	94.06
594.215	72.06
594.424	97.06
594.634	91.06
594.843	95.06
595.053	90.06
595.262	87.06
595.472	109.06
595.681	97.06
595.89	82.06
596.1	89.06
596.309	88.06
596.518	107.06
596.727	105.06
596.937	106.06
597.146	100.06
597.355	99.06
597.564	104.06
597.774	101.06
597.983	83.06
598.192	89.06
598.401	94.06
598.61	88.06
598.819	100.06
599.028	83.06
599.237	92.06
599.446	107.06
599.655	95.06
599.864	89.06
600.073	97.06
600.282	96.06
600.491	97.06
600.7	87.06
600.909	108.06
601.118	105.06
601.327	107.06
601.536	100.06
601.745	102.06
601.953	102.06
602.162	103.06
602.371	91.06
602.58	96.06
602.789	96.06
602.997	95.06
603.206	101.06
603.415	90.06
603.623	94.06
603.832	105.06
604.041	97.06
604.249	102.06
604.458	98.06
604.666	89.06
604.875	81.06
605.084	93.06
605.292	97.06
605.501	84.06
605.709	98.06
605.918	84.06
606.126	100.06
606.334	86.06
606.543	106.06
606.751	92.06
606.96	99.06
607.168	95.06
607.376	109.06
607.585	96.06
607.793	97.06
608.001	101.06
608.21	111.06
608.418	80.06
608.626	93.06
608.834	100.06
609.043	94.06
609.251	100.06
609.459	94.06
609.667	94.06
609.875	97.06
610.083	80.06
610.291	97.06
610.499	103.06
610.707	103.06
610.916	103.06
611.124	97.06
611.332	96.06
611.54	119.06
611.748	105.06
611.955	94.06
612.163	102.06
612.371	88.06
612.579	84.06
612.787	97.06
612.995	105.06
613.203	110.06
613.411	107.06
613.618	96.06
613.826	103.06
614.034	90.06
614.242	103.06
614.449	100.06
614.657	98.06
614.865	117.06
615.072	103.06
615.28	97.06
615.488	92.06
615.695	102.06
615.903	104.06
616.111	100.06
616.318	102.06
616.526	101.06
616.733	97.06
616.941	100.06
617.148	110.06
617.356	95.06
617.563	96.06
617.771	108.06
617.978	105.06
618.185	107.06
618.393	98.06
618.6	103.06
618.807	104.06
619.015	104.06
619.222	99.06
619.429	100.06
619.637	87.06
619.844	95.06
620.051	90.06
620.258	91.06
620.466	103.06
620.673	95.06
620.88	94.06
621.087	104.06
621.294	88.06
621.501	94.06
621.708	106.06
621.915	94.06
622.122	89.06
622.329	102.06
622.536	87.06
622.743	92.06
622.95	94.06
623.157	105.06
623.364	98.06
623.571	90.06
623.778	102.06
623.985	92.06
624.192	102.06
624.399	106.06
624.606	98.06
624.812	113.06
625.019	102.06
625.226	95.06
625.433	103.06
625.639	97.06
625.846	96.06
626.053	92.06
626.259	107.06
626.466	96.06
626.673	91.06
626.879	87.06
627.086	97.06
627.293	106.06
627.499	98.06
627.706	99.06
627.912	102.06
628.119	90.06
628.325	101.06
628.532	94.06
628.738	96.06
628.945	105.06
629.151	106.06
629.357	111.06
629.564	95.06
629.77	88.06
629.976	87.06
630.183	83.06
630.389	90.06
630.595	88.06
630.802	99.06
631.008	88.06
631.214	85.06
631.42	103.06
631.627	85.06
631.833	98.06
632.039	88.06
632.245	98.06
632.451	104.06
632.657	84.06
632.863	102.06
633.069	91.06
633.275	104.06
633.481	102.06
633.688	106.06
633.893	109.06
634.099	91.06
634.305	89.06
634.511	104.06
634.717	97.06
634.923	91.06
635.129	108.06
635.335	97.06
635.541	92.06
635.747	95.06
635.952	89.06
636.158	92.06
636.364	93.06
636.57	99.06
636.775	92.06
636.981	95.06
637.187	91.06
637.392	119.06
637.598	115.06
637.804	90.06
638.009	97.06
638.215	101.06
638.421	102.06
638.626	99.06
638.832	89.06
639.037	99.06
639.243	89.06
639.448	97.06
639.654	83.06
639.859	92.06
640.065	97.06
640.27	103.06
640.475	105.06
640.681	91.06
640.886	88.06
641.091	103.06
641.297	92.06
641.502	94.06
641.707	97.06
641.913	100.06
642.118	87.06
642.323	95.06
642.528	82.06
642.733	97.06
642.939	92.06
643.144	104.06
643.349	84.06
643.554	88.06
643.759	90.06
643.964	89.06
644.169	98.06
644.374	88.06
644.579	95.06
644.784	86.06
644.989	93.06
645.194	82.06
645.399	101.06
645.604	105.06
645.809	94.06
646.014	92.06
646.219	88.06
646.423	104.06
646.628	84.06
646.833	89.06
647.038	105.06
647.243	93.06
647.447	81.06
647.652	86.06
647.857	94.06
648.062	90.06
648.266	88.06
648.471	95.06
648.676	98.06
648.88	98.06
649.085	90.06
649.289	96.06
649.494	87.06
649.698	89.06
649.903	102.06
650.107	110.06
650.312	86.06
650.516	103.06
650.721	91.06
650.925	88.06
651.13	82.06
651.334	85.06
651.539	96.06
651.743	97.06
651.947	95.06
652.152	85.06
652.356	95.06
652.56	94.06
652.764	100.06
652.969	96.06
653.173	90.06
653.377	94.06
653.581	92.06
653.785	113.06
653.99	85.06
654.194	87.06
654.398	89.06
654.602	88.06
654.806	82.06
655.01	90.06
655.214	86.06
655.418	93.06
655.622	86.06
655.826	111.06
656.03	93.06
656.234	82.06
656.438	90.06
656.642	88.06
656.846	76.06
657.049	101.06
657.253	94.06
657.457	100.06
657.661	98.06
657.865	92.06
658.068	96.06
658.272	95.06
658.476	85.06
658.68	91.06
658.883	90.06
659.087	93.06
659.291	93.06
659.494	91.06
659.698	67.06
659.901	99.06
660.105	91.06
660.309	95.06
660.512	98.06
660.716	95.06
660.919	83.06
661.123	82.06
661.326	109.06
661.53	93.06
661.733	92.06
661.936	90.06
662.14	88.06
662.343	93.06
662.546	86.06
662.75	87.06
662.953	85.06
663.156	97.06
663.36	92.06
663.563	87.06
663.766	83.06
663.969	104.06
664.173	78.06
664.376	89.06
664.579	79.06
664.782	86.06
664.985	72.06
665.188	82.06
665.391	79.06
665.594	71.06
665.797	97.06
666	92.06
666.203	91.06
666.406	88.06
666.609	85.06
666.812	84.06
667.015	80.06
667.218	94.06
667.421	84.06
667.624	82.06
667.827	89.06
668.03	80.06
668.232	79.06
668.435	88.06
668.638	90.06
668.841	80.06
669.043	89.06
669.246	85.06
669.449	91.06
669.651	87.06
669.854	88.06
670.057	96.06
670.259	88.06
670.462	78.06
670.665	78.06
670.867	82.06
671.07	89.06
671.272	98.06
671.475	88.06
671.677	104.06
671.88	90.06
672.082	75.06
672.284	92.06
672.487	94.06
672.689	89.06
672.892	91.06
