Data from Location3.07152019.Energy5.Lamp.07192019.3%Agarose_HRD10591_15-18-17-269.txt Node
Date: Fri Jul 19 15:18:17 EDT 2019
User: cochatt
Spectrometer: HR+D1059
Trigger mode: 1
Integration Time (sec): 1.000000E-1
Scans to average: 1
Electric dark correction enabled: true
Nonlinearity correction enabled: false
Boxcar width: 0
XAxis mode: Wavelengths
Number of Pixels in Spectrum: 2048
>>>>>Begin Spectral Data<<<<<
223.165	4.75
223.4	4.75
223.635	4.75
223.869	-30.25
224.104	-12.25
224.338	-10.25
224.573	-18.25
224.808	-12.25
225.042	0.75
225.277	1.75
225.511	4.75
225.746	-14.25
225.98	8.75
226.215	1.75
226.449	10.75
226.683	9.75
226.918	17.75
227.152	36.75
227.387	33.75
227.621	33.75
227.856	42.75
228.09	41.75
228.324	60.75
228.559	49.75
228.793	59.75
229.027	59.75
229.262	69.75
229.496	58.75
229.73	71.75
229.964	70.75
230.199	67.75
230.433	71.75
230.667	66.75
230.901	71.75
231.136	71.75
231.37	79.75
231.604	86.75
231.838	89.75
232.072	78.75
232.306	89.75
232.541	97.75
232.775	64.75
233.009	86.75
233.243	89.75
233.477	67.75
233.711	80.75
233.945	78.75
234.179	76.75
234.413	81.75
234.647	80.75
234.881	81.75
235.115	73.75
235.349	85.75
235.583	75.75
235.817	73.75
236.051	82.75
236.285	70.75
236.519	77.75
236.753	79.75
236.987	75.75
237.221	89.75
237.455	83.75
237.689	73.75
237.922	80.75
238.156	68.75
238.39	64.75
238.624	77.75
238.858	70.75
239.091	78.75
239.325	79.75
239.559	69.75
239.793	75.75
240.027	86.75
240.26	80.75
240.494	73.75
240.728	78.75
240.961	75.75
241.195	85.75
241.429	83.75
241.662	90.75
241.896	71.75
242.13	88.75
242.363	89.75
242.597	72.75
242.83	81.75
243.064	75.75
243.298	83.75
243.531	77.75
243.765	66.75
243.998	66.75
244.232	71.75
244.465	74.75
244.699	65.75
244.932	71.75
245.166	81.75
245.399	70.75
245.633	87.75
245.866	75.75
246.099	65.75
246.333	65.75
246.566	79.75
246.8	80.75
247.033	80.75
247.266	72.75
247.5	74.75
247.733	82.75
247.966	87.75
248.2	87.75
248.433	77.75
248.666	82.75
248.899	73.75
249.133	79.75
249.366	79.75
249.599	79.75
249.832	98.75
250.066	83.75
250.299	84.75
250.532	89.75
250.765	74.75
250.998	89.75
251.231	74.75
251.465	64.75
251.698	72.75
251.931	77.75
252.164	77.75
252.397	82.75
252.63	91.75
252.863	65.75
253.096	81.75
253.329	76.75
253.562	79.75
253.795	81.75
254.028	75.75
254.261	77.75
254.494	87.75
254.727	82.75
254.96	77.75
255.193	80.75
255.426	85.75
255.659	80.75
255.892	76.75
256.124	91.75
256.357	81.75
256.59	82.75
256.823	78.75
257.056	81.75
257.289	86.75
257.521	85.75
257.754	73.75
257.987	71.75
258.22	82.75
258.452	93.75
258.685	81.75
258.918	65.75
259.151	83.75
259.383	80.75
259.616	82.75
259.849	87.75
260.081	87.75
260.314	75.75
260.547	77.75
260.779	78.75
261.012	72.75
261.244	79.75
261.477	73.75
261.71	69.75
261.942	74.75
262.175	88.75
262.407	74.75
262.64	88.75
262.872	87.75
263.105	74.75
263.337	69.75
263.57	84.75
263.802	81.75
264.035	85.75
264.267	86.75
264.499	73.75
264.732	82.75
264.964	90.75
265.197	87.75
265.429	83.75
265.661	89.75
265.894	87.75
266.126	69.75
266.358	88.75
266.591	77.75
266.823	89.75
267.055	82.75
267.287	79.75
267.52	63.75
267.752	66.75
267.984	85.75
268.216	84.75
268.448	78.75
268.681	98.75
268.913	85.75
269.145	87.75
269.377	93.75
269.609	79.75
269.841	80.75
270.073	80.75
270.306	68.75
270.538	76.75
270.77	84.75
271.002	75.75
271.234	80.75
271.466	69.75
271.698	77.75
271.93	87.75
272.162	77.75
272.394	77.75
272.626	87.75
272.858	84.75
273.09	96.75
273.322	87.75
273.553	83.75
273.785	100.75
274.017	88.75
274.249	76.75
274.481	73.75
274.713	87.75
274.945	81.75
275.176	93.75
275.408	92.75
275.64	71.75
275.872	73.75
276.104	83.75
276.335	82.75
276.567	83.75
276.799	82.75
277.031	100.75
277.262	95.75
277.494	101.75
277.726	79.75
277.957	89.75
278.189	80.75
278.421	82.75
278.652	86.75
278.884	91.75
279.115	89.75
279.347	85.75
279.579	69.75
279.81	92.75
280.042	72.75
280.273	86.75
280.505	83.75
280.736	75.75
280.968	89.75
281.199	79.75
281.431	70.75
281.662	92.75
281.894	80.75
282.125	85.75
282.356	106.75
282.588	73.75
282.819	90.75
283.051	93.75
283.282	77.75
283.513	95.75
283.745	83.75
283.976	82.75
284.207	86.75
284.439	85.75
284.67	85.75
284.901	79.75
285.132	82.75
285.364	93.75
285.595	85.75
285.826	90.75
286.057	89.75
286.288	75.75
286.52	87.75
286.751	74.75
286.982	68.75
287.213	88.75
287.444	75.75
287.675	101.75
287.906	89.75
288.138	81.75
288.369	94.75
288.6	77.75
288.831	72.75
289.062	98.75
289.293	97.75
289.524	79.75
289.755	84.75
289.986	78.75
290.217	68.75
290.448	90.75
290.679	82.75
290.91	92.75
291.141	85.75
291.371	90.75
291.602	79.75
291.833	103.75
292.064	90.75
292.295	89.75
292.526	82.75
292.757	68.75
292.987	79.75
293.218	74.75
293.449	86.75
293.68	87.75
293.91	80.75
294.141	94.75
294.372	86.75
294.603	82.75
294.833	78.75
295.064	71.75
295.295	74.75
295.525	81.75
295.756	87.75
295.987	84.75
296.217	69.75
296.448	79.75
296.679	85.75
296.909	77.75
297.14	81.75
297.37	86.75
297.601	86.75
297.831	87.75
298.062	75.75
298.292	82.75
298.523	88.75
298.753	79.75
298.984	80.75
299.214	85.75
299.445	70.75
299.675	99.75
299.905	80.75
300.136	87.75
300.366	89.75
300.597	82.75
300.827	86.75
301.057	80.75
301.288	85.75
301.518	88.75
301.748	91.75
301.979	80.75
302.209	87.75
302.439	75.75
302.669	92.75
302.9	80.75
303.13	75.75
303.36	84.75
303.59	83.75
303.82	92.75
304.051	85.75
304.281	88.75
304.511	78.75
304.741	88.75
304.971	85.75
305.201	95.75
305.431	89.75
305.661	83.75
305.891	79.75
306.121	65.75
306.352	85.75
306.582	85.75
306.812	77.75
307.042	80.75
307.272	88.75
307.502	85.75
307.731	92.75
307.961	76.75
308.191	82.75
308.421	80.75
308.651	89.75
308.881	84.75
309.111	75.75
309.341	80.75
309.571	91.75
309.8	84.75
310.03	81.75
310.26	86.75
310.49	92.75
310.72	85.75
310.949	79.75
311.179	84.75
311.409	78.75
311.639	84.75
311.868	87.75
312.098	87.75
312.328	80.75
312.557	77.75
312.787	83.75
313.017	90.75
313.246	91.75
313.476	85.75
313.706	81.75
313.935	80.75
314.165	75.75
314.394	82.75
314.624	77.75
314.853	98.75
315.083	81.75
315.312	80.75
315.542	79.75
315.771	85.75
316.001	101.75
316.23	83.75
316.46	78.75
316.689	76.75
316.919	81.75
317.148	103.75
317.377	98.75
317.607	79.75
317.836	85.75
318.065	70.75
318.295	89.75
318.524	69.75
318.753	88.75
318.983	80.75
319.212	78.75
319.441	95.75
319.67	87.75
319.9	94.75
320.129	86.75
320.358	74.75
320.587	92.75
320.816	78.75
321.046	90.75
321.275	86.75
321.504	82.75
321.733	80.75
321.962	93.75
322.191	77.75
322.42	73.75
322.649	79.75
322.878	79.75
323.108	96.75
323.337	85.75
323.566	87.75
323.795	83.75
324.024	82.75
324.253	77.75
324.482	89.75
324.71	82.75
324.939	90.75
325.168	85.75
325.397	73.75
325.626	101.75
325.855	81.75
326.084	93.75
326.313	82.75
326.542	73.75
326.77	85.75
326.999	83.75
327.228	76.75
327.457	85.75
327.686	83.75
327.914	80.75
328.143	75.75
328.372	80.75
328.6	78.75
328.829	94.75
329.058	82.75
329.287	80.75
329.515	91.75
329.744	64.75
329.972	80.75
330.201	93.75
330.43	85.75
330.658	88.75
330.887	94.75
331.115	85.75
331.344	86.75
331.572	73.75
331.801	84.75
332.03	72.75
332.258	82.75
332.486	85.75
332.715	86.75
332.943	83.75
333.172	79.75
333.4	85.75
333.629	74.75
333.857	86.75
334.085	87.75
334.314	89.75
334.542	90.75
334.771	78.75
334.999	92.75
335.227	98.75
335.455	94.75
335.684	87.75
335.912	75.75
336.14	74.75
336.369	80.75
336.597	76.75
336.825	87.75
337.053	93.75
337.281	76.75
337.51	82.75
337.738	90.75
337.966	90.75
338.194	91.75
338.422	82.75
338.65	78.75
338.878	87.75
339.106	95.75
339.334	103.75
339.562	73.75
339.79	84.75
340.018	79.75
340.246	78.75
340.474	73.75
340.702	98.75
340.93	85.75
341.158	88.75
341.386	77.75
341.614	86.75
341.842	97.75
342.07	81.75
342.298	88.75
342.526	89.75
342.754	66.75
342.981	90.75
343.209	84.75
343.437	78.75
343.665	93.75
343.893	95.75
344.12	86.75
344.348	93.75
344.576	75.75
344.804	71.75
345.031	93.75
345.259	86.75
345.487	90.75
345.714	73.75
345.942	87.75
346.17	88.75
346.397	84.75
346.625	74.75
346.853	85.75
347.08	75.75
347.308	89.75
347.535	95.75
347.763	91.75
347.99	81.75
348.218	101.75
348.445	83.75
348.673	79.75
348.9	72.75
349.128	81.75
349.355	73.75
349.583	90.75
349.81	85.75
350.037	77.75
350.265	66.75
350.492	85.75
350.72	78.75
350.947	89.75
351.174	79.75
351.402	92.75
351.629	67.75
351.856	65.75
352.083	93.75
352.311	85.75
352.538	86.75
352.765	79.75
352.992	85.75
353.22	90.75
353.447	68.75
353.674	87.75
353.901	79.75
354.128	84.75
354.355	99.75
354.583	85.75
354.81	88.75
355.037	90.75
355.264	93.75
355.491	84.75
355.718	82.75
355.945	79.75
356.172	86.75
356.399	81.75
356.626	84.75
356.853	98.75
357.08	87.75
357.307	86.75
357.534	97.75
357.761	94.75
357.988	78.75
358.215	87.75
358.441	79.75
358.668	91.75
358.895	80.75
359.122	100.75
359.349	75.75
359.576	88.75
359.802	81.75
360.029	80.75
360.256	85.75
360.483	84.75
360.709	98.75
360.936	99.75
361.163	83.75
361.39	85.75
361.616	94.75
361.843	73.75
362.07	92.75
362.296	74.75
362.523	81.75
362.749	89.75
362.976	71.75
363.203	88.75
363.429	90.75
363.656	84.75
363.882	85.75
364.109	75.75
364.335	92.75
364.562	81.75
364.788	99.75
365.015	93.75
365.241	82.75
365.468	93.75
365.694	74.75
365.92	67.75
366.147	89.75
366.373	73.75
366.599	84.75
366.826	80.75
367.052	91.75
367.278	86.75
367.505	91.75
367.731	88.75
367.957	97.75
368.184	82.75
368.41	81.75
368.636	69.75
368.862	78.75
369.089	82.75
369.315	72.75
369.541	85.75
369.767	87.75
369.993	85.75
370.219	88.75
370.445	94.75
370.672	87.75
370.898	66.75
371.124	91.75
371.35	94.75
371.576	76.75
371.802	82.75
372.028	79.75
372.254	80.75
372.48	81.75
372.706	77.75
372.932	88.75
373.158	79.75
373.384	80.75
373.61	82.75
373.835	87.75
374.061	80.75
374.287	81.75
374.513	87.75
374.739	81.75
374.965	87.75
375.191	98.75
375.416	84.75
375.642	92.75
375.868	93.75
376.094	85.75
376.319	87.75
376.545	79.75
376.771	77.75
376.997	96.75
377.222	85.75
377.448	86.75
377.674	78.75
377.899	96.75
378.125	79.75
378.35	81.75
378.576	74.75
378.802	75.75
379.027	81.75
379.253	90.75
379.478	98.75
379.704	83.75
379.929	94.75
380.155	74.75
380.38	84.75
380.606	80.75
380.831	93.75
381.057	85.75
381.282	96.75
381.507	88.75
381.733	82.75
381.958	85.75
382.184	64.75
382.409	91.75
382.634	87.75
382.86	83.75
383.085	81.75
383.31	74.75
383.535	82.75
383.761	87.75
383.986	88.75
384.211	90.75
384.436	95.75
384.662	87.75
384.887	81.75
385.112	80.75
385.337	86.75
385.562	86.75
385.787	81.75
386.013	88.75
386.238	80.75
386.463	91.75
386.688	94.75
386.913	93.75
387.138	81.75
387.363	78.75
387.588	95.75
387.813	93.75
388.038	89.75
388.263	93.75
388.488	82.75
388.713	83.75
388.938	96.75
389.163	96.75
389.387	95.75
389.612	88.75
389.837	85.75
390.062	75.75
390.287	93.75
390.512	89.75
390.736	83.75
390.961	82.75
391.186	83.75
391.411	76.75
391.636	84.75
391.86	85.75
392.085	82.75
392.31	83.75
392.534	81.75
392.759	79.75
392.984	81.75
393.208	97.75
393.433	90.75
393.658	97.75
393.882	84.75
394.107	85.75
394.331	83.75
394.556	91.75
394.78	78.75
395.005	92.75
395.229	88.75
395.454	89.75
395.678	95.75
395.903	76.75
396.127	81.75
396.352	82.75
396.576	86.75
396.801	84.75
397.025	90.75
397.249	91.75
397.474	101.75
397.698	91.75
397.922	96.75
398.147	91.75
398.371	98.75
398.595	83.75
398.82	73.75
399.044	92.75
399.268	87.75
399.492	91.75
399.717	90.75
399.941	79.75
400.165	102.75
400.389	84.75
400.613	100.75
400.837	91.75
401.062	86.75
401.286	97.75
401.51	87.75
401.734	83.75
401.958	93.75
402.182	87.75
402.406	83.75
402.63	90.75
402.854	86.75
403.078	91.75
403.302	87.75
403.526	92.75
403.75	89.75
403.974	90.75
404.198	94.75
404.422	86.75
404.645	93.75
404.869	79.75
405.093	80.75
405.317	90.75
405.541	79.75
405.765	84.75
405.988	85.75
406.212	74.75
406.436	100.75
406.66	82.75
406.883	83.75
407.107	94.75
407.331	88.75
407.555	80.75
407.778	91.75
408.002	85.75
408.226	89.75
408.449	105.75
408.673	75.75
408.896	73.75
409.12	94.75
409.344	83.75
409.567	85.75
409.791	98.75
410.014	85.75
410.238	86.75
410.461	98.75
410.685	105.75
410.908	102.75
411.132	105.75
411.355	83.75
411.578	78.75
411.802	88.75
412.025	90.75
412.249	111.75
412.472	103.75
412.695	95.75
412.919	98.75
413.142	100.75
413.365	96.75
413.589	87.75
413.812	96.75
414.035	88.75
414.258	86.75
414.482	81.75
414.705	96.75
414.928	97.75
415.151	98.75
415.374	85.75
415.597	94.75
415.821	88.75
416.044	81.75
416.267	90.75
416.49	96.75
416.713	103.75
416.936	94.75
417.159	106.75
417.382	106.75
417.605	87.75
417.828	92.75
418.051	80.75
418.274	94.75
418.497	111.75
418.72	99.75
418.943	103.75
419.166	94.75
419.389	101.75
419.611	88.75
419.834	96.75
420.057	84.75
420.28	94.75
420.503	101.75
420.726	109.75
420.948	106.75
421.171	101.75
421.394	93.75
421.617	101.75
421.839	86.75
422.062	94.75
422.285	97.75
422.507	100.75
422.73	103.75
422.953	90.75
423.175	98.75
423.398	93.75
423.621	98.75
423.843	98.75
424.066	102.75
424.288	106.75
424.511	86.75
424.733	93.75
424.956	95.75
425.178	89.75
425.401	104.75
425.623	83.75
425.846	83.75
426.068	86.75
426.291	92.75
426.513	102.75
426.735	79.75
426.958	101.75
427.18	92.75
427.402	90.75
427.625	98.75
427.847	111.75
428.069	87.75
428.292	93.75
428.514	99.75
428.736	109.75
428.958	93.75
429.181	86.75
429.403	90.75
429.625	95.75
429.847	88.75
430.069	96.75
430.292	94.75
430.514	80.75
430.736	96.75
430.958	102.75
431.18	91.75
431.402	111.75
431.624	95.75
431.846	87.75
432.068	96.75
432.29	92.75
432.512	98.75
432.734	87.75
432.956	93.75
433.178	89.75
433.4	103.75
433.622	105.75
433.844	95.75
434.066	104.75
434.287	93.75
434.509	91.75
434.731	90.75
434.953	102.75
435.175	84.75
435.397	104.75
435.618	93.75
435.84	93.75
436.062	96.75
436.284	79.75
436.505	99.75
436.727	89.75
436.949	83.75
437.17	93.75
437.392	103.75
437.614	93.75
437.835	97.75
438.057	91.75
438.278	86.75
438.5	106.75
438.721	95.75
438.943	96.75
439.165	96.75
439.386	95.75
439.608	103.75
439.829	97.75
440.05	107.75
440.272	102.75
440.493	93.75
440.715	95.75
440.936	99.75
441.158	101.75
441.379	98.75
441.6	90.75
441.822	91.75
442.043	94.75
442.264	87.75
442.486	103.75
442.707	97.75
442.928	100.75
443.149	96.75
443.371	96.75
443.592	103.75
443.813	105.75
444.034	116.75
444.255	101.75
444.476	94.75
444.698	95.75
444.919	85.75
445.14	171.75
445.361	134.75
445.582	98.75
445.803	99.75
446.024	86.75
446.245	119.75
446.466	110.75
446.687	98.75
446.908	117.75
447.129	89.75
447.35	114.75
447.571	115.75
447.792	81.75
448.013	87.75
448.234	98.75
448.455	96.75
448.675	89.75
448.896	94.75
449.117	95.75
449.338	110.75
449.559	95.75
449.779	93.75
450	87.75
450.221	84.75
450.442	96.75
450.662	83.75
450.883	101.75
451.104	97.75
451.324	93.75
451.545	81.75
451.766	100.75
451.986	100.75
452.207	96.75
452.428	75.75
452.648	95.75
452.869	86.75
453.089	108.75
453.31	83.75
453.53	103.75
453.751	89.75
453.971	82.75
454.192	77.75
454.412	85.75
454.633	90.75
454.853	98.75
455.073	103.75
455.294	94.75
455.514	103.75
455.734	93.75
455.955	93.75
456.175	87.75
456.395	88.75
456.616	100.75
456.836	89.75
457.056	83.75
457.276	85.75
457.497	97.75
457.717	95.75
457.937	97.75
458.157	86.75
458.377	83.75
458.598	82.75
458.818	101.75
459.038	90.75
459.258	79.75
459.478	70.75
459.698	85.75
459.918	95.75
460.138	90.75
460.358	88.75
460.578	86.75
460.798	86.75
461.018	85.75
461.238	102.75
461.458	76.75
461.678	95.75
461.898	99.75
462.118	96.75
462.338	80.75
462.558	105.75
462.777	104.75
462.997	97.75
463.217	96.75
463.437	87.75
463.657	88.75
463.876	81.75
464.096	87.75
464.316	95.75
464.536	82.75
464.755	105.75
464.975	95.75
465.195	90.75
465.414	95.75
465.634	85.75
465.854	96.75
466.073	96.75
466.293	96.75
466.512	88.75
466.732	82.75
466.951	96.75
467.171	97.75
467.391	88.75
467.61	92.75
467.829	91.75
468.049	98.75
468.268	100.75
468.488	103.75
468.707	106.75
468.927	91.75
469.146	87.75
469.365	109.75
469.585	115.75
469.804	94.75
470.023	105.75
470.243	92.75
470.462	102.75
470.681	101.75
470.901	89.75
471.12	110.75
471.339	87.75
471.558	103.75
471.777	92.75
471.997	95.75
472.216	86.75
472.435	97.75
472.654	92.75
472.873	87.75
473.092	84.75
473.311	91.75
473.53	102.75
473.749	95.75
473.968	103.75
474.187	105.75
474.406	93.75
474.625	97.75
474.844	101.75
475.063	99.75
475.282	89.75
475.501	95.75
475.72	88.75
475.939	88.75
476.158	100.75
476.377	95.75
476.596	90.75
476.814	95.75
477.033	101.75
477.252	93.75
477.471	94.75
477.69	87.75
477.908	97.75
478.127	105.75
478.346	102.75
478.564	98.75
478.783	82.75
479.002	111.75
479.22	85.75
479.439	103.75
479.658	108.75
479.876	95.75
480.095	92.75
480.313	96.75
480.532	86.75
480.751	93.75
480.969	87.75
481.188	88.75
481.406	82.75
481.624	84.75
481.843	87.75
482.061	86.75
482.28	102.75
482.498	90.75
482.717	94.75
482.935	99.75
483.153	102.75
483.372	106.75
483.59	104.75
483.808	96.75
484.027	112.75
484.245	97.75
484.463	101.75
484.681	115.75
484.9	99.75
485.118	92.75
485.336	102.75
485.554	92.75
485.772	92.75
485.99	95.75
486.209	78.75
486.427	89.75
486.645	89.75
486.863	98.75
487.081	102.75
487.299	88.75
487.517	94.75
487.735	109.75
487.953	118.75
488.171	117.75
488.389	127.75
488.607	105.75
488.825	100.75
489.043	96.75
489.261	96.75
489.479	101.75
489.696	89.75
489.914	84.75
490.132	97.75
490.35	98.75
490.568	103.75
490.786	104.75
491.003	104.75
491.221	95.75
491.439	100.75
491.657	121.75
491.874	107.75
492.092	118.75
492.31	132.75
492.527	120.75
492.745	103.75
492.963	114.75
493.18	109.75
493.398	127.75
493.615	111.75
493.833	112.75
494.05	110.75
494.268	105.75
494.485	119.75
494.703	121.75
494.92	96.75
495.138	109.75
495.355	110.75
495.573	119.75
495.79	103.75
496.008	111.75
496.225	111.75
496.442	107.75
496.66	109.75
496.877	111.75
497.094	90.75
497.312	114.75
497.529	101.75
497.746	94.75
497.963	102.75
498.181	105.75
498.398	105.75
498.615	94.75
498.832	94.75
499.049	82.75
499.267	91.75
499.484	88.75
499.701	91.75
499.918	97.75
500.135	86.75
500.352	104.75
500.569	116.75
500.786	92.75
501.003	87.75
501.22	108.75
501.437	105.75
501.654	88.75
501.871	90.75
502.088	93.75
502.305	99.75
502.522	92.75
502.739	105.75
502.956	87.75
503.172	82.75
503.389	91.75
503.606	99.75
503.823	81.75
504.04	104.75
504.256	92.75
504.473	93.75
504.69	102.75
504.907	106.75
505.123	84.75
505.34	82.75
505.557	83.75
505.773	94.75
505.99	99.75
506.207	80.75
506.423	95.75
506.64	104.75
506.856	98.75
507.073	100.75
507.289	93.75
507.506	80.75
507.722	93.75
507.939	97.75
508.155	96.75
508.372	102.75
508.588	85.75
508.805	74.75
509.021	85.75
509.238	88.75
509.454	75.75
509.67	80.75
509.887	88.75
510.103	66.75
510.319	88.75
510.536	79.75
510.752	81.75
510.968	83.75
511.184	77.75
511.401	80.75
511.617	87.75
511.833	86.75
512.049	78.75
512.265	95.75
512.481	74.75
512.698	103.75
512.914	90.75
513.13	94.75
513.346	97.75
513.562	79.75
513.778	93.75
513.994	80.75
514.21	85.75
514.426	87.75
514.642	83.75
514.858	79.75
515.074	96.75
515.29	88.75
515.506	92.75
515.721	93.75
515.937	85.75
516.153	88.75
516.369	71.75
516.585	83.75
516.801	89.75
517.016	85.75
517.232	94.75
517.448	75.75
517.664	83.75
517.879	71.75
518.095	89.75
518.311	91.75
518.527	86.75
518.742	81.75
518.958	78.75
519.173	93.75
519.389	96.75
519.605	79.75
519.82	87.75
520.036	79.75
520.251	96.75
520.467	96.75
520.682	91.75
520.898	82.75
521.113	76.75
521.329	89.75
521.544	79.75
521.76	72.75
521.975	98.75
522.19	82.75
522.406	72.75
522.621	83.75
522.836	71.75
523.052	95.75
523.267	89.75
523.482	91.75
523.698	79.75
523.913	96.75
524.128	88.75
524.343	98.75
524.559	91.75
524.774	85.75
524.989	94.75
525.204	98.75
525.419	80.75
525.634	90.75
525.849	84.75
526.064	82.75
526.28	81.75
526.495	88.75
526.71	85.75
526.925	79.75
527.14	84.75
527.355	90.75
527.57	75.75
527.785	79.75
527.999	93.75
528.214	77.75
528.429	89.75
528.644	94.75
528.859	89.75
529.074	94.75
529.289	112.75
529.503	106.75
529.718	80.75
529.933	103.75
530.148	98.75
530.363	82.75
530.577	96.75
530.792	91.75
531.007	90.75
531.221	81.75
531.436	83.75
531.651	86.75
531.865	92.75
532.08	67.75
532.295	74.75
532.509	82.75
532.724	80.75
532.938	72.75
533.153	65.75
533.367	95.75
533.582	97.75
533.796	95.75
534.011	84.75
534.225	83.75
534.44	88.75
534.654	78.75
534.868	90.75
535.083	79.75
535.297	90.75
535.511	77.75
535.726	98.75
535.94	83.75
536.154	79.75
536.369	78.75
536.583	79.75
536.797	84.75
537.011	82.75
537.225	82.75
537.44	91.75
537.654	91.75
537.868	86.75
538.082	87.75
538.296	85.75
538.51	83.75
538.724	94.75
538.938	97.75
539.153	83.75
539.367	90.75
539.581	72.75
539.795	98.75
540.009	89.75
540.222	87.75
540.436	83.75
540.65	99.75
540.864	84.75
541.078	101.75
541.292	104.75
541.506	104.75
541.72	122.75
541.934	114.75
542.147	120.75
542.361	109.75
542.575	122.75
542.789	110.75
543.002	87.75
543.216	93.75
543.43	99.75
543.644	116.75
543.857	113.75
544.071	108.75
544.285	115.75
544.498	94.75
544.712	108.75
544.925	118.75
545.139	112.75
545.352	103.75
545.566	98.75
545.779	102.75
545.993	102.75
546.206	104.75
546.42	119.75
546.633	107.75
546.847	103.75
547.06	104.75
547.274	101.75
547.487	110.75
547.7	117.75
547.914	106.75
548.127	110.75
548.34	111.75
548.554	110.75
548.767	104.75
548.98	100.75
549.193	109.75
549.407	95.75
549.62	117.75
549.833	109.75
550.046	107.75
550.259	111.75
550.473	103.75
550.686	88.75
550.899	89.75
551.112	91.75
551.325	101.75
551.538	114.75
551.751	85.75
551.964	86.75
552.177	109.75
552.39	88.75
552.603	109.75
552.816	93.75
553.029	104.75
553.242	100.75
553.455	130.75
553.667	113.75
553.88	99.75
554.093	113.75
554.306	107.75
554.519	99.75
554.732	100.75
554.944	89.75
555.157	110.75
555.37	110.75
555.583	87.75
555.795	102.75
556.008	103.75
556.221	100.75
556.433	98.75
556.646	93.75
556.859	95.75
557.071	90.75
557.284	94.75
557.496	95.75
557.709	110.75
557.921	98.75
558.134	102.75
558.346	108.75
558.559	87.75
558.771	111.75
558.984	104.75
559.196	102.75
559.409	94.75
559.621	87.75
559.833	103.75
560.046	109.75
560.258	82.75
560.47	98.75
560.683	95.75
560.895	91.75
561.107	97.75
561.32	88.75
561.532	93.75
561.744	102.75
561.956	116.75
562.168	100.75
562.381	98.75
562.593	104.75
562.805	90.75
563.017	112.75
563.229	97.75
563.441	98.75
563.653	95.75
563.865	85.75
564.077	95.75
564.289	97.75
564.501	98.75
564.713	84.75
564.925	96.75
565.137	76.75
565.349	91.75
565.561	91.75
565.773	87.75
565.985	101.75
566.197	104.75
566.408	89.75
566.62	96.75
566.832	92.75
567.044	109.75
567.255	94.75
567.467	106.75
567.679	89.75
567.891	98.75
568.102	83.75
568.314	84.75
568.526	87.75
568.737	79.75
568.949	80.75
569.161	90.75
569.372	98.75
569.584	79.75
569.795	84.75
570.007	90.75
570.218	88.75
570.43	91.75
570.641	86.75
570.853	100.75
571.064	97.75
571.276	89.75
571.487	85.75
571.698	93.75
571.91	90.75
572.121	80.75
572.333	73.75
572.544	102.75
572.755	94.75
572.966	78.75
573.178	85.75
573.389	86.75
573.6	81.75
573.811	83.75
574.023	89.75
574.234	63.75
574.445	90.75
574.656	95.75
574.867	72.75
575.078	104.75
575.289	81.75
575.501	95.75
575.712	87.75
575.923	97.75
576.134	73.75
576.345	90.75
576.556	103.75
576.767	82.75
576.978	93.75
577.188	91.75
577.399	89.75
577.61	88.75
577.821	97.75
578.032	80.75
578.243	94.75
578.454	83.75
578.665	73.75
578.875	89.75
579.086	110.75
579.297	82.75
579.508	93.75
579.718	87.75
579.929	70.75
580.14	75.75
580.35	91.75
580.561	93.75
580.772	89.75
580.982	73.75
581.193	88.75
581.403	103.75
581.614	82.75
581.825	100.75
582.035	94.75
582.246	80.75
582.456	80.75
582.667	84.75
582.877	94.75
583.087	92.75
583.298	75.75
583.508	83.75
583.719	80.75
583.929	94.75
584.139	89.75
584.35	90.75
584.56	76.75
584.77	87.75
584.981	87.75
585.191	92.75
585.401	94.75
585.611	85.75
585.821	71.75
586.032	77.75
586.242	86.75
586.452	90.75
586.662	94.75
586.872	73.75
587.082	81.75
587.292	88.75
587.502	96.75
587.713	87.75
587.923	92.75
588.133	91.75
588.343	81.75
588.553	97.75
588.762	86.75
588.972	80.75
589.182	93.75
589.392	66.75
589.602	84.75
589.812	75.75
590.022	90.75
590.232	74.75
590.441	89.75
590.651	86.75
590.861	89.75
591.071	89.75
591.281	84.75
591.49	84.75
591.7	77.75
591.91	94.75
592.119	81.75
592.329	77.75
592.539	82.75
592.748	97.75
592.958	81.75
593.167	78.75
593.377	73.75
593.587	94.75
593.796	87.75
594.006	84.75
594.215	76.75
594.424	77.75
594.634	68.75
594.843	84.75
595.053	95.75
595.262	77.75
595.472	85.75
595.681	82.75
595.89	83.75
596.1	74.75
596.309	75.75
596.518	97.75
596.727	82.75
596.937	84.75
597.146	90.75
597.355	81.75
597.564	88.75
597.774	86.75
597.983	82.75
598.192	78.75
598.401	73.75
598.61	88.75
598.819	92.75
599.028	82.75
599.237	91.75
599.446	88.75
599.655	99.75
599.864	82.75
600.073	79.75
600.282	81.75
600.491	86.75
600.7	81.75
600.909	79.75
601.118	84.75
601.327	85.75
601.536	85.75
601.745	99.75
601.953	94.75
602.162	92.75
602.371	83.75
602.58	86.75
602.789	90.75
602.997	106.75
603.206	102.75
603.415	89.75
603.623	94.75
603.832	88.75
604.041	80.75
604.249	90.75
604.458	92.75
604.666	97.75
604.875	103.75
605.084	103.75
605.292	87.75
605.501	89.75
605.709	91.75
605.918	98.75
606.126	99.75
606.334	79.75
606.543	83.75
606.751	101.75
606.96	105.75
607.168	87.75
607.376	109.75
607.585	90.75
607.793	83.75
608.001	94.75
608.21	84.75
608.418	82.75
608.626	89.75
608.834	95.75
609.043	109.75
609.251	83.75
609.459	102.75
609.667	99.75
609.875	97.75
610.083	89.75
610.291	91.75
610.499	92.75
610.707	89.75
610.916	105.75
611.124	94.75
611.332	84.75
611.54	97.75
611.748	83.75
611.955	80.75
612.163	80.75
612.371	99.75
612.579	86.75
612.787	88.75
612.995	95.75
613.203	95.75
613.411	96.75
613.618	80.75
613.826	107.75
614.034	98.75
614.242	101.75
614.449	88.75
614.657	90.75
614.865	89.75
615.072	96.75
615.28	93.75
615.488	100.75
615.695	84.75
615.903	83.75
616.111	102.75
616.318	96.75
616.526	78.75
616.733	106.75
616.941	91.75
617.148	97.75
617.356	95.75
617.563	104.75
617.771	99.75
617.978	102.75
618.185	98.75
618.393	94.75
618.6	84.75
618.807	80.75
619.015	90.75
619.222	93.75
619.429	87.75
619.637	106.75
619.844	99.75
620.051	103.75
620.258	90.75
620.466	93.75
620.673	89.75
620.88	85.75
621.087	96.75
621.294	91.75
621.501	107.75
621.708	99.75
621.915	93.75
622.122	100.75
622.329	83.75
622.536	80.75
622.743	86.75
622.95	83.75
623.157	98.75
623.364	91.75
623.571	95.75
623.778	88.75
623.985	95.75
624.192	79.75
624.399	90.75
624.606	99.75
624.812	88.75
625.019	85.75
625.226	93.75
625.433	94.75
625.639	105.75
625.846	88.75
626.053	85.75
626.259	91.75
626.466	98.75
626.673	75.75
626.879	85.75
627.086	94.75
627.293	89.75
627.499	89.75
627.706	90.75
627.912	80.75
628.119	94.75
628.325	103.75
628.532	89.75
628.738	86.75
628.945	83.75
629.151	96.75
629.357	87.75
629.564	95.75
629.77	101.75
629.976	87.75
630.183	95.75
630.389	101.75
630.595	91.75
630.802	82.75
631.008	95.75
631.214	108.75
631.42	94.75
631.627	90.75
631.833	79.75
632.039	82.75
632.245	89.75
632.451	90.75
632.657	83.75
632.863	100.75
633.069	88.75
633.275	97.75
633.481	74.75
633.688	84.75
633.893	87.75
634.099	99.75
634.305	93.75
634.511	99.75
634.717	96.75
634.923	82.75
635.129	89.75
635.335	85.75
635.541	93.75
635.747	87.75
635.952	83.75
636.158	77.75
636.364	96.75
636.57	81.75
636.775	86.75
636.981	88.75
637.187	72.75
637.392	88.75
637.598	86.75
637.804	90.75
638.009	95.75
638.215	86.75
638.421	78.75
638.626	78.75
638.832	86.75
639.037	81.75
639.243	84.75
639.448	82.75
639.654	79.75
639.859	89.75
640.065	89.75
640.27	105.75
640.475	86.75
640.681	71.75
640.886	91.75
641.091	94.75
641.297	91.75
641.502	95.75
641.707	93.75
641.913	76.75
642.118	89.75
642.323	99.75
642.528	97.75
642.733	95.75
642.939	89.75
643.144	81.75
643.349	86.75
643.554	78.75
643.759	88.75
643.964	87.75
644.169	76.75
644.374	92.75
644.579	94.75
644.784	85.75
644.989	74.75
645.194	101.75
645.399	86.75
645.604	86.75
645.809	88.75
646.014	78.75
646.219	97.75
646.423	93.75
646.628	99.75
646.833	88.75
647.038	95.75
647.243	80.75
647.447	91.75
647.652	87.75
647.857	75.75
648.062	94.75
648.266	97.75
648.471	98.75
648.676	80.75
648.88	80.75
649.085	82.75
649.289	84.75
649.494	86.75
649.698	93.75
649.903	81.75
650.107	80.75
650.312	89.75
650.516	84.75
650.721	82.75
650.925	91.75
651.13	92.75
651.334	83.75
651.539	77.75
651.743	80.75
651.947	82.75
652.152	98.75
652.356	96.75
652.56	95.75
652.764	83.75
652.969	99.75
653.173	97.75
653.377	84.75
653.581	72.75
653.785	81.75
653.99	91.75
654.194	78.75
654.398	87.75
654.602	81.75
654.806	89.75
655.01	79.75
655.214	83.75
655.418	95.75
655.622	90.75
655.826	85.75
656.03	99.75
656.234	87.75
656.438	90.75
656.642	96.75
656.846	77.75
657.049	88.75
657.253	96.75
657.457	90.75
657.661	84.75
657.865	87.75
658.068	87.75
658.272	90.75
658.476	78.75
658.68	85.75
658.883	82.75
659.087	90.75
659.291	86.75
659.494	82.75
659.698	80.75
659.901	65.75
660.105	68.75
660.309	82.75
660.512	85.75
660.716	74.75
660.919	80.75
661.123	85.75
661.326	91.75
661.53	83.75
661.733	90.75
661.936	85.75
662.14	97.75
662.343	73.75
662.546	82.75
662.75	90.75
662.953	103.75
663.156	93.75
663.36	71.75
663.563	93.75
663.766	92.75
663.969	92.75
664.173	80.75
664.376	85.75
664.579	86.75
664.782	73.75
664.985	80.75
665.188	89.75
665.391	89.75
665.594	69.75
665.797	88.75
666	87.75
666.203	83.75
666.406	88.75
666.609	88.75
666.812	91.75
667.015	87.75
667.218	90.75
667.421	96.75
667.624	75.75
667.827	89.75
668.03	76.75
668.232	91.75
668.435	77.75
668.638	82.75
668.841	75.75
669.043	85.75
669.246	93.75
669.449	88.75
669.651	71.75
669.854	67.75
670.057	73.75
670.259	92.75
670.462	87.75
670.665	93.75
670.867	72.75
671.07	85.75
671.272	84.75
671.475	64.75
671.677	96.75
671.88	73.75
672.082	76.75
672.284	93.75
672.487	79.75
672.689	75.75
672.892	102.75
