Data from Location3.07152019.Energy5.Lamp.07192019.3%Agarose_HRD10591_15-17-50-269.txt Node
Date: Fri Jul 19 15:17:50 EDT 2019
User: cochatt
Spectrometer: HR+D1059
Trigger mode: 1
Integration Time (sec): 1.000000E-1
Scans to average: 1
Electric dark correction enabled: true
Nonlinearity correction enabled: false
Boxcar width: 0
XAxis mode: Wavelengths
Number of Pixels in Spectrum: 2048
>>>>>Begin Spectral Data<<<<<
223.165	-19.62
223.4	-19.62
223.635	-19.62
223.869	-29.62
224.104	-22.62
224.338	-13.62
224.573	-10.62
224.808	-20.62
225.042	4.38
225.277	-0.62
225.511	-5.62
225.746	-1.62
225.98	12.38
226.215	12.38
226.449	18.38
226.683	13.38
226.918	29.38
227.152	34.38
227.387	37.38
227.621	35.38
227.856	36.38
228.09	54.38
228.324	44.38
228.559	49.38
228.793	56.38
229.027	66.38
229.262	66.38
229.496	64.38
229.73	69.38
229.964	73.38
230.199	55.38
230.433	88.38
230.667	64.38
230.901	69.38
231.136	72.38
231.37	78.38
231.604	73.38
231.838	69.38
232.072	71.38
232.306	67.38
232.541	74.38
232.775	86.38
233.009	92.38
233.243	76.38
233.477	73.38
233.711	80.38
233.945	104.38
234.179	89.38
234.413	89.38
234.647	81.38
234.881	66.38
235.115	80.38
235.349	95.38
235.583	85.38
235.817	86.38
236.051	84.38
236.285	63.38
236.519	82.38
236.753	75.38
236.987	89.38
237.221	85.38
237.455	84.38
237.689	88.38
237.922	67.38
238.156	70.38
238.39	69.38
238.624	75.38
238.858	85.38
239.091	84.38
239.325	74.38
239.559	78.38
239.793	76.38
240.027	84.38
240.26	67.38
240.494	69.38
240.728	71.38
240.961	73.38
241.195	70.38
241.429	77.38
241.662	84.38
241.896	72.38
242.13	86.38
242.363	83.38
242.597	80.38
242.83	71.38
243.064	78.38
243.298	79.38
243.531	91.38
243.765	79.38
243.998	85.38
244.232	70.38
244.465	82.38
244.699	75.38
244.932	74.38
245.166	85.38
245.399	63.38
245.633	63.38
245.866	74.38
246.099	61.38
246.333	85.38
246.566	93.38
246.8	78.38
247.033	74.38
247.266	72.38
247.5	86.38
247.733	76.38
247.966	74.38
248.2	76.38
248.433	69.38
248.666	77.38
248.899	79.38
249.133	86.38
249.366	74.38
249.599	76.38
249.832	69.38
250.066	78.38
250.299	67.38
250.532	84.38
250.765	64.38
250.998	56.38
251.231	78.38
251.465	73.38
251.698	72.38
251.931	93.38
252.164	72.38
252.397	78.38
252.63	81.38
252.863	68.38
253.096	70.38
253.329	69.38
253.562	79.38
253.795	76.38
254.028	73.38
254.261	76.38
254.494	90.38
254.727	77.38
254.96	87.38
255.193	84.38
255.426	79.38
255.659	81.38
255.892	88.38
256.124	80.38
256.357	76.38
256.59	72.38
256.823	81.38
257.056	74.38
257.289	67.38
257.521	77.38
257.754	65.38
257.987	81.38
258.22	78.38
258.452	78.38
258.685	97.38
258.918	77.38
259.151	65.38
259.383	92.38
259.616	80.38
259.849	67.38
260.081	73.38
260.314	74.38
260.547	73.38
260.779	83.38
261.012	87.38
261.244	67.38
261.477	69.38
261.71	68.38
261.942	79.38
262.175	72.38
262.407	84.38
262.64	71.38
262.872	72.38
263.105	70.38
263.337	88.38
263.57	82.38
263.802	91.38
264.035	80.38
264.267	58.38
264.499	86.38
264.732	71.38
264.964	85.38
265.197	78.38
265.429	82.38
265.661	88.38
265.894	86.38
266.126	76.38
266.358	71.38
266.591	70.38
266.823	93.38
267.055	70.38
267.287	78.38
267.52	73.38
267.752	85.38
267.984	90.38
268.216	82.38
268.448	75.38
268.681	72.38
268.913	81.38
269.145	75.38
269.377	70.38
269.609	88.38
269.841	89.38
270.073	91.38
270.306	79.38
270.538	77.38
270.77	70.38
271.002	75.38
271.234	84.38
271.466	76.38
271.698	77.38
271.93	80.38
272.162	88.38
272.394	78.38
272.626	82.38
272.858	77.38
273.09	75.38
273.322	81.38
273.553	86.38
273.785	76.38
274.017	65.38
274.249	84.38
274.481	98.38
274.713	82.38
274.945	84.38
275.176	82.38
275.408	90.38
275.64	82.38
275.872	82.38
276.104	83.38
276.335	73.38
276.567	70.38
276.799	81.38
277.031	95.38
277.262	92.38
277.494	88.38
277.726	81.38
277.957	81.38
278.189	84.38
278.421	89.38
278.652	84.38
278.884	69.38
279.115	79.38
279.347	100.38
279.579	80.38
279.81	82.38
280.042	83.38
280.273	84.38
280.505	80.38
280.736	65.38
280.968	74.38
281.199	73.38
281.431	81.38
281.662	67.38
281.894	86.38
282.125	88.38
282.356	84.38
282.588	84.38
282.819	86.38
283.051	69.38
283.282	78.38
283.513	78.38
283.745	69.38
283.976	82.38
284.207	88.38
284.439	82.38
284.67	85.38
284.901	79.38
285.132	86.38
285.364	103.38
285.595	82.38
285.826	88.38
286.057	85.38
286.288	81.38
286.52	91.38
286.751	74.38
286.982	96.38
287.213	86.38
287.444	74.38
287.675	94.38
287.906	97.38
288.138	80.38
288.369	79.38
288.6	84.38
288.831	79.38
289.062	90.38
289.293	88.38
289.524	75.38
289.755	82.38
289.986	73.38
290.217	84.38
290.448	85.38
290.679	86.38
290.91	86.38
291.141	69.38
291.371	83.38
291.602	87.38
291.833	88.38
292.064	82.38
292.295	86.38
292.526	89.38
292.757	82.38
292.987	89.38
293.218	80.38
293.449	79.38
293.68	80.38
293.91	79.38
294.141	85.38
294.372	74.38
294.603	78.38
294.833	80.38
295.064	72.38
295.295	92.38
295.525	80.38
295.756	90.38
295.987	90.38
296.217	86.38
296.448	84.38
296.679	84.38
296.909	80.38
297.14	90.38
297.37	97.38
297.601	97.38
297.831	75.38
298.062	87.38
298.292	85.38
298.523	81.38
298.753	74.38
298.984	87.38
299.214	72.38
299.445	99.38
299.675	92.38
299.905	81.38
300.136	92.38
300.366	74.38
300.597	80.38
300.827	81.38
301.057	80.38
301.288	86.38
301.518	87.38
301.748	93.38
301.979	81.38
302.209	71.38
302.439	84.38
302.669	81.38
302.9	81.38
303.13	82.38
303.36	90.38
303.59	76.38
303.82	78.38
304.051	89.38
304.281	81.38
304.511	80.38
304.741	86.38
304.971	96.38
305.201	101.38
305.431	82.38
305.661	87.38
305.891	73.38
306.121	90.38
306.352	84.38
306.582	83.38
306.812	86.38
307.042	91.38
307.272	86.38
307.502	95.38
307.731	93.38
307.961	67.38
308.191	75.38
308.421	87.38
308.651	94.38
308.881	68.38
309.111	80.38
309.341	88.38
309.571	71.38
309.8	88.38
310.03	82.38
310.26	87.38
310.49	89.38
310.72	98.38
310.949	80.38
311.179	78.38
311.409	88.38
311.639	97.38
311.868	95.38
312.098	65.38
312.328	84.38
312.557	73.38
312.787	85.38
313.017	84.38
313.246	83.38
313.476	95.38
313.706	90.38
313.935	85.38
314.165	96.38
314.394	98.38
314.624	66.38
314.853	83.38
315.083	75.38
315.312	83.38
315.542	95.38
315.771	82.38
316.001	88.38
316.23	80.38
316.46	80.38
316.689	92.38
316.919	87.38
317.148	89.38
317.377	91.38
317.607	93.38
317.836	83.38
318.065	86.38
318.295	86.38
318.524	88.38
318.753	74.38
318.983	68.38
319.212	80.38
319.441	89.38
319.67	87.38
319.9	68.38
320.129	74.38
320.358	75.38
320.587	91.38
320.816	81.38
321.046	86.38
321.275	69.38
321.504	65.38
321.733	66.38
321.962	78.38
322.191	85.38
322.42	93.38
322.649	88.38
322.878	85.38
323.108	87.38
323.337	71.38
323.566	82.38
323.795	76.38
324.024	84.38
324.253	78.38
324.482	90.38
324.71	83.38
324.939	94.38
325.168	84.38
325.397	92.38
325.626	83.38
325.855	92.38
326.084	76.38
326.313	77.38
326.542	78.38
326.77	86.38
326.999	87.38
327.228	80.38
327.457	74.38
327.686	79.38
327.914	78.38
328.143	82.38
328.372	84.38
328.6	96.38
328.829	80.38
329.058	87.38
329.287	83.38
329.515	82.38
329.744	89.38
329.972	87.38
330.201	84.38
330.43	71.38
330.658	85.38
330.887	92.38
331.115	85.38
331.344	86.38
331.572	89.38
331.801	73.38
332.03	79.38
332.258	81.38
332.486	95.38
332.715	85.38
332.943	64.38
333.172	79.38
333.4	88.38
333.629	71.38
333.857	83.38
334.085	79.38
334.314	82.38
334.542	87.38
334.771	78.38
334.999	73.38
335.227	78.38
335.455	87.38
335.684	80.38
335.912	91.38
336.14	87.38
336.369	81.38
336.597	78.38
336.825	100.38
337.053	79.38
337.281	76.38
337.51	87.38
337.738	81.38
337.966	81.38
338.194	88.38
338.422	71.38
338.65	78.38
338.878	84.38
339.106	92.38
339.334	85.38
339.562	76.38
339.79	95.38
340.018	81.38
340.246	87.38
340.474	68.38
340.702	85.38
340.93	68.38
341.158	84.38
341.386	85.38
341.614	90.38
341.842	77.38
342.07	84.38
342.298	69.38
342.526	81.38
342.754	103.38
342.981	96.38
343.209	72.38
343.437	70.38
343.665	67.38
343.893	77.38
344.12	86.38
344.348	93.38
344.576	82.38
344.804	76.38
345.031	82.38
345.259	82.38
345.487	89.38
345.714	87.38
345.942	75.38
346.17	59.38
346.397	54.38
346.625	74.38
346.853	80.38
347.08	78.38
347.308	91.38
347.535	70.38
347.763	78.38
347.99	78.38
348.218	96.38
348.445	75.38
348.673	71.38
348.9	73.38
349.128	73.38
349.355	78.38
349.583	84.38
349.81	88.38
350.037	88.38
350.265	75.38
350.492	81.38
350.72	72.38
350.947	78.38
351.174	85.38
351.402	69.38
351.629	88.38
351.856	80.38
352.083	82.38
352.311	93.38
352.538	87.38
352.765	82.38
352.992	79.38
353.22	85.38
353.447	89.38
353.674	74.38
353.901	67.38
354.128	76.38
354.355	87.38
354.583	84.38
354.81	85.38
355.037	92.38
355.264	76.38
355.491	76.38
355.718	83.38
355.945	95.38
356.172	72.38
356.399	77.38
356.626	82.38
356.853	90.38
357.08	79.38
357.307	81.38
357.534	81.38
357.761	82.38
357.988	80.38
358.215	68.38
358.441	78.38
358.668	81.38
358.895	75.38
359.122	81.38
359.349	87.38
359.576	96.38
359.802	100.38
360.029	78.38
360.256	85.38
360.483	84.38
360.709	78.38
360.936	88.38
361.163	84.38
361.39	75.38
361.616	97.38
361.843	64.38
362.07	87.38
362.296	90.38
362.523	82.38
362.749	76.38
362.976	90.38
363.203	77.38
363.429	78.38
363.656	78.38
363.882	82.38
364.109	78.38
364.335	86.38
364.562	78.38
364.788	89.38
365.015	78.38
365.241	87.38
365.468	73.38
365.694	67.38
365.92	84.38
366.147	77.38
366.373	75.38
366.599	94.38
366.826	79.38
367.052	71.38
367.278	80.38
367.505	90.38
367.731	93.38
367.957	94.38
368.184	66.38
368.41	84.38
368.636	87.38
368.862	85.38
369.089	82.38
369.315	85.38
369.541	82.38
369.767	64.38
369.993	66.38
370.219	96.38
370.445	79.38
370.672	97.38
370.898	78.38
371.124	83.38
371.35	77.38
371.576	74.38
371.802	78.38
372.028	90.38
372.254	73.38
372.48	78.38
372.706	78.38
372.932	79.38
373.158	86.38
373.384	83.38
373.61	89.38
373.835	81.38
374.061	97.38
374.287	85.38
374.513	74.38
374.739	90.38
374.965	77.38
375.191	87.38
375.416	72.38
375.642	72.38
375.868	88.38
376.094	73.38
376.319	89.38
376.545	88.38
376.771	77.38
376.997	76.38
377.222	79.38
377.448	90.38
377.674	79.38
377.899	80.38
378.125	85.38
378.35	99.38
378.576	81.38
378.802	89.38
379.027	81.38
379.253	75.38
379.478	85.38
379.704	69.38
379.929	98.38
380.155	88.38
380.38	86.38
380.606	79.38
380.831	79.38
381.057	84.38
381.282	84.38
381.507	79.38
381.733	81.38
381.958	68.38
382.184	74.38
382.409	87.38
382.634	85.38
382.86	94.38
383.085	89.38
383.31	81.38
383.535	82.38
383.761	73.38
383.986	94.38
384.211	89.38
384.436	76.38
384.662	73.38
384.887	72.38
385.112	85.38
385.337	83.38
385.562	88.38
385.787	84.38
386.013	97.38
386.238	74.38
386.463	72.38
386.688	97.38
386.913	77.38
387.138	81.38
387.363	83.38
387.588	81.38
387.813	88.38
388.038	82.38
388.263	80.38
388.488	88.38
388.713	85.38
388.938	84.38
389.163	70.38
389.387	85.38
389.612	77.38
389.837	96.38
390.062	72.38
390.287	91.38
390.512	84.38
390.736	85.38
390.961	89.38
391.186	87.38
391.411	83.38
391.636	74.38
391.86	95.38
392.085	97.38
392.31	96.38
392.534	90.38
392.759	69.38
392.984	98.38
393.208	108.38
393.433	86.38
393.658	93.38
393.882	87.38
394.107	74.38
394.331	73.38
394.556	88.38
394.78	82.38
395.005	81.38
395.229	80.38
395.454	77.38
395.678	84.38
395.903	92.38
396.127	91.38
396.352	86.38
396.576	86.38
396.801	75.38
397.025	82.38
397.249	78.38
397.474	82.38
397.698	96.38
397.922	84.38
398.147	82.38
398.371	85.38
398.595	96.38
398.82	81.38
399.044	90.38
399.268	73.38
399.492	86.38
399.717	92.38
399.941	92.38
400.165	79.38
400.389	86.38
400.613	76.38
400.837	81.38
401.062	78.38
401.286	84.38
401.51	80.38
401.734	95.38
401.958	83.38
402.182	98.38
402.406	87.38
402.63	88.38
402.854	81.38
403.078	84.38
403.302	74.38
403.526	91.38
403.75	82.38
403.974	98.38
404.198	94.38
404.422	78.38
404.645	86.38
404.869	78.38
405.093	78.38
405.317	82.38
405.541	79.38
405.765	85.38
405.988	104.38
406.212	91.38
406.436	71.38
406.66	85.38
406.883	97.38
407.107	75.38
407.331	79.38
407.555	80.38
407.778	98.38
408.002	92.38
408.226	76.38
408.449	88.38
408.673	74.38
408.896	94.38
409.12	96.38
409.344	87.38
409.567	90.38
409.791	87.38
410.014	79.38
410.238	92.38
410.461	85.38
410.685	99.38
410.908	89.38
411.132	106.38
411.355	86.38
411.578	94.38
411.802	85.38
412.025	88.38
412.249	89.38
412.472	73.38
412.695	84.38
412.919	74.38
413.142	80.38
413.365	85.38
413.589	90.38
413.812	84.38
414.035	101.38
414.258	95.38
414.482	100.38
414.705	81.38
414.928	88.38
415.151	83.38
415.374	71.38
415.597	104.38
415.821	100.38
416.044	84.38
416.267	86.38
416.49	86.38
416.713	88.38
416.936	107.38
417.159	91.38
417.382	103.38
417.605	88.38
417.828	85.38
418.051	80.38
418.274	97.38
418.497	89.38
418.72	87.38
418.943	90.38
419.166	73.38
419.389	89.38
419.611	81.38
419.834	74.38
420.057	97.38
420.28	94.38
420.503	94.38
420.726	81.38
420.948	91.38
421.171	91.38
421.394	103.38
421.617	89.38
421.839	94.38
422.062	93.38
422.285	90.38
422.507	80.38
422.73	87.38
422.953	96.38
423.175	104.38
423.398	87.38
423.621	98.38
423.843	81.38
424.066	95.38
424.288	90.38
424.511	85.38
424.733	95.38
424.956	86.38
425.178	93.38
425.401	97.38
425.623	78.38
425.846	105.38
426.068	106.38
426.291	87.38
426.513	90.38
426.735	97.38
426.958	97.38
427.18	92.38
427.402	87.38
427.625	93.38
427.847	90.38
428.069	93.38
428.292	88.38
428.514	92.38
428.736	74.38
428.958	82.38
429.181	86.38
429.403	95.38
429.625	99.38
429.847	91.38
430.069	109.38
430.292	94.38
430.514	99.38
430.736	90.38
430.958	94.38
431.18	79.38
431.402	75.38
431.624	77.38
431.846	86.38
432.068	96.38
432.29	92.38
432.512	94.38
432.734	79.38
432.956	79.38
433.178	97.38
433.4	99.38
433.622	100.38
433.844	95.38
434.066	91.38
434.287	85.38
434.509	100.38
434.731	86.38
434.953	86.38
435.175	70.38
435.397	84.38
435.618	86.38
435.84	81.38
436.062	97.38
436.284	110.38
436.505	85.38
436.727	88.38
436.949	83.38
437.17	99.38
437.392	83.38
437.614	89.38
437.835	89.38
438.057	85.38
438.278	79.38
438.5	86.38
438.721	87.38
438.943	88.38
439.165	90.38
439.386	102.38
439.608	98.38
439.829	103.38
440.05	91.38
440.272	106.38
440.493	100.38
440.715	82.38
440.936	100.38
441.158	102.38
441.379	102.38
441.6	109.38
441.822	110.38
442.043	89.38
442.264	114.38
442.486	89.38
442.707	85.38
442.928	92.38
443.149	81.38
443.371	92.38
443.592	96.38
443.813	87.38
444.034	89.38
444.255	97.38
444.476	74.38
444.698	93.38
444.919	101.38
445.14	178.38
445.361	128.38
445.582	102.38
445.803	102.38
446.024	86.38
446.245	108.38
446.466	88.38
446.687	102.38
446.908	96.38
447.129	101.38
447.35	99.38
447.571	93.38
447.792	103.38
448.013	99.38
448.234	96.38
448.455	98.38
448.675	100.38
448.896	81.38
449.117	86.38
449.338	97.38
449.559	108.38
449.779	97.38
450	74.38
450.221	89.38
450.442	70.38
450.662	92.38
450.883	97.38
451.104	84.38
451.324	97.38
451.545	88.38
451.766	97.38
451.986	95.38
452.207	108.38
452.428	101.38
452.648	99.38
452.869	83.38
453.089	85.38
453.31	86.38
453.53	85.38
453.751	84.38
453.971	73.38
454.192	77.38
454.412	76.38
454.633	67.38
454.853	80.38
455.073	75.38
455.294	93.38
455.514	82.38
455.734	74.38
455.955	89.38
456.175	86.38
456.395	73.38
456.616	77.38
456.836	93.38
457.056	100.38
457.276	80.38
457.497	91.38
457.717	88.38
457.937	80.38
458.157	92.38
458.377	95.38
458.598	87.38
458.818	99.38
459.038	85.38
459.258	65.38
459.478	68.38
459.698	84.38
459.918	81.38
460.138	91.38
460.358	85.38
460.578	101.38
460.798	85.38
461.018	84.38
461.238	88.38
461.458	76.38
461.678	93.38
461.898	80.38
462.118	93.38
462.338	103.38
462.558	88.38
462.777	94.38
462.997	78.38
463.217	89.38
463.437	95.38
463.657	90.38
463.876	97.38
464.096	83.38
464.316	81.38
464.536	90.38
464.755	101.38
464.975	84.38
465.195	94.38
465.414	90.38
465.634	77.38
465.854	91.38
466.073	92.38
466.293	92.38
466.512	89.38
466.732	80.38
466.951	86.38
467.171	102.38
467.391	92.38
467.61	99.38
467.829	90.38
468.049	94.38
468.268	93.38
468.488	88.38
468.707	104.38
468.927	96.38
469.146	93.38
469.365	93.38
469.585	95.38
469.804	105.38
470.023	88.38
470.243	97.38
470.462	98.38
470.681	103.38
470.901	105.38
471.12	94.38
471.339	108.38
471.558	103.38
471.777	88.38
471.997	102.38
472.216	90.38
472.435	92.38
472.654	87.38
472.873	82.38
473.092	104.38
473.311	84.38
473.53	93.38
473.749	92.38
473.968	95.38
474.187	79.38
474.406	66.38
474.625	79.38
474.844	95.38
475.063	101.38
475.282	94.38
475.501	89.38
475.72	92.38
475.939	95.38
476.158	90.38
476.377	81.38
476.596	80.38
476.814	89.38
477.033	99.38
477.252	86.38
477.471	82.38
477.69	90.38
477.908	111.38
478.127	101.38
478.346	97.38
478.564	100.38
478.783	91.38
479.002	98.38
479.22	87.38
479.439	93.38
479.658	78.38
479.876	94.38
480.095	89.38
480.313	83.38
480.532	99.38
480.751	91.38
480.969	94.38
481.188	65.38
481.406	90.38
481.624	80.38
481.843	69.38
482.061	96.38
482.28	101.38
482.498	86.38
482.717	88.38
482.935	103.38
483.153	114.38
483.372	90.38
483.59	89.38
483.808	98.38
484.027	109.38
484.245	89.38
484.463	94.38
484.681	97.38
484.9	87.38
485.118	106.38
485.336	100.38
485.554	81.38
485.772	83.38
485.99	87.38
486.209	90.38
486.427	91.38
486.645	98.38
486.863	96.38
487.081	105.38
487.299	90.38
487.517	87.38
487.735	111.38
487.953	114.38
488.171	117.38
488.389	109.38
488.607	118.38
488.825	105.38
489.043	84.38
489.261	78.38
489.479	80.38
489.696	100.38
489.914	93.38
490.132	111.38
490.35	108.38
490.568	102.38
490.786	103.38
491.003	113.38
491.221	95.38
491.439	126.38
491.657	110.38
491.874	118.38
492.092	131.38
492.31	121.38
492.527	128.38
492.745	119.38
492.963	110.38
493.18	112.38
493.398	114.38
493.615	101.38
493.833	95.38
494.05	87.38
494.268	91.38
494.485	99.38
494.703	112.38
494.92	110.38
495.138	104.38
495.355	104.38
495.573	102.38
495.79	100.38
496.008	104.38
496.225	88.38
496.442	104.38
496.66	105.38
496.877	95.38
497.094	97.38
497.312	96.38
497.529	87.38
497.746	97.38
497.963	107.38
498.181	87.38
498.398	82.38
498.615	86.38
498.832	88.38
499.049	88.38
499.267	88.38
499.484	84.38
499.701	87.38
499.918	95.38
500.135	84.38
500.352	97.38
500.569	107.38
500.786	99.38
501.003	110.38
501.22	94.38
501.437	101.38
501.654	103.38
501.871	102.38
502.088	81.38
502.305	97.38
502.522	93.38
502.739	85.38
502.956	97.38
503.172	97.38
503.389	77.38
503.606	89.38
503.823	92.38
504.04	95.38
504.256	84.38
504.473	93.38
504.69	95.38
504.907	105.38
505.123	102.38
505.34	86.38
505.557	87.38
505.773	94.38
505.99	84.38
506.207	99.38
506.423	87.38
506.64	85.38
506.856	82.38
507.073	94.38
507.289	92.38
507.506	96.38
507.722	83.38
507.939	100.38
508.155	82.38
508.372	84.38
508.588	94.38
508.805	98.38
509.021	98.38
509.238	91.38
509.454	92.38
509.67	86.38
509.887	77.38
510.103	86.38
510.319	95.38
510.536	80.38
510.752	87.38
510.968	82.38
511.184	69.38
511.401	76.38
511.617	103.38
511.833	77.38
512.049	74.38
512.265	88.38
512.481	90.38
512.698	91.38
512.914	90.38
513.13	82.38
513.346	74.38
513.562	82.38
513.778	97.38
513.994	90.38
514.21	83.38
514.426	97.38
514.642	94.38
514.858	85.38
515.074	96.38
515.29	97.38
515.506	88.38
515.721	95.38
515.937	89.38
516.153	71.38
516.369	65.38
516.585	86.38
516.801	79.38
517.016	83.38
517.232	89.38
517.448	87.38
517.664	81.38
517.879	77.38
518.095	95.38
518.311	89.38
518.527	76.38
518.742	79.38
518.958	85.38
519.173	97.38
519.389	82.38
519.605	85.38
519.82	82.38
520.036	82.38
520.251	94.38
520.467	82.38
520.682	85.38
520.898	89.38
521.113	74.38
521.329	96.38
521.544	85.38
521.76	82.38
521.975	87.38
522.19	86.38
522.406	77.38
522.621	86.38
522.836	78.38
523.052	81.38
523.267	94.38
523.482	85.38
523.698	89.38
523.913	81.38
524.128	95.38
524.343	83.38
524.559	92.38
524.774	95.38
524.989	99.38
525.204	97.38
525.419	100.38
525.634	83.38
525.849	74.38
526.064	89.38
526.28	92.38
526.495	91.38
526.71	87.38
526.925	86.38
527.14	72.38
527.355	91.38
527.57	84.38
527.785	94.38
527.999	76.38
528.214	92.38
528.429	95.38
528.644	95.38
528.859	100.38
529.074	99.38
529.289	102.38
529.503	106.38
529.718	108.38
529.933	105.38
530.148	96.38
530.363	84.38
530.577	76.38
530.792	100.38
531.007	75.38
531.221	92.38
531.436	101.38
531.651	96.38
531.865	79.38
532.08	87.38
532.295	83.38
532.509	80.38
532.724	89.38
532.938	90.38
533.153	83.38
533.367	90.38
533.582	98.38
533.796	97.38
534.011	92.38
534.225	73.38
534.44	86.38
534.654	95.38
534.868	90.38
535.083	79.38
535.297	77.38
535.511	82.38
535.726	103.38
535.94	89.38
536.154	84.38
536.369	72.38
536.583	80.38
536.797	78.38
537.011	85.38
537.225	92.38
537.44	89.38
537.654	88.38
537.868	70.38
538.082	85.38
538.296	82.38
538.51	84.38
538.724	80.38
538.938	105.38
539.153	85.38
539.367	105.38
539.581	89.38
539.795	96.38
540.009	106.38
540.222	84.38
540.436	85.38
540.65	90.38
540.864	94.38
541.078	111.38
541.292	91.38
541.506	110.38
541.72	97.38
541.934	112.38
542.147	130.38
542.361	104.38
542.575	95.38
542.789	99.38
543.002	111.38
543.216	92.38
543.43	88.38
543.644	89.38
543.857	101.38
544.071	101.38
544.285	108.38
544.498	111.38
544.712	94.38
544.925	105.38
545.139	99.38
545.352	118.38
545.566	112.38
545.779	108.38
545.993	105.38
546.206	116.38
546.42	100.38
546.633	108.38
546.847	108.38
547.06	105.38
547.274	96.38
547.487	108.38
547.7	125.38
547.914	111.38
548.127	116.38
548.34	116.38
548.554	110.38
548.767	105.38
548.98	116.38
549.193	94.38
549.407	115.38
549.62	97.38
549.833	102.38
550.046	97.38
550.259	102.38
550.473	109.38
550.686	100.38
550.899	92.38
551.112	113.38
551.325	78.38
551.538	95.38
551.751	93.38
551.964	89.38
552.177	96.38
552.39	104.38
552.603	92.38
552.816	96.38
553.029	113.38
553.242	102.38
553.455	112.38
553.667	98.38
553.88	105.38
554.093	111.38
554.306	104.38
554.519	99.38
554.732	107.38
554.944	112.38
555.157	106.38
555.37	91.38
555.583	92.38
555.795	106.38
556.008	101.38
556.221	95.38
556.433	102.38
556.646	102.38
556.859	101.38
557.071	107.38
557.284	103.38
557.496	97.38
557.709	96.38
557.921	87.38
558.134	94.38
558.346	93.38
558.559	96.38
558.771	96.38
558.984	93.38
559.196	94.38
559.409	88.38
559.621	100.38
559.833	87.38
560.046	95.38
560.258	83.38
560.47	109.38
560.683	105.38
560.895	99.38
561.107	84.38
561.32	101.38
561.532	106.38
561.744	98.38
561.956	91.38
562.168	98.38
562.381	74.38
562.593	100.38
562.805	90.38
563.017	106.38
563.229	112.38
563.441	103.38
563.653	90.38
563.865	95.38
564.077	92.38
564.289	96.38
564.501	102.38
564.713	89.38
564.925	83.38
565.137	73.38
565.349	96.38
565.561	87.38
565.773	86.38
565.985	65.38
566.197	98.38
566.408	89.38
566.62	92.38
566.832	94.38
567.044	97.38
567.255	89.38
567.467	96.38
567.679	84.38
567.891	95.38
568.102	77.38
568.314	93.38
568.526	79.38
568.737	86.38
568.949	86.38
569.161	85.38
569.372	77.38
569.584	79.38
569.795	78.38
570.007	81.38
570.218	81.38
570.43	88.38
570.641	87.38
570.853	94.38
571.064	88.38
571.276	90.38
571.487	102.38
571.698	99.38
571.91	90.38
572.121	74.38
572.333	89.38
572.544	91.38
572.755	94.38
572.966	83.38
573.178	81.38
573.389	91.38
573.6	80.38
573.811	71.38
574.023	93.38
574.234	73.38
574.445	69.38
574.656	74.38
574.867	81.38
575.078	97.38
575.289	99.38
575.501	89.38
575.712	86.38
575.923	71.38
576.134	91.38
576.345	79.38
576.556	101.38
576.767	75.38
576.978	93.38
577.188	88.38
577.399	81.38
577.61	81.38
577.821	79.38
578.032	87.38
578.243	93.38
578.454	90.38
578.665	78.38
578.875	83.38
579.086	96.38
579.297	95.38
579.508	81.38
579.718	85.38
579.929	95.38
580.14	88.38
580.35	78.38
580.561	82.38
580.772	80.38
580.982	85.38
581.193	83.38
581.403	84.38
581.614	100.38
581.825	79.38
582.035	86.38
582.246	91.38
582.456	92.38
582.667	78.38
582.877	90.38
583.087	87.38
583.298	84.38
583.508	83.38
583.719	75.38
583.929	82.38
584.139	80.38
584.35	80.38
584.56	82.38
584.77	80.38
584.981	81.38
585.191	83.38
585.401	69.38
585.611	90.38
585.821	95.38
586.032	78.38
586.242	82.38
586.452	77.38
586.662	95.38
586.872	85.38
587.082	89.38
587.292	81.38
587.502	82.38
587.713	88.38
587.923	93.38
588.133	79.38
588.343	87.38
588.553	86.38
588.762	98.38
588.972	87.38
589.182	73.38
589.392	75.38
589.602	85.38
589.812	71.38
590.022	66.38
590.232	73.38
590.441	91.38
590.651	83.38
590.861	86.38
591.071	81.38
591.281	81.38
591.49	85.38
591.7	90.38
591.91	97.38
592.119	91.38
592.329	71.38
592.539	73.38
592.748	78.38
592.958	99.38
593.167	88.38
593.377	76.38
593.587	86.38
593.796	65.38
594.006	74.38
594.215	83.38
594.424	89.38
594.634	93.38
594.843	88.38
595.053	83.38
595.262	70.38
595.472	73.38
595.681	80.38
595.89	99.38
596.1	79.38
596.309	93.38
596.518	86.38
596.727	96.38
596.937	90.38
597.146	86.38
597.355	85.38
597.564	81.38
597.774	75.38
597.983	80.38
598.192	78.38
598.401	95.38
598.61	74.38
598.819	88.38
599.028	87.38
599.237	82.38
599.446	78.38
599.655	98.38
599.864	90.38
600.073	79.38
600.282	79.38
600.491	88.38
600.7	95.38
600.909	80.38
601.118	77.38
601.327	90.38
601.536	86.38
601.745	90.38
601.953	96.38
602.162	85.38
602.371	88.38
602.58	93.38
602.789	90.38
602.997	102.38
603.206	99.38
603.415	84.38
603.623	96.38
603.832	81.38
604.041	93.38
604.249	80.38
604.458	72.38
604.666	80.38
604.875	84.38
605.084	82.38
605.292	86.38
605.501	85.38
605.709	91.38
605.918	89.38
606.126	87.38
606.334	95.38
606.543	86.38
606.751	102.38
606.96	81.38
607.168	81.38
607.376	99.38
607.585	89.38
607.793	102.38
608.001	99.38
608.21	94.38
608.418	97.38
608.626	89.38
608.834	87.38
609.043	85.38
609.251	92.38
609.459	88.38
609.667	104.38
609.875	87.38
610.083	80.38
610.291	80.38
610.499	95.38
610.707	91.38
610.916	92.38
611.124	85.38
611.332	74.38
611.54	82.38
611.748	87.38
611.955	92.38
612.163	96.38
612.371	94.38
612.579	95.38
612.787	99.38
612.995	85.38
613.203	89.38
613.411	87.38
613.618	100.38
613.826	82.38
614.034	81.38
614.242	98.38
614.449	94.38
614.657	96.38
614.865	88.38
615.072	97.38
615.28	85.38
615.488	99.38
615.695	89.38
615.903	86.38
616.111	95.38
616.318	95.38
616.526	87.38
616.733	89.38
616.941	85.38
617.148	94.38
617.356	98.38
617.563	82.38
617.771	82.38
617.978	92.38
618.185	88.38
618.393	91.38
618.6	90.38
618.807	85.38
619.015	100.38
619.222	88.38
619.429	97.38
619.637	86.38
619.844	89.38
620.051	74.38
620.258	69.38
620.466	81.38
620.673	92.38
620.88	106.38
621.087	91.38
621.294	86.38
621.501	89.38
621.708	80.38
621.915	89.38
622.122	91.38
622.329	90.38
622.536	84.38
622.743	96.38
622.95	93.38
623.157	82.38
623.364	79.38
623.571	82.38
623.778	101.38
623.985	96.38
624.192	84.38
624.399	89.38
624.606	80.38
624.812	80.38
625.019	100.38
625.226	93.38
625.433	83.38
625.639	78.38
625.846	80.38
626.053	81.38
626.259	87.38
626.466	90.38
626.673	90.38
626.879	77.38
627.086	100.38
627.293	80.38
627.499	88.38
627.706	90.38
627.912	83.38
628.119	75.38
628.325	101.38
628.532	86.38
628.738	82.38
628.945	97.38
629.151	81.38
629.357	86.38
629.564	68.38
629.77	80.38
629.976	76.38
630.183	96.38
630.389	91.38
630.595	63.38
630.802	84.38
631.008	81.38
631.214	85.38
631.42	72.38
631.627	88.38
631.833	91.38
632.039	86.38
632.245	90.38
632.451	91.38
632.657	100.38
632.863	96.38
633.069	88.38
633.275	78.38
633.481	87.38
633.688	83.38
633.893	101.38
634.099	100.38
634.305	99.38
634.511	90.38
634.717	86.38
634.923	99.38
635.129	84.38
635.335	73.38
635.541	85.38
635.747	81.38
635.952	81.38
636.158	76.38
636.364	74.38
636.57	88.38
636.775	88.38
636.981	108.38
637.187	94.38
637.392	89.38
637.598	91.38
637.804	79.38
638.009	77.38
638.215	88.38
638.421	98.38
638.626	81.38
638.832	97.38
639.037	76.38
639.243	73.38
639.448	82.38
639.654	85.38
639.859	86.38
640.065	92.38
640.27	85.38
640.475	86.38
640.681	76.38
640.886	98.38
641.091	88.38
641.297	84.38
641.502	85.38
641.707	75.38
641.913	94.38
642.118	91.38
642.323	83.38
642.528	93.38
642.733	69.38
642.939	75.38
643.144	86.38
643.349	86.38
643.554	88.38
643.759	80.38
643.964	101.38
644.169	95.38
644.374	86.38
644.579	76.38
644.784	80.38
644.989	88.38
645.194	75.38
645.399	90.38
645.604	77.38
645.809	80.38
646.014	75.38
646.219	80.38
646.423	74.38
646.628	89.38
646.833	89.38
647.038	81.38
647.243	82.38
647.447	93.38
647.652	85.38
647.857	85.38
648.062	78.38
648.266	84.38
648.471	87.38
648.676	73.38
648.88	85.38
649.085	96.38
649.289	78.38
649.494	82.38
649.698	83.38
649.903	74.38
650.107	85.38
650.312	68.38
650.516	91.38
650.721	77.38
650.925	71.38
651.13	82.38
651.334	80.38
651.539	84.38
651.743	97.38
651.947	72.38
652.152	82.38
652.356	80.38
652.56	97.38
652.764	73.38
652.969	89.38
653.173	77.38
653.377	88.38
653.581	69.38
653.785	74.38
653.99	79.38
654.194	81.38
654.398	92.38
654.602	85.38
654.806	84.38
655.01	77.38
655.214	86.38
655.418	88.38
655.622	78.38
655.826	91.38
656.03	81.38
656.234	88.38
656.438	83.38
656.642	81.38
656.846	82.38
657.049	82.38
657.253	83.38
657.457	77.38
657.661	85.38
657.865	85.38
658.068	81.38
658.272	104.38
658.476	89.38
658.68	85.38
658.883	76.38
659.087	81.38
659.291	73.38
659.494	79.38
659.698	96.38
659.901	77.38
660.105	68.38
660.309	69.38
660.512	81.38
660.716	63.38
660.919	71.38
661.123	70.38
661.326	81.38
661.53	85.38
661.733	72.38
661.936	89.38
662.14	88.38
662.343	89.38
662.546	71.38
662.75	77.38
662.953	83.38
663.156	88.38
663.36	80.38
663.563	85.38
663.766	78.38
663.969	84.38
664.173	91.38
664.376	72.38
664.579	79.38
664.782	81.38
664.985	81.38
665.188	83.38
665.391	75.38
665.594	78.38
665.797	92.38
666	74.38
666.203	79.38
666.406	73.38
666.609	82.38
666.812	92.38
667.015	93.38
667.218	93.38
667.421	91.38
667.624	87.38
667.827	71.38
668.03	89.38
668.232	94.38
668.435	71.38
668.638	92.38
668.841	70.38
669.043	81.38
669.246	70.38
669.449	78.38
669.651	75.38
669.854	76.38
670.057	77.38
670.259	65.38
670.462	78.38
670.665	73.38
670.867	69.38
671.07	99.38
671.272	76.38
671.475	83.38
671.677	68.38
671.88	71.38
672.082	77.38
672.284	80.38
672.487	87.38
672.689	72.38
672.892	81.38
