Data from Location3.07152019.Energy5.Lamp.07192019.3%Agarose_HRD10591_15-18-33-269.txt Node
Date: Fri Jul 19 15:18:33 EDT 2019
User: cochatt
Spectrometer: HR+D1059
Trigger mode: 1
Integration Time (sec): 1.000000E-1
Scans to average: 1
Electric dark correction enabled: true
Nonlinearity correction enabled: false
Boxcar width: 0
XAxis mode: Wavelengths
Number of Pixels in Spectrum: 2048
>>>>>Begin Spectral Data<<<<<
223.165	-9.31
223.4	-9.31
223.635	-9.31
223.869	-14.31
224.104	-21.31
224.338	-17.31
224.573	-20.31
224.808	-17.31
225.042	3.69
225.277	-12.31
225.511	4.69
225.746	11.69
225.98	-6.31
226.215	6.69
226.449	25.69
226.683	18.69
226.918	19.69
227.152	27.69
227.387	43.69
227.621	41.69
227.856	42.69
228.09	38.69
228.324	44.69
228.559	47.69
228.793	57.69
229.027	40.69
229.262	56.69
229.496	68.69
229.73	79.69
229.964	62.69
230.199	59.69
230.433	72.69
230.667	75.69
230.901	70.69
231.136	72.69
231.37	62.69
231.604	74.69
231.838	87.69
232.072	78.69
232.306	83.69
232.541	80.69
232.775	83.69
233.009	86.69
233.243	76.69
233.477	88.69
233.711	81.69
233.945	84.69
234.179	78.69
234.413	86.69
234.647	84.69
234.881	64.69
235.115	100.69
235.349	87.69
235.583	81.69
235.817	84.69
236.051	74.69
236.285	85.69
236.519	75.69
236.753	64.69
236.987	85.69
237.221	73.69
237.455	72.69
237.689	86.69
237.922	71.69
238.156	75.69
238.39	68.69
238.624	73.69
238.858	59.69
239.091	62.69
239.325	80.69
239.559	82.69
239.793	92.69
240.027	89.69
240.26	84.69
240.494	67.69
240.728	87.69
240.961	78.69
241.195	76.69
241.429	74.69
241.662	76.69
241.896	85.69
242.13	72.69
242.363	74.69
242.597	67.69
242.83	71.69
243.064	76.69
243.298	75.69
243.531	69.69
243.765	74.69
243.998	78.69
244.232	72.69
244.465	80.69
244.699	83.69
244.932	78.69
245.166	78.69
245.399	79.69
245.633	79.69
245.866	82.69
246.099	77.69
246.333	79.69
246.566	77.69
246.8	81.69
247.033	83.69
247.266	69.69
247.5	75.69
247.733	76.69
247.966	88.69
248.2	73.69
248.433	74.69
248.666	81.69
248.899	88.69
249.133	81.69
249.366	72.69
249.599	82.69
249.832	81.69
250.066	89.69
250.299	80.69
250.532	75.69
250.765	89.69
250.998	89.69
251.231	87.69
251.465	79.69
251.698	74.69
251.931	79.69
252.164	81.69
252.397	75.69
252.63	71.69
252.863	72.69
253.096	89.69
253.329	88.69
253.562	88.69
253.795	68.69
254.028	76.69
254.261	79.69
254.494	71.69
254.727	87.69
254.96	83.69
255.193	76.69
255.426	78.69
255.659	80.69
255.892	96.69
256.124	73.69
256.357	86.69
256.59	91.69
256.823	83.69
257.056	76.69
257.289	78.69
257.521	74.69
257.754	68.69
257.987	76.69
258.22	83.69
258.452	64.69
258.685	70.69
258.918	81.69
259.151	86.69
259.383	82.69
259.616	63.69
259.849	86.69
260.081	71.69
260.314	85.69
260.547	72.69
260.779	79.69
261.012	90.69
261.244	94.69
261.477	81.69
261.71	71.69
261.942	75.69
262.175	79.69
262.407	67.69
262.64	85.69
262.872	76.69
263.105	76.69
263.337	81.69
263.57	86.69
263.802	72.69
264.035	78.69
264.267	72.69
264.499	67.69
264.732	87.69
264.964	73.69
265.197	80.69
265.429	70.69
265.661	79.69
265.894	87.69
266.126	88.69
266.358	89.69
266.591	84.69
266.823	76.69
267.055	75.69
267.287	82.69
267.52	90.69
267.752	81.69
267.984	86.69
268.216	79.69
268.448	78.69
268.681	88.69
268.913	89.69
269.145	78.69
269.377	89.69
269.609	77.69
269.841	81.69
270.073	72.69
270.306	80.69
270.538	94.69
270.77	75.69
271.002	76.69
271.234	83.69
271.466	84.69
271.698	71.69
271.93	75.69
272.162	79.69
272.394	76.69
272.626	93.69
272.858	90.69
273.09	63.69
273.322	76.69
273.553	77.69
273.785	82.69
274.017	66.69
274.249	70.69
274.481	88.69
274.713	73.69
274.945	68.69
275.176	75.69
275.408	87.69
275.64	81.69
275.872	86.69
276.104	74.69
276.335	86.69
276.567	76.69
276.799	81.69
277.031	94.69
277.262	86.69
277.494	79.69
277.726	79.69
277.957	88.69
278.189	87.69
278.421	82.69
278.652	72.69
278.884	86.69
279.115	86.69
279.347	76.69
279.579	87.69
279.81	85.69
280.042	90.69
280.273	77.69
280.505	81.69
280.736	88.69
280.968	76.69
281.199	74.69
281.431	80.69
281.662	82.69
281.894	97.69
282.125	88.69
282.356	81.69
282.588	78.69
282.819	65.69
283.051	82.69
283.282	82.69
283.513	92.69
283.745	82.69
283.976	73.69
284.207	82.69
284.439	98.69
284.67	91.69
284.901	91.69
285.132	94.69
285.364	86.69
285.595	76.69
285.826	80.69
286.057	82.69
286.288	87.69
286.52	84.69
286.751	83.69
286.982	80.69
287.213	81.69
287.444	79.69
287.675	91.69
287.906	79.69
288.138	72.69
288.369	99.69
288.6	91.69
288.831	92.69
289.062	96.69
289.293	86.69
289.524	74.69
289.755	73.69
289.986	76.69
290.217	75.69
290.448	76.69
290.679	79.69
290.91	81.69
291.141	85.69
291.371	95.69
291.602	90.69
291.833	80.69
292.064	68.69
292.295	89.69
292.526	80.69
292.757	79.69
292.987	95.69
293.218	79.69
293.449	92.69
293.68	96.69
293.91	84.69
294.141	81.69
294.372	87.69
294.603	88.69
294.833	86.69
295.064	85.69
295.295	92.69
295.525	70.69
295.756	82.69
295.987	81.69
296.217	82.69
296.448	87.69
296.679	82.69
296.909	77.69
297.14	86.69
297.37	76.69
297.601	89.69
297.831	71.69
298.062	77.69
298.292	81.69
298.523	81.69
298.753	85.69
298.984	86.69
299.214	80.69
299.445	78.69
299.675	96.69
299.905	82.69
300.136	86.69
300.366	85.69
300.597	85.69
300.827	94.69
301.057	84.69
301.288	70.69
301.518	83.69
301.748	94.69
301.979	88.69
302.209	81.69
302.439	86.69
302.669	83.69
302.9	84.69
303.13	94.69
303.36	88.69
303.59	84.69
303.82	73.69
304.051	82.69
304.281	86.69
304.511	87.69
304.741	84.69
304.971	82.69
305.201	81.69
305.431	80.69
305.661	100.69
305.891	80.69
306.121	81.69
306.352	85.69
306.582	79.69
306.812	68.69
307.042	76.69
307.272	86.69
307.502	80.69
307.731	72.69
307.961	79.69
308.191	78.69
308.421	83.69
308.651	78.69
308.881	96.69
309.111	81.69
309.341	86.69
309.571	80.69
309.8	76.69
310.03	88.69
310.26	86.69
310.49	97.69
310.72	94.69
310.949	86.69
311.179	89.69
311.409	88.69
311.639	107.69
311.868	98.69
312.098	94.69
312.328	92.69
312.557	86.69
312.787	91.69
313.017	85.69
313.246	84.69
313.476	79.69
313.706	74.69
313.935	93.69
314.165	80.69
314.394	94.69
314.624	91.69
314.853	93.69
315.083	100.69
315.312	77.69
315.542	76.69
315.771	89.69
316.001	81.69
316.23	80.69
316.46	76.69
316.689	80.69
316.919	99.69
317.148	83.69
317.377	86.69
317.607	88.69
317.836	87.69
318.065	88.69
318.295	95.69
318.524	85.69
318.753	88.69
318.983	105.69
319.212	88.69
319.441	94.69
319.67	80.69
319.9	80.69
320.129	84.69
320.358	82.69
320.587	84.69
320.816	82.69
321.046	88.69
321.275	85.69
321.504	73.69
321.733	88.69
321.962	82.69
322.191	86.69
322.42	72.69
322.649	75.69
322.878	79.69
323.108	87.69
323.337	86.69
323.566	89.69
323.795	90.69
324.024	100.69
324.253	79.69
324.482	89.69
324.71	90.69
324.939	85.69
325.168	84.69
325.397	81.69
325.626	93.69
325.855	79.69
326.084	86.69
326.313	97.69
326.542	94.69
326.77	98.69
326.999	70.69
327.228	98.69
327.457	87.69
327.686	83.69
327.914	87.69
328.143	90.69
328.372	88.69
328.6	75.69
328.829	84.69
329.058	80.69
329.287	85.69
329.515	79.69
329.744	83.69
329.972	84.69
330.201	85.69
330.43	90.69
330.658	80.69
330.887	85.69
331.115	82.69
331.344	100.69
331.572	83.69
331.801	80.69
332.03	80.69
332.258	76.69
332.486	90.69
332.715	72.69
332.943	98.69
333.172	83.69
333.4	89.69
333.629	79.69
333.857	79.69
334.085	85.69
334.314	80.69
334.542	85.69
334.771	82.69
334.999	93.69
335.227	82.69
335.455	82.69
335.684	97.69
335.912	89.69
336.14	88.69
336.369	83.69
336.597	80.69
336.825	79.69
337.053	82.69
337.281	91.69
337.51	92.69
337.738	90.69
337.966	89.69
338.194	79.69
338.422	82.69
338.65	78.69
338.878	82.69
339.106	83.69
339.334	91.69
339.562	88.69
339.79	80.69
340.018	93.69
340.246	94.69
340.474	81.69
340.702	81.69
340.93	91.69
341.158	80.69
341.386	96.69
341.614	81.69
341.842	78.69
342.07	86.69
342.298	90.69
342.526	90.69
342.754	81.69
342.981	86.69
343.209	76.69
343.437	94.69
343.665	76.69
343.893	74.69
344.12	94.69
344.348	86.69
344.576	91.69
344.804	75.69
345.031	85.69
345.259	83.69
345.487	77.69
345.714	81.69
345.942	85.69
346.17	70.69
346.397	76.69
346.625	91.69
346.853	99.69
347.08	83.69
347.308	67.69
347.535	74.69
347.763	81.69
347.99	70.69
348.218	78.69
348.445	79.69
348.673	82.69
348.9	91.69
349.128	85.69
349.355	84.69
349.583	85.69
349.81	83.69
350.037	79.69
350.265	87.69
350.492	84.69
350.72	76.69
350.947	90.69
351.174	90.69
351.402	75.69
351.629	83.69
351.856	85.69
352.083	85.69
352.311	83.69
352.538	91.69
352.765	74.69
352.992	68.69
353.22	79.69
353.447	73.69
353.674	96.69
353.901	78.69
354.128	94.69
354.355	76.69
354.583	86.69
354.81	77.69
355.037	84.69
355.264	90.69
355.491	89.69
355.718	93.69
355.945	74.69
356.172	84.69
356.399	76.69
356.626	74.69
356.853	87.69
357.08	90.69
357.307	74.69
357.534	78.69
357.761	82.69
357.988	90.69
358.215	81.69
358.441	87.69
358.668	89.69
358.895	75.69
359.122	82.69
359.349	83.69
359.576	86.69
359.802	103.69
360.029	96.69
360.256	73.69
360.483	88.69
360.709	75.69
360.936	91.69
361.163	78.69
361.39	95.69
361.616	104.69
361.843	79.69
362.07	83.69
362.296	76.69
362.523	93.69
362.749	88.69
362.976	75.69
363.203	92.69
363.429	91.69
363.656	76.69
363.882	84.69
364.109	78.69
364.335	81.69
364.562	71.69
364.788	87.69
365.015	88.69
365.241	95.69
365.468	79.69
365.694	75.69
365.92	81.69
366.147	79.69
366.373	82.69
366.599	85.69
366.826	89.69
367.052	87.69
367.278	80.69
367.505	80.69
367.731	94.69
367.957	87.69
368.184	97.69
368.41	81.69
368.636	90.69
368.862	95.69
369.089	90.69
369.315	77.69
369.541	80.69
369.767	84.69
369.993	84.69
370.219	79.69
370.445	93.69
370.672	80.69
370.898	86.69
371.124	77.69
371.35	79.69
371.576	95.69
371.802	70.69
372.028	82.69
372.254	91.69
372.48	82.69
372.706	90.69
372.932	88.69
373.158	91.69
373.384	80.69
373.61	81.69
373.835	74.69
374.061	78.69
374.287	90.69
374.513	80.69
374.739	83.69
374.965	87.69
375.191	91.69
375.416	87.69
375.642	84.69
375.868	83.69
376.094	90.69
376.319	87.69
376.545	89.69
376.771	94.69
376.997	71.69
377.222	95.69
377.448	86.69
377.674	95.69
377.899	85.69
378.125	82.69
378.35	96.69
378.576	80.69
378.802	83.69
379.027	84.69
379.253	84.69
379.478	88.69
379.704	99.69
379.929	89.69
380.155	86.69
380.38	83.69
380.606	80.69
380.831	79.69
381.057	89.69
381.282	89.69
381.507	78.69
381.733	83.69
381.958	77.69
382.184	81.69
382.409	83.69
382.634	88.69
382.86	84.69
383.085	82.69
383.31	73.69
383.535	93.69
383.761	103.69
383.986	104.69
384.211	72.69
384.436	83.69
384.662	94.69
384.887	91.69
385.112	85.69
385.337	82.69
385.562	80.69
385.787	82.69
386.013	88.69
386.238	78.69
386.463	85.69
386.688	91.69
386.913	94.69
387.138	88.69
387.363	80.69
387.588	82.69
387.813	88.69
388.038	98.69
388.263	89.69
388.488	76.69
388.713	96.69
388.938	83.69
389.163	100.69
389.387	79.69
389.612	92.69
389.837	94.69
390.062	83.69
390.287	76.69
390.512	95.69
390.736	82.69
390.961	70.69
391.186	84.69
391.411	83.69
391.636	99.69
391.86	81.69
392.085	89.69
392.31	92.69
392.534	81.69
392.759	76.69
392.984	86.69
393.208	95.69
393.433	80.69
393.658	96.69
393.882	92.69
394.107	104.69
394.331	90.69
394.556	83.69
394.78	92.69
395.005	95.69
395.229	72.69
395.454	77.69
395.678	81.69
395.903	89.69
396.127	79.69
396.352	84.69
396.576	73.69
396.801	82.69
397.025	85.69
397.249	95.69
397.474	94.69
397.698	96.69
397.922	77.69
398.147	95.69
398.371	93.69
398.595	78.69
398.82	93.69
399.044	76.69
399.268	95.69
399.492	97.69
399.717	97.69
399.941	86.69
400.165	92.69
400.389	74.69
400.613	73.69
400.837	89.69
401.062	97.69
401.286	80.69
401.51	87.69
401.734	95.69
401.958	80.69
402.182	90.69
402.406	90.69
402.63	84.69
402.854	97.69
403.078	86.69
403.302	87.69
403.526	86.69
403.75	86.69
403.974	88.69
404.198	90.69
404.422	78.69
404.645	88.69
404.869	90.69
405.093	93.69
405.317	102.69
405.541	87.69
405.765	98.69
405.988	90.69
406.212	102.69
406.436	87.69
406.66	78.69
406.883	94.69
407.107	86.69
407.331	106.69
407.555	82.69
407.778	101.69
408.002	77.69
408.226	80.69
408.449	87.69
408.673	92.69
408.896	98.69
409.12	110.69
409.344	85.69
409.567	80.69
409.791	95.69
410.014	92.69
410.238	82.69
410.461	90.69
410.685	89.69
410.908	82.69
411.132	98.69
411.355	99.69
411.578	81.69
411.802	105.69
412.025	82.69
412.249	80.69
412.472	82.69
412.695	91.69
412.919	85.69
413.142	96.69
413.365	92.69
413.589	97.69
413.812	90.69
414.035	95.69
414.258	91.69
414.482	75.69
414.705	95.69
414.928	96.69
415.151	95.69
415.374	88.69
415.597	87.69
415.821	83.69
416.044	87.69
416.267	70.69
416.49	97.69
416.713	84.69
416.936	100.69
417.159	91.69
417.382	74.69
417.605	100.69
417.828	97.69
418.051	104.69
418.274	102.69
418.497	87.69
418.72	80.69
418.943	97.69
419.166	87.69
419.389	91.69
419.611	87.69
419.834	86.69
420.057	92.69
420.28	105.69
420.503	97.69
420.726	111.69
420.948	81.69
421.171	95.69
421.394	106.69
421.617	98.69
421.839	100.69
422.062	104.69
422.285	65.69
422.507	89.69
422.73	103.69
422.953	94.69
423.175	90.69
423.398	85.69
423.621	96.69
423.843	101.69
424.066	103.69
424.288	115.69
424.511	108.69
424.733	88.69
424.956	101.69
425.178	88.69
425.401	82.69
425.623	91.69
425.846	92.69
426.068	86.69
426.291	87.69
426.513	92.69
426.735	87.69
426.958	101.69
427.18	92.69
427.402	81.69
427.625	94.69
427.847	95.69
428.069	110.69
428.292	85.69
428.514	92.69
428.736	88.69
428.958	87.69
429.181	107.69
429.403	85.69
429.625	112.69
429.847	101.69
430.069	91.69
430.292	89.69
430.514	81.69
430.736	104.69
430.958	95.69
431.18	90.69
431.402	100.69
431.624	88.69
431.846	75.69
432.068	81.69
432.29	97.69
432.512	96.69
432.734	95.69
432.956	84.69
433.178	86.69
433.4	100.69
433.622	96.69
433.844	95.69
434.066	94.69
434.287	101.69
434.509	83.69
434.731	79.69
434.953	86.69
435.175	91.69
435.397	99.69
435.618	99.69
435.84	82.69
436.062	84.69
436.284	72.69
436.505	91.69
436.727	82.69
436.949	86.69
437.17	103.69
437.392	97.69
437.614	85.69
437.835	94.69
438.057	102.69
438.278	87.69
438.5	97.69
438.721	85.69
438.943	103.69
439.165	90.69
439.386	99.69
439.608	99.69
439.829	116.69
440.05	109.69
440.272	94.69
440.493	104.69
440.715	96.69
440.936	93.69
441.158	89.69
441.379	88.69
441.6	111.69
441.822	93.69
442.043	111.69
442.264	94.69
442.486	97.69
442.707	88.69
442.928	107.69
443.149	96.69
443.371	87.69
443.592	98.69
443.813	107.69
444.034	95.69
444.255	111.69
444.476	94.69
444.698	103.69
444.919	94.69
445.14	209.69
445.361	144.69
445.582	112.69
445.803	91.69
446.024	103.69
446.245	112.69
446.466	90.69
446.687	98.69
446.908	96.69
447.129	98.69
447.35	101.69
447.571	94.69
447.792	99.69
448.013	102.69
448.234	100.69
448.455	89.69
448.675	104.69
448.896	96.69
449.117	101.69
449.338	96.69
449.559	95.69
449.779	102.69
450	95.69
450.221	82.69
450.442	88.69
450.662	98.69
450.883	94.69
451.104	98.69
451.324	87.69
451.545	81.69
451.766	94.69
451.986	90.69
452.207	90.69
452.428	87.69
452.648	91.69
452.869	98.69
453.089	95.69
453.31	72.69
453.53	93.69
453.751	92.69
453.971	95.69
454.192	82.69
454.412	92.69
454.633	89.69
454.853	90.69
455.073	90.69
455.294	104.69
455.514	100.69
455.734	94.69
455.955	92.69
456.175	99.69
456.395	83.69
456.616	98.69
456.836	96.69
457.056	92.69
457.276	86.69
457.497	92.69
457.717	91.69
457.937	92.69
458.157	97.69
458.377	91.69
458.598	82.69
458.818	80.69
459.038	85.69
459.258	85.69
459.478	82.69
459.698	79.69
459.918	81.69
460.138	83.69
460.358	86.69
460.578	90.69
460.798	91.69
461.018	81.69
461.238	97.69
461.458	93.69
461.678	89.69
461.898	92.69
462.118	102.69
462.338	92.69
462.558	73.69
462.777	64.69
462.997	86.69
463.217	79.69
463.437	95.69
463.657	88.69
463.876	97.69
464.096	79.69
464.316	90.69
464.536	106.69
464.755	78.69
464.975	99.69
465.195	84.69
465.414	97.69
465.634	82.69
465.854	101.69
466.073	89.69
466.293	76.69
466.512	98.69
466.732	96.69
466.951	93.69
467.171	78.69
467.391	97.69
467.61	102.69
467.829	89.69
468.049	103.69
468.268	89.69
468.488	95.69
468.707	89.69
468.927	98.69
469.146	80.69
469.365	92.69
469.585	86.69
469.804	94.69
470.023	100.69
470.243	101.69
470.462	93.69
470.681	96.69
470.901	97.69
471.12	96.69
471.339	107.69
471.558	91.69
471.777	91.69
471.997	92.69
472.216	83.69
472.435	97.69
472.654	96.69
472.873	84.69
473.092	85.69
473.311	96.69
473.53	84.69
473.749	81.69
473.968	111.69
474.187	87.69
474.406	97.69
474.625	100.69
474.844	98.69
475.063	86.69
475.282	98.69
475.501	85.69
475.72	92.69
475.939	90.69
476.158	92.69
476.377	101.69
476.596	87.69
476.814	88.69
477.033	77.69
477.252	87.69
477.471	92.69
477.69	97.69
477.908	95.69
478.127	92.69
478.346	95.69
478.564	112.69
478.783	101.69
479.002	87.69
479.22	86.69
479.439	105.69
479.658	95.69
479.876	85.69
480.095	90.69
480.313	90.69
480.532	86.69
480.751	103.69
480.969	85.69
481.188	83.69
481.406	98.69
481.624	93.69
481.843	86.69
482.061	87.69
482.28	104.69
482.498	91.69
482.717	87.69
482.935	98.69
483.153	117.69
483.372	115.69
483.59	105.69
483.808	90.69
484.027	90.69
484.245	95.69
484.463	82.69
484.681	110.69
484.9	99.69
485.118	86.69
485.336	89.69
485.554	94.69
485.772	93.69
485.99	81.69
486.209	98.69
486.427	93.69
486.645	89.69
486.863	93.69
487.081	91.69
487.299	99.69
487.517	97.69
487.735	111.69
487.953	112.69
488.171	104.69
488.389	118.69
488.607	101.69
488.825	92.69
489.043	116.69
489.261	101.69
489.479	106.69
489.696	107.69
489.914	96.69
490.132	100.69
490.35	105.69
490.568	112.69
490.786	105.69
491.003	120.69
491.221	103.69
491.439	103.69
491.657	122.69
491.874	117.69
492.092	120.69
492.31	139.69
492.527	120.69
492.745	112.69
492.963	113.69
493.18	126.69
493.398	107.69
493.615	110.69
493.833	111.69
494.05	110.69
494.268	103.69
494.485	115.69
494.703	114.69
494.92	99.69
495.138	119.69
495.355	114.69
495.573	104.69
495.79	108.69
496.008	123.69
496.225	132.69
496.442	119.69
496.66	100.69
496.877	97.69
497.094	98.69
497.312	106.69
497.529	105.69
497.746	122.69
497.963	97.69
498.181	92.69
498.398	95.69
498.615	95.69
498.832	88.69
499.049	88.69
499.267	99.69
499.484	96.69
499.701	102.69
499.918	101.69
500.135	107.69
500.352	88.69
500.569	111.69
500.786	101.69
501.003	104.69
501.22	113.69
501.437	89.69
501.654	89.69
501.871	110.69
502.088	97.69
502.305	96.69
502.522	97.69
502.739	91.69
502.956	97.69
503.172	94.69
503.389	94.69
503.606	96.69
503.823	104.69
504.04	103.69
504.256	98.69
504.473	96.69
504.69	83.69
504.907	105.69
505.123	88.69
505.34	83.69
505.557	101.69
505.773	96.69
505.99	98.69
506.207	91.69
506.423	104.69
506.64	94.69
506.856	99.69
507.073	94.69
507.289	94.69
507.506	84.69
507.722	91.69
507.939	85.69
508.155	98.69
508.372	94.69
508.588	115.69
508.805	102.69
509.021	89.69
509.238	98.69
509.454	93.69
509.67	98.69
509.887	76.69
510.103	85.69
510.319	94.69
510.536	82.69
510.752	93.69
510.968	84.69
511.184	73.69
511.401	78.69
511.617	87.69
511.833	78.69
512.049	84.69
512.265	92.69
512.481	95.69
512.698	80.69
512.914	95.69
513.13	99.69
513.346	82.69
513.562	88.69
513.778	80.69
513.994	75.69
514.21	75.69
514.426	79.69
514.642	88.69
514.858	84.69
515.074	86.69
515.29	90.69
515.506	83.69
515.721	82.69
515.937	95.69
516.153	84.69
516.369	77.69
516.585	83.69
516.801	91.69
517.016	82.69
517.232	76.69
517.448	83.69
517.664	83.69
517.879	94.69
518.095	92.69
518.311	76.69
518.527	98.69
518.742	91.69
518.958	101.69
519.173	93.69
519.389	89.69
519.605	89.69
519.82	84.69
520.036	95.69
520.251	95.69
520.467	92.69
520.682	82.69
520.898	92.69
521.113	83.69
521.329	85.69
521.544	82.69
521.76	94.69
521.975	86.69
522.19	87.69
522.406	89.69
522.621	83.69
522.836	91.69
523.052	99.69
523.267	80.69
523.482	93.69
523.698	84.69
523.913	97.69
524.128	96.69
524.343	98.69
524.559	100.69
524.774	92.69
524.989	108.69
525.204	101.69
525.419	96.69
525.634	97.69
525.849	92.69
526.064	96.69
526.28	91.69
526.495	90.69
526.71	102.69
526.925	89.69
527.14	84.69
527.355	82.69
527.57	95.69
527.785	78.69
527.999	96.69
528.214	93.69
528.429	102.69
528.644	111.69
528.859	102.69
529.074	97.69
529.289	111.69
529.503	100.69
529.718	104.69
529.933	105.69
530.148	98.69
530.363	96.69
530.577	80.69
530.792	76.69
531.007	89.69
531.221	90.69
531.436	70.69
531.651	82.69
531.865	79.69
532.08	86.69
532.295	92.69
532.509	89.69
532.724	71.69
532.938	83.69
533.153	93.69
533.367	86.69
533.582	95.69
533.796	89.69
534.011	97.69
534.225	89.69
534.44	85.69
534.654	95.69
534.868	99.69
535.083	85.69
535.297	87.69
535.511	81.69
535.726	80.69
535.94	91.69
536.154	101.69
536.369	84.69
536.583	82.69
536.797	92.69
537.011	71.69
537.225	82.69
537.44	76.69
537.654	89.69
537.868	85.69
538.082	90.69
538.296	95.69
538.51	80.69
538.724	103.69
538.938	84.69
539.153	97.69
539.367	95.69
539.581	100.69
539.795	90.69
540.009	87.69
540.222	95.69
540.436	91.69
540.65	99.69
540.864	87.69
541.078	106.69
541.292	96.69
541.506	111.69
541.72	118.69
541.934	110.69
542.147	103.69
542.361	110.69
542.575	104.69
542.789	129.69
543.002	91.69
543.216	101.69
543.43	106.69
543.644	94.69
543.857	97.69
544.071	119.69
544.285	88.69
544.498	108.69
544.712	96.69
544.925	111.69
545.139	114.69
545.352	110.69
545.566	115.69
545.779	102.69
545.993	124.69
546.206	104.69
546.42	102.69
546.633	106.69
546.847	115.69
547.06	104.69
547.274	108.69
547.487	113.69
547.7	103.69
547.914	109.69
548.127	111.69
548.34	112.69
548.554	107.69
548.767	105.69
548.98	121.69
549.193	101.69
549.407	99.69
549.62	109.69
549.833	118.69
550.046	114.69
550.259	92.69
550.473	105.69
550.686	99.69
550.899	100.69
551.112	103.69
551.325	103.69
551.538	116.69
551.751	114.69
551.964	95.69
552.177	99.69
552.39	100.69
552.603	104.69
552.816	103.69
553.029	90.69
553.242	112.69
553.455	106.69
553.667	113.69
553.88	108.69
554.093	95.69
554.306	105.69
554.519	106.69
554.732	88.69
554.944	90.69
555.157	107.69
555.37	105.69
555.583	108.69
555.795	103.69
556.008	95.69
556.221	101.69
556.433	103.69
556.646	105.69
556.859	92.69
557.071	93.69
557.284	114.69
557.496	103.69
557.709	107.69
557.921	93.69
558.134	103.69
558.346	96.69
558.559	105.69
558.771	104.69
558.984	93.69
559.196	110.69
559.409	103.69
559.621	97.69
559.833	89.69
560.046	103.69
560.258	93.69
560.47	105.69
560.683	100.69
560.895	106.69
561.107	104.69
561.32	93.69
561.532	98.69
561.744	94.69
561.956	98.69
562.168	93.69
562.381	98.69
562.593	98.69
562.805	100.69
563.017	89.69
563.229	103.69
563.441	98.69
563.653	95.69
563.865	97.69
564.077	98.69
564.289	89.69
564.501	107.69
564.713	103.69
564.925	97.69
565.137	91.69
565.349	116.69
565.561	97.69
565.773	92.69
565.985	75.69
566.197	94.69
566.408	104.69
566.62	100.69
566.832	93.69
567.044	105.69
567.255	108.69
567.467	82.69
567.679	88.69
567.891	89.69
568.102	95.69
568.314	89.69
568.526	90.69
568.737	99.69
568.949	87.69
569.161	100.69
569.372	87.69
569.584	89.69
569.795	92.69
570.007	76.69
570.218	84.69
570.43	90.69
570.641	81.69
570.853	86.69
571.064	82.69
571.276	98.69
571.487	97.69
571.698	74.69
571.91	78.69
572.121	92.69
572.333	82.69
572.544	102.69
572.755	76.69
572.966	70.69
573.178	88.69
573.389	83.69
573.6	73.69
573.811	80.69
574.023	86.69
574.234	95.69
574.445	84.69
574.656	92.69
574.867	84.69
575.078	95.69
575.289	90.69
575.501	82.69
575.712	87.69
575.923	94.69
576.134	96.69
576.345	85.69
576.556	96.69
576.767	92.69
576.978	79.69
577.188	100.69
577.399	90.69
577.61	90.69
577.821	93.69
578.032	90.69
578.243	96.69
578.454	88.69
578.665	87.69
578.875	94.69
579.086	77.69
579.297	86.69
579.508	90.69
579.718	79.69
579.929	95.69
580.14	88.69
580.35	95.69
580.561	89.69
580.772	90.69
580.982	83.69
581.193	92.69
581.403	88.69
581.614	87.69
581.825	96.69
582.035	92.69
582.246	95.69
582.456	82.69
582.667	88.69
582.877	84.69
583.087	81.69
583.298	96.69
583.508	75.69
583.719	80.69
583.929	86.69
584.139	86.69
584.35	79.69
584.56	90.69
584.77	95.69
584.981	78.69
585.191	84.69
585.401	90.69
585.611	91.69
585.821	100.69
586.032	85.69
586.242	86.69
586.452	81.69
586.662	86.69
586.872	73.69
587.082	71.69
587.292	80.69
587.502	84.69
587.713	79.69
587.923	93.69
588.133	81.69
588.343	73.69
588.553	90.69
588.762	88.69
588.972	78.69
589.182	77.69
589.392	94.69
589.602	95.69
589.812	74.69
590.022	77.69
590.232	77.69
590.441	89.69
590.651	93.69
590.861	83.69
591.071	98.69
591.281	83.69
591.49	82.69
591.7	82.69
591.91	88.69
592.119	85.69
592.329	80.69
592.539	84.69
592.748	88.69
592.958	72.69
593.167	94.69
593.377	93.69
593.587	89.69
593.796	75.69
594.006	85.69
594.215	89.69
594.424	95.69
594.634	83.69
594.843	88.69
595.053	88.69
595.262	83.69
595.472	91.69
595.681	73.69
595.89	86.69
596.1	92.69
596.309	80.69
596.518	83.69
596.727	100.69
596.937	94.69
597.146	96.69
597.355	90.69
597.564	89.69
597.774	86.69
597.983	83.69
598.192	84.69
598.401	74.69
598.61	74.69
598.819	95.69
599.028	88.69
599.237	79.69
599.446	89.69
599.655	77.69
599.864	76.69
600.073	92.69
600.282	76.69
600.491	87.69
600.7	94.69
600.909	81.69
601.118	84.69
601.327	84.69
601.536	81.69
601.745	94.69
601.953	89.69
602.162	107.69
602.371	90.69
602.58	88.69
602.789	85.69
602.997	88.69
603.206	85.69
603.415	89.69
603.623	85.69
603.832	100.69
604.041	105.69
604.249	92.69
604.458	90.69
604.666	86.69
604.875	98.69
605.084	94.69
605.292	75.69
605.501	86.69
605.709	97.69
605.918	100.69
606.126	96.69
606.334	102.69
606.543	91.69
606.751	84.69
606.96	92.69
607.168	101.69
607.376	89.69
607.585	110.69
607.793	89.69
608.001	88.69
608.21	97.69
608.418	90.69
608.626	100.69
608.834	87.69
609.043	81.69
609.251	100.69
609.459	99.69
609.667	94.69
609.875	94.69
610.083	94.69
610.291	95.69
610.499	86.69
610.707	88.69
610.916	99.69
611.124	111.69
611.332	92.69
611.54	82.69
611.748	101.69
611.955	96.69
612.163	91.69
612.371	99.69
612.579	94.69
612.787	75.69
612.995	105.69
613.203	92.69
613.411	106.69
613.618	92.69
613.826	91.69
614.034	83.69
614.242	90.69
614.449	99.69
614.657	97.69
614.865	95.69
615.072	88.69
615.28	95.69
615.488	96.69
615.695	92.69
615.903	96.69
616.111	91.69
616.318	99.69
616.526	83.69
616.733	91.69
616.941	84.69
617.148	92.69
617.356	86.69
617.563	92.69
617.771	94.69
617.978	92.69
618.185	95.69
618.393	91.69
618.6	101.69
618.807	79.69
619.015	93.69
619.222	99.69
619.429	86.69
619.637	84.69
619.844	95.69
620.051	95.69
620.258	98.69
620.466	91.69
620.673	94.69
620.88	106.69
621.087	89.69
621.294	88.69
621.501	81.69
621.708	87.69
621.915	92.69
622.122	102.69
622.329	92.69
622.536	85.69
622.743	92.69
622.95	100.69
623.157	98.69
623.364	87.69
623.571	96.69
623.778	94.69
623.985	99.69
624.192	82.69
624.399	97.69
624.606	86.69
624.812	100.69
625.019	79.69
625.226	87.69
625.433	98.69
625.639	102.69
625.846	76.69
626.053	96.69
626.259	85.69
626.466	100.69
626.673	89.69
626.879	70.69
627.086	88.69
627.293	84.69
627.499	81.69
627.706	92.69
627.912	82.69
628.119	92.69
628.325	90.69
628.532	105.69
628.738	90.69
628.945	97.69
629.151	84.69
629.357	79.69
629.564	91.69
629.77	96.69
629.976	89.69
630.183	96.69
630.389	94.69
630.595	90.69
630.802	95.69
631.008	89.69
631.214	90.69
631.42	106.69
631.627	91.69
631.833	85.69
632.039	81.69
632.245	96.69
632.451	103.69
632.657	88.69
632.863	96.69
633.069	101.69
633.275	113.69
633.481	84.69
633.688	101.69
633.893	76.69
634.099	94.69
634.305	84.69
634.511	76.69
634.717	86.69
634.923	105.69
635.129	83.69
635.335	81.69
635.541	83.69
635.747	81.69
635.952	94.69
636.158	108.69
636.364	94.69
636.57	82.69
636.775	97.69
636.981	86.69
637.187	91.69
637.392	89.69
637.598	83.69
637.804	90.69
638.009	85.69
638.215	95.69
638.421	97.69
638.626	96.69
638.832	81.69
639.037	87.69
639.243	87.69
639.448	86.69
639.654	93.69
639.859	96.69
640.065	86.69
640.27	99.69
640.475	102.69
640.681	97.69
640.886	106.69
641.091	97.69
641.297	100.69
641.502	89.69
641.707	84.69
641.913	83.69
642.118	94.69
642.323	79.69
642.528	91.69
642.733	103.69
642.939	102.69
643.144	94.69
643.349	82.69
643.554	86.69
643.759	88.69
643.964	78.69
644.169	92.69
644.374	94.69
644.579	92.69
644.784	91.69
644.989	90.69
645.194	84.69
645.399	96.69
645.604	101.69
645.809	99.69
646.014	81.69
646.219	97.69
646.423	95.69
646.628	97.69
646.833	95.69
647.038	68.69
647.243	97.69
647.447	79.69
647.652	86.69
647.857	111.69
648.062	90.69
648.266	90.69
648.471	88.69
648.676	98.69
648.88	86.69
649.085	92.69
649.289	93.69
649.494	90.69
649.698	75.69
649.903	86.69
650.107	89.69
650.312	79.69
650.516	93.69
650.721	108.69
650.925	90.69
651.13	83.69
651.334	84.69
651.539	88.69
651.743	78.69
651.947	98.69
652.152	88.69
652.356	93.69
652.56	82.69
652.764	96.69
652.969	83.69
653.173	97.69
653.377	85.69
653.581	78.69
653.785	86.69
653.99	95.69
654.194	81.69
654.398	78.69
654.602	86.69
654.806	93.69
655.01	100.69
655.214	80.69
655.418	86.69
655.622	82.69
655.826	83.69
656.03	88.69
656.234	85.69
656.438	87.69
656.642	86.69
656.846	89.69
657.049	90.69
657.253	88.69
657.457	87.69
657.661	80.69
657.865	88.69
658.068	79.69
658.272	84.69
658.476	80.69
658.68	89.69
658.883	78.69
659.087	89.69
659.291	73.69
659.494	89.69
659.698	81.69
659.901	75.69
660.105	89.69
660.309	89.69
660.512	87.69
660.716	83.69
660.919	75.69
661.123	85.69
661.326	77.69
661.53	79.69
661.733	79.69
661.936	87.69
662.14	85.69
662.343	96.69
662.546	93.69
662.75	76.69
662.953	94.69
663.156	89.69
663.36	90.69
663.563	75.69
663.766	98.69
663.969	82.69
664.173	89.69
664.376	84.69
664.579	86.69
664.782	84.69
664.985	87.69
665.188	86.69
665.391	88.69
665.594	86.69
665.797	72.69
666	70.69
666.203	75.69
666.406	83.69
666.609	79.69
666.812	83.69
667.015	86.69
667.218	83.69
667.421	75.69
667.624	80.69
667.827	72.69
668.03	98.69
668.232	86.69
668.435	78.69
668.638	68.69
668.841	84.69
669.043	87.69
669.246	73.69
669.449	78.69
669.651	72.69
669.854	75.69
670.057	78.69
670.259	83.69
670.462	85.69
670.665	89.69
670.867	79.69
671.07	80.69
671.272	81.69
671.475	89.69
671.677	76.69
671.88	96.69
672.082	72.69
672.284	80.69
672.487	89.69
672.689	70.69
672.892	84.69
