Data from Location3.07152019.Energy5.Lamp.07192019.3%Agarose_HRD10591_15-17-32-269.txt Node
Date: Fri Jul 19 15:17:32 EDT 2019
User: cochatt
Spectrometer: HR+D1059
Trigger mode: 1
Integration Time (sec): 1.000000E-1
Scans to average: 1
Electric dark correction enabled: true
Nonlinearity correction enabled: false
Boxcar width: 0
XAxis mode: Wavelengths
Number of Pixels in Spectrum: 2048
>>>>>Begin Spectral Data<<<<<
223.165	-21.25
223.4	-21.25
223.635	-21.25
223.869	-20.25
224.104	-22.25
224.338	-19.25
224.573	-17.25
224.808	-11.25
225.042	-0.25
225.277	7.75
225.511	-1.25
225.746	0.75
225.98	6.75
226.215	15.75
226.449	22.75
226.683	6.75
226.918	15.75
227.152	36.75
227.387	26.75
227.621	43.75
227.856	44.75
228.09	49.75
228.324	48.75
228.559	57.75
228.793	64.75
229.027	56.75
229.262	65.75
229.496	68.75
229.73	79.75
229.964	67.75
230.199	68.75
230.433	75.75
230.667	84.75
230.901	75.75
231.136	64.75
231.37	64.75
231.604	86.75
231.838	89.75
232.072	70.75
232.306	81.75
232.541	84.75
232.775	95.75
233.009	93.75
233.243	82.75
233.477	70.75
233.711	82.75
233.945	96.75
234.179	90.75
234.413	70.75
234.647	79.75
234.881	83.75
235.115	71.75
235.349	70.75
235.583	92.75
235.817	79.75
236.051	90.75
236.285	80.75
236.519	97.75
236.753	88.75
236.987	70.75
237.221	86.75
237.455	72.75
237.689	75.75
237.922	86.75
238.156	83.75
238.39	76.75
238.624	64.75
238.858	81.75
239.091	84.75
239.325	92.75
239.559	90.75
239.793	75.75
240.027	76.75
240.26	66.75
240.494	71.75
240.728	71.75
240.961	76.75
241.195	75.75
241.429	77.75
241.662	79.75
241.896	95.75
242.13	90.75
242.363	73.75
242.597	83.75
242.83	82.75
243.064	73.75
243.298	83.75
243.531	70.75
243.765	79.75
243.998	68.75
244.232	64.75
244.465	85.75
244.699	87.75
244.932	70.75
245.166	87.75
245.399	72.75
245.633	64.75
245.866	80.75
246.099	76.75
246.333	87.75
246.566	77.75
246.8	63.75
247.033	75.75
247.266	68.75
247.5	68.75
247.733	64.75
247.966	78.75
248.2	103.75
248.433	86.75
248.666	73.75
248.899	71.75
249.133	77.75
249.366	97.75
249.599	80.75
249.832	72.75
250.066	75.75
250.299	78.75
250.532	83.75
250.765	88.75
250.998	81.75
251.231	92.75
251.465	87.75
251.698	91.75
251.931	77.75
252.164	84.75
252.397	76.75
252.63	85.75
252.863	77.75
253.096	89.75
253.329	88.75
253.562	87.75
253.795	76.75
254.028	88.75
254.261	80.75
254.494	79.75
254.727	92.75
254.96	87.75
255.193	71.75
255.426	83.75
255.659	76.75
255.892	88.75
256.124	77.75
256.357	80.75
256.59	85.75
256.823	83.75
257.056	89.75
257.289	75.75
257.521	84.75
257.754	76.75
257.987	85.75
258.22	90.75
258.452	75.75
258.685	74.75
258.918	97.75
259.151	83.75
259.383	80.75
259.616	90.75
259.849	75.75
260.081	95.75
260.314	82.75
260.547	88.75
260.779	82.75
261.012	77.75
261.244	81.75
261.477	88.75
261.71	88.75
261.942	84.75
262.175	88.75
262.407	71.75
262.64	81.75
262.872	75.75
263.105	80.75
263.337	77.75
263.57	73.75
263.802	83.75
264.035	75.75
264.267	83.75
264.499	82.75
264.732	85.75
264.964	87.75
265.197	81.75
265.429	76.75
265.661	74.75
265.894	74.75
266.126	79.75
266.358	73.75
266.591	82.75
266.823	77.75
267.055	73.75
267.287	94.75
267.52	87.75
267.752	83.75
267.984	80.75
268.216	84.75
268.448	91.75
268.681	79.75
268.913	84.75
269.145	92.75
269.377	87.75
269.609	76.75
269.841	88.75
270.073	76.75
270.306	84.75
270.538	76.75
270.77	84.75
271.002	75.75
271.234	68.75
271.466	90.75
271.698	75.75
271.93	92.75
272.162	74.75
272.394	80.75
272.626	81.75
272.858	83.75
273.09	88.75
273.322	87.75
273.553	83.75
273.785	78.75
274.017	82.75
274.249	92.75
274.481	82.75
274.713	73.75
274.945	86.75
275.176	80.75
275.408	94.75
275.64	80.75
275.872	90.75
276.104	84.75
276.335	87.75
276.567	89.75
276.799	81.75
277.031	85.75
277.262	70.75
277.494	95.75
277.726	81.75
277.957	93.75
278.189	97.75
278.421	85.75
278.652	71.75
278.884	75.75
279.115	83.75
279.347	76.75
279.579	82.75
279.81	83.75
280.042	83.75
280.273	86.75
280.505	75.75
280.736	87.75
280.968	94.75
281.199	88.75
281.431	80.75
281.662	90.75
281.894	60.75
282.125	93.75
282.356	96.75
282.588	88.75
282.819	89.75
283.051	80.75
283.282	94.75
283.513	84.75
283.745	65.75
283.976	91.75
284.207	82.75
284.439	92.75
284.67	92.75
284.901	82.75
285.132	92.75
285.364	64.75
285.595	85.75
285.826	87.75
286.057	86.75
286.288	83.75
286.52	85.75
286.751	92.75
286.982	84.75
287.213	71.75
287.444	82.75
287.675	96.75
287.906	90.75
288.138	80.75
288.369	86.75
288.6	95.75
288.831	87.75
289.062	82.75
289.293	90.75
289.524	84.75
289.755	90.75
289.986	80.75
290.217	73.75
290.448	78.75
290.679	83.75
290.91	75.75
291.141	80.75
291.371	79.75
291.602	82.75
291.833	70.75
292.064	84.75
292.295	93.75
292.526	88.75
292.757	83.75
292.987	86.75
293.218	83.75
293.449	98.75
293.68	92.75
293.91	99.75
294.141	76.75
294.372	87.75
294.603	90.75
294.833	80.75
295.064	75.75
295.295	73.75
295.525	82.75
295.756	72.75
295.987	85.75
296.217	81.75
296.448	71.75
296.679	90.75
296.909	91.75
297.14	66.75
297.37	76.75
297.601	69.75
297.831	72.75
298.062	86.75
298.292	81.75
298.523	84.75
298.753	82.75
298.984	84.75
299.214	83.75
299.445	84.75
299.675	78.75
299.905	82.75
300.136	82.75
300.366	88.75
300.597	88.75
300.827	97.75
301.057	86.75
301.288	85.75
301.518	79.75
301.748	87.75
301.979	74.75
302.209	92.75
302.439	90.75
302.669	87.75
302.9	77.75
303.13	75.75
303.36	86.75
303.59	85.75
303.82	85.75
304.051	89.75
304.281	82.75
304.511	86.75
304.741	84.75
304.971	61.75
305.201	82.75
305.431	81.75
305.661	86.75
305.891	87.75
306.121	83.75
306.352	91.75
306.582	79.75
306.812	69.75
307.042	71.75
307.272	83.75
307.502	98.75
307.731	99.75
307.961	105.75
308.191	81.75
308.421	89.75
308.651	93.75
308.881	97.75
309.111	84.75
309.341	85.75
309.571	84.75
309.8	89.75
310.03	83.75
310.26	89.75
310.49	91.75
310.72	86.75
310.949	81.75
311.179	71.75
311.409	75.75
311.639	75.75
311.868	83.75
312.098	97.75
312.328	82.75
312.557	70.75
312.787	84.75
313.017	84.75
313.246	87.75
313.476	73.75
313.706	81.75
313.935	80.75
314.165	85.75
314.394	97.75
314.624	79.75
314.853	79.75
315.083	88.75
315.312	91.75
315.542	74.75
315.771	81.75
316.001	79.75
316.23	89.75
316.46	87.75
316.689	85.75
316.919	81.75
317.148	92.75
317.377	75.75
317.607	93.75
317.836	92.75
318.065	81.75
318.295	84.75
318.524	79.75
318.753	83.75
318.983	76.75
319.212	78.75
319.441	80.75
319.67	79.75
319.9	79.75
320.129	91.75
320.358	93.75
320.587	96.75
320.816	85.75
321.046	68.75
321.275	81.75
321.504	86.75
321.733	79.75
321.962	92.75
322.191	95.75
322.42	89.75
322.649	77.75
322.878	86.75
323.108	82.75
323.337	92.75
323.566	90.75
323.795	83.75
324.024	90.75
324.253	89.75
324.482	82.75
324.71	75.75
324.939	92.75
325.168	83.75
325.397	65.75
325.626	95.75
325.855	81.75
326.084	79.75
326.313	79.75
326.542	89.75
326.77	86.75
326.999	88.75
327.228	78.75
327.457	76.75
327.686	87.75
327.914	87.75
328.143	71.75
328.372	91.75
328.6	87.75
328.829	81.75
329.058	71.75
329.287	89.75
329.515	82.75
329.744	79.75
329.972	79.75
330.201	94.75
330.43	82.75
330.658	80.75
330.887	92.75
331.115	90.75
331.344	92.75
331.572	100.75
331.801	80.75
332.03	78.75
332.258	73.75
332.486	72.75
332.715	92.75
332.943	78.75
333.172	69.75
333.4	82.75
333.629	76.75
333.857	91.75
334.085	88.75
334.314	74.75
334.542	75.75
334.771	75.75
334.999	76.75
335.227	81.75
335.455	87.75
335.684	80.75
335.912	81.75
336.14	73.75
336.369	74.75
336.597	87.75
336.825	81.75
337.053	87.75
337.281	82.75
337.51	98.75
337.738	77.75
337.966	87.75
338.194	82.75
338.422	87.75
338.65	90.75
338.878	88.75
339.106	99.75
339.334	90.75
339.562	80.75
339.79	88.75
340.018	91.75
340.246	86.75
340.474	65.75
340.702	74.75
340.93	79.75
341.158	80.75
341.386	88.75
341.614	86.75
341.842	90.75
342.07	83.75
342.298	89.75
342.526	70.75
342.754	90.75
342.981	97.75
343.209	87.75
343.437	97.75
343.665	84.75
343.893	87.75
344.12	90.75
344.348	94.75
344.576	84.75
344.804	95.75
345.031	83.75
345.259	87.75
345.487	76.75
345.714	94.75
345.942	82.75
346.17	69.75
346.397	84.75
346.625	89.75
346.853	87.75
347.08	89.75
347.308	80.75
347.535	71.75
347.763	85.75
347.99	77.75
348.218	80.75
348.445	96.75
348.673	90.75
348.9	69.75
349.128	90.75
349.355	82.75
349.583	78.75
349.81	98.75
350.037	82.75
350.265	79.75
350.492	89.75
350.72	85.75
350.947	93.75
351.174	90.75
351.402	86.75
351.629	80.75
351.856	87.75
352.083	81.75
352.311	84.75
352.538	87.75
352.765	85.75
352.992	82.75
353.22	76.75
353.447	101.75
353.674	89.75
353.901	90.75
354.128	86.75
354.355	81.75
354.583	61.75
354.81	95.75
355.037	79.75
355.264	83.75
355.491	69.75
355.718	76.75
355.945	90.75
356.172	83.75
356.399	75.75
356.626	79.75
356.853	91.75
357.08	80.75
357.307	78.75
357.534	83.75
357.761	85.75
357.988	80.75
358.215	79.75
358.441	84.75
358.668	67.75
358.895	71.75
359.122	80.75
359.349	83.75
359.576	89.75
359.802	84.75
360.029	84.75
360.256	75.75
360.483	68.75
360.709	84.75
360.936	79.75
361.163	80.75
361.39	89.75
361.616	75.75
361.843	86.75
362.07	84.75
362.296	88.75
362.523	74.75
362.749	85.75
362.976	95.75
363.203	64.75
363.429	87.75
363.656	85.75
363.882	76.75
364.109	83.75
364.335	89.75
364.562	93.75
364.788	98.75
365.015	82.75
365.241	89.75
365.468	80.75
365.694	74.75
365.92	89.75
366.147	84.75
366.373	79.75
366.599	91.75
366.826	81.75
367.052	91.75
367.278	74.75
367.505	54.75
367.731	91.75
367.957	80.75
368.184	97.75
368.41	67.75
368.636	78.75
368.862	91.75
369.089	91.75
369.315	84.75
369.541	82.75
369.767	75.75
369.993	76.75
370.219	59.75
370.445	75.75
370.672	85.75
370.898	81.75
371.124	89.75
371.35	84.75
371.576	88.75
371.802	90.75
372.028	83.75
372.254	82.75
372.48	103.75
372.706	99.75
372.932	83.75
373.158	81.75
373.384	66.75
373.61	83.75
373.835	88.75
374.061	82.75
374.287	84.75
374.513	87.75
374.739	80.75
374.965	82.75
375.191	92.75
375.416	101.75
375.642	86.75
375.868	91.75
376.094	88.75
376.319	87.75
376.545	73.75
376.771	77.75
376.997	74.75
377.222	86.75
377.448	97.75
377.674	85.75
377.899	81.75
378.125	72.75
378.35	110.75
378.576	82.75
378.802	65.75
379.027	94.75
379.253	82.75
379.478	97.75
379.704	91.75
379.929	79.75
380.155	87.75
380.38	92.75
380.606	75.75
380.831	77.75
381.057	90.75
381.282	88.75
381.507	89.75
381.733	70.75
381.958	86.75
382.184	100.75
382.409	84.75
382.634	79.75
382.86	66.75
383.085	85.75
383.31	87.75
383.535	89.75
383.761	85.75
383.986	71.75
384.211	93.75
384.436	81.75
384.662	88.75
384.887	102.75
385.112	83.75
385.337	63.75
385.562	83.75
385.787	88.75
386.013	71.75
386.238	79.75
386.463	70.75
386.688	86.75
386.913	94.75
387.138	74.75
387.363	82.75
387.588	95.75
387.813	72.75
388.038	82.75
388.263	86.75
388.488	88.75
388.713	88.75
388.938	92.75
389.163	82.75
389.387	104.75
389.612	80.75
389.837	93.75
390.062	81.75
390.287	93.75
390.512	90.75
390.736	77.75
390.961	79.75
391.186	88.75
391.411	97.75
391.636	87.75
391.86	86.75
392.085	84.75
392.31	88.75
392.534	98.75
392.759	86.75
392.984	80.75
393.208	82.75
393.433	88.75
393.658	84.75
393.882	77.75
394.107	88.75
394.331	86.75
394.556	82.75
394.78	83.75
395.005	74.75
395.229	76.75
395.454	92.75
395.678	86.75
395.903	94.75
396.127	86.75
396.352	81.75
396.576	86.75
396.801	87.75
397.025	69.75
397.249	78.75
397.474	93.75
397.698	97.75
397.922	83.75
398.147	74.75
398.371	79.75
398.595	91.75
398.82	75.75
399.044	82.75
399.268	91.75
399.492	91.75
399.717	76.75
399.941	82.75
400.165	89.75
400.389	88.75
400.613	91.75
400.837	86.75
401.062	105.75
401.286	96.75
401.51	85.75
401.734	91.75
401.958	88.75
402.182	74.75
402.406	97.75
402.63	84.75
402.854	86.75
403.078	88.75
403.302	76.75
403.526	90.75
403.75	77.75
403.974	84.75
404.198	99.75
404.422	99.75
404.645	81.75
404.869	84.75
405.093	82.75
405.317	92.75
405.541	92.75
405.765	76.75
405.988	88.75
406.212	90.75
406.436	82.75
406.66	99.75
406.883	86.75
407.107	93.75
407.331	76.75
407.555	95.75
407.778	84.75
408.002	98.75
408.226	96.75
408.449	80.75
408.673	87.75
408.896	86.75
409.12	100.75
409.344	83.75
409.567	82.75
409.791	101.75
410.014	86.75
410.238	91.75
410.461	104.75
410.685	81.75
410.908	92.75
411.132	88.75
411.355	88.75
411.578	98.75
411.802	102.75
412.025	88.75
412.249	91.75
412.472	85.75
412.695	78.75
412.919	82.75
413.142	90.75
413.365	85.75
413.589	80.75
413.812	82.75
414.035	87.75
414.258	92.75
414.482	87.75
414.705	84.75
414.928	94.75
415.151	91.75
415.374	99.75
415.597	104.75
415.821	97.75
416.044	92.75
416.267	86.75
416.49	96.75
416.713	85.75
416.936	110.75
417.159	103.75
417.382	106.75
417.605	82.75
417.828	104.75
418.051	96.75
418.274	89.75
418.497	91.75
418.72	81.75
418.943	87.75
419.166	91.75
419.389	99.75
419.611	95.75
419.834	91.75
420.057	80.75
420.28	86.75
420.503	88.75
420.726	94.75
420.948	104.75
421.171	95.75
421.394	82.75
421.617	94.75
421.839	95.75
422.062	97.75
422.285	106.75
422.507	94.75
422.73	119.75
422.953	87.75
423.175	83.75
423.398	76.75
423.621	85.75
423.843	88.75
424.066	95.75
424.288	98.75
424.511	91.75
424.733	105.75
424.956	99.75
425.178	100.75
425.401	109.75
425.623	102.75
425.846	95.75
426.068	95.75
426.291	101.75
426.513	82.75
426.735	91.75
426.958	97.75
427.18	97.75
427.402	112.75
427.625	73.75
427.847	81.75
428.069	94.75
428.292	95.75
428.514	88.75
428.736	98.75
428.958	100.75
429.181	107.75
429.403	76.75
429.625	91.75
429.847	94.75
430.069	95.75
430.292	83.75
430.514	98.75
430.736	87.75
430.958	106.75
431.18	98.75
431.402	88.75
431.624	89.75
431.846	86.75
432.068	84.75
432.29	82.75
432.512	87.75
432.734	104.75
432.956	98.75
433.178	105.75
433.4	103.75
433.622	88.75
433.844	85.75
434.066	78.75
434.287	100.75
434.509	92.75
434.731	91.75
434.953	93.75
435.175	85.75
435.397	83.75
435.618	101.75
435.84	95.75
436.062	92.75
436.284	86.75
436.505	100.75
436.727	112.75
436.949	97.75
437.17	89.75
437.392	84.75
437.614	84.75
437.835	78.75
438.057	91.75
438.278	99.75
438.5	94.75
438.721	88.75
438.943	99.75
439.165	86.75
439.386	99.75
439.608	95.75
439.829	97.75
440.05	96.75
440.272	100.75
440.493	100.75
440.715	100.75
440.936	95.75
441.158	103.75
441.379	112.75
441.6	100.75
441.822	107.75
442.043	104.75
442.264	96.75
442.486	98.75
442.707	103.75
442.928	92.75
443.149	96.75
443.371	88.75
443.592	122.75
443.813	88.75
444.034	102.75
444.255	99.75
444.476	90.75
444.698	91.75
444.919	102.75
445.14	211.75
445.361	155.75
445.582	87.75
445.803	89.75
446.024	96.75
446.245	108.75
446.466	110.75
446.687	86.75
446.908	98.75
447.129	98.75
447.35	95.75
447.571	97.75
447.792	102.75
448.013	102.75
448.234	90.75
448.455	98.75
448.675	91.75
448.896	97.75
449.117	101.75
449.338	103.75
449.559	104.75
449.779	87.75
450	89.75
450.221	89.75
450.442	85.75
450.662	76.75
450.883	94.75
451.104	100.75
451.324	110.75
451.545	84.75
451.766	98.75
451.986	108.75
452.207	83.75
452.428	96.75
452.648	90.75
452.869	87.75
453.089	81.75
453.31	69.75
453.53	91.75
453.751	74.75
453.971	90.75
454.192	92.75
454.412	95.75
454.633	84.75
454.853	102.75
455.073	91.75
455.294	104.75
455.514	95.75
455.734	100.75
455.955	87.75
456.175	86.75
456.395	86.75
456.616	94.75
456.836	91.75
457.056	78.75
457.276	102.75
457.497	79.75
457.717	75.75
457.937	87.75
458.157	75.75
458.377	79.75
458.598	97.75
458.818	88.75
459.038	95.75
459.258	76.75
459.478	77.75
459.698	78.75
459.918	91.75
460.138	90.75
460.358	79.75
460.578	98.75
460.798	102.75
461.018	97.75
461.238	114.75
461.458	96.75
461.678	94.75
461.898	110.75
462.118	83.75
462.338	92.75
462.558	95.75
462.777	80.75
462.997	98.75
463.217	99.75
463.437	105.75
463.657	86.75
463.876	85.75
464.096	92.75
464.316	90.75
464.536	96.75
464.755	85.75
464.975	88.75
465.195	90.75
465.414	95.75
465.634	79.75
465.854	99.75
466.073	87.75
466.293	83.75
466.512	101.75
466.732	92.75
466.951	99.75
467.171	110.75
467.391	82.75
467.61	102.75
467.829	107.75
468.049	98.75
468.268	97.75
468.488	103.75
468.707	97.75
468.927	97.75
469.146	100.75
469.365	84.75
469.585	95.75
469.804	100.75
470.023	107.75
470.243	106.75
470.462	97.75
470.681	79.75
470.901	85.75
471.12	104.75
471.339	92.75
471.558	99.75
471.777	107.75
471.997	111.75
472.216	90.75
472.435	72.75
472.654	92.75
472.873	100.75
473.092	102.75
473.311	92.75
473.53	95.75
473.749	89.75
473.968	86.75
474.187	95.75
474.406	90.75
474.625	84.75
474.844	96.75
475.063	101.75
475.282	87.75
475.501	94.75
475.72	90.75
475.939	83.75
476.158	92.75
476.377	102.75
476.596	103.75
476.814	91.75
477.033	92.75
477.252	95.75
477.471	90.75
477.69	88.75
477.908	97.75
478.127	97.75
478.346	92.75
478.564	102.75
478.783	86.75
479.002	103.75
479.22	89.75
479.439	96.75
479.658	66.75
479.876	75.75
480.095	84.75
480.313	90.75
480.532	84.75
480.751	79.75
480.969	85.75
481.188	83.75
481.406	77.75
481.624	85.75
481.843	88.75
482.061	79.75
482.28	88.75
482.498	74.75
482.717	86.75
482.935	97.75
483.153	85.75
483.372	98.75
483.59	111.75
483.808	98.75
484.027	75.75
484.245	99.75
484.463	97.75
484.681	107.75
484.9	104.75
485.118	99.75
485.336	83.75
485.554	95.75
485.772	81.75
485.99	92.75
486.209	95.75
486.427	91.75
486.645	100.75
486.863	101.75
487.081	92.75
487.299	85.75
487.517	107.75
487.735	90.75
487.953	114.75
488.171	116.75
488.389	116.75
488.607	121.75
488.825	99.75
489.043	90.75
489.261	99.75
489.479	110.75
489.696	102.75
489.914	110.75
490.132	94.75
490.35	92.75
490.568	101.75
490.786	103.75
491.003	101.75
491.221	112.75
491.439	129.75
491.657	123.75
491.874	113.75
492.092	129.75
492.31	131.75
492.527	114.75
492.745	128.75
492.963	121.75
493.18	110.75
493.398	127.75
493.615	125.75
493.833	102.75
494.05	120.75
494.268	108.75
494.485	113.75
494.703	113.75
494.92	107.75
495.138	111.75
495.355	115.75
495.573	123.75
495.79	96.75
496.008	124.75
496.225	106.75
496.442	110.75
496.66	111.75
496.877	119.75
497.094	98.75
497.312	96.75
497.529	93.75
497.746	98.75
497.963	98.75
498.181	95.75
498.398	97.75
498.615	87.75
498.832	87.75
499.049	98.75
499.267	95.75
499.484	91.75
499.701	91.75
499.918	98.75
500.135	100.75
500.352	111.75
500.569	116.75
500.786	98.75
501.003	93.75
501.22	103.75
501.437	99.75
501.654	91.75
501.871	105.75
502.088	79.75
502.305	94.75
502.522	106.75
502.739	107.75
502.956	96.75
503.172	82.75
503.389	92.75
503.606	98.75
503.823	91.75
504.04	90.75
504.256	91.75
504.473	96.75
504.69	97.75
504.907	97.75
505.123	94.75
505.34	100.75
505.557	90.75
505.773	88.75
505.99	80.75
506.207	101.75
506.423	104.75
506.64	103.75
506.856	95.75
507.073	99.75
507.289	89.75
507.506	89.75
507.722	97.75
507.939	107.75
508.155	93.75
508.372	90.75
508.588	75.75
508.805	95.75
509.021	84.75
509.238	97.75
509.454	82.75
509.67	105.75
509.887	92.75
510.103	78.75
510.319	96.75
510.536	90.75
510.752	88.75
510.968	70.75
511.184	93.75
511.401	85.75
511.617	90.75
511.833	76.75
512.049	68.75
512.265	86.75
512.481	92.75
512.698	81.75
512.914	84.75
513.13	79.75
513.346	75.75
513.562	94.75
513.778	77.75
513.994	75.75
514.21	84.75
514.426	95.75
514.642	104.75
514.858	89.75
515.074	76.75
515.29	81.75
515.506	90.75
515.721	89.75
515.937	89.75
516.153	74.75
516.369	80.75
516.585	94.75
516.801	92.75
517.016	89.75
517.232	81.75
517.448	107.75
517.664	82.75
517.879	83.75
518.095	84.75
518.311	92.75
518.527	90.75
518.742	79.75
518.958	87.75
519.173	98.75
519.389	87.75
519.605	76.75
519.82	96.75
520.036	99.75
520.251	95.75
520.467	91.75
520.682	65.75
520.898	85.75
521.113	88.75
521.329	81.75
521.544	93.75
521.76	93.75
521.975	98.75
522.19	103.75
522.406	89.75
522.621	83.75
522.836	78.75
523.052	85.75
523.267	91.75
523.482	76.75
523.698	94.75
523.913	98.75
524.128	102.75
524.343	84.75
524.559	84.75
524.774	87.75
524.989	101.75
525.204	107.75
525.419	97.75
525.634	95.75
525.849	85.75
526.064	91.75
526.28	83.75
526.495	91.75
526.71	83.75
526.925	82.75
527.14	92.75
527.355	86.75
527.57	90.75
527.785	88.75
527.999	79.75
528.214	90.75
528.429	106.75
528.644	98.75
528.859	91.75
529.074	112.75
529.289	95.75
529.503	92.75
529.718	98.75
529.933	91.75
530.148	90.75
530.363	84.75
530.577	80.75
530.792	91.75
531.007	86.75
531.221	85.75
531.436	90.75
531.651	84.75
531.865	88.75
532.08	83.75
532.295	77.75
532.509	87.75
532.724	88.75
532.938	102.75
533.153	88.75
533.367	90.75
533.582	96.75
533.796	97.75
534.011	100.75
534.225	77.75
534.44	89.75
534.654	81.75
534.868	88.75
535.083	88.75
535.297	105.75
535.511	80.75
535.726	99.75
535.94	89.75
536.154	84.75
536.369	91.75
536.583	60.75
536.797	80.75
537.011	80.75
537.225	86.75
537.44	75.75
537.654	98.75
537.868	92.75
538.082	97.75
538.296	81.75
538.51	83.75
538.724	80.75
538.938	99.75
539.153	97.75
539.367	99.75
539.581	86.75
539.795	86.75
540.009	77.75
540.222	96.75
540.436	90.75
540.65	79.75
540.864	102.75
541.078	105.75
541.292	97.75
541.506	113.75
541.72	101.75
541.934	114.75
542.147	107.75
542.361	106.75
542.575	111.75
542.789	109.75
543.002	86.75
543.216	92.75
543.43	105.75
543.644	105.75
543.857	100.75
544.071	96.75
544.285	100.75
544.498	116.75
544.712	91.75
544.925	101.75
545.139	107.75
545.352	110.75
545.566	87.75
545.779	87.75
545.993	91.75
546.206	110.75
546.42	114.75
546.633	117.75
546.847	119.75
547.06	124.75
547.274	120.75
547.487	121.75
547.7	103.75
547.914	109.75
548.127	126.75
548.34	116.75
548.554	105.75
548.767	107.75
548.98	100.75
549.193	112.75
549.407	119.75
549.62	114.75
549.833	113.75
550.046	109.75
550.259	107.75
550.473	107.75
550.686	104.75
550.899	106.75
551.112	111.75
551.325	98.75
551.538	91.75
551.751	95.75
551.964	87.75
552.177	93.75
552.39	94.75
552.603	114.75
552.816	93.75
553.029	94.75
553.242	101.75
553.455	97.75
553.667	106.75
553.88	108.75
554.093	96.75
554.306	110.75
554.519	115.75
554.732	112.75
554.944	122.75
555.157	107.75
555.37	101.75
555.583	89.75
555.795	99.75
556.008	95.75
556.221	90.75
556.433	99.75
556.646	106.75
556.859	96.75
557.071	86.75
557.284	104.75
557.496	102.75
557.709	102.75
557.921	116.75
558.134	91.75
558.346	101.75
558.559	92.75
558.771	84.75
558.984	107.75
559.196	102.75
559.409	111.75
559.621	104.75
559.833	97.75
560.046	78.75
560.258	95.75
560.47	92.75
560.683	92.75
560.895	98.75
561.107	103.75
561.32	81.75
561.532	91.75
561.744	90.75
561.956	91.75
562.168	95.75
562.381	88.75
562.593	101.75
562.805	100.75
563.017	95.75
563.229	96.75
563.441	99.75
563.653	93.75
563.865	92.75
564.077	99.75
564.289	100.75
564.501	91.75
564.713	100.75
564.925	94.75
565.137	90.75
565.349	82.75
565.561	81.75
565.773	101.75
565.985	100.75
566.197	75.75
566.408	90.75
566.62	97.75
566.832	91.75
567.044	89.75
567.255	94.75
567.467	93.75
567.679	94.75
567.891	86.75
568.102	95.75
568.314	93.75
568.526	81.75
568.737	80.75
568.949	79.75
569.161	75.75
569.372	88.75
569.584	63.75
569.795	81.75
570.007	94.75
570.218	84.75
570.43	66.75
570.641	77.75
570.853	75.75
571.064	94.75
571.276	102.75
571.487	85.75
571.698	99.75
571.91	90.75
572.121	87.75
572.333	80.75
572.544	86.75
572.755	88.75
572.966	91.75
573.178	81.75
573.389	89.75
573.6	81.75
573.811	80.75
574.023	94.75
574.234	88.75
574.445	95.75
574.656	86.75
574.867	89.75
575.078	88.75
575.289	74.75
575.501	87.75
575.712	81.75
575.923	79.75
576.134	96.75
576.345	87.75
576.556	86.75
576.767	97.75
576.978	100.75
577.188	90.75
577.399	98.75
577.61	87.75
577.821	81.75
578.032	94.75
578.243	93.75
578.454	87.75
578.665	78.75
578.875	79.75
579.086	94.75
579.297	82.75
579.508	82.75
579.718	87.75
579.929	83.75
580.14	89.75
580.35	91.75
580.561	76.75
580.772	76.75
580.982	90.75
581.193	85.75
581.403	84.75
581.614	84.75
581.825	89.75
582.035	86.75
582.246	94.75
582.456	76.75
582.667	89.75
582.877	89.75
583.087	87.75
583.298	88.75
583.508	92.75
583.719	82.75
583.929	90.75
584.139	89.75
584.35	76.75
584.56	85.75
584.77	94.75
584.981	74.75
585.191	92.75
585.401	96.75
585.611	88.75
585.821	87.75
586.032	83.75
586.242	84.75
586.452	83.75
586.662	97.75
586.872	84.75
587.082	86.75
587.292	85.75
587.502	95.75
587.713	89.75
587.923	69.75
588.133	74.75
588.343	85.75
588.553	88.75
588.762	84.75
588.972	101.75
589.182	88.75
589.392	97.75
589.602	80.75
589.812	85.75
590.022	84.75
590.232	82.75
590.441	93.75
590.651	73.75
590.861	92.75
591.071	82.75
591.281	86.75
591.49	78.75
591.7	90.75
591.91	79.75
592.119	88.75
592.329	91.75
592.539	82.75
592.748	91.75
592.958	81.75
593.167	81.75
593.377	87.75
593.587	92.75
593.796	79.75
594.006	80.75
594.215	97.75
594.424	86.75
594.634	92.75
594.843	91.75
595.053	83.75
595.262	75.75
595.472	92.75
595.681	79.75
595.89	73.75
596.1	82.75
596.309	80.75
596.518	75.75
596.727	92.75
596.937	88.75
597.146	82.75
597.355	95.75
597.564	78.75
597.774	68.75
597.983	86.75
598.192	81.75
598.401	91.75
598.61	89.75
598.819	83.75
599.028	99.75
599.237	85.75
599.446	89.75
599.655	90.75
599.864	78.75
600.073	88.75
600.282	85.75
600.491	94.75
600.7	80.75
600.909	85.75
601.118	72.75
601.327	86.75
601.536	86.75
601.745	88.75
601.953	92.75
602.162	78.75
602.371	91.75
602.58	85.75
602.789	92.75
602.997	80.75
603.206	87.75
603.415	92.75
603.623	90.75
603.832	86.75
604.041	111.75
604.249	98.75
604.458	84.75
604.666	89.75
604.875	81.75
605.084	86.75
605.292	85.75
605.501	87.75
605.709	101.75
605.918	89.75
606.126	91.75
606.334	95.75
606.543	88.75
606.751	79.75
606.96	88.75
607.168	89.75
607.376	89.75
607.585	87.75
607.793	102.75
608.001	94.75
608.21	86.75
608.418	94.75
608.626	94.75
608.834	102.75
609.043	98.75
609.251	99.75
609.459	92.75
609.667	92.75
609.875	91.75
610.083	95.75
610.291	85.75
610.499	90.75
610.707	77.75
610.916	89.75
611.124	96.75
611.332	83.75
611.54	95.75
611.748	79.75
611.955	84.75
612.163	98.75
612.371	107.75
612.579	93.75
612.787	89.75
612.995	90.75
613.203	100.75
613.411	96.75
613.618	94.75
613.826	95.75
614.034	92.75
614.242	92.75
614.449	98.75
614.657	97.75
614.865	91.75
615.072	88.75
615.28	92.75
615.488	77.75
615.695	83.75
615.903	81.75
616.111	97.75
616.318	90.75
616.526	83.75
616.733	84.75
616.941	89.75
617.148	90.75
617.356	91.75
617.563	72.75
617.771	79.75
617.978	85.75
618.185	102.75
618.393	84.75
618.6	94.75
618.807	97.75
619.015	67.75
619.222	79.75
619.429	88.75
619.637	79.75
619.844	84.75
620.051	80.75
620.258	99.75
620.466	97.75
620.673	95.75
620.88	83.75
621.087	96.75
621.294	82.75
621.501	94.75
621.708	94.75
621.915	87.75
622.122	90.75
622.329	97.75
622.536	96.75
622.743	91.75
622.95	96.75
623.157	87.75
623.364	89.75
623.571	95.75
623.778	84.75
623.985	91.75
624.192	88.75
624.399	84.75
624.606	87.75
624.812	93.75
625.019	86.75
625.226	82.75
625.433	89.75
625.639	84.75
625.846	94.75
626.053	98.75
626.259	80.75
626.466	88.75
626.673	81.75
626.879	74.75
627.086	76.75
627.293	92.75
627.499	65.75
627.706	82.75
627.912	86.75
628.119	91.75
628.325	100.75
628.532	82.75
628.738	79.75
628.945	99.75
629.151	88.75
629.357	94.75
629.564	97.75
629.77	91.75
629.976	92.75
630.183	87.75
630.389	101.75
630.595	103.75
630.802	92.75
631.008	84.75
631.214	92.75
631.42	84.75
631.627	89.75
631.833	90.75
632.039	85.75
632.245	97.75
632.451	91.75
632.657	91.75
632.863	82.75
633.069	89.75
633.275	71.75
633.481	67.75
633.688	78.75
633.893	88.75
634.099	91.75
634.305	104.75
634.511	88.75
634.717	104.75
634.923	100.75
635.129	84.75
635.335	83.75
635.541	81.75
635.747	90.75
635.952	84.75
636.158	95.75
636.364	92.75
636.57	91.75
636.775	102.75
636.981	94.75
637.187	94.75
637.392	81.75
637.598	86.75
637.804	96.75
638.009	100.75
638.215	81.75
638.421	78.75
638.626	84.75
638.832	86.75
639.037	89.75
639.243	86.75
639.448	79.75
639.654	89.75
639.859	81.75
640.065	81.75
640.27	88.75
640.475	85.75
640.681	85.75
640.886	94.75
641.091	90.75
641.297	90.75
641.502	86.75
641.707	94.75
641.913	94.75
642.118	97.75
642.323	100.75
642.528	106.75
642.733	84.75
642.939	86.75
643.144	86.75
643.349	89.75
643.554	85.75
643.759	94.75
643.964	82.75
644.169	103.75
644.374	85.75
644.579	96.75
644.784	83.75
644.989	82.75
645.194	86.75
645.399	94.75
645.604	84.75
645.809	86.75
646.014	87.75
646.219	91.75
646.423	83.75
646.628	89.75
646.833	87.75
647.038	87.75
647.243	101.75
647.447	82.75
647.652	99.75
647.857	102.75
648.062	91.75
648.266	75.75
648.471	97.75
648.676	90.75
648.88	87.75
649.085	75.75
649.289	67.75
649.494	80.75
649.698	91.75
649.903	63.75
650.107	96.75
650.312	72.75
650.516	90.75
650.721	94.75
650.925	96.75
651.13	107.75
651.334	85.75
651.539	80.75
651.743	84.75
651.947	102.75
652.152	84.75
652.356	87.75
652.56	87.75
652.764	97.75
652.969	89.75
653.173	77.75
653.377	78.75
653.581	86.75
653.785	86.75
653.99	91.75
654.194	79.75
654.398	90.75
654.602	81.75
654.806	88.75
655.01	90.75
655.214	92.75
655.418	85.75
655.622	79.75
655.826	98.75
656.03	79.75
656.234	95.75
656.438	92.75
656.642	76.75
656.846	85.75
657.049	84.75
657.253	80.75
657.457	87.75
657.661	84.75
657.865	80.75
658.068	70.75
658.272	84.75
658.476	87.75
658.68	84.75
658.883	87.75
659.087	70.75
659.291	75.75
659.494	88.75
659.698	77.75
659.901	75.75
660.105	108.75
660.309	78.75
660.512	85.75
660.716	82.75
660.919	69.75
661.123	92.75
661.326	94.75
661.53	76.75
661.733	80.75
661.936	78.75
662.14	88.75
662.343	87.75
662.546	85.75
662.75	79.75
662.953	84.75
663.156	80.75
663.36	90.75
663.563	91.75
663.766	76.75
663.969	81.75
664.173	73.75
664.376	70.75
664.579	92.75
664.782	84.75
664.985	71.75
665.188	80.75
665.391	75.75
665.594	67.75
665.797	80.75
666	78.75
666.203	78.75
666.406	78.75
666.609	78.75
666.812	78.75
667.015	92.75
667.218	71.75
667.421	73.75
667.624	79.75
667.827	79.75
668.03	84.75
668.232	77.75
668.435	81.75
668.638	87.75
668.841	80.75
669.043	70.75
669.246	71.75
669.449	88.75
669.651	65.75
669.854	88.75
670.057	89.75
670.259	90.75
670.462	88.75
670.665	86.75
670.867	74.75
671.07	81.75
671.272	80.75
671.475	91.75
671.677	80.75
671.88	83.75
672.082	69.75
672.284	80.75
672.487	83.75
672.689	95.75
672.892	85.75
