Data from Location3.07152019.Energy5.Lamp.07192019.3%Agarose_HRD10591_15-19-25-270.txt Node
Date: Fri Jul 19 15:19:25 EDT 2019
User: cochatt
Spectrometer: HR+D1059
Trigger mode: 1
Integration Time (sec): 1.000000E-1
Scans to average: 1
Electric dark correction enabled: true
Nonlinearity correction enabled: false
Boxcar width: 0
XAxis mode: Wavelengths
Number of Pixels in Spectrum: 2048
>>>>>Begin Spectral Data<<<<<
223.165	-25.25
223.4	-25.25
223.635	-25.25
223.869	-13.25
224.104	-40.25
224.338	-26.25
224.573	-14.25
224.808	-6.25
225.042	-16.25
225.277	4.75
225.511	-13.25
225.746	1.75
225.98	5.75
226.215	28.75
226.449	13.75
226.683	33.75
226.918	30.75
227.152	35.75
227.387	34.75
227.621	49.75
227.856	37.75
228.09	50.75
228.324	44.75
228.559	51.75
228.793	28.75
229.027	57.75
229.262	60.75
229.496	68.75
229.73	71.75
229.964	69.75
230.199	65.75
230.433	74.75
230.667	77.75
230.901	72.75
231.136	83.75
231.37	82.75
231.604	70.75
231.838	76.75
232.072	75.75
232.306	88.75
232.541	98.75
232.775	80.75
233.009	83.75
233.243	84.75
233.477	89.75
233.711	69.75
233.945	72.75
234.179	81.75
234.413	84.75
234.647	72.75
234.881	92.75
235.115	90.75
235.349	79.75
235.583	83.75
235.817	81.75
236.051	71.75
236.285	68.75
236.519	78.75
236.753	70.75
236.987	82.75
237.221	81.75
237.455	80.75
237.689	80.75
237.922	94.75
238.156	68.75
238.39	76.75
238.624	60.75
238.858	76.75
239.091	79.75
239.325	67.75
239.559	76.75
239.793	64.75
240.027	64.75
240.26	72.75
240.494	86.75
240.728	84.75
240.961	65.75
241.195	64.75
241.429	71.75
241.662	83.75
241.896	66.75
242.13	85.75
242.363	78.75
242.597	73.75
242.83	73.75
243.064	73.75
243.298	71.75
243.531	82.75
243.765	79.75
243.998	75.75
244.232	69.75
244.465	78.75
244.699	71.75
244.932	81.75
245.166	78.75
245.399	72.75
245.633	69.75
245.866	76.75
246.099	76.75
246.333	71.75
246.566	57.75
246.8	71.75
247.033	72.75
247.266	85.75
247.5	85.75
247.733	87.75
247.966	80.75
248.2	78.75
248.433	69.75
248.666	75.75
248.899	66.75
249.133	70.75
249.366	86.75
249.599	87.75
249.832	83.75
250.066	85.75
250.299	74.75
250.532	66.75
250.765	71.75
250.998	89.75
251.231	80.75
251.465	83.75
251.698	69.75
251.931	75.75
252.164	82.75
252.397	90.75
252.63	79.75
252.863	81.75
253.096	70.75
253.329	72.75
253.562	65.75
253.795	73.75
254.028	97.75
254.261	73.75
254.494	70.75
254.727	77.75
254.96	77.75
255.193	69.75
255.426	70.75
255.659	72.75
255.892	81.75
256.124	81.75
256.357	92.75
256.59	78.75
256.823	77.75
257.056	91.75
257.289	76.75
257.521	69.75
257.754	80.75
257.987	74.75
258.22	78.75
258.452	76.75
258.685	76.75
258.918	91.75
259.151	88.75
259.383	81.75
259.616	88.75
259.849	69.75
260.081	74.75
260.314	70.75
260.547	74.75
260.779	84.75
261.012	87.75
261.244	72.75
261.477	81.75
261.71	92.75
261.942	98.75
262.175	67.75
262.407	90.75
262.64	76.75
262.872	76.75
263.105	83.75
263.337	74.75
263.57	74.75
263.802	74.75
264.035	65.75
264.267	67.75
264.499	94.75
264.732	74.75
264.964	81.75
265.197	81.75
265.429	80.75
265.661	96.75
265.894	76.75
266.126	84.75
266.358	85.75
266.591	71.75
266.823	74.75
267.055	80.75
267.287	89.75
267.52	86.75
267.752	83.75
267.984	94.75
268.216	80.75
268.448	81.75
268.681	78.75
268.913	81.75
269.145	84.75
269.377	84.75
269.609	72.75
269.841	78.75
270.073	78.75
270.306	81.75
270.538	84.75
270.77	78.75
271.002	82.75
271.234	77.75
271.466	84.75
271.698	73.75
271.93	59.75
272.162	78.75
272.394	69.75
272.626	71.75
272.858	80.75
273.09	86.75
273.322	82.75
273.553	87.75
273.785	82.75
274.017	81.75
274.249	85.75
274.481	81.75
274.713	76.75
274.945	87.75
275.176	86.75
275.408	82.75
275.64	87.75
275.872	82.75
276.104	86.75
276.335	83.75
276.567	84.75
276.799	72.75
277.031	77.75
277.262	84.75
277.494	88.75
277.726	87.75
277.957	83.75
278.189	77.75
278.421	84.75
278.652	72.75
278.884	81.75
279.115	80.75
279.347	79.75
279.579	81.75
279.81	85.75
280.042	79.75
280.273	85.75
280.505	79.75
280.736	83.75
280.968	77.75
281.199	88.75
281.431	80.75
281.662	97.75
281.894	97.75
282.125	75.75
282.356	84.75
282.588	77.75
282.819	86.75
283.051	85.75
283.282	88.75
283.513	89.75
283.745	78.75
283.976	66.75
284.207	82.75
284.439	79.75
284.67	92.75
284.901	84.75
285.132	92.75
285.364	81.75
285.595	89.75
285.826	88.75
286.057	92.75
286.288	83.75
286.52	94.75
286.751	67.75
286.982	81.75
287.213	96.75
287.444	93.75
287.675	87.75
287.906	79.75
288.138	89.75
288.369	82.75
288.6	91.75
288.831	74.75
289.062	88.75
289.293	86.75
289.524	84.75
289.755	94.75
289.986	97.75
290.217	86.75
290.448	77.75
290.679	82.75
290.91	68.75
291.141	97.75
291.371	79.75
291.602	80.75
291.833	96.75
292.064	89.75
292.295	86.75
292.526	86.75
292.757	90.75
292.987	89.75
293.218	74.75
293.449	79.75
293.68	81.75
293.91	90.75
294.141	83.75
294.372	76.75
294.603	80.75
294.833	97.75
295.064	85.75
295.295	80.75
295.525	86.75
295.756	87.75
295.987	87.75
296.217	82.75
296.448	85.75
296.679	83.75
296.909	79.75
297.14	74.75
297.37	82.75
297.601	79.75
297.831	87.75
298.062	85.75
298.292	70.75
298.523	89.75
298.753	80.75
298.984	83.75
299.214	82.75
299.445	84.75
299.675	75.75
299.905	70.75
300.136	92.75
300.366	89.75
300.597	84.75
300.827	93.75
301.057	83.75
301.288	85.75
301.518	82.75
301.748	85.75
301.979	81.75
302.209	77.75
302.439	85.75
302.669	84.75
302.9	77.75
303.13	79.75
303.36	86.75
303.59	77.75
303.82	74.75
304.051	87.75
304.281	93.75
304.511	90.75
304.741	81.75
304.971	83.75
305.201	94.75
305.431	81.75
305.661	89.75
305.891	77.75
306.121	91.75
306.352	79.75
306.582	101.75
306.812	85.75
307.042	63.75
307.272	92.75
307.502	72.75
307.731	85.75
307.961	85.75
308.191	82.75
308.421	78.75
308.651	84.75
308.881	86.75
309.111	85.75
309.341	79.75
309.571	84.75
309.8	84.75
310.03	86.75
310.26	93.75
310.49	84.75
310.72	87.75
310.949	74.75
311.179	86.75
311.409	78.75
311.639	102.75
311.868	85.75
312.098	84.75
312.328	86.75
312.557	91.75
312.787	69.75
313.017	72.75
313.246	82.75
313.476	79.75
313.706	90.75
313.935	83.75
314.165	76.75
314.394	93.75
314.624	78.75
314.853	88.75
315.083	91.75
315.312	80.75
315.542	81.75
315.771	76.75
316.001	66.75
316.23	73.75
316.46	87.75
316.689	84.75
316.919	76.75
317.148	79.75
317.377	72.75
317.607	81.75
317.836	92.75
318.065	80.75
318.295	74.75
318.524	86.75
318.753	80.75
318.983	111.75
319.212	93.75
319.441	77.75
319.67	90.75
319.9	87.75
320.129	85.75
320.358	78.75
320.587	92.75
320.816	71.75
321.046	76.75
321.275	94.75
321.504	80.75
321.733	90.75
321.962	93.75
322.191	80.75
322.42	85.75
322.649	91.75
322.878	88.75
323.108	81.75
323.337	103.75
323.566	82.75
323.795	80.75
324.024	74.75
324.253	88.75
324.482	101.75
324.71	92.75
324.939	93.75
325.168	80.75
325.397	95.75
325.626	88.75
325.855	96.75
326.084	71.75
326.313	63.75
326.542	73.75
326.77	75.75
326.999	86.75
327.228	84.75
327.457	83.75
327.686	77.75
327.914	78.75
328.143	95.75
328.372	76.75
328.6	78.75
328.829	62.75
329.058	82.75
329.287	77.75
329.515	70.75
329.744	85.75
329.972	79.75
330.201	69.75
330.43	89.75
330.658	82.75
330.887	92.75
331.115	80.75
331.344	93.75
331.572	83.75
331.801	80.75
332.03	83.75
332.258	88.75
332.486	80.75
332.715	91.75
332.943	77.75
333.172	80.75
333.4	84.75
333.629	81.75
333.857	86.75
334.085	80.75
334.314	80.75
334.542	91.75
334.771	83.75
334.999	80.75
335.227	82.75
335.455	77.75
335.684	66.75
335.912	67.75
336.14	69.75
336.369	74.75
336.597	83.75
336.825	76.75
337.053	75.75
337.281	73.75
337.51	89.75
337.738	77.75
337.966	66.75
338.194	90.75
338.422	78.75
338.65	84.75
338.878	84.75
339.106	86.75
339.334	71.75
339.562	80.75
339.79	80.75
340.018	79.75
340.246	79.75
340.474	87.75
340.702	78.75
340.93	80.75
341.158	78.75
341.386	79.75
341.614	85.75
341.842	90.75
342.07	90.75
342.298	93.75
342.526	83.75
342.754	73.75
342.981	69.75
343.209	92.75
343.437	66.75
343.665	87.75
343.893	68.75
344.12	87.75
344.348	71.75
344.576	58.75
344.804	76.75
345.031	85.75
345.259	79.75
345.487	83.75
345.714	72.75
345.942	74.75
346.17	87.75
346.397	82.75
346.625	68.75
346.853	84.75
347.08	69.75
347.308	68.75
347.535	74.75
347.763	67.75
347.99	75.75
348.218	79.75
348.445	72.75
348.673	74.75
348.9	109.75
349.128	75.75
349.355	85.75
349.583	73.75
349.81	79.75
350.037	101.75
350.265	89.75
350.492	97.75
350.72	91.75
350.947	73.75
351.174	85.75
351.402	90.75
351.629	81.75
351.856	80.75
352.083	79.75
352.311	68.75
352.538	82.75
352.765	74.75
352.992	77.75
353.22	94.75
353.447	71.75
353.674	74.75
353.901	77.75
354.128	82.75
354.355	71.75
354.583	76.75
354.81	84.75
355.037	74.75
355.264	79.75
355.491	80.75
355.718	79.75
355.945	75.75
356.172	82.75
356.399	84.75
356.626	75.75
356.853	80.75
357.08	76.75
357.307	88.75
357.534	92.75
357.761	78.75
357.988	74.75
358.215	76.75
358.441	92.75
358.668	84.75
358.895	77.75
359.122	82.75
359.349	80.75
359.576	86.75
359.802	82.75
360.029	85.75
360.256	71.75
360.483	70.75
360.709	74.75
360.936	78.75
361.163	84.75
361.39	81.75
361.616	78.75
361.843	80.75
362.07	93.75
362.296	100.75
362.523	97.75
362.749	80.75
362.976	82.75
363.203	82.75
363.429	79.75
363.656	76.75
363.882	90.75
364.109	86.75
364.335	76.75
364.562	87.75
364.788	85.75
365.015	89.75
365.241	84.75
365.468	74.75
365.694	79.75
365.92	79.75
366.147	86.75
366.373	79.75
366.599	79.75
366.826	78.75
367.052	80.75
367.278	75.75
367.505	82.75
367.731	86.75
367.957	84.75
368.184	80.75
368.41	94.75
368.636	89.75
368.862	74.75
369.089	97.75
369.315	80.75
369.541	74.75
369.767	80.75
369.993	79.75
370.219	81.75
370.445	80.75
370.672	68.75
370.898	93.75
371.124	97.75
371.35	90.75
371.576	83.75
371.802	77.75
372.028	84.75
372.254	96.75
372.48	68.75
372.706	82.75
372.932	81.75
373.158	75.75
373.384	83.75
373.61	85.75
373.835	93.75
374.061	81.75
374.287	84.75
374.513	78.75
374.739	95.75
374.965	87.75
375.191	75.75
375.416	80.75
375.642	63.75
375.868	70.75
376.094	82.75
376.319	95.75
376.545	80.75
376.771	72.75
376.997	84.75
377.222	85.75
377.448	87.75
377.674	87.75
377.899	94.75
378.125	79.75
378.35	79.75
378.576	92.75
378.802	82.75
379.027	86.75
379.253	90.75
379.478	88.75
379.704	85.75
379.929	81.75
380.155	63.75
380.38	85.75
380.606	97.75
380.831	101.75
381.057	78.75
381.282	99.75
381.507	88.75
381.733	73.75
381.958	65.75
382.184	72.75
382.409	96.75
382.634	86.75
382.86	83.75
383.085	79.75
383.31	106.75
383.535	76.75
383.761	84.75
383.986	99.75
384.211	91.75
384.436	78.75
384.662	91.75
384.887	77.75
385.112	86.75
385.337	80.75
385.562	88.75
385.787	92.75
386.013	109.75
386.238	87.75
386.463	76.75
386.688	81.75
386.913	70.75
387.138	76.75
387.363	78.75
387.588	95.75
387.813	77.75
388.038	76.75
388.263	83.75
388.488	97.75
388.713	69.75
388.938	88.75
389.163	80.75
389.387	83.75
389.612	81.75
389.837	79.75
390.062	85.75
390.287	97.75
390.512	102.75
390.736	79.75
390.961	85.75
391.186	85.75
391.411	71.75
391.636	83.75
391.86	80.75
392.085	82.75
392.31	77.75
392.534	82.75
392.759	80.75
392.984	94.75
393.208	72.75
393.433	92.75
393.658	81.75
393.882	73.75
394.107	74.75
394.331	95.75
394.556	98.75
394.78	90.75
395.005	80.75
395.229	85.75
395.454	94.75
395.678	81.75
395.903	88.75
396.127	87.75
396.352	88.75
396.576	81.75
396.801	80.75
397.025	93.75
397.249	78.75
397.474	88.75
397.698	79.75
397.922	90.75
398.147	87.75
398.371	85.75
398.595	82.75
398.82	99.75
399.044	81.75
399.268	86.75
399.492	85.75
399.717	72.75
399.941	92.75
400.165	78.75
400.389	83.75
400.613	81.75
400.837	80.75
401.062	80.75
401.286	89.75
401.51	93.75
401.734	70.75
401.958	93.75
402.182	80.75
402.406	98.75
402.63	86.75
402.854	83.75
403.078	73.75
403.302	79.75
403.526	90.75
403.75	93.75
403.974	72.75
404.198	78.75
404.422	89.75
404.645	94.75
404.869	94.75
405.093	91.75
405.317	90.75
405.541	81.75
405.765	96.75
405.988	79.75
406.212	70.75
406.436	99.75
406.66	86.75
406.883	89.75
407.107	84.75
407.331	96.75
407.555	77.75
407.778	84.75
408.002	69.75
408.226	90.75
408.449	91.75
408.673	92.75
408.896	87.75
409.12	87.75
409.344	91.75
409.567	90.75
409.791	78.75
410.014	85.75
410.238	93.75
410.461	81.75
410.685	85.75
410.908	85.75
411.132	85.75
411.355	89.75
411.578	96.75
411.802	102.75
412.025	77.75
412.249	87.75
412.472	100.75
412.695	90.75
412.919	88.75
413.142	74.75
413.365	77.75
413.589	80.75
413.812	93.75
414.035	93.75
414.258	82.75
414.482	99.75
414.705	94.75
414.928	91.75
415.151	89.75
415.374	78.75
415.597	92.75
415.821	92.75
416.044	80.75
416.267	80.75
416.49	94.75
416.713	85.75
416.936	99.75
417.159	93.75
417.382	81.75
417.605	95.75
417.828	89.75
418.051	80.75
418.274	90.75
418.497	85.75
418.72	95.75
418.943	98.75
419.166	99.75
419.389	84.75
419.611	83.75
419.834	100.75
420.057	89.75
420.28	91.75
420.503	98.75
420.726	98.75
420.948	90.75
421.171	90.75
421.394	97.75
421.617	95.75
421.839	96.75
422.062	100.75
422.285	89.75
422.507	98.75
422.73	88.75
422.953	103.75
423.175	99.75
423.398	89.75
423.621	92.75
423.843	104.75
424.066	77.75
424.288	100.75
424.511	78.75
424.733	105.75
424.956	80.75
425.178	93.75
425.401	89.75
425.623	96.75
425.846	90.75
426.068	89.75
426.291	77.75
426.513	100.75
426.735	82.75
426.958	95.75
427.18	70.75
427.402	95.75
427.625	70.75
427.847	87.75
428.069	102.75
428.292	101.75
428.514	89.75
428.736	88.75
428.958	82.75
429.181	85.75
429.403	87.75
429.625	90.75
429.847	94.75
430.069	90.75
430.292	86.75
430.514	84.75
430.736	85.75
430.958	94.75
431.18	77.75
431.402	76.75
431.624	88.75
431.846	88.75
432.068	79.75
432.29	73.75
432.512	85.75
432.734	98.75
432.956	91.75
433.178	108.75
433.4	80.75
433.622	74.75
433.844	89.75
434.066	86.75
434.287	86.75
434.509	90.75
434.731	78.75
434.953	70.75
435.175	95.75
435.397	100.75
435.618	88.75
435.84	95.75
436.062	91.75
436.284	77.75
436.505	77.75
436.727	104.75
436.949	95.75
437.17	102.75
437.392	86.75
437.614	108.75
437.835	80.75
438.057	78.75
438.278	72.75
438.5	96.75
438.721	89.75
438.943	93.75
439.165	103.75
439.386	103.75
439.608	82.75
439.829	89.75
440.05	92.75
440.272	94.75
440.493	89.75
440.715	106.75
440.936	97.75
441.158	88.75
441.379	89.75
441.6	86.75
441.822	105.75
442.043	97.75
442.264	104.75
442.486	80.75
442.707	97.75
442.928	98.75
443.149	86.75
443.371	88.75
443.592	108.75
443.813	89.75
444.034	93.75
444.255	96.75
444.476	96.75
444.698	83.75
444.919	91.75
445.14	221.75
445.361	151.75
445.582	95.75
445.803	100.75
446.024	97.75
446.245	101.75
446.466	104.75
446.687	96.75
446.908	109.75
447.129	103.75
447.35	109.75
447.571	102.75
447.792	102.75
448.013	101.75
448.234	103.75
448.455	97.75
448.675	89.75
448.896	92.75
449.117	85.75
449.338	87.75
449.559	87.75
449.779	106.75
450	103.75
450.221	98.75
450.442	84.75
450.662	97.75
450.883	81.75
451.104	108.75
451.324	75.75
451.545	102.75
451.766	90.75
451.986	88.75
452.207	92.75
452.428	86.75
452.648	93.75
452.869	95.75
453.089	91.75
453.31	77.75
453.53	90.75
453.751	92.75
453.971	80.75
454.192	85.75
454.412	78.75
454.633	89.75
454.853	91.75
455.073	85.75
455.294	86.75
455.514	97.75
455.734	86.75
455.955	81.75
456.175	95.75
456.395	78.75
456.616	103.75
456.836	92.75
457.056	81.75
457.276	95.75
457.497	86.75
457.717	94.75
457.937	89.75
458.157	89.75
458.377	89.75
458.598	89.75
458.818	81.75
459.038	68.75
459.258	73.75
459.478	89.75
459.698	78.75
459.918	72.75
460.138	92.75
460.358	92.75
460.578	91.75
460.798	80.75
461.018	93.75
461.238	84.75
461.458	89.75
461.678	85.75
461.898	85.75
462.118	98.75
462.338	93.75
462.558	84.75
462.777	66.75
462.997	70.75
463.217	92.75
463.437	96.75
463.657	84.75
463.876	88.75
464.096	88.75
464.316	82.75
464.536	75.75
464.755	93.75
464.975	89.75
465.195	89.75
465.414	96.75
465.634	93.75
465.854	88.75
466.073	87.75
466.293	78.75
466.512	76.75
466.732	100.75
466.951	90.75
467.171	102.75
467.391	96.75
467.61	96.75
467.829	89.75
468.049	96.75
468.268	86.75
468.488	92.75
468.707	105.75
468.927	88.75
469.146	99.75
469.365	106.75
469.585	101.75
469.804	96.75
470.023	102.75
470.243	107.75
470.462	93.75
470.681	97.75
470.901	100.75
471.12	100.75
471.339	97.75
471.558	95.75
471.777	80.75
471.997	105.75
472.216	85.75
472.435	75.75
472.654	81.75
472.873	81.75
473.092	102.75
473.311	69.75
473.53	94.75
473.749	83.75
473.968	92.75
474.187	109.75
474.406	88.75
474.625	92.75
474.844	97.75
475.063	89.75
475.282	94.75
475.501	89.75
475.72	92.75
475.939	95.75
476.158	90.75
476.377	81.75
476.596	86.75
476.814	97.75
477.033	96.75
477.252	87.75
477.471	85.75
477.69	95.75
477.908	85.75
478.127	103.75
478.346	98.75
478.564	99.75
478.783	111.75
479.002	100.75
479.22	79.75
479.439	102.75
479.658	84.75
479.876	95.75
480.095	79.75
480.313	91.75
480.532	93.75
480.751	86.75
480.969	82.75
481.188	73.75
481.406	78.75
481.624	71.75
481.843	77.75
482.061	81.75
482.28	83.75
482.498	90.75
482.717	86.75
482.935	82.75
483.153	99.75
483.372	102.75
483.59	99.75
483.808	105.75
484.027	93.75
484.245	83.75
484.463	103.75
484.681	97.75
484.9	90.75
485.118	105.75
485.336	90.75
485.554	85.75
485.772	79.75
485.99	93.75
486.209	89.75
486.427	88.75
486.645	78.75
486.863	82.75
487.081	97.75
487.299	91.75
487.517	92.75
487.735	91.75
487.953	119.75
488.171	112.75
488.389	115.75
488.607	96.75
488.825	113.75
489.043	105.75
489.261	85.75
489.479	100.75
489.696	103.75
489.914	94.75
490.132	96.75
490.35	97.75
490.568	108.75
490.786	100.75
491.003	113.75
491.221	111.75
491.439	118.75
491.657	109.75
491.874	118.75
492.092	120.75
492.31	123.75
492.527	126.75
492.745	129.75
492.963	120.75
493.18	112.75
493.398	110.75
493.615	110.75
493.833	111.75
494.05	109.75
494.268	116.75
494.485	100.75
494.703	118.75
494.92	108.75
495.138	103.75
495.355	113.75
495.573	112.75
495.79	118.75
496.008	114.75
496.225	105.75
496.442	103.75
496.66	109.75
496.877	98.75
497.094	108.75
497.312	106.75
497.529	88.75
497.746	115.75
497.963	91.75
498.181	103.75
498.398	92.75
498.615	103.75
498.832	83.75
499.049	95.75
499.267	101.75
499.484	82.75
499.701	102.75
499.918	89.75
500.135	104.75
500.352	84.75
500.569	108.75
500.786	105.75
501.003	93.75
501.22	92.75
501.437	95.75
501.654	84.75
501.871	102.75
502.088	94.75
502.305	98.75
502.522	110.75
502.739	99.75
502.956	85.75
503.172	88.75
503.389	87.75
503.606	86.75
503.823	86.75
504.04	87.75
504.256	88.75
504.473	89.75
504.69	98.75
504.907	99.75
505.123	96.75
505.34	78.75
505.557	99.75
505.773	110.75
505.99	96.75
506.207	89.75
506.423	92.75
506.64	78.75
506.856	85.75
507.073	93.75
507.289	80.75
507.506	85.75
507.722	84.75
507.939	105.75
508.155	83.75
508.372	92.75
508.588	82.75
508.805	99.75
509.021	89.75
509.238	93.75
509.454	74.75
509.67	86.75
509.887	86.75
510.103	82.75
510.319	67.75
510.536	73.75
510.752	79.75
510.968	84.75
511.184	72.75
511.401	97.75
511.617	78.75
511.833	82.75
512.049	88.75
512.265	90.75
512.481	98.75
512.698	73.75
512.914	82.75
513.13	78.75
513.346	99.75
513.562	76.75
513.778	85.75
513.994	81.75
514.21	84.75
514.426	72.75
514.642	78.75
514.858	83.75
515.074	88.75
515.29	90.75
515.506	77.75
515.721	73.75
515.937	73.75
516.153	80.75
516.369	79.75
516.585	78.75
516.801	82.75
517.016	79.75
517.232	87.75
517.448	92.75
517.664	73.75
517.879	57.75
518.095	77.75
518.311	72.75
518.527	72.75
518.742	85.75
518.958	93.75
519.173	80.75
519.389	84.75
519.605	88.75
519.82	94.75
520.036	81.75
520.251	80.75
520.467	72.75
520.682	68.75
520.898	97.75
521.113	86.75
521.329	89.75
521.544	79.75
521.76	92.75
521.975	84.75
522.19	69.75
522.406	93.75
522.621	87.75
522.836	74.75
523.052	93.75
523.267	92.75
523.482	92.75
523.698	81.75
523.913	88.75
524.128	93.75
524.343	89.75
524.559	96.75
524.774	90.75
524.989	101.75
525.204	94.75
525.419	96.75
525.634	93.75
525.849	100.75
526.064	96.75
526.28	98.75
526.495	81.75
526.71	67.75
526.925	83.75
527.14	94.75
527.355	82.75
527.57	80.75
527.785	92.75
527.999	85.75
528.214	93.75
528.429	86.75
528.644	93.75
528.859	104.75
529.074	91.75
529.289	102.75
529.503	115.75
529.718	101.75
529.933	98.75
530.148	87.75
530.363	82.75
530.577	84.75
530.792	75.75
531.007	79.75
531.221	85.75
531.436	76.75
531.651	79.75
531.865	89.75
532.08	72.75
532.295	78.75
532.509	86.75
532.724	85.75
532.938	78.75
533.153	91.75
533.367	92.75
533.582	89.75
533.796	88.75
534.011	69.75
534.225	87.75
534.44	86.75
534.654	84.75
534.868	93.75
535.083	83.75
535.297	99.75
535.511	85.75
535.726	95.75
535.94	94.75
536.154	94.75
536.369	79.75
536.583	87.75
536.797	92.75
537.011	82.75
537.225	75.75
537.44	74.75
537.654	88.75
537.868	78.75
538.082	92.75
538.296	98.75
538.51	86.75
538.724	89.75
538.938	77.75
539.153	93.75
539.367	93.75
539.581	69.75
539.795	89.75
540.009	90.75
540.222	98.75
540.436	91.75
540.65	99.75
540.864	93.75
541.078	98.75
541.292	83.75
541.506	103.75
541.72	109.75
541.934	106.75
542.147	124.75
542.361	108.75
542.575	93.75
542.789	108.75
543.002	101.75
543.216	80.75
543.43	95.75
543.644	106.75
543.857	102.75
544.071	95.75
544.285	101.75
544.498	122.75
544.712	109.75
544.925	109.75
545.139	101.75
545.352	99.75
545.566	113.75
545.779	108.75
545.993	109.75
546.206	109.75
546.42	112.75
546.633	105.75
546.847	116.75
547.06	106.75
547.274	116.75
547.487	118.75
547.7	114.75
547.914	112.75
548.127	114.75
548.34	109.75
548.554	115.75
548.767	107.75
548.98	108.75
549.193	112.75
549.407	102.75
549.62	100.75
549.833	108.75
550.046	110.75
550.259	113.75
550.473	106.75
550.686	97.75
550.899	93.75
551.112	100.75
551.325	83.75
551.538	89.75
551.751	101.75
551.964	95.75
552.177	85.75
552.39	105.75
552.603	98.75
552.816	102.75
553.029	118.75
553.242	110.75
553.455	97.75
553.667	112.75
553.88	107.75
554.093	110.75
554.306	98.75
554.519	99.75
554.732	113.75
554.944	112.75
555.157	110.75
555.37	109.75
555.583	93.75
555.795	90.75
556.008	97.75
556.221	82.75
556.433	116.75
556.646	106.75
556.859	103.75
557.071	111.75
557.284	94.75
557.496	112.75
557.709	104.75
557.921	105.75
558.134	96.75
558.346	103.75
558.559	98.75
558.771	97.75
558.984	81.75
559.196	97.75
559.409	104.75
559.621	109.75
559.833	106.75
560.046	90.75
560.258	98.75
560.47	104.75
560.683	109.75
560.895	108.75
561.107	103.75
561.32	97.75
561.532	104.75
561.744	108.75
561.956	91.75
562.168	108.75
562.381	94.75
562.593	98.75
562.805	98.75
563.017	91.75
563.229	89.75
563.441	97.75
563.653	88.75
563.865	107.75
564.077	93.75
564.289	107.75
564.501	101.75
564.713	91.75
564.925	83.75
565.137	101.75
565.349	93.75
565.561	96.75
565.773	89.75
565.985	96.75
566.197	108.75
566.408	87.75
566.62	89.75
566.832	98.75
567.044	94.75
567.255	101.75
567.467	99.75
567.679	94.75
567.891	91.75
568.102	96.75
568.314	82.75
568.526	89.75
568.737	85.75
568.949	86.75
569.161	84.75
569.372	84.75
569.584	79.75
569.795	86.75
570.007	81.75
570.218	89.75
570.43	80.75
570.641	83.75
570.853	94.75
571.064	93.75
571.276	84.75
571.487	97.75
571.698	79.75
571.91	83.75
572.121	97.75
572.333	88.75
572.544	89.75
572.755	81.75
572.966	84.75
573.178	85.75
573.389	99.75
573.6	93.75
573.811	85.75
574.023	74.75
574.234	92.75
574.445	87.75
574.656	88.75
574.867	88.75
575.078	84.75
575.289	91.75
575.501	96.75
575.712	81.75
575.923	86.75
576.134	78.75
576.345	87.75
576.556	85.75
576.767	93.75
576.978	83.75
577.188	85.75
577.399	74.75
577.61	84.75
577.821	93.75
578.032	89.75
578.243	90.75
578.454	102.75
578.665	77.75
578.875	75.75
579.086	87.75
579.297	94.75
579.508	85.75
579.718	74.75
579.929	96.75
580.14	92.75
580.35	84.75
580.561	88.75
580.772	83.75
580.982	98.75
581.193	84.75
581.403	86.75
581.614	84.75
581.825	87.75
582.035	68.75
582.246	86.75
582.456	81.75
582.667	84.75
582.877	82.75
583.087	71.75
583.298	88.75
583.508	80.75
583.719	80.75
583.929	88.75
584.139	79.75
584.35	90.75
584.56	89.75
584.77	81.75
584.981	71.75
585.191	84.75
585.401	93.75
585.611	80.75
585.821	93.75
586.032	78.75
586.242	77.75
586.452	86.75
586.662	86.75
586.872	74.75
587.082	89.75
587.292	77.75
587.502	64.75
587.713	86.75
587.923	88.75
588.133	84.75
588.343	82.75
588.553	86.75
588.762	89.75
588.972	84.75
589.182	75.75
589.392	93.75
589.602	70.75
589.812	67.75
590.022	76.75
590.232	80.75
590.441	89.75
590.651	86.75
590.861	75.75
591.071	95.75
591.281	97.75
591.49	92.75
591.7	69.75
591.91	96.75
592.119	74.75
592.329	86.75
592.539	88.75
592.748	75.75
592.958	88.75
593.167	92.75
593.377	76.75
593.587	87.75
593.796	80.75
594.006	78.75
594.215	92.75
594.424	81.75
594.634	83.75
594.843	78.75
595.053	99.75
595.262	80.75
595.472	88.75
595.681	79.75
595.89	95.75
596.1	89.75
596.309	96.75
596.518	86.75
596.727	83.75
596.937	69.75
597.146	85.75
597.355	94.75
597.564	82.75
597.774	79.75
597.983	91.75
598.192	77.75
598.401	76.75
598.61	89.75
598.819	80.75
599.028	80.75
599.237	92.75
599.446	100.75
599.655	90.75
599.864	82.75
600.073	87.75
600.282	98.75
600.491	100.75
600.7	85.75
600.909	86.75
601.118	87.75
601.327	85.75
601.536	88.75
601.745	79.75
601.953	91.75
602.162	84.75
602.371	97.75
602.58	92.75
602.789	86.75
602.997	88.75
603.206	90.75
603.415	99.75
603.623	99.75
603.832	88.75
604.041	83.75
604.249	84.75
604.458	88.75
604.666	94.75
604.875	80.75
605.084	84.75
605.292	91.75
605.501	84.75
605.709	88.75
605.918	85.75
606.126	100.75
606.334	92.75
606.543	88.75
606.751	78.75
606.96	96.75
607.168	96.75
607.376	89.75
607.585	115.75
607.793	102.75
608.001	90.75
608.21	84.75
608.418	85.75
608.626	87.75
608.834	98.75
609.043	89.75
609.251	104.75
609.459	95.75
609.667	98.75
609.875	93.75
610.083	86.75
610.291	85.75
610.499	90.75
610.707	103.75
610.916	78.75
611.124	90.75
611.332	110.75
611.54	94.75
611.748	97.75
611.955	96.75
612.163	94.75
612.371	90.75
612.579	89.75
612.787	93.75
612.995	94.75
613.203	99.75
613.411	90.75
613.618	87.75
613.826	80.75
614.034	98.75
614.242	108.75
614.449	88.75
614.657	97.75
614.865	95.75
615.072	92.75
615.28	87.75
615.488	88.75
615.695	89.75
615.903	90.75
616.111	92.75
616.318	88.75
616.526	83.75
616.733	89.75
616.941	91.75
617.148	93.75
617.356	94.75
617.563	85.75
617.771	81.75
617.978	86.75
618.185	91.75
618.393	105.75
618.6	88.75
618.807	91.75
619.015	104.75
619.222	87.75
619.429	82.75
619.637	103.75
619.844	74.75
620.051	89.75
620.258	102.75
620.466	93.75
620.673	89.75
620.88	92.75
621.087	81.75
621.294	96.75
621.501	95.75
621.708	84.75
621.915	81.75
622.122	81.75
622.329	83.75
622.536	98.75
622.743	97.75
622.95	88.75
623.157	86.75
623.364	95.75
623.571	77.75
623.778	76.75
623.985	94.75
624.192	80.75
624.399	79.75
624.606	92.75
624.812	95.75
625.019	77.75
625.226	87.75
625.433	85.75
625.639	71.75
625.846	83.75
626.053	81.75
626.259	77.75
626.466	72.75
626.673	74.75
626.879	79.75
627.086	89.75
627.293	80.75
627.499	96.75
627.706	77.75
627.912	93.75
628.119	97.75
628.325	85.75
628.532	94.75
628.738	98.75
628.945	79.75
629.151	78.75
629.357	93.75
629.564	87.75
629.77	90.75
629.976	100.75
630.183	94.75
630.389	87.75
630.595	91.75
630.802	84.75
631.008	88.75
631.214	105.75
631.42	94.75
631.627	89.75
631.833	81.75
632.039	94.75
632.245	96.75
632.451	82.75
632.657	96.75
632.863	89.75
633.069	77.75
633.275	94.75
633.481	96.75
633.688	91.75
633.893	79.75
634.099	82.75
634.305	87.75
634.511	88.75
634.717	85.75
634.923	82.75
635.129	79.75
635.335	80.75
635.541	86.75
635.747	83.75
635.952	93.75
636.158	80.75
636.364	73.75
636.57	73.75
636.775	87.75
636.981	80.75
637.187	79.75
637.392	103.75
637.598	89.75
637.804	84.75
638.009	89.75
638.215	74.75
638.421	99.75
638.626	89.75
638.832	98.75
639.037	84.75
639.243	76.75
639.448	81.75
639.654	95.75
639.859	77.75
640.065	79.75
640.27	106.75
640.475	100.75
640.681	85.75
640.886	92.75
641.091	74.75
641.297	88.75
641.502	82.75
641.707	84.75
641.913	93.75
642.118	78.75
642.323	79.75
642.528	89.75
642.733	85.75
642.939	92.75
643.144	70.75
643.349	84.75
643.554	79.75
643.759	91.75
643.964	86.75
644.169	73.75
644.374	96.75
644.579	86.75
644.784	78.75
644.989	85.75
645.194	89.75
645.399	89.75
645.604	84.75
645.809	89.75
646.014	89.75
646.219	82.75
646.423	86.75
646.628	87.75
646.833	89.75
647.038	89.75
647.243	81.75
647.447	82.75
647.652	83.75
647.857	84.75
648.062	94.75
648.266	78.75
648.471	91.75
648.676	80.75
648.88	72.75
649.085	86.75
649.289	62.75
649.494	83.75
649.698	64.75
649.903	84.75
650.107	88.75
650.312	78.75
650.516	85.75
650.721	85.75
650.925	91.75
651.13	81.75
651.334	86.75
651.539	84.75
651.743	83.75
651.947	89.75
652.152	86.75
652.356	81.75
652.56	79.75
652.764	92.75
652.969	77.75
653.173	81.75
653.377	84.75
653.581	81.75
653.785	98.75
653.99	84.75
654.194	90.75
654.398	82.75
654.602	75.75
654.806	89.75
655.01	81.75
655.214	81.75
655.418	81.75
655.622	86.75
655.826	88.75
656.03	95.75
656.234	74.75
656.438	78.75
656.642	86.75
656.846	88.75
657.049	65.75
657.253	88.75
657.457	80.75
657.661	98.75
657.865	96.75
658.068	83.75
658.272	94.75
658.476	92.75
658.68	81.75
658.883	84.75
659.087	87.75
659.291	77.75
659.494	84.75
659.698	86.75
659.901	83.75
660.105	79.75
660.309	82.75
660.512	88.75
660.716	80.75
660.919	73.75
661.123	90.75
661.326	78.75
661.53	67.75
661.733	88.75
661.936	91.75
662.14	74.75
662.343	65.75
662.546	87.75
662.75	85.75
662.953	85.75
663.156	81.75
663.36	74.75
663.563	93.75
663.766	74.75
663.969	69.75
664.173	74.75
664.376	81.75
664.579	81.75
664.782	94.75
664.985	81.75
665.188	78.75
665.391	90.75
665.594	69.75
665.797	79.75
666	94.75
666.203	83.75
666.406	64.75
666.609	82.75
666.812	71.75
667.015	79.75
667.218	73.75
667.421	76.75
667.624	90.75
667.827	67.75
668.03	80.75
668.232	94.75
668.435	93.75
668.638	73.75
668.841	86.75
669.043	75.75
669.246	72.75
669.449	81.75
669.651	80.75
669.854	64.75
670.057	68.75
670.259	68.75
670.462	77.75
670.665	65.75
670.867	92.75
671.07	75.75
671.272	81.75
671.475	73.75
671.677	90.75
671.88	75.75
672.082	66.75
672.284	98.75
672.487	82.75
672.689	73.75
672.892	67.75
