Data from Location3.07152019.Energy5.Lamp.07192019.3%Agarose_HRD10591_15-17-21-269.txt Node
Date: Fri Jul 19 15:17:21 EDT 2019
User: cochatt
Spectrometer: HR+D1059
Trigger mode: 1
Integration Time (sec): 1.000000E-1
Scans to average: 1
Electric dark correction enabled: true
Nonlinearity correction enabled: false
Boxcar width: 0
XAxis mode: Wavelengths
Number of Pixels in Spectrum: 2048
>>>>>Begin Spectral Data<<<<<
223.165	-8.12
223.4	-8.12
223.635	-8.12
223.869	-25.12
224.104	-25.12
224.338	-9.12
224.573	-15.12
224.808	-13.12
225.042	-14.12
225.277	-7.12
225.511	-15.12
225.746	8.88
225.98	19.88
226.215	10.88
226.449	13.88
226.683	15.88
226.918	27.88
227.152	34.88
227.387	30.88
227.621	31.88
227.856	50.88
228.09	33.88
228.324	50.88
228.559	57.88
228.793	52.88
229.027	57.88
229.262	63.88
229.496	80.88
229.73	66.88
229.964	68.88
230.199	79.88
230.433	77.88
230.667	83.88
230.901	76.88
231.136	80.88
231.37	74.88
231.604	80.88
231.838	76.88
232.072	82.88
232.306	81.88
232.541	66.88
232.775	69.88
233.009	73.88
233.243	65.88
233.477	71.88
233.711	85.88
233.945	79.88
234.179	77.88
234.413	86.88
234.647	71.88
234.881	79.88
235.115	63.88
235.349	78.88
235.583	78.88
235.817	74.88
236.051	78.88
236.285	65.88
236.519	74.88
236.753	78.88
236.987	77.88
237.221	79.88
237.455	73.88
237.689	90.88
237.922	74.88
238.156	77.88
238.39	71.88
238.624	70.88
238.858	80.88
239.091	69.88
239.325	71.88
239.559	83.88
239.793	81.88
240.027	66.88
240.26	65.88
240.494	77.88
240.728	65.88
240.961	74.88
241.195	84.88
241.429	77.88
241.662	65.88
241.896	80.88
242.13	63.88
242.363	73.88
242.597	100.88
242.83	77.88
243.064	82.88
243.298	89.88
243.531	79.88
243.765	72.88
243.998	85.88
244.232	72.88
244.465	83.88
244.699	70.88
244.932	61.88
245.166	82.88
245.399	81.88
245.633	83.88
245.866	85.88
246.099	80.88
246.333	74.88
246.566	79.88
246.8	73.88
247.033	79.88
247.266	67.88
247.5	77.88
247.733	73.88
247.966	72.88
248.2	66.88
248.433	83.88
248.666	76.88
248.899	82.88
249.133	73.88
249.366	83.88
249.599	88.88
249.832	82.88
250.066	95.88
250.299	65.88
250.532	65.88
250.765	68.88
250.998	79.88
251.231	73.88
251.465	80.88
251.698	76.88
251.931	76.88
252.164	79.88
252.397	85.88
252.63	98.88
252.863	74.88
253.096	85.88
253.329	72.88
253.562	67.88
253.795	76.88
254.028	93.88
254.261	87.88
254.494	77.88
254.727	80.88
254.96	77.88
255.193	83.88
255.426	76.88
255.659	87.88
255.892	78.88
256.124	67.88
256.357	73.88
256.59	74.88
256.823	79.88
257.056	73.88
257.289	78.88
257.521	78.88
257.754	82.88
257.987	73.88
258.22	68.88
258.452	69.88
258.685	79.88
258.918	75.88
259.151	70.88
259.383	86.88
259.616	84.88
259.849	87.88
260.081	71.88
260.314	66.88
260.547	71.88
260.779	79.88
261.012	84.88
261.244	70.88
261.477	92.88
261.71	76.88
261.942	73.88
262.175	77.88
262.407	83.88
262.64	84.88
262.872	83.88
263.105	72.88
263.337	84.88
263.57	77.88
263.802	72.88
264.035	95.88
264.267	76.88
264.499	77.88
264.732	95.88
264.964	85.88
265.197	93.88
265.429	83.88
265.661	86.88
265.894	73.88
266.126	92.88
266.358	74.88
266.591	82.88
266.823	77.88
267.055	73.88
267.287	81.88
267.52	78.88
267.752	89.88
267.984	76.88
268.216	63.88
268.448	79.88
268.681	77.88
268.913	77.88
269.145	75.88
269.377	79.88
269.609	80.88
269.841	95.88
270.073	73.88
270.306	64.88
270.538	74.88
270.77	80.88
271.002	77.88
271.234	88.88
271.466	89.88
271.698	86.88
271.93	72.88
272.162	66.88
272.394	74.88
272.626	93.88
272.858	67.88
273.09	83.88
273.322	88.88
273.553	93.88
273.785	74.88
274.017	81.88
274.249	73.88
274.481	77.88
274.713	77.88
274.945	91.88
275.176	75.88
275.408	83.88
275.64	83.88
275.872	83.88
276.104	82.88
276.335	75.88
276.567	92.88
276.799	87.88
277.031	82.88
277.262	92.88
277.494	81.88
277.726	96.88
277.957	85.88
278.189	91.88
278.421	85.88
278.652	68.88
278.884	83.88
279.115	80.88
279.347	88.88
279.579	102.88
279.81	92.88
280.042	84.88
280.273	71.88
280.505	91.88
280.736	81.88
280.968	77.88
281.199	69.88
281.431	67.88
281.662	84.88
281.894	81.88
282.125	93.88
282.356	82.88
282.588	92.88
282.819	97.88
283.051	83.88
283.282	85.88
283.513	80.88
283.745	74.88
283.976	102.88
284.207	78.88
284.439	88.88
284.67	74.88
284.901	87.88
285.132	80.88
285.364	79.88
285.595	72.88
285.826	78.88
286.057	69.88
286.288	75.88
286.52	89.88
286.751	67.88
286.982	84.88
287.213	95.88
287.444	81.88
287.675	79.88
287.906	79.88
288.138	69.88
288.369	83.88
288.6	81.88
288.831	80.88
289.062	79.88
289.293	80.88
289.524	87.88
289.755	83.88
289.986	82.88
290.217	71.88
290.448	82.88
290.679	76.88
290.91	85.88
291.141	80.88
291.371	79.88
291.602	87.88
291.833	84.88
292.064	86.88
292.295	93.88
292.526	99.88
292.757	73.88
292.987	77.88
293.218	85.88
293.449	96.88
293.68	81.88
293.91	83.88
294.141	69.88
294.372	79.88
294.603	85.88
294.833	86.88
295.064	82.88
295.295	82.88
295.525	89.88
295.756	98.88
295.987	86.88
296.217	69.88
296.448	88.88
296.679	77.88
296.909	79.88
297.14	87.88
297.37	80.88
297.601	81.88
297.831	74.88
298.062	91.88
298.292	86.88
298.523	87.88
298.753	65.88
298.984	79.88
299.214	79.88
299.445	80.88
299.675	79.88
299.905	89.88
300.136	79.88
300.366	82.88
300.597	90.88
300.827	77.88
301.057	83.88
301.288	81.88
301.518	93.88
301.748	76.88
301.979	83.88
302.209	87.88
302.439	77.88
302.669	79.88
302.9	86.88
303.13	91.88
303.36	79.88
303.59	80.88
303.82	85.88
304.051	81.88
304.281	75.88
304.511	100.88
304.741	71.88
304.971	74.88
305.201	71.88
305.431	80.88
305.661	95.88
305.891	74.88
306.121	86.88
306.352	76.88
306.582	73.88
306.812	89.88
307.042	88.88
307.272	74.88
307.502	75.88
307.731	80.88
307.961	69.88
308.191	88.88
308.421	84.88
308.651	92.88
308.881	84.88
309.111	81.88
309.341	76.88
309.571	87.88
309.8	101.88
310.03	85.88
310.26	79.88
310.49	78.88
310.72	89.88
310.949	84.88
311.179	84.88
311.409	87.88
311.639	82.88
311.868	70.88
312.098	80.88
312.328	83.88
312.557	66.88
312.787	83.88
313.017	86.88
313.246	69.88
313.476	88.88
313.706	85.88
313.935	70.88
314.165	66.88
314.394	79.88
314.624	73.88
314.853	83.88
315.083	85.88
315.312	68.88
315.542	73.88
315.771	87.88
316.001	84.88
316.23	79.88
316.46	77.88
316.689	93.88
316.919	85.88
317.148	70.88
317.377	86.88
317.607	74.88
317.836	103.88
318.065	84.88
318.295	77.88
318.524	85.88
318.753	79.88
318.983	86.88
319.212	92.88
319.441	92.88
319.67	93.88
319.9	81.88
320.129	59.88
320.358	82.88
320.587	84.88
320.816	86.88
321.046	79.88
321.275	84.88
321.504	80.88
321.733	90.88
321.962	81.88
322.191	82.88
322.42	92.88
322.649	94.88
322.878	72.88
323.108	91.88
323.337	75.88
323.566	81.88
323.795	87.88
324.024	94.88
324.253	101.88
324.482	69.88
324.71	76.88
324.939	81.88
325.168	87.88
325.397	84.88
325.626	87.88
325.855	75.88
326.084	75.88
326.313	84.88
326.542	81.88
326.77	94.88
326.999	69.88
327.228	84.88
327.457	86.88
327.686	100.88
327.914	80.88
328.143	82.88
328.372	74.88
328.6	83.88
328.829	89.88
329.058	80.88
329.287	76.88
329.515	89.88
329.744	83.88
329.972	85.88
330.201	72.88
330.43	77.88
330.658	93.88
330.887	81.88
331.115	78.88
331.344	73.88
331.572	89.88
331.801	93.88
332.03	82.88
332.258	85.88
332.486	72.88
332.715	75.88
332.943	74.88
333.172	77.88
333.4	78.88
333.629	82.88
333.857	76.88
334.085	77.88
334.314	73.88
334.542	98.88
334.771	101.88
334.999	86.88
335.227	69.88
335.455	81.88
335.684	81.88
335.912	94.88
336.14	89.88
336.369	75.88
336.597	88.88
336.825	81.88
337.053	82.88
337.281	89.88
337.51	93.88
337.738	92.88
337.966	79.88
338.194	76.88
338.422	75.88
338.65	78.88
338.878	89.88
339.106	87.88
339.334	93.88
339.562	83.88
339.79	67.88
340.018	90.88
340.246	68.88
340.474	96.88
340.702	88.88
340.93	79.88
341.158	88.88
341.386	86.88
341.614	75.88
341.842	80.88
342.07	87.88
342.298	77.88
342.526	81.88
342.754	82.88
342.981	85.88
343.209	73.88
343.437	86.88
343.665	86.88
343.893	82.88
344.12	85.88
344.348	87.88
344.576	85.88
344.804	77.88
345.031	74.88
345.259	93.88
345.487	83.88
345.714	80.88
345.942	86.88
346.17	65.88
346.397	66.88
346.625	79.88
346.853	71.88
347.08	73.88
347.308	91.88
347.535	68.88
347.763	83.88
347.99	100.88
348.218	77.88
348.445	77.88
348.673	76.88
348.9	77.88
349.128	74.88
349.355	83.88
349.583	84.88
349.81	90.88
350.037	79.88
350.265	76.88
350.492	82.88
350.72	83.88
350.947	84.88
351.174	91.88
351.402	72.88
351.629	91.88
351.856	78.88
352.083	89.88
352.311	108.88
352.538	80.88
352.765	89.88
352.992	79.88
353.22	79.88
353.447	74.88
353.674	85.88
353.901	77.88
354.128	82.88
354.355	89.88
354.583	80.88
354.81	80.88
355.037	74.88
355.264	79.88
355.491	78.88
355.718	63.88
355.945	77.88
356.172	80.88
356.399	66.88
356.626	77.88
356.853	88.88
357.08	78.88
357.307	80.88
357.534	82.88
357.761	69.88
357.988	88.88
358.215	78.88
358.441	93.88
358.668	71.88
358.895	84.88
359.122	87.88
359.349	73.88
359.576	74.88
359.802	75.88
360.029	82.88
360.256	84.88
360.483	73.88
360.709	94.88
360.936	91.88
361.163	80.88
361.39	75.88
361.616	91.88
361.843	66.88
362.07	81.88
362.296	92.88
362.523	92.88
362.749	89.88
362.976	84.88
363.203	93.88
363.429	85.88
363.656	82.88
363.882	86.88
364.109	98.88
364.335	78.88
364.562	67.88
364.788	88.88
365.015	67.88
365.241	81.88
365.468	78.88
365.694	75.88
365.92	75.88
366.147	78.88
366.373	81.88
366.599	83.88
366.826	72.88
367.052	80.88
367.278	84.88
367.505	70.88
367.731	76.88
367.957	86.88
368.184	83.88
368.41	82.88
368.636	92.88
368.862	83.88
369.089	78.88
369.315	87.88
369.541	78.88
369.767	83.88
369.993	78.88
370.219	72.88
370.445	82.88
370.672	81.88
370.898	70.88
371.124	72.88
371.35	80.88
371.576	84.88
371.802	87.88
372.028	82.88
372.254	83.88
372.48	84.88
372.706	91.88
372.932	79.88
373.158	80.88
373.384	81.88
373.61	90.88
373.835	89.88
374.061	75.88
374.287	82.88
374.513	90.88
374.739	80.88
374.965	92.88
375.191	87.88
375.416	83.88
375.642	74.88
375.868	79.88
376.094	79.88
376.319	80.88
376.545	72.88
376.771	78.88
376.997	86.88
377.222	80.88
377.448	84.88
377.674	78.88
377.899	82.88
378.125	92.88
378.35	72.88
378.576	69.88
378.802	85.88
379.027	89.88
379.253	74.88
379.478	83.88
379.704	77.88
379.929	81.88
380.155	97.88
380.38	83.88
380.606	75.88
380.831	96.88
381.057	81.88
381.282	78.88
381.507	94.88
381.733	88.88
381.958	86.88
382.184	84.88
382.409	83.88
382.634	82.88
382.86	81.88
383.085	88.88
383.31	92.88
383.535	81.88
383.761	83.88
383.986	80.88
384.211	88.88
384.436	83.88
384.662	71.88
384.887	78.88
385.112	87.88
385.337	92.88
385.562	82.88
385.787	77.88
386.013	88.88
386.238	78.88
386.463	102.88
386.688	84.88
386.913	96.88
387.138	85.88
387.363	75.88
387.588	87.88
387.813	89.88
388.038	79.88
388.263	87.88
388.488	96.88
388.713	84.88
388.938	79.88
389.163	83.88
389.387	73.88
389.612	72.88
389.837	78.88
390.062	90.88
390.287	84.88
390.512	81.88
390.736	81.88
390.961	78.88
391.186	80.88
391.411	99.88
391.636	83.88
391.86	82.88
392.085	73.88
392.31	80.88
392.534	82.88
392.759	74.88
392.984	80.88
393.208	99.88
393.433	86.88
393.658	88.88
393.882	71.88
394.107	84.88
394.331	89.88
394.556	86.88
394.78	78.88
395.005	76.88
395.229	96.88
395.454	89.88
395.678	89.88
395.903	91.88
396.127	89.88
396.352	91.88
396.576	93.88
396.801	88.88
397.025	80.88
397.249	84.88
397.474	91.88
397.698	77.88
397.922	90.88
398.147	92.88
398.371	77.88
398.595	85.88
398.82	90.88
399.044	91.88
399.268	81.88
399.492	87.88
399.717	82.88
399.941	84.88
400.165	74.88
400.389	81.88
400.613	85.88
400.837	96.88
401.062	91.88
401.286	77.88
401.51	94.88
401.734	84.88
401.958	93.88
402.182	104.88
402.406	81.88
402.63	73.88
402.854	73.88
403.078	89.88
403.302	89.88
403.526	73.88
403.75	76.88
403.974	95.88
404.198	85.88
404.422	103.88
404.645	99.88
404.869	71.88
405.093	86.88
405.317	84.88
405.541	89.88
405.765	90.88
405.988	86.88
406.212	90.88
406.436	79.88
406.66	100.88
406.883	88.88
407.107	89.88
407.331	80.88
407.555	88.88
407.778	96.88
408.002	83.88
408.226	92.88
408.449	98.88
408.673	88.88
408.896	89.88
409.12	95.88
409.344	93.88
409.567	85.88
409.791	93.88
410.014	80.88
410.238	98.88
410.461	93.88
410.685	86.88
410.908	83.88
411.132	100.88
411.355	94.88
411.578	87.88
411.802	97.88
412.025	81.88
412.249	99.88
412.472	92.88
412.695	73.88
412.919	82.88
413.142	91.88
413.365	95.88
413.589	96.88
413.812	89.88
414.035	95.88
414.258	93.88
414.482	87.88
414.705	98.88
414.928	102.88
415.151	86.88
415.374	80.88
415.597	97.88
415.821	89.88
416.044	84.88
416.267	103.88
416.49	97.88
416.713	82.88
416.936	97.88
417.159	70.88
417.382	107.88
417.605	100.88
417.828	95.88
418.051	72.88
418.274	102.88
418.497	85.88
418.72	99.88
418.943	95.88
419.166	92.88
419.389	80.88
419.611	85.88
419.834	98.88
420.057	99.88
420.28	105.88
420.503	79.88
420.726	95.88
420.948	86.88
421.171	89.88
421.394	99.88
421.617	95.88
421.839	88.88
422.062	99.88
422.285	89.88
422.507	109.88
422.73	95.88
422.953	92.88
423.175	86.88
423.398	93.88
423.621	90.88
423.843	87.88
424.066	93.88
424.288	111.88
424.511	80.88
424.733	94.88
424.956	93.88
425.178	84.88
425.401	99.88
425.623	80.88
425.846	85.88
426.068	89.88
426.291	93.88
426.513	97.88
426.735	95.88
426.958	104.88
427.18	87.88
427.402	91.88
427.625	96.88
427.847	91.88
428.069	95.88
428.292	98.88
428.514	90.88
428.736	88.88
428.958	98.88
429.181	94.88
429.403	94.88
429.625	92.88
429.847	86.88
430.069	89.88
430.292	92.88
430.514	90.88
430.736	104.88
430.958	111.88
431.18	97.88
431.402	83.88
431.624	92.88
431.846	81.88
432.068	79.88
432.29	82.88
432.512	96.88
432.734	98.88
432.956	103.88
433.178	80.88
433.4	76.88
433.622	77.88
433.844	97.88
434.066	102.88
434.287	84.88
434.509	68.88
434.731	81.88
434.953	93.88
435.175	102.88
435.397	87.88
435.618	90.88
435.84	83.88
436.062	100.88
436.284	85.88
436.505	88.88
436.727	92.88
436.949	78.88
437.17	98.88
437.392	97.88
437.614	85.88
437.835	76.88
438.057	73.88
438.278	93.88
438.5	89.88
438.721	94.88
438.943	93.88
439.165	91.88
439.386	103.88
439.608	95.88
439.829	107.88
440.05	96.88
440.272	96.88
440.493	94.88
440.715	92.88
440.936	104.88
441.158	115.88
441.379	98.88
441.6	90.88
441.822	93.88
442.043	93.88
442.264	95.88
442.486	85.88
442.707	91.88
442.928	81.88
443.149	100.88
443.371	100.88
443.592	92.88
443.813	94.88
444.034	97.88
444.255	111.88
444.476	104.88
444.698	82.88
444.919	85.88
445.14	227.88
445.361	147.88
445.582	102.88
445.803	109.88
446.024	92.88
446.245	93.88
446.466	83.88
446.687	111.88
446.908	96.88
447.129	82.88
447.35	92.88
447.571	88.88
447.792	93.88
448.013	92.88
448.234	108.88
448.455	85.88
448.675	105.88
448.896	99.88
449.117	92.88
449.338	99.88
449.559	110.88
449.779	90.88
450	97.88
450.221	111.88
450.442	99.88
450.662	91.88
450.883	89.88
451.104	89.88
451.324	99.88
451.545	82.88
451.766	103.88
451.986	95.88
452.207	95.88
452.428	70.88
452.648	89.88
452.869	91.88
453.089	97.88
453.31	88.88
453.53	69.88
453.751	65.88
453.971	78.88
454.192	73.88
454.412	88.88
454.633	87.88
454.853	82.88
455.073	81.88
455.294	99.88
455.514	96.88
455.734	104.88
455.955	92.88
456.175	84.88
456.395	100.88
456.616	91.88
456.836	90.88
457.056	92.88
457.276	78.88
457.497	83.88
457.717	93.88
457.937	94.88
458.157	90.88
458.377	93.88
458.598	67.88
458.818	78.88
459.038	80.88
459.258	84.88
459.478	71.88
459.698	85.88
459.918	83.88
460.138	84.88
460.358	87.88
460.578	89.88
460.798	92.88
461.018	93.88
461.238	81.88
461.458	91.88
461.678	84.88
461.898	73.88
462.118	85.88
462.338	90.88
462.558	104.88
462.777	91.88
462.997	77.88
463.217	81.88
463.437	96.88
463.657	91.88
463.876	101.88
464.096	78.88
464.316	79.88
464.536	93.88
464.755	79.88
464.975	73.88
465.195	91.88
465.414	96.88
465.634	90.88
465.854	89.88
466.073	79.88
466.293	89.88
466.512	89.88
466.732	105.88
466.951	103.88
467.171	86.88
467.391	94.88
467.61	81.88
467.829	96.88
468.049	91.88
468.268	85.88
468.488	104.88
468.707	91.88
468.927	99.88
469.146	101.88
469.365	109.88
469.585	98.88
469.804	104.88
470.023	83.88
470.243	98.88
470.462	105.88
470.681	81.88
470.901	84.88
471.12	86.88
471.339	78.88
471.558	88.88
471.777	92.88
471.997	101.88
472.216	101.88
472.435	85.88
472.654	82.88
472.873	88.88
473.092	88.88
473.311	89.88
473.53	94.88
473.749	86.88
473.968	104.88
474.187	99.88
474.406	92.88
474.625	96.88
474.844	90.88
475.063	83.88
475.282	88.88
475.501	85.88
475.72	103.88
475.939	84.88
476.158	84.88
476.377	89.88
476.596	86.88
476.814	81.88
477.033	81.88
477.252	91.88
477.471	91.88
477.69	92.88
477.908	114.88
478.127	98.88
478.346	101.88
478.564	102.88
478.783	99.88
479.002	102.88
479.22	109.88
479.439	96.88
479.658	87.88
479.876	85.88
480.095	89.88
480.313	76.88
480.532	91.88
480.751	91.88
480.969	84.88
481.188	72.88
481.406	85.88
481.624	81.88
481.843	83.88
482.061	84.88
482.28	82.88
482.498	82.88
482.717	103.88
482.935	91.88
483.153	83.88
483.372	80.88
483.59	98.88
483.808	96.88
484.027	99.88
484.245	73.88
484.463	80.88
484.681	87.88
484.9	100.88
485.118	105.88
485.336	88.88
485.554	90.88
485.772	85.88
485.99	94.88
486.209	83.88
486.427	93.88
486.645	92.88
486.863	88.88
487.081	95.88
487.299	87.88
487.517	92.88
487.735	95.88
487.953	112.88
488.171	108.88
488.389	102.88
488.607	105.88
488.825	90.88
489.043	100.88
489.261	97.88
489.479	92.88
489.696	86.88
489.914	102.88
490.132	85.88
490.35	102.88
490.568	105.88
490.786	119.88
491.003	111.88
491.221	106.88
491.439	118.88
491.657	114.88
491.874	125.88
492.092	129.88
492.31	132.88
492.527	126.88
492.745	113.88
492.963	112.88
493.18	100.88
493.398	118.88
493.615	108.88
493.833	119.88
494.05	114.88
494.268	109.88
494.485	109.88
494.703	94.88
494.92	92.88
495.138	116.88
495.355	100.88
495.573	105.88
495.79	108.88
496.008	102.88
496.225	107.88
496.442	100.88
496.66	103.88
496.877	96.88
497.094	111.88
497.312	113.88
497.529	102.88
497.746	97.88
497.963	91.88
498.181	81.88
498.398	97.88
498.615	102.88
498.832	86.88
499.049	93.88
499.267	94.88
499.484	94.88
499.701	88.88
499.918	89.88
500.135	82.88
500.352	85.88
500.569	100.88
500.786	96.88
501.003	88.88
501.22	91.88
501.437	89.88
501.654	81.88
501.871	87.88
502.088	87.88
502.305	95.88
502.522	104.88
502.739	83.88
502.956	92.88
503.172	97.88
503.389	90.88
503.606	102.88
503.823	82.88
504.04	76.88
504.256	82.88
504.473	90.88
504.69	106.88
504.907	96.88
505.123	89.88
505.34	86.88
505.557	94.88
505.773	91.88
505.99	84.88
506.207	102.88
506.423	84.88
506.64	100.88
506.856	94.88
507.073	85.88
507.289	91.88
507.506	76.88
507.722	85.88
507.939	88.88
508.155	100.88
508.372	78.88
508.588	92.88
508.805	74.88
509.021	101.88
509.238	88.88
509.454	78.88
509.67	85.88
509.887	84.88
510.103	78.88
510.319	84.88
510.536	84.88
510.752	91.88
510.968	70.88
511.184	63.88
511.401	72.88
511.617	75.88
511.833	73.88
512.049	95.88
512.265	88.88
512.481	79.88
512.698	88.88
512.914	93.88
513.13	84.88
513.346	90.88
513.562	93.88
513.778	61.88
513.994	84.88
514.21	77.88
514.426	89.88
514.642	103.88
514.858	60.88
515.074	86.88
515.29	90.88
515.506	74.88
515.721	88.88
515.937	87.88
516.153	84.88
516.369	89.88
516.585	70.88
516.801	89.88
517.016	83.88
517.232	89.88
517.448	80.88
517.664	85.88
517.879	95.88
518.095	79.88
518.311	81.88
518.527	85.88
518.742	64.88
518.958	73.88
519.173	89.88
519.389	90.88
519.605	86.88
519.82	79.88
520.036	105.88
520.251	84.88
520.467	91.88
520.682	71.88
520.898	78.88
521.113	74.88
521.329	79.88
521.544	83.88
521.76	72.88
521.975	75.88
522.19	93.88
522.406	91.88
522.621	88.88
522.836	80.88
523.052	86.88
523.267	95.88
523.482	85.88
523.698	86.88
523.913	102.88
524.128	80.88
524.343	94.88
524.559	101.88
524.774	93.88
524.989	100.88
525.204	84.88
525.419	83.88
525.634	88.88
525.849	80.88
526.064	88.88
526.28	81.88
526.495	65.88
526.71	73.88
526.925	77.88
527.14	77.88
527.355	79.88
527.57	88.88
527.785	84.88
527.999	81.88
528.214	91.88
528.429	93.88
528.644	91.88
528.859	87.88
529.074	107.88
529.289	120.88
529.503	116.88
529.718	101.88
529.933	95.88
530.148	89.88
530.363	93.88
530.577	67.88
530.792	83.88
531.007	81.88
531.221	82.88
531.436	77.88
531.651	82.88
531.865	87.88
532.08	80.88
532.295	87.88
532.509	73.88
532.724	86.88
532.938	89.88
533.153	92.88
533.367	84.88
533.582	83.88
533.796	83.88
534.011	92.88
534.225	76.88
534.44	83.88
534.654	76.88
534.868	84.88
535.083	83.88
535.297	81.88
535.511	87.88
535.726	83.88
535.94	83.88
536.154	117.88
536.369	78.88
536.583	73.88
536.797	86.88
537.011	77.88
537.225	94.88
537.44	87.88
537.654	69.88
537.868	94.88
538.082	96.88
538.296	91.88
538.51	80.88
538.724	96.88
538.938	97.88
539.153	83.88
539.367	87.88
539.581	85.88
539.795	80.88
540.009	93.88
540.222	85.88
540.436	85.88
540.65	90.88
540.864	101.88
541.078	98.88
541.292	83.88
541.506	104.88
541.72	103.88
541.934	112.88
542.147	123.88
542.361	117.88
542.575	100.88
542.789	103.88
543.002	110.88
543.216	83.88
543.43	96.88
543.644	88.88
543.857	95.88
544.071	98.88
544.285	92.88
544.498	112.88
544.712	111.88
544.925	111.88
545.139	95.88
545.352	104.88
545.566	117.88
545.779	99.88
545.993	99.88
546.206	98.88
546.42	101.88
546.633	98.88
546.847	99.88
547.06	108.88
547.274	118.88
547.487	112.88
547.7	108.88
547.914	100.88
548.127	105.88
548.34	106.88
548.554	101.88
548.767	109.88
548.98	114.88
549.193	107.88
549.407	98.88
549.62	96.88
549.833	103.88
550.046	101.88
550.259	102.88
550.473	111.88
550.686	109.88
550.899	98.88
551.112	101.88
551.325	109.88
551.538	109.88
551.751	92.88
551.964	96.88
552.177	101.88
552.39	84.88
552.603	106.88
552.816	105.88
553.029	100.88
553.242	102.88
553.455	96.88
553.667	104.88
553.88	96.88
554.093	99.88
554.306	93.88
554.519	114.88
554.732	95.88
554.944	96.88
555.157	115.88
555.37	100.88
555.583	98.88
555.795	87.88
556.008	104.88
556.221	90.88
556.433	101.88
556.646	88.88
556.859	107.88
557.071	101.88
557.284	101.88
557.496	99.88
557.709	95.88
557.921	107.88
558.134	103.88
558.346	105.88
558.559	104.88
558.771	94.88
558.984	97.88
559.196	110.88
559.409	109.88
559.621	95.88
559.833	89.88
560.046	81.88
560.258	81.88
560.47	93.88
560.683	108.88
560.895	94.88
561.107	103.88
561.32	90.88
561.532	93.88
561.744	84.88
561.956	89.88
562.168	79.88
562.381	99.88
562.593	82.88
562.805	98.88
563.017	91.88
563.229	98.88
563.441	111.88
563.653	107.88
563.865	104.88
564.077	102.88
564.289	107.88
564.501	103.88
564.713	83.88
564.925	99.88
565.137	97.88
565.349	97.88
565.561	74.88
565.773	91.88
565.985	95.88
566.197	97.88
566.408	86.88
566.62	96.88
566.832	95.88
567.044	88.88
567.255	101.88
567.467	102.88
567.679	90.88
567.891	99.88
568.102	87.88
568.314	85.88
568.526	83.88
568.737	88.88
568.949	68.88
569.161	78.88
569.372	85.88
569.584	81.88
569.795	81.88
570.007	71.88
570.218	78.88
570.43	75.88
570.641	76.88
570.853	69.88
571.064	89.88
571.276	88.88
571.487	96.88
571.698	87.88
571.91	92.88
572.121	96.88
572.333	99.88
572.544	83.88
572.755	84.88
572.966	84.88
573.178	72.88
573.389	78.88
573.6	87.88
573.811	73.88
574.023	81.88
574.234	79.88
574.445	82.88
574.656	90.88
574.867	78.88
575.078	87.88
575.289	70.88
575.501	89.88
575.712	87.88
575.923	86.88
576.134	70.88
576.345	83.88
576.556	83.88
576.767	83.88
576.978	92.88
577.188	86.88
577.399	98.88
577.61	88.88
577.821	85.88
578.032	79.88
578.243	69.88
578.454	70.88
578.665	81.88
578.875	93.88
579.086	83.88
579.297	78.88
579.508	85.88
579.718	93.88
579.929	88.88
580.14	110.88
580.35	90.88
580.561	83.88
580.772	86.88
580.982	88.88
581.193	87.88
581.403	86.88
581.614	89.88
581.825	86.88
582.035	81.88
582.246	87.88
582.456	86.88
582.667	83.88
582.877	80.88
583.087	66.88
583.298	88.88
583.508	90.88
583.719	77.88
583.929	95.88
584.139	81.88
584.35	81.88
584.56	83.88
584.77	64.88
584.981	88.88
585.191	86.88
585.401	83.88
585.611	92.88
585.821	97.88
586.032	78.88
586.242	86.88
586.452	86.88
586.662	76.88
586.872	88.88
587.082	65.88
587.292	83.88
587.502	78.88
587.713	76.88
587.923	76.88
588.133	83.88
588.343	93.88
588.553	73.88
588.762	84.88
588.972	87.88
589.182	63.88
589.392	92.88
589.602	94.88
589.812	80.88
590.022	86.88
590.232	74.88
590.441	81.88
590.651	74.88
590.861	72.88
591.071	74.88
591.281	77.88
591.49	67.88
591.7	76.88
591.91	85.88
592.119	98.88
592.329	77.88
592.539	76.88
592.748	85.88
592.958	87.88
593.167	82.88
593.377	93.88
593.587	91.88
593.796	72.88
594.006	79.88
594.215	78.88
594.424	92.88
594.634	91.88
594.843	76.88
595.053	94.88
595.262	103.88
595.472	91.88
595.681	77.88
595.89	86.88
596.1	88.88
596.309	72.88
596.518	86.88
596.727	77.88
596.937	88.88
597.146	90.88
597.355	95.88
597.564	81.88
597.774	80.88
597.983	101.88
598.192	87.88
598.401	85.88
598.61	82.88
598.819	88.88
599.028	97.88
599.237	79.88
599.446	79.88
599.655	78.88
599.864	88.88
600.073	82.88
600.282	86.88
600.491	81.88
600.7	80.88
600.909	71.88
601.118	84.88
601.327	96.88
601.536	86.88
601.745	77.88
601.953	91.88
602.162	89.88
602.371	87.88
602.58	98.88
602.789	94.88
602.997	88.88
603.206	93.88
603.415	96.88
603.623	106.88
603.832	90.88
604.041	104.88
604.249	82.88
604.458	88.88
604.666	88.88
604.875	99.88
605.084	97.88
605.292	90.88
605.501	83.88
605.709	93.88
605.918	71.88
606.126	86.88
606.334	68.88
606.543	87.88
606.751	91.88
606.96	98.88
607.168	98.88
607.376	98.88
607.585	100.88
607.793	95.88
608.001	94.88
608.21	91.88
608.418	94.88
608.626	80.88
608.834	78.88
609.043	101.88
609.251	93.88
609.459	97.88
609.667	97.88
609.875	88.88
610.083	91.88
610.291	80.88
610.499	86.88
610.707	92.88
610.916	85.88
611.124	90.88
611.332	99.88
611.54	87.88
611.748	102.88
611.955	92.88
612.163	87.88
612.371	73.88
612.579	75.88
612.787	80.88
612.995	93.88
613.203	95.88
613.411	92.88
613.618	84.88
613.826	78.88
614.034	84.88
614.242	96.88
614.449	107.88
614.657	95.88
614.865	93.88
615.072	90.88
615.28	92.88
615.488	90.88
615.695	92.88
615.903	84.88
616.111	86.88
616.318	96.88
616.526	97.88
616.733	91.88
616.941	86.88
617.148	84.88
617.356	85.88
617.563	104.88
617.771	90.88
617.978	78.88
618.185	75.88
618.393	89.88
618.6	77.88
618.807	82.88
619.015	93.88
619.222	82.88
619.429	94.88
619.637	91.88
619.844	74.88
620.051	72.88
620.258	86.88
620.466	84.88
620.673	66.88
620.88	80.88
621.087	71.88
621.294	99.88
621.501	89.88
621.708	84.88
621.915	75.88
622.122	85.88
622.329	98.88
622.536	87.88
622.743	78.88
622.95	76.88
623.157	85.88
623.364	94.88
623.571	91.88
623.778	83.88
623.985	84.88
624.192	98.88
624.399	90.88
624.606	104.88
624.812	87.88
625.019	103.88
625.226	93.88
625.433	83.88
625.639	93.88
625.846	84.88
626.053	81.88
626.259	103.88
626.466	83.88
626.673	88.88
626.879	96.88
627.086	81.88
627.293	88.88
627.499	82.88
627.706	73.88
627.912	77.88
628.119	77.88
628.325	90.88
628.532	85.88
628.738	88.88
628.945	88.88
629.151	84.88
629.357	88.88
629.564	98.88
629.77	82.88
629.976	78.88
630.183	82.88
630.389	82.88
630.595	80.88
630.802	87.88
631.008	101.88
631.214	87.88
631.42	87.88
631.627	79.88
631.833	85.88
632.039	77.88
632.245	95.88
632.451	95.88
632.657	88.88
632.863	80.88
633.069	97.88
633.275	91.88
633.481	100.88
633.688	74.88
633.893	84.88
634.099	86.88
634.305	86.88
634.511	85.88
634.717	81.88
634.923	87.88
635.129	73.88
635.335	89.88
635.541	92.88
635.747	77.88
635.952	85.88
636.158	101.88
636.364	92.88
636.57	103.88
636.775	86.88
636.981	97.88
637.187	84.88
637.392	69.88
637.598	88.88
637.804	67.88
638.009	81.88
638.215	85.88
638.421	85.88
638.626	77.88
638.832	82.88
639.037	81.88
639.243	78.88
639.448	95.88
639.654	97.88
639.859	97.88
640.065	72.88
640.27	81.88
640.475	90.88
640.681	75.88
640.886	85.88
641.091	76.88
641.297	88.88
641.502	80.88
641.707	73.88
641.913	92.88
642.118	85.88
642.323	77.88
642.528	83.88
642.733	93.88
642.939	82.88
643.144	81.88
643.349	73.88
643.554	89.88
643.759	90.88
643.964	81.88
644.169	83.88
644.374	94.88
644.579	90.88
644.784	88.88
644.989	73.88
645.194	81.88
645.399	85.88
645.604	81.88
645.809	76.88
646.014	89.88
646.219	85.88
646.423	88.88
646.628	69.88
646.833	85.88
647.038	80.88
647.243	82.88
647.447	103.88
647.652	100.88
647.857	85.88
648.062	90.88
648.266	82.88
648.471	68.88
648.676	88.88
648.88	89.88
649.085	94.88
649.289	93.88
649.494	73.88
649.698	83.88
649.903	82.88
650.107	84.88
650.312	82.88
650.516	87.88
650.721	88.88
650.925	72.88
651.13	100.88
651.334	80.88
651.539	77.88
651.743	76.88
651.947	97.88
652.152	93.88
652.356	87.88
652.56	83.88
652.764	77.88
652.969	96.88
653.173	80.88
653.377	86.88
653.581	91.88
653.785	72.88
653.99	104.88
654.194	91.88
654.398	82.88
654.602	99.88
654.806	80.88
655.01	87.88
655.214	78.88
655.418	76.88
655.622	61.88
655.826	83.88
656.03	83.88
656.234	88.88
656.438	94.88
656.642	87.88
656.846	90.88
657.049	91.88
657.253	49.88
657.457	81.88
657.661	73.88
657.865	76.88
658.068	73.88
658.272	80.88
658.476	74.88
658.68	92.88
658.883	77.88
659.087	90.88
659.291	84.88
659.494	71.88
659.698	80.88
659.901	79.88
660.105	80.88
660.309	91.88
660.512	91.88
660.716	82.88
660.919	72.88
661.123	88.88
661.326	75.88
661.53	87.88
661.733	89.88
661.936	76.88
662.14	81.88
662.343	81.88
662.546	77.88
662.75	78.88
662.953	88.88
663.156	86.88
663.36	86.88
663.563	83.88
663.766	78.88
663.969	74.88
664.173	76.88
664.376	80.88
664.579	87.88
664.782	80.88
664.985	77.88
665.188	90.88
665.391	70.88
665.594	77.88
665.797	68.88
666	74.88
666.203	79.88
666.406	78.88
666.609	86.88
666.812	77.88
667.015	74.88
667.218	91.88
667.421	83.88
667.624	81.88
667.827	75.88
668.03	85.88
668.232	69.88
668.435	78.88
668.638	80.88
668.841	79.88
669.043	68.88
669.246	63.88
669.449	90.88
669.651	87.88
669.854	78.88
670.057	81.88
670.259	84.88
670.462	74.88
670.665	73.88
670.867	70.88
671.07	70.88
671.272	79.88
671.475	84.88
671.677	71.88
671.88	71.88
672.082	77.88
672.284	74.88
672.487	81.88
672.689	77.88
672.892	89.88
