Data from Location3.07152019.Energy5.Lamp.07192019.3%Agarose_HRD10591_15-16-53-269.txt Node
Date: Fri Jul 19 15:16:53 EDT 2019
User: cochatt
Spectrometer: HR+D1059
Trigger mode: 1
Integration Time (sec): 1.000000E-1
Scans to average: 1
Electric dark correction enabled: true
Nonlinearity correction enabled: false
Boxcar width: 0
XAxis mode: Wavelengths
Number of Pixels in Spectrum: 2048
>>>>>Begin Spectral Data<<<<<
223.165	-10.62
223.4	-10.62
223.635	-10.62
223.869	-14.62
224.104	-24.62
224.338	-23.62
224.573	-2.62
224.808	1.38
225.042	-13.62
225.277	-14.62
225.511	10.38
225.746	4.38
225.98	-8.62
226.215	17.38
226.449	15.38
226.683	11.38
226.918	30.38
227.152	22.38
227.387	34.38
227.621	43.38
227.856	34.38
228.09	54.38
228.324	69.38
228.559	59.38
228.793	46.38
229.027	58.38
229.262	71.38
229.496	60.38
229.73	77.38
229.964	69.38
230.199	65.38
230.433	84.38
230.667	81.38
230.901	73.38
231.136	71.38
231.37	73.38
231.604	79.38
231.838	88.38
232.072	72.38
232.306	82.38
232.541	86.38
232.775	87.38
233.009	78.38
233.243	73.38
233.477	76.38
233.711	89.38
233.945	85.38
234.179	83.38
234.413	74.38
234.647	83.38
234.881	92.38
235.115	89.38
235.349	76.38
235.583	82.38
235.817	80.38
236.051	70.38
236.285	90.38
236.519	74.38
236.753	84.38
236.987	73.38
237.221	72.38
237.455	77.38
237.689	82.38
237.922	81.38
238.156	84.38
238.39	67.38
238.624	75.38
238.858	83.38
239.091	68.38
239.325	80.38
239.559	76.38
239.793	72.38
240.027	81.38
240.26	75.38
240.494	81.38
240.728	72.38
240.961	63.38
241.195	76.38
241.429	78.38
241.662	84.38
241.896	82.38
242.13	75.38
242.363	58.38
242.597	67.38
242.83	86.38
243.064	75.38
243.298	69.38
243.531	72.38
243.765	82.38
243.998	69.38
244.232	77.38
244.465	75.38
244.699	66.38
244.932	74.38
245.166	79.38
245.399	70.38
245.633	73.38
245.866	77.38
246.099	90.38
246.333	70.38
246.566	84.38
246.8	86.38
247.033	79.38
247.266	85.38
247.5	78.38
247.733	82.38
247.966	73.38
248.2	72.38
248.433	75.38
248.666	78.38
248.899	87.38
249.133	80.38
249.366	90.38
249.599	81.38
249.832	80.38
250.066	82.38
250.299	69.38
250.532	83.38
250.765	77.38
250.998	98.38
251.231	80.38
251.465	84.38
251.698	67.38
251.931	76.38
252.164	70.38
252.397	84.38
252.63	81.38
252.863	85.38
253.096	78.38
253.329	73.38
253.562	79.38
253.795	83.38
254.028	84.38
254.261	84.38
254.494	86.38
254.727	66.38
254.96	85.38
255.193	75.38
255.426	73.38
255.659	71.38
255.892	75.38
256.124	83.38
256.357	81.38
256.59	72.38
256.823	76.38
257.056	76.38
257.289	78.38
257.521	91.38
257.754	82.38
257.987	66.38
258.22	78.38
258.452	70.38
258.685	75.38
258.918	78.38
259.151	78.38
259.383	79.38
259.616	89.38
259.849	77.38
260.081	74.38
260.314	79.38
260.547	75.38
260.779	90.38
261.012	87.38
261.244	85.38
261.477	81.38
261.71	67.38
261.942	81.38
262.175	83.38
262.407	80.38
262.64	80.38
262.872	87.38
263.105	72.38
263.337	94.38
263.57	72.38
263.802	83.38
264.035	71.38
264.267	93.38
264.499	65.38
264.732	85.38
264.964	81.38
265.197	78.38
265.429	77.38
265.661	85.38
265.894	81.38
266.126	85.38
266.358	76.38
266.591	74.38
266.823	82.38
267.055	79.38
267.287	95.38
267.52	81.38
267.752	69.38
267.984	76.38
268.216	78.38
268.448	79.38
268.681	86.38
268.913	91.38
269.145	71.38
269.377	74.38
269.609	82.38
269.841	90.38
270.073	80.38
270.306	74.38
270.538	76.38
270.77	81.38
271.002	94.38
271.234	94.38
271.466	81.38
271.698	95.38
271.93	79.38
272.162	75.38
272.394	83.38
272.626	86.38
272.858	88.38
273.09	81.38
273.322	99.38
273.553	93.38
273.785	78.38
274.017	80.38
274.249	78.38
274.481	91.38
274.713	75.38
274.945	70.38
275.176	68.38
275.408	95.38
275.64	88.38
275.872	91.38
276.104	88.38
276.335	95.38
276.567	82.38
276.799	78.38
277.031	94.38
277.262	84.38
277.494	89.38
277.726	87.38
277.957	83.38
278.189	73.38
278.421	76.38
278.652	84.38
278.884	84.38
279.115	87.38
279.347	91.38
279.579	85.38
279.81	84.38
280.042	83.38
280.273	93.38
280.505	83.38
280.736	95.38
280.968	83.38
281.199	80.38
281.431	81.38
281.662	88.38
281.894	89.38
282.125	75.38
282.356	81.38
282.588	86.38
282.819	65.38
283.051	84.38
283.282	73.38
283.513	80.38
283.745	83.38
283.976	84.38
284.207	94.38
284.439	94.38
284.67	95.38
284.901	81.38
285.132	90.38
285.364	82.38
285.595	73.38
285.826	81.38
286.057	81.38
286.288	85.38
286.52	97.38
286.751	68.38
286.982	81.38
287.213	71.38
287.444	93.38
287.675	89.38
287.906	92.38
288.138	81.38
288.369	76.38
288.6	92.38
288.831	93.38
289.062	79.38
289.293	80.38
289.524	91.38
289.755	78.38
289.986	88.38
290.217	83.38
290.448	70.38
290.679	94.38
290.91	84.38
291.141	84.38
291.371	90.38
291.602	80.38
291.833	79.38
292.064	85.38
292.295	80.38
292.526	78.38
292.757	81.38
292.987	93.38
293.218	75.38
293.449	80.38
293.68	89.38
293.91	94.38
294.141	92.38
294.372	85.38
294.603	85.38
294.833	78.38
295.064	81.38
295.295	90.38
295.525	77.38
295.756	91.38
295.987	88.38
296.217	75.38
296.448	72.38
296.679	93.38
296.909	87.38
297.14	82.38
297.37	84.38
297.601	94.38
297.831	78.38
298.062	89.38
298.292	85.38
298.523	81.38
298.753	83.38
298.984	90.38
299.214	89.38
299.445	90.38
299.675	96.38
299.905	71.38
300.136	89.38
300.366	86.38
300.597	87.38
300.827	86.38
301.057	90.38
301.288	92.38
301.518	84.38
301.748	75.38
301.979	98.38
302.209	86.38
302.439	86.38
302.669	74.38
302.9	95.38
303.13	79.38
303.36	89.38
303.59	87.38
303.82	85.38
304.051	113.38
304.281	87.38
304.511	94.38
304.741	81.38
304.971	85.38
305.201	83.38
305.431	90.38
305.661	103.38
305.891	93.38
306.121	81.38
306.352	81.38
306.582	73.38
306.812	73.38
307.042	91.38
307.272	96.38
307.502	99.38
307.731	97.38
307.961	81.38
308.191	82.38
308.421	78.38
308.651	79.38
308.881	99.38
309.111	76.38
309.341	88.38
309.571	78.38
309.8	91.38
310.03	99.38
310.26	82.38
310.49	75.38
310.72	79.38
310.949	89.38
311.179	97.38
311.409	84.38
311.639	86.38
311.868	84.38
312.098	86.38
312.328	103.38
312.557	86.38
312.787	84.38
313.017	95.38
313.246	83.38
313.476	84.38
313.706	87.38
313.935	84.38
314.165	88.38
314.394	67.38
314.624	77.38
314.853	82.38
315.083	96.38
315.312	93.38
315.542	78.38
315.771	88.38
316.001	87.38
316.23	84.38
316.46	81.38
316.689	92.38
316.919	86.38
317.148	98.38
317.377	92.38
317.607	86.38
317.836	80.38
318.065	91.38
318.295	91.38
318.524	100.38
318.753	91.38
318.983	82.38
319.212	88.38
319.441	101.38
319.67	83.38
319.9	80.38
320.129	82.38
320.358	94.38
320.587	86.38
320.816	84.38
321.046	88.38
321.275	85.38
321.504	87.38
321.733	100.38
321.962	96.38
322.191	73.38
322.42	86.38
322.649	99.38
322.878	71.38
323.108	89.38
323.337	81.38
323.566	77.38
323.795	84.38
324.024	94.38
324.253	88.38
324.482	79.38
324.71	85.38
324.939	67.38
325.168	95.38
325.397	81.38
325.626	91.38
325.855	82.38
326.084	89.38
326.313	88.38
326.542	93.38
326.77	86.38
326.999	81.38
327.228	87.38
327.457	82.38
327.686	95.38
327.914	81.38
328.143	87.38
328.372	93.38
328.6	91.38
328.829	87.38
329.058	82.38
329.287	83.38
329.515	83.38
329.744	87.38
329.972	74.38
330.201	83.38
330.43	84.38
330.658	74.38
330.887	80.38
331.115	85.38
331.344	74.38
331.572	89.38
331.801	78.38
332.03	80.38
332.258	64.38
332.486	86.38
332.715	81.38
332.943	84.38
333.172	101.38
333.4	80.38
333.629	80.38
333.857	81.38
334.085	77.38
334.314	85.38
334.542	91.38
334.771	102.38
334.999	89.38
335.227	75.38
335.455	79.38
335.684	80.38
335.912	89.38
336.14	75.38
336.369	74.38
336.597	94.38
336.825	85.38
337.053	74.38
337.281	76.38
337.51	74.38
337.738	77.38
337.966	80.38
338.194	86.38
338.422	88.38
338.65	80.38
338.878	86.38
339.106	83.38
339.334	96.38
339.562	74.38
339.79	79.38
340.018	80.38
340.246	82.38
340.474	88.38
340.702	83.38
340.93	89.38
341.158	86.38
341.386	84.38
341.614	89.38
341.842	77.38
342.07	72.38
342.298	69.38
342.526	83.38
342.754	87.38
342.981	87.38
343.209	74.38
343.437	76.38
343.665	81.38
343.893	81.38
344.12	82.38
344.348	87.38
344.576	90.38
344.804	78.38
345.031	83.38
345.259	74.38
345.487	90.38
345.714	72.38
345.942	79.38
346.17	97.38
346.397	72.38
346.625	80.38
346.853	90.38
347.08	78.38
347.308	77.38
347.535	85.38
347.763	77.38
347.99	84.38
348.218	84.38
348.445	80.38
348.673	78.38
348.9	88.38
349.128	75.38
349.355	81.38
349.583	89.38
349.81	70.38
350.037	72.38
350.265	74.38
350.492	79.38
350.72	90.38
350.947	83.38
351.174	89.38
351.402	80.38
351.629	76.38
351.856	83.38
352.083	90.38
352.311	81.38
352.538	84.38
352.765	82.38
352.992	72.38
353.22	83.38
353.447	89.38
353.674	75.38
353.901	90.38
354.128	81.38
354.355	75.38
354.583	83.38
354.81	83.38
355.037	70.38
355.264	82.38
355.491	77.38
355.718	89.38
355.945	71.38
356.172	74.38
356.399	89.38
356.626	74.38
356.853	93.38
357.08	91.38
357.307	80.38
357.534	78.38
357.761	81.38
357.988	82.38
358.215	90.38
358.441	98.38
358.668	75.38
358.895	75.38
359.122	75.38
359.349	73.38
359.576	87.38
359.802	93.38
360.029	93.38
360.256	66.38
360.483	72.38
360.709	85.38
360.936	79.38
361.163	87.38
361.39	77.38
361.616	88.38
361.843	84.38
362.07	88.38
362.296	89.38
362.523	91.38
362.749	80.38
362.976	94.38
363.203	86.38
363.429	75.38
363.656	88.38
363.882	85.38
364.109	88.38
364.335	78.38
364.562	94.38
364.788	84.38
365.015	79.38
365.241	87.38
365.468	81.38
365.694	80.38
365.92	79.38
366.147	88.38
366.373	73.38
366.599	71.38
366.826	81.38
367.052	81.38
367.278	78.38
367.505	85.38
367.731	88.38
367.957	76.38
368.184	86.38
368.41	86.38
368.636	73.38
368.862	80.38
369.089	81.38
369.315	72.38
369.541	90.38
369.767	82.38
369.993	78.38
370.219	89.38
370.445	77.38
370.672	78.38
370.898	97.38
371.124	85.38
371.35	83.38
371.576	92.38
371.802	95.38
372.028	72.38
372.254	82.38
372.48	73.38
372.706	94.38
372.932	81.38
373.158	93.38
373.384	81.38
373.61	82.38
373.835	95.38
374.061	73.38
374.287	77.38
374.513	65.38
374.739	77.38
374.965	87.38
375.191	88.38
375.416	68.38
375.642	82.38
375.868	79.38
376.094	81.38
376.319	85.38
376.545	92.38
376.771	91.38
376.997	81.38
377.222	85.38
377.448	81.38
377.674	89.38
377.899	90.38
378.125	85.38
378.35	74.38
378.576	83.38
378.802	91.38
379.027	85.38
379.253	87.38
379.478	72.38
379.704	87.38
379.929	81.38
380.155	80.38
380.38	87.38
380.606	83.38
380.831	98.38
381.057	84.38
381.282	80.38
381.507	83.38
381.733	90.38
381.958	81.38
382.184	86.38
382.409	90.38
382.634	89.38
382.86	79.38
383.085	62.38
383.31	76.38
383.535	86.38
383.761	81.38
383.986	85.38
384.211	87.38
384.436	70.38
384.662	83.38
384.887	85.38
385.112	73.38
385.337	92.38
385.562	75.38
385.787	75.38
386.013	88.38
386.238	81.38
386.463	78.38
386.688	81.38
386.913	98.38
387.138	85.38
387.363	87.38
387.588	90.38
387.813	74.38
388.038	79.38
388.263	88.38
388.488	97.38
388.713	94.38
388.938	89.38
389.163	88.38
389.387	74.38
389.612	82.38
389.837	93.38
390.062	97.38
390.287	80.38
390.512	82.38
390.736	85.38
390.961	69.38
391.186	88.38
391.411	82.38
391.636	82.38
391.86	94.38
392.085	86.38
392.31	81.38
392.534	81.38
392.759	80.38
392.984	84.38
393.208	81.38
393.433	81.38
393.658	85.38
393.882	80.38
394.107	79.38
394.331	82.38
394.556	79.38
394.78	73.38
395.005	82.38
395.229	77.38
395.454	79.38
395.678	89.38
395.903	91.38
396.127	93.38
396.352	93.38
396.576	82.38
396.801	72.38
397.025	89.38
397.249	91.38
397.474	92.38
397.698	90.38
397.922	79.38
398.147	79.38
398.371	74.38
398.595	73.38
398.82	85.38
399.044	86.38
399.268	77.38
399.492	83.38
399.717	78.38
399.941	74.38
400.165	85.38
400.389	71.38
400.613	81.38
400.837	80.38
401.062	88.38
401.286	91.38
401.51	88.38
401.734	81.38
401.958	97.38
402.182	76.38
402.406	87.38
402.63	78.38
402.854	81.38
403.078	76.38
403.302	91.38
403.526	89.38
403.75	86.38
403.974	86.38
404.198	86.38
404.422	82.38
404.645	85.38
404.869	95.38
405.093	93.38
405.317	88.38
405.541	74.38
405.765	93.38
405.988	92.38
406.212	81.38
406.436	75.38
406.66	89.38
406.883	97.38
407.107	95.38
407.331	81.38
407.555	83.38
407.778	92.38
408.002	85.38
408.226	89.38
408.449	80.38
408.673	86.38
408.896	98.38
409.12	90.38
409.344	85.38
409.567	86.38
409.791	81.38
410.014	83.38
410.238	87.38
410.461	77.38
410.685	69.38
410.908	80.38
411.132	96.38
411.355	90.38
411.578	83.38
411.802	76.38
412.025	81.38
412.249	94.38
412.472	83.38
412.695	74.38
412.919	82.38
413.142	87.38
413.365	90.38
413.589	88.38
413.812	94.38
414.035	87.38
414.258	86.38
414.482	72.38
414.705	85.38
414.928	86.38
415.151	82.38
415.374	98.38
415.597	90.38
415.821	98.38
416.044	83.38
416.267	99.38
416.49	82.38
416.713	71.38
416.936	83.38
417.159	69.38
417.382	88.38
417.605	93.38
417.828	83.38
418.051	76.38
418.274	90.38
418.497	80.38
418.72	86.38
418.943	81.38
419.166	89.38
419.389	104.38
419.611	95.38
419.834	87.38
420.057	99.38
420.28	89.38
420.503	86.38
420.726	80.38
420.948	78.38
421.171	97.38
421.394	90.38
421.617	86.38
421.839	94.38
422.062	90.38
422.285	97.38
422.507	101.38
422.73	81.38
422.953	77.38
423.175	90.38
423.398	71.38
423.621	85.38
423.843	79.38
424.066	97.38
424.288	80.38
424.511	87.38
424.733	88.38
424.956	102.38
425.178	96.38
425.401	96.38
425.623	87.38
425.846	94.38
426.068	83.38
426.291	100.38
426.513	79.38
426.735	79.38
426.958	91.38
427.18	86.38
427.402	89.38
427.625	93.38
427.847	82.38
428.069	78.38
428.292	93.38
428.514	93.38
428.736	85.38
428.958	92.38
429.181	94.38
429.403	111.38
429.625	85.38
429.847	86.38
430.069	85.38
430.292	91.38
430.514	94.38
430.736	88.38
430.958	92.38
431.18	90.38
431.402	99.38
431.624	93.38
431.846	82.38
432.068	82.38
432.29	84.38
432.512	87.38
432.734	77.38
432.956	90.38
433.178	96.38
433.4	100.38
433.622	85.38
433.844	85.38
434.066	82.38
434.287	88.38
434.509	74.38
434.731	83.38
434.953	82.38
435.175	92.38
435.397	96.38
435.618	82.38
435.84	91.38
436.062	82.38
436.284	80.38
436.505	98.38
436.727	74.38
436.949	88.38
437.17	92.38
437.392	89.38
437.614	88.38
437.835	81.38
438.057	74.38
438.278	82.38
438.5	89.38
438.721	82.38
438.943	103.38
439.165	78.38
439.386	99.38
439.608	98.38
439.829	87.38
440.05	89.38
440.272	96.38
440.493	90.38
440.715	95.38
440.936	95.38
441.158	101.38
441.379	93.38
441.6	90.38
441.822	95.38
442.043	90.38
442.264	96.38
442.486	111.38
442.707	80.38
442.928	81.38
443.149	89.38
443.371	86.38
443.592	102.38
443.813	98.38
444.034	89.38
444.255	99.38
444.476	96.38
444.698	87.38
444.919	96.38
445.14	211.38
445.361	157.38
445.582	101.38
445.803	101.38
446.024	107.38
446.245	102.38
446.466	94.38
446.687	110.38
446.908	96.38
447.129	94.38
447.35	103.38
447.571	101.38
447.792	89.38
448.013	87.38
448.234	84.38
448.455	97.38
448.675	99.38
448.896	97.38
449.117	88.38
449.338	88.38
449.559	76.38
449.779	99.38
450	89.38
450.221	100.38
450.442	88.38
450.662	106.38
450.883	96.38
451.104	93.38
451.324	107.38
451.545	103.38
451.766	106.38
451.986	81.38
452.207	83.38
452.428	80.38
452.648	75.38
452.869	86.38
453.089	98.38
453.31	67.38
453.53	87.38
453.751	87.38
453.971	84.38
454.192	90.38
454.412	86.38
454.633	83.38
454.853	82.38
455.073	103.38
455.294	97.38
455.514	101.38
455.734	85.38
455.955	79.38
456.175	97.38
456.395	91.38
456.616	71.38
456.836	91.38
457.056	87.38
457.276	95.38
457.497	99.38
457.717	87.38
457.937	78.38
458.157	83.38
458.377	75.38
458.598	74.38
458.818	86.38
459.038	81.38
459.258	69.38
459.478	88.38
459.698	75.38
459.918	97.38
460.138	67.38
460.358	89.38
460.578	78.38
460.798	79.38
461.018	88.38
461.238	93.38
461.458	78.38
461.678	85.38
461.898	85.38
462.118	94.38
462.338	79.38
462.558	89.38
462.777	76.38
462.997	76.38
463.217	91.38
463.437	73.38
463.657	84.38
463.876	99.38
464.096	78.38
464.316	94.38
464.536	94.38
464.755	96.38
464.975	79.38
465.195	83.38
465.414	83.38
465.634	86.38
465.854	90.38
466.073	96.38
466.293	81.38
466.512	94.38
466.732	93.38
466.951	105.38
467.171	94.38
467.391	99.38
467.61	105.38
467.829	88.38
468.049	97.38
468.268	92.38
468.488	86.38
468.707	86.38
468.927	101.38
469.146	70.38
469.365	97.38
469.585	89.38
469.804	101.38
470.023	98.38
470.243	93.38
470.462	98.38
470.681	101.38
470.901	90.38
471.12	88.38
471.339	106.38
471.558	96.38
471.777	107.38
471.997	87.38
472.216	90.38
472.435	101.38
472.654	96.38
472.873	100.38
473.092	91.38
473.311	103.38
473.53	92.38
473.749	106.38
473.968	82.38
474.187	93.38
474.406	94.38
474.625	85.38
474.844	84.38
475.063	101.38
475.282	84.38
475.501	65.38
475.72	90.38
475.939	87.38
476.158	93.38
476.377	99.38
476.596	91.38
476.814	92.38
477.033	97.38
477.252	81.38
477.471	89.38
477.69	85.38
477.908	88.38
478.127	111.38
478.346	79.38
478.564	109.38
478.783	69.38
479.002	85.38
479.22	95.38
479.439	91.38
479.658	86.38
479.876	80.38
480.095	88.38
480.313	89.38
480.532	74.38
480.751	80.38
480.969	74.38
481.188	87.38
481.406	90.38
481.624	80.38
481.843	74.38
482.061	89.38
482.28	91.38
482.498	85.38
482.717	88.38
482.935	86.38
483.153	97.38
483.372	95.38
483.59	107.38
483.808	101.38
484.027	97.38
484.245	93.38
484.463	95.38
484.681	91.38
484.9	83.38
485.118	89.38
485.336	92.38
485.554	77.38
485.772	81.38
485.99	80.38
486.209	95.38
486.427	91.38
486.645	89.38
486.863	91.38
487.081	105.38
487.299	93.38
487.517	100.38
487.735	105.38
487.953	113.38
488.171	110.38
488.389	102.38
488.607	96.38
488.825	102.38
489.043	97.38
489.261	86.38
489.479	89.38
489.696	95.38
489.914	103.38
490.132	103.38
490.35	92.38
490.568	104.38
490.786	107.38
491.003	114.38
491.221	113.38
491.439	122.38
491.657	111.38
491.874	107.38
492.092	121.38
492.31	150.38
492.527	130.38
492.745	123.38
492.963	113.38
493.18	116.38
493.398	123.38
493.615	122.38
493.833	103.38
494.05	116.38
494.268	125.38
494.485	113.38
494.703	93.38
494.92	124.38
495.138	95.38
495.355	107.38
495.573	104.38
495.79	99.38
496.008	104.38
496.225	126.38
496.442	115.38
496.66	113.38
496.877	124.38
497.094	114.38
497.312	100.38
497.529	99.38
497.746	110.38
497.963	104.38
498.181	95.38
498.398	104.38
498.615	96.38
498.832	79.38
499.049	86.38
499.267	85.38
499.484	88.38
499.701	99.38
499.918	99.38
500.135	90.38
500.352	106.38
500.569	88.38
500.786	92.38
501.003	97.38
501.22	94.38
501.437	111.38
501.654	98.38
501.871	97.38
502.088	97.38
502.305	90.38
502.522	86.38
502.739	104.38
502.956	103.38
503.172	101.38
503.389	97.38
503.606	102.38
503.823	96.38
504.04	90.38
504.256	89.38
504.473	108.38
504.69	95.38
504.907	103.38
505.123	86.38
505.34	87.38
505.557	101.38
505.773	92.38
505.99	94.38
506.207	87.38
506.423	98.38
506.64	90.38
506.856	78.38
507.073	98.38
507.289	98.38
507.506	101.38
507.722	95.38
507.939	100.38
508.155	94.38
508.372	90.38
508.588	84.38
508.805	88.38
509.021	83.38
509.238	74.38
509.454	87.38
509.67	73.38
509.887	87.38
510.103	81.38
510.319	73.38
510.536	95.38
510.752	89.38
510.968	75.38
511.184	83.38
511.401	79.38
511.617	87.38
511.833	90.38
512.049	90.38
512.265	81.38
512.481	81.38
512.698	80.38
512.914	73.38
513.13	84.38
513.346	83.38
513.562	88.38
513.778	100.38
513.994	85.38
514.21	83.38
514.426	94.38
514.642	84.38
514.858	86.38
515.074	95.38
515.29	86.38
515.506	89.38
515.721	84.38
515.937	91.38
516.153	80.38
516.369	76.38
516.585	84.38
516.801	67.38
517.016	86.38
517.232	81.38
517.448	89.38
517.664	73.38
517.879	76.38
518.095	99.38
518.311	86.38
518.527	81.38
518.742	95.38
518.958	84.38
519.173	93.38
519.389	77.38
519.605	82.38
519.82	97.38
520.036	102.38
520.251	96.38
520.467	91.38
520.682	93.38
520.898	84.38
521.113	90.38
521.329	86.38
521.544	86.38
521.76	100.38
521.975	83.38
522.19	82.38
522.406	97.38
522.621	83.38
522.836	83.38
523.052	93.38
523.267	97.38
523.482	83.38
523.698	91.38
523.913	98.38
524.128	87.38
524.343	93.38
524.559	112.38
524.774	91.38
524.989	94.38
525.204	84.38
525.419	90.38
525.634	86.38
525.849	81.38
526.064	102.38
526.28	92.38
526.495	99.38
526.71	86.38
526.925	88.38
527.14	75.38
527.355	98.38
527.57	83.38
527.785	97.38
527.999	86.38
528.214	91.38
528.429	105.38
528.644	112.38
528.859	85.38
529.074	104.38
529.289	101.38
529.503	106.38
529.718	103.38
529.933	109.38
530.148	92.38
530.363	93.38
530.577	88.38
530.792	81.38
531.007	89.38
531.221	76.38
531.436	94.38
531.651	92.38
531.865	82.38
532.08	74.38
532.295	90.38
532.509	94.38
532.724	76.38
532.938	79.38
533.153	82.38
533.367	90.38
533.582	83.38
533.796	98.38
534.011	83.38
534.225	86.38
534.44	75.38
534.654	90.38
534.868	80.38
535.083	79.38
535.297	84.38
535.511	101.38
535.726	92.38
535.94	81.38
536.154	80.38
536.369	88.38
536.583	75.38
536.797	88.38
537.011	93.38
537.225	85.38
537.44	88.38
537.654	85.38
537.868	79.38
538.082	86.38
538.296	90.38
538.51	97.38
538.724	102.38
538.938	75.38
539.153	100.38
539.367	116.38
539.581	91.38
539.795	84.38
540.009	89.38
540.222	90.38
540.436	94.38
540.65	86.38
540.864	86.38
541.078	92.38
541.292	101.38
541.506	90.38
541.72	111.38
541.934	119.38
542.147	124.38
542.361	131.38
542.575	104.38
542.789	102.38
543.002	89.38
543.216	102.38
543.43	106.38
543.644	106.38
543.857	97.38
544.071	104.38
544.285	106.38
544.498	102.38
544.712	109.38
544.925	111.38
545.139	113.38
545.352	110.38
545.566	107.38
545.779	106.38
545.993	104.38
546.206	109.38
546.42	115.38
546.633	113.38
546.847	110.38
547.06	112.38
547.274	96.38
547.487	115.38
547.7	125.38
547.914	127.38
548.127	120.38
548.34	103.38
548.554	101.38
548.767	102.38
548.98	110.38
549.193	110.38
549.407	105.38
549.62	106.38
549.833	106.38
550.046	106.38
550.259	109.38
550.473	94.38
550.686	113.38
550.899	102.38
551.112	114.38
551.325	99.38
551.538	103.38
551.751	99.38
551.964	97.38
552.177	107.38
552.39	98.38
552.603	95.38
552.816	98.38
553.029	99.38
553.242	86.38
553.455	114.38
553.667	119.38
553.88	117.38
554.093	106.38
554.306	102.38
554.519	101.38
554.732	94.38
554.944	110.38
555.157	106.38
555.37	103.38
555.583	119.38
555.795	113.38
556.008	109.38
556.221	107.38
556.433	105.38
556.646	98.38
556.859	102.38
557.071	112.38
557.284	109.38
557.496	102.38
557.709	106.38
557.921	88.38
558.134	106.38
558.346	91.38
558.559	112.38
558.771	111.38
558.984	95.38
559.196	103.38
559.409	92.38
559.621	101.38
559.833	103.38
560.046	102.38
560.258	93.38
560.47	106.38
560.683	103.38
560.895	98.38
561.107	108.38
561.32	104.38
561.532	113.38
561.744	105.38
561.956	105.38
562.168	98.38
562.381	113.38
562.593	97.38
562.805	91.38
563.017	98.38
563.229	94.38
563.441	96.38
563.653	102.38
563.865	94.38
564.077	77.38
564.289	85.38
564.501	84.38
564.713	107.38
564.925	94.38
565.137	89.38
565.349	89.38
565.561	87.38
565.773	92.38
565.985	94.38
566.197	103.38
566.408	93.38
566.62	105.38
566.832	97.38
567.044	83.38
567.255	90.38
567.467	121.38
567.679	90.38
567.891	87.38
568.102	85.38
568.314	98.38
568.526	74.38
568.737	96.38
568.949	75.38
569.161	89.38
569.372	87.38
569.584	81.38
569.795	89.38
570.007	84.38
570.218	100.38
570.43	86.38
570.641	81.38
570.853	97.38
571.064	97.38
571.276	79.38
571.487	101.38
571.698	89.38
571.91	99.38
572.121	87.38
572.333	97.38
572.544	92.38
572.755	98.38
572.966	81.38
573.178	78.38
573.389	79.38
573.6	83.38
573.811	87.38
574.023	97.38
574.234	78.38
574.445	72.38
574.656	85.38
574.867	81.38
575.078	97.38
575.289	88.38
575.501	86.38
575.712	77.38
575.923	90.38
576.134	82.38
576.345	92.38
576.556	83.38
576.767	94.38
576.978	80.38
577.188	86.38
577.399	98.38
577.61	89.38
577.821	86.38
578.032	80.38
578.243	75.38
578.454	87.38
578.665	85.38
578.875	72.38
579.086	82.38
579.297	82.38
579.508	82.38
579.718	104.38
579.929	95.38
580.14	65.38
580.35	90.38
580.561	83.38
580.772	83.38
580.982	81.38
581.193	93.38
581.403	65.38
581.614	88.38
581.825	110.38
582.035	80.38
582.246	91.38
582.456	84.38
582.667	84.38
582.877	90.38
583.087	76.38
583.298	81.38
583.508	88.38
583.719	94.38
583.929	82.38
584.139	91.38
584.35	62.38
584.56	102.38
584.77	77.38
584.981	95.38
585.191	90.38
585.401	78.38
585.611	93.38
585.821	91.38
586.032	89.38
586.242	64.38
586.452	89.38
586.662	74.38
586.872	81.38
587.082	79.38
587.292	75.38
587.502	73.38
587.713	90.38
587.923	89.38
588.133	90.38
588.343	94.38
588.553	75.38
588.762	77.38
588.972	79.38
589.182	84.38
589.392	85.38
589.602	93.38
589.812	87.38
590.022	93.38
590.232	92.38
590.441	92.38
590.651	96.38
590.861	86.38
591.071	75.38
591.281	97.38
591.49	81.38
591.7	91.38
591.91	86.38
592.119	79.38
592.329	89.38
592.539	80.38
592.748	77.38
592.958	99.38
593.167	89.38
593.377	87.38
593.587	86.38
593.796	75.38
594.006	94.38
594.215	86.38
594.424	81.38
594.634	75.38
594.843	82.38
595.053	88.38
595.262	76.38
595.472	95.38
595.681	74.38
595.89	81.38
596.1	90.38
596.309	81.38
596.518	81.38
596.727	93.38
596.937	76.38
597.146	73.38
597.355	108.38
597.564	87.38
597.774	93.38
597.983	81.38
598.192	81.38
598.401	87.38
598.61	85.38
598.819	73.38
599.028	77.38
599.237	81.38
599.446	82.38
599.655	73.38
599.864	89.38
600.073	96.38
600.282	79.38
600.491	86.38
600.7	75.38
600.909	79.38
601.118	78.38
601.327	80.38
601.536	93.38
601.745	86.38
601.953	91.38
602.162	81.38
602.371	91.38
602.58	84.38
602.789	102.38
602.997	95.38
603.206	95.38
603.415	94.38
603.623	86.38
603.832	83.38
604.041	81.38
604.249	89.38
604.458	94.38
604.666	72.38
604.875	95.38
605.084	89.38
605.292	106.38
605.501	94.38
605.709	97.38
605.918	88.38
606.126	87.38
606.334	101.38
606.543	88.38
606.751	85.38
606.96	84.38
607.168	91.38
607.376	95.38
607.585	88.38
607.793	84.38
608.001	90.38
608.21	89.38
608.418	100.38
608.626	87.38
608.834	98.38
609.043	89.38
609.251	111.38
609.459	91.38
609.667	99.38
609.875	99.38
610.083	91.38
610.291	98.38
610.499	81.38
610.707	91.38
610.916	102.38
611.124	97.38
611.332	85.38
611.54	96.38
611.748	87.38
611.955	93.38
612.163	87.38
612.371	100.38
612.579	109.38
612.787	79.38
612.995	81.38
613.203	88.38
613.411	85.38
613.618	89.38
613.826	99.38
614.034	99.38
614.242	92.38
614.449	90.38
614.657	103.38
614.865	87.38
615.072	73.38
615.28	86.38
615.488	94.38
615.695	83.38
615.903	84.38
616.111	84.38
616.318	89.38
616.526	98.38
616.733	81.38
616.941	94.38
617.148	83.38
617.356	89.38
617.563	89.38
617.771	91.38
617.978	89.38
618.185	82.38
618.393	98.38
618.6	85.38
618.807	91.38
619.015	97.38
619.222	95.38
619.429	90.38
619.637	109.38
619.844	91.38
620.051	90.38
620.258	93.38
620.466	90.38
620.673	89.38
620.88	85.38
621.087	90.38
621.294	91.38
621.501	82.38
621.708	101.38
621.915	97.38
622.122	73.38
622.329	91.38
622.536	77.38
622.743	86.38
622.95	82.38
623.157	93.38
623.364	88.38
623.571	89.38
623.778	91.38
623.985	95.38
624.192	92.38
624.399	90.38
624.606	98.38
624.812	91.38
625.019	97.38
625.226	91.38
625.433	83.38
625.639	88.38
625.846	89.38
626.053	90.38
626.259	82.38
626.466	91.38
626.673	75.38
626.879	85.38
627.086	81.38
627.293	83.38
627.499	74.38
627.706	90.38
627.912	97.38
628.119	79.38
628.325	86.38
628.532	87.38
628.738	73.38
628.945	101.38
629.151	90.38
629.357	85.38
629.564	94.38
629.77	86.38
629.976	111.38
630.183	94.38
630.389	93.38
630.595	92.38
630.802	81.38
631.008	78.38
631.214	84.38
631.42	90.38
631.627	86.38
631.833	88.38
632.039	87.38
632.245	82.38
632.451	102.38
632.657	92.38
632.863	78.38
633.069	90.38
633.275	99.38
633.481	82.38
633.688	77.38
633.893	90.38
634.099	85.38
634.305	85.38
634.511	84.38
634.717	69.38
634.923	80.38
635.129	84.38
635.335	82.38
635.541	87.38
635.747	85.38
635.952	77.38
636.158	84.38
636.364	83.38
636.57	93.38
636.775	73.38
636.981	91.38
637.187	78.38
637.392	87.38
637.598	86.38
637.804	74.38
638.009	90.38
638.215	68.38
638.421	97.38
638.626	79.38
638.832	95.38
639.037	80.38
639.243	81.38
639.448	73.38
639.654	75.38
639.859	73.38
640.065	75.38
640.27	82.38
640.475	86.38
640.681	76.38
640.886	90.38
641.091	79.38
641.297	87.38
641.502	72.38
641.707	81.38
641.913	91.38
642.118	81.38
642.323	86.38
642.528	85.38
642.733	101.38
642.939	84.38
643.144	93.38
643.349	87.38
643.554	97.38
643.759	85.38
643.964	96.38
644.169	93.38
644.374	79.38
644.579	79.38
644.784	84.38
644.989	80.38
645.194	87.38
645.399	77.38
645.604	95.38
645.809	79.38
646.014	97.38
646.219	93.38
646.423	84.38
646.628	82.38
646.833	85.38
647.038	87.38
647.243	89.38
647.447	83.38
647.652	86.38
647.857	80.38
648.062	83.38
648.266	77.38
648.471	79.38
648.676	87.38
648.88	75.38
649.085	84.38
649.289	81.38
649.494	77.38
649.698	94.38
649.903	81.38
650.107	82.38
650.312	79.38
650.516	89.38
650.721	78.38
650.925	85.38
651.13	93.38
651.334	89.38
651.539	90.38
651.743	89.38
651.947	88.38
652.152	78.38
652.356	90.38
652.56	87.38
652.764	91.38
652.969	83.38
653.173	82.38
653.377	78.38
653.581	98.38
653.785	85.38
653.99	87.38
654.194	73.38
654.398	93.38
654.602	71.38
654.806	77.38
655.01	88.38
655.214	83.38
655.418	94.38
655.622	77.38
655.826	74.38
656.03	86.38
656.234	89.38
656.438	66.38
656.642	88.38
656.846	83.38
657.049	90.38
657.253	98.38
657.457	94.38
657.661	88.38
657.865	74.38
658.068	93.38
658.272	99.38
658.476	70.38
658.68	74.38
658.883	83.38
659.087	90.38
659.291	101.38
659.494	72.38
659.698	61.38
659.901	67.38
660.105	81.38
660.309	72.38
660.512	88.38
660.716	86.38
660.919	92.38
661.123	72.38
661.326	83.38
661.53	75.38
661.733	80.38
661.936	82.38
662.14	75.38
662.343	80.38
662.546	76.38
662.75	96.38
662.953	82.38
663.156	93.38
663.36	78.38
663.563	95.38
663.766	69.38
663.969	81.38
664.173	80.38
664.376	81.38
664.579	78.38
664.782	74.38
664.985	82.38
665.188	80.38
665.391	79.38
665.594	80.38
665.797	80.38
666	71.38
666.203	67.38
666.406	75.38
666.609	82.38
666.812	83.38
667.015	75.38
667.218	87.38
667.421	71.38
667.624	82.38
667.827	83.38
668.03	79.38
668.232	82.38
668.435	79.38
668.638	66.38
668.841	75.38
669.043	72.38
669.246	63.38
669.449	74.38
669.651	75.38
669.854	78.38
670.057	84.38
670.259	82.38
670.462	86.38
670.665	62.38
670.867	82.38
671.07	88.38
671.272	79.38
671.475	83.38
671.677	87.38
671.88	83.38
672.082	74.38
672.284	74.38
672.487	75.38
672.689	84.38
672.892	81.38
