Data from Location3.07152019.Energy5.Lamp.07192019.3%Agarose_HRD10591_15-18-24-269.txt Node
Date: Fri Jul 19 15:18:24 EDT 2019
User: cochatt
Spectrometer: HR+D1059
Trigger mode: 1
Integration Time (sec): 1.000000E-1
Scans to average: 1
Electric dark correction enabled: true
Nonlinearity correction enabled: false
Boxcar width: 0
XAxis mode: Wavelengths
Number of Pixels in Spectrum: 2048
>>>>>Begin Spectral Data<<<<<
223.165	-27.12
223.4	-27.12
223.635	-27.12
223.869	-16.12
224.104	-10.12
224.338	-22.12
224.573	-17.12
224.808	-14.12
225.042	-7.12
225.277	-6.12
225.511	3.88
225.746	4.88
225.98	7.88
226.215	12.88
226.449	21.88
226.683	21.88
226.918	12.88
227.152	33.88
227.387	32.88
227.621	28.88
227.856	32.88
228.09	55.88
228.324	49.88
228.559	49.88
228.793	64.88
229.027	76.88
229.262	63.88
229.496	66.88
229.73	61.88
229.964	63.88
230.199	74.88
230.433	64.88
230.667	68.88
230.901	73.88
231.136	80.88
231.37	82.88
231.604	87.88
231.838	82.88
232.072	79.88
232.306	88.88
232.541	81.88
232.775	73.88
233.009	75.88
233.243	67.88
233.477	82.88
233.711	78.88
233.945	75.88
234.179	81.88
234.413	81.88
234.647	75.88
234.881	71.88
235.115	71.88
235.349	73.88
235.583	71.88
235.817	84.88
236.051	85.88
236.285	81.88
236.519	72.88
236.753	84.88
236.987	79.88
237.221	82.88
237.455	74.88
237.689	77.88
237.922	83.88
238.156	66.88
238.39	70.88
238.624	64.88
238.858	78.88
239.091	70.88
239.325	80.88
239.559	73.88
239.793	81.88
240.027	82.88
240.26	77.88
240.494	87.88
240.728	72.88
240.961	79.88
241.195	74.88
241.429	81.88
241.662	73.88
241.896	65.88
242.13	72.88
242.363	68.88
242.597	75.88
242.83	84.88
243.064	81.88
243.298	76.88
243.531	75.88
243.765	87.88
243.998	73.88
244.232	85.88
244.465	57.88
244.699	93.88
244.932	70.88
245.166	75.88
245.399	71.88
245.633	66.88
245.866	79.88
246.099	60.88
246.333	85.88
246.566	70.88
246.8	71.88
247.033	66.88
247.266	76.88
247.5	69.88
247.733	76.88
247.966	88.88
248.2	76.88
248.433	76.88
248.666	71.88
248.899	88.88
249.133	70.88
249.366	78.88
249.599	93.88
249.832	81.88
250.066	89.88
250.299	87.88
250.532	85.88
250.765	73.88
250.998	88.88
251.231	73.88
251.465	98.88
251.698	74.88
251.931	80.88
252.164	81.88
252.397	75.88
252.63	74.88
252.863	79.88
253.096	77.88
253.329	72.88
253.562	95.88
253.795	77.88
254.028	80.88
254.261	79.88
254.494	75.88
254.727	74.88
254.96	93.88
255.193	69.88
255.426	82.88
255.659	90.88
255.892	81.88
256.124	75.88
256.357	84.88
256.59	81.88
256.823	77.88
257.056	79.88
257.289	88.88
257.521	94.88
257.754	92.88
257.987	83.88
258.22	96.88
258.452	75.88
258.685	80.88
258.918	81.88
259.151	86.88
259.383	82.88
259.616	81.88
259.849	76.88
260.081	85.88
260.314	69.88
260.547	83.88
260.779	82.88
261.012	74.88
261.244	90.88
261.477	75.88
261.71	86.88
261.942	92.88
262.175	78.88
262.407	87.88
262.64	77.88
262.872	85.88
263.105	74.88
263.337	82.88
263.57	85.88
263.802	90.88
264.035	85.88
264.267	73.88
264.499	74.88
264.732	74.88
264.964	74.88
265.197	78.88
265.429	77.88
265.661	87.88
265.894	81.88
266.126	83.88
266.358	76.88
266.591	91.88
266.823	85.88
267.055	74.88
267.287	79.88
267.52	87.88
267.752	75.88
267.984	79.88
268.216	77.88
268.448	84.88
268.681	77.88
268.913	84.88
269.145	82.88
269.377	94.88
269.609	84.88
269.841	75.88
270.073	86.88
270.306	81.88
270.538	96.88
270.77	91.88
271.002	87.88
271.234	86.88
271.466	72.88
271.698	71.88
271.93	73.88
272.162	68.88
272.394	87.88
272.626	81.88
272.858	78.88
273.09	75.88
273.322	75.88
273.553	84.88
273.785	81.88
274.017	80.88
274.249	82.88
274.481	75.88
274.713	80.88
274.945	79.88
275.176	96.88
275.408	79.88
275.64	85.88
275.872	83.88
276.104	84.88
276.335	73.88
276.567	80.88
276.799	71.88
277.031	91.88
277.262	90.88
277.494	91.88
277.726	90.88
277.957	98.88
278.189	85.88
278.421	75.88
278.652	88.88
278.884	82.88
279.115	91.88
279.347	78.88
279.579	87.88
279.81	80.88
280.042	81.88
280.273	81.88
280.505	78.88
280.736	80.88
280.968	81.88
281.199	91.88
281.431	81.88
281.662	89.88
281.894	85.88
282.125	91.88
282.356	78.88
282.588	66.88
282.819	86.88
283.051	91.88
283.282	81.88
283.513	90.88
283.745	75.88
283.976	92.88
284.207	77.88
284.439	87.88
284.67	83.88
284.901	80.88
285.132	91.88
285.364	81.88
285.595	74.88
285.826	77.88
286.057	89.88
286.288	83.88
286.52	89.88
286.751	70.88
286.982	83.88
287.213	95.88
287.444	98.88
287.675	90.88
287.906	83.88
288.138	86.88
288.369	79.88
288.6	86.88
288.831	74.88
289.062	86.88
289.293	81.88
289.524	91.88
289.755	91.88
289.986	86.88
290.217	75.88
290.448	80.88
290.679	87.88
290.91	94.88
291.141	73.88
291.371	85.88
291.602	86.88
291.833	88.88
292.064	87.88
292.295	94.88
292.526	89.88
292.757	87.88
292.987	98.88
293.218	81.88
293.449	101.88
293.68	96.88
293.91	85.88
294.141	91.88
294.372	71.88
294.603	93.88
294.833	82.88
295.064	83.88
295.295	95.88
295.525	101.88
295.756	89.88
295.987	89.88
296.217	87.88
296.448	78.88
296.679	81.88
296.909	86.88
297.14	73.88
297.37	95.88
297.601	93.88
297.831	84.88
298.062	95.88
298.292	83.88
298.523	82.88
298.753	87.88
298.984	78.88
299.214	93.88
299.445	89.88
299.675	88.88
299.905	88.88
300.136	78.88
300.366	96.88
300.597	82.88
300.827	81.88
301.057	78.88
301.288	86.88
301.518	86.88
301.748	95.88
301.979	78.88
302.209	84.88
302.439	77.88
302.669	85.88
302.9	87.88
303.13	82.88
303.36	82.88
303.59	84.88
303.82	82.88
304.051	78.88
304.281	76.88
304.511	71.88
304.741	79.88
304.971	77.88
305.201	89.88
305.431	83.88
305.661	91.88
305.891	83.88
306.121	87.88
306.352	74.88
306.582	85.88
306.812	86.88
307.042	70.88
307.272	95.88
307.502	69.88
307.731	82.88
307.961	91.88
308.191	79.88
308.421	95.88
308.651	88.88
308.881	96.88
309.111	73.88
309.341	99.88
309.571	81.88
309.8	86.88
310.03	88.88
310.26	78.88
310.49	92.88
310.72	87.88
310.949	85.88
311.179	82.88
311.409	77.88
311.639	87.88
311.868	84.88
312.098	87.88
312.328	91.88
312.557	75.88
312.787	91.88
313.017	77.88
313.246	75.88
313.476	82.88
313.706	90.88
313.935	87.88
314.165	74.88
314.394	84.88
314.624	99.88
314.853	85.88
315.083	74.88
315.312	93.88
315.542	86.88
315.771	87.88
316.001	89.88
316.23	80.88
316.46	83.88
316.689	85.88
316.919	72.88
317.148	89.88
317.377	100.88
317.607	85.88
317.836	79.88
318.065	86.88
318.295	100.88
318.524	94.88
318.753	84.88
318.983	89.88
319.212	88.88
319.441	86.88
319.67	81.88
319.9	78.88
320.129	80.88
320.358	75.88
320.587	81.88
320.816	82.88
321.046	83.88
321.275	93.88
321.504	82.88
321.733	79.88
321.962	99.88
322.191	79.88
322.42	94.88
322.649	94.88
322.878	76.88
323.108	95.88
323.337	87.88
323.566	85.88
323.795	93.88
324.024	66.88
324.253	86.88
324.482	76.88
324.71	89.88
324.939	90.88
325.168	83.88
325.397	86.88
325.626	83.88
325.855	79.88
326.084	94.88
326.313	79.88
326.542	81.88
326.77	90.88
326.999	70.88
327.228	82.88
327.457	82.88
327.686	86.88
327.914	92.88
328.143	91.88
328.372	87.88
328.6	81.88
328.829	96.88
329.058	91.88
329.287	79.88
329.515	82.88
329.744	84.88
329.972	96.88
330.201	78.88
330.43	81.88
330.658	84.88
330.887	91.88
331.115	83.88
331.344	79.88
331.572	99.88
331.801	87.88
332.03	96.88
332.258	93.88
332.486	81.88
332.715	66.88
332.943	69.88
333.172	70.88
333.4	78.88
333.629	91.88
333.857	92.88
334.085	105.88
334.314	95.88
334.542	99.88
334.771	76.88
334.999	87.88
335.227	72.88
335.455	88.88
335.684	84.88
335.912	90.88
336.14	87.88
336.369	81.88
336.597	82.88
336.825	79.88
337.053	81.88
337.281	93.88
337.51	87.88
337.738	88.88
337.966	75.88
338.194	74.88
338.422	89.88
338.65	85.88
338.878	98.88
339.106	89.88
339.334	88.88
339.562	93.88
339.79	77.88
340.018	89.88
340.246	95.88
340.474	85.88
340.702	73.88
340.93	80.88
341.158	75.88
341.386	70.88
341.614	81.88
341.842	74.88
342.07	94.88
342.298	91.88
342.526	99.88
342.754	87.88
342.981	92.88
343.209	81.88
343.437	92.88
343.665	87.88
343.893	92.88
344.12	93.88
344.348	94.88
344.576	83.88
344.804	83.88
345.031	85.88
345.259	95.88
345.487	84.88
345.714	75.88
345.942	88.88
346.17	83.88
346.397	81.88
346.625	87.88
346.853	93.88
347.08	79.88
347.308	88.88
347.535	88.88
347.763	86.88
347.99	85.88
348.218	87.88
348.445	81.88
348.673	77.88
348.9	82.88
349.128	86.88
349.355	83.88
349.583	90.88
349.81	94.88
350.037	87.88
350.265	89.88
350.492	90.88
350.72	104.88
350.947	81.88
351.174	93.88
351.402	84.88
351.629	79.88
351.856	95.88
352.083	86.88
352.311	84.88
352.538	81.88
352.765	80.88
352.992	100.88
353.22	82.88
353.447	92.88
353.674	75.88
353.901	74.88
354.128	94.88
354.355	103.88
354.583	81.88
354.81	72.88
355.037	74.88
355.264	78.88
355.491	85.88
355.718	86.88
355.945	87.88
356.172	91.88
356.399	81.88
356.626	83.88
356.853	79.88
357.08	89.88
357.307	84.88
357.534	76.88
357.761	86.88
357.988	90.88
358.215	86.88
358.441	87.88
358.668	72.88
358.895	90.88
359.122	106.88
359.349	90.88
359.576	89.88
359.802	96.88
360.029	98.88
360.256	73.88
360.483	84.88
360.709	84.88
360.936	90.88
361.163	91.88
361.39	92.88
361.616	85.88
361.843	81.88
362.07	92.88
362.296	85.88
362.523	62.88
362.749	79.88
362.976	87.88
363.203	84.88
363.429	78.88
363.656	79.88
363.882	89.88
364.109	95.88
364.335	82.88
364.562	80.88
364.788	78.88
365.015	95.88
365.241	77.88
365.468	94.88
365.694	82.88
365.92	83.88
366.147	95.88
366.373	84.88
366.599	78.88
366.826	73.88
367.052	69.88
367.278	84.88
367.505	96.88
367.731	86.88
367.957	89.88
368.184	78.88
368.41	73.88
368.636	81.88
368.862	94.88
369.089	91.88
369.315	93.88
369.541	84.88
369.767	85.88
369.993	87.88
370.219	87.88
370.445	76.88
370.672	94.88
370.898	78.88
371.124	83.88
371.35	91.88
371.576	85.88
371.802	71.88
372.028	88.88
372.254	86.88
372.48	93.88
372.706	85.88
372.932	81.88
373.158	76.88
373.384	74.88
373.61	85.88
373.835	86.88
374.061	85.88
374.287	79.88
374.513	66.88
374.739	84.88
374.965	98.88
375.191	100.88
375.416	82.88
375.642	91.88
375.868	81.88
376.094	72.88
376.319	93.88
376.545	93.88
376.771	84.88
376.997	78.88
377.222	72.88
377.448	82.88
377.674	81.88
377.899	84.88
378.125	74.88
378.35	81.88
378.576	85.88
378.802	93.88
379.027	97.88
379.253	80.88
379.478	86.88
379.704	81.88
379.929	81.88
380.155	95.88
380.38	85.88
380.606	92.88
380.831	94.88
381.057	93.88
381.282	94.88
381.507	78.88
381.733	82.88
381.958	95.88
382.184	76.88
382.409	94.88
382.634	96.88
382.86	82.88
383.085	94.88
383.31	93.88
383.535	85.88
383.761	80.88
383.986	80.88
384.211	68.88
384.436	83.88
384.662	89.88
384.887	86.88
385.112	74.88
385.337	73.88
385.562	85.88
385.787	90.88
386.013	93.88
386.238	79.88
386.463	92.88
386.688	85.88
386.913	73.88
387.138	95.88
387.363	85.88
387.588	89.88
387.813	83.88
388.038	82.88
388.263	87.88
388.488	86.88
388.713	83.88
388.938	69.88
389.163	77.88
389.387	67.88
389.612	93.88
389.837	73.88
390.062	94.88
390.287	82.88
390.512	85.88
390.736	77.88
390.961	85.88
391.186	84.88
391.411	77.88
391.636	80.88
391.86	85.88
392.085	80.88
392.31	91.88
392.534	85.88
392.759	84.88
392.984	85.88
393.208	89.88
393.433	80.88
393.658	86.88
393.882	75.88
394.107	105.88
394.331	87.88
394.556	84.88
394.78	103.88
395.005	89.88
395.229	82.88
395.454	95.88
395.678	89.88
395.903	94.88
396.127	88.88
396.352	96.88
396.576	96.88
396.801	88.88
397.025	74.88
397.249	77.88
397.474	97.88
397.698	80.88
397.922	73.88
398.147	80.88
398.371	93.88
398.595	83.88
398.82	88.88
399.044	91.88
399.268	92.88
399.492	94.88
399.717	89.88
399.941	95.88
400.165	83.88
400.389	88.88
400.613	75.88
400.837	109.88
401.062	90.88
401.286	102.88
401.51	90.88
401.734	84.88
401.958	97.88
402.182	90.88
402.406	83.88
402.63	92.88
402.854	61.88
403.078	88.88
403.302	89.88
403.526	80.88
403.75	76.88
403.974	91.88
404.198	93.88
404.422	81.88
404.645	93.88
404.869	109.88
405.093	82.88
405.317	86.88
405.541	82.88
405.765	79.88
405.988	80.88
406.212	98.88
406.436	98.88
406.66	91.88
406.883	78.88
407.107	97.88
407.331	94.88
407.555	79.88
407.778	98.88
408.002	83.88
408.226	93.88
408.449	82.88
408.673	71.88
408.896	93.88
409.12	83.88
409.344	82.88
409.567	86.88
409.791	97.88
410.014	95.88
410.238	89.88
410.461	83.88
410.685	92.88
410.908	86.88
411.132	98.88
411.355	86.88
411.578	104.88
411.802	83.88
412.025	80.88
412.249	90.88
412.472	93.88
412.695	85.88
412.919	88.88
413.142	86.88
413.365	98.88
413.589	91.88
413.812	81.88
414.035	95.88
414.258	83.88
414.482	100.88
414.705	102.88
414.928	92.88
415.151	104.88
415.374	93.88
415.597	89.88
415.821	83.88
416.044	90.88
416.267	84.88
416.49	95.88
416.713	77.88
416.936	86.88
417.159	85.88
417.382	104.88
417.605	84.88
417.828	89.88
418.051	91.88
418.274	84.88
418.497	91.88
418.72	87.88
418.943	103.88
419.166	86.88
419.389	95.88
419.611	100.88
419.834	101.88
420.057	94.88
420.28	93.88
420.503	87.88
420.726	99.88
420.948	97.88
421.171	101.88
421.394	92.88
421.617	92.88
421.839	102.88
422.062	80.88
422.285	95.88
422.507	88.88
422.73	94.88
422.953	86.88
423.175	83.88
423.398	96.88
423.621	91.88
423.843	98.88
424.066	84.88
424.288	95.88
424.511	89.88
424.733	112.88
424.956	104.88
425.178	96.88
425.401	91.88
425.623	95.88
425.846	96.88
426.068	83.88
426.291	89.88
426.513	88.88
426.735	96.88
426.958	89.88
427.18	84.88
427.402	97.88
427.625	90.88
427.847	80.88
428.069	99.88
428.292	94.88
428.514	81.88
428.736	91.88
428.958	90.88
429.181	78.88
429.403	92.88
429.625	87.88
429.847	93.88
430.069	89.88
430.292	90.88
430.514	83.88
430.736	110.88
430.958	98.88
431.18	90.88
431.402	88.88
431.624	76.88
431.846	82.88
432.068	79.88
432.29	85.88
432.512	89.88
432.734	90.88
432.956	94.88
433.178	94.88
433.4	96.88
433.622	95.88
433.844	97.88
434.066	89.88
434.287	83.88
434.509	77.88
434.731	87.88
434.953	79.88
435.175	87.88
435.397	91.88
435.618	85.88
435.84	93.88
436.062	87.88
436.284	97.88
436.505	90.88
436.727	91.88
436.949	88.88
437.17	93.88
437.392	91.88
437.614	82.88
437.835	72.88
438.057	83.88
438.278	87.88
438.5	98.88
438.721	93.88
438.943	98.88
439.165	82.88
439.386	93.88
439.608	83.88
439.829	100.88
440.05	107.88
440.272	103.88
440.493	95.88
440.715	101.88
440.936	111.88
441.158	109.88
441.379	98.88
441.6	111.88
441.822	99.88
442.043	98.88
442.264	94.88
442.486	85.88
442.707	111.88
442.928	95.88
443.149	105.88
443.371	90.88
443.592	94.88
443.813	105.88
444.034	97.88
444.255	110.88
444.476	101.88
444.698	98.88
444.919	101.88
445.14	231.88
445.361	147.88
445.582	104.88
445.803	111.88
446.024	108.88
446.245	101.88
446.466	109.88
446.687	95.88
446.908	93.88
447.129	100.88
447.35	106.88
447.571	115.88
447.792	97.88
448.013	91.88
448.234	97.88
448.455	95.88
448.675	86.88
448.896	92.88
449.117	102.88
449.338	98.88
449.559	82.88
449.779	90.88
450	102.88
450.221	88.88
450.442	83.88
450.662	97.88
450.883	80.88
451.104	105.88
451.324	106.88
451.545	80.88
451.766	96.88
451.986	91.88
452.207	89.88
452.428	101.88
452.648	89.88
452.869	85.88
453.089	91.88
453.31	87.88
453.53	88.88
453.751	67.88
453.971	76.88
454.192	89.88
454.412	97.88
454.633	90.88
454.853	99.88
455.073	78.88
455.294	89.88
455.514	89.88
455.734	99.88
455.955	81.88
456.175	82.88
456.395	98.88
456.616	104.88
456.836	86.88
457.056	91.88
457.276	88.88
457.497	93.88
457.717	94.88
457.937	106.88
458.157	85.88
458.377	75.88
458.598	88.88
458.818	79.88
459.038	88.88
459.258	71.88
459.478	81.88
459.698	77.88
459.918	77.88
460.138	80.88
460.358	96.88
460.578	88.88
460.798	93.88
461.018	89.88
461.238	83.88
461.458	82.88
461.678	94.88
461.898	89.88
462.118	90.88
462.338	87.88
462.558	80.88
462.777	92.88
462.997	85.88
463.217	91.88
463.437	99.88
463.657	98.88
463.876	90.88
464.096	78.88
464.316	76.88
464.536	73.88
464.755	88.88
464.975	88.88
465.195	90.88
465.414	87.88
465.634	89.88
465.854	90.88
466.073	99.88
466.293	83.88
466.512	93.88
466.732	100.88
466.951	102.88
467.171	96.88
467.391	103.88
467.61	100.88
467.829	83.88
468.049	96.88
468.268	91.88
468.488	76.88
468.707	97.88
468.927	76.88
469.146	96.88
469.365	96.88
469.585	100.88
469.804	108.88
470.023	103.88
470.243	88.88
470.462	89.88
470.681	93.88
470.901	106.88
471.12	97.88
471.339	102.88
471.558	94.88
471.777	83.88
471.997	94.88
472.216	88.88
472.435	94.88
472.654	93.88
472.873	96.88
473.092	91.88
473.311	85.88
473.53	97.88
473.749	96.88
473.968	83.88
474.187	89.88
474.406	98.88
474.625	82.88
474.844	91.88
475.063	101.88
475.282	90.88
475.501	98.88
475.72	105.88
475.939	78.88
476.158	87.88
476.377	101.88
476.596	96.88
476.814	84.88
477.033	90.88
477.252	98.88
477.471	98.88
477.69	87.88
477.908	111.88
478.127	105.88
478.346	96.88
478.564	108.88
478.783	92.88
479.002	86.88
479.22	83.88
479.439	101.88
479.658	94.88
479.876	83.88
480.095	77.88
480.313	90.88
480.532	95.88
480.751	90.88
480.969	88.88
481.188	85.88
481.406	79.88
481.624	97.88
481.843	72.88
482.061	91.88
482.28	93.88
482.498	90.88
482.717	82.88
482.935	97.88
483.153	104.88
483.372	106.88
483.59	104.88
483.808	91.88
484.027	93.88
484.245	90.88
484.463	90.88
484.681	104.88
484.9	109.88
485.118	90.88
485.336	113.88
485.554	97.88
485.772	90.88
485.99	90.88
486.209	78.88
486.427	88.88
486.645	84.88
486.863	95.88
487.081	95.88
487.299	106.88
487.517	101.88
487.735	112.88
487.953	119.88
488.171	121.88
488.389	103.88
488.607	104.88
488.825	103.88
489.043	111.88
489.261	83.88
489.479	93.88
489.696	96.88
489.914	104.88
490.132	97.88
490.35	92.88
490.568	113.88
490.786	97.88
491.003	109.88
491.221	107.88
491.439	98.88
491.657	103.88
491.874	117.88
492.092	127.88
492.31	121.88
492.527	127.88
492.745	109.88
492.963	126.88
493.18	120.88
493.398	107.88
493.615	109.88
493.833	114.88
494.05	125.88
494.268	104.88
494.485	89.88
494.703	106.88
494.92	116.88
495.138	104.88
495.355	101.88
495.573	94.88
495.79	101.88
496.008	108.88
496.225	109.88
496.442	104.88
496.66	118.88
496.877	105.88
497.094	105.88
497.312	114.88
497.529	121.88
497.746	105.88
497.963	92.88
498.181	93.88
498.398	90.88
498.615	93.88
498.832	97.88
499.049	92.88
499.267	98.88
499.484	100.88
499.701	86.88
499.918	101.88
500.135	88.88
500.352	89.88
500.569	101.88
500.786	89.88
501.003	82.88
501.22	123.88
501.437	105.88
501.654	111.88
501.871	112.88
502.088	92.88
502.305	89.88
502.522	95.88
502.739	95.88
502.956	82.88
503.172	71.88
503.389	82.88
503.606	97.88
503.823	111.88
504.04	94.88
504.256	99.88
504.473	82.88
504.69	85.88
504.907	101.88
505.123	88.88
505.34	83.88
505.557	113.88
505.773	102.88
505.99	105.88
506.207	87.88
506.423	75.88
506.64	84.88
506.856	78.88
507.073	100.88
507.289	81.88
507.506	97.88
507.722	102.88
507.939	95.88
508.155	103.88
508.372	87.88
508.588	83.88
508.805	97.88
509.021	105.88
509.238	87.88
509.454	93.88
509.67	93.88
509.887	77.88
510.103	77.88
510.319	82.88
510.536	92.88
510.752	77.88
510.968	78.88
511.184	81.88
511.401	84.88
511.617	96.88
511.833	90.88
512.049	78.88
512.265	85.88
512.481	71.88
512.698	93.88
512.914	89.88
513.13	82.88
513.346	84.88
513.562	87.88
513.778	87.88
513.994	87.88
514.21	84.88
514.426	80.88
514.642	82.88
514.858	83.88
515.074	86.88
515.29	82.88
515.506	76.88
515.721	85.88
515.937	88.88
516.153	65.88
516.369	83.88
516.585	84.88
516.801	91.88
517.016	89.88
517.232	69.88
517.448	83.88
517.664	70.88
517.879	89.88
518.095	87.88
518.311	76.88
518.527	96.88
518.742	76.88
518.958	87.88
519.173	73.88
519.389	99.88
519.605	82.88
519.82	87.88
520.036	98.88
520.251	82.88
520.467	94.88
520.682	80.88
520.898	85.88
521.113	76.88
521.329	78.88
521.544	90.88
521.76	91.88
521.975	82.88
522.19	75.88
522.406	86.88
522.621	87.88
522.836	83.88
523.052	100.88
523.267	96.88
523.482	88.88
523.698	95.88
523.913	85.88
524.128	104.88
524.343	100.88
524.559	97.88
524.774	86.88
524.989	103.88
525.204	105.88
525.419	94.88
525.634	90.88
525.849	90.88
526.064	80.88
526.28	94.88
526.495	78.88
526.71	80.88
526.925	99.88
527.14	71.88
527.355	90.88
527.57	75.88
527.785	93.88
527.999	88.88
528.214	76.88
528.429	91.88
528.644	92.88
528.859	91.88
529.074	105.88
529.289	103.88
529.503	109.88
529.718	99.88
529.933	91.88
530.148	86.88
530.363	90.88
530.577	88.88
530.792	86.88
531.007	72.88
531.221	63.88
531.436	72.88
531.651	73.88
531.865	101.88
532.08	83.88
532.295	90.88
532.509	76.88
532.724	72.88
532.938	96.88
533.153	87.88
533.367	92.88
533.582	91.88
533.796	93.88
534.011	90.88
534.225	111.88
534.44	81.88
534.654	88.88
534.868	76.88
535.083	79.88
535.297	81.88
535.511	85.88
535.726	90.88
535.94	93.88
536.154	90.88
536.369	101.88
536.583	74.88
536.797	92.88
537.011	83.88
537.225	77.88
537.44	77.88
537.654	87.88
537.868	79.88
538.082	84.88
538.296	86.88
538.51	88.88
538.724	83.88
538.938	96.88
539.153	92.88
539.367	93.88
539.581	88.88
539.795	85.88
540.009	90.88
540.222	95.88
540.436	100.88
540.65	84.88
540.864	96.88
541.078	96.88
541.292	90.88
541.506	101.88
541.72	102.88
541.934	100.88
542.147	118.88
542.361	127.88
542.575	123.88
542.789	114.88
543.002	105.88
543.216	95.88
543.43	99.88
543.644	83.88
543.857	107.88
544.071	95.88
544.285	114.88
544.498	111.88
544.712	107.88
544.925	111.88
545.139	109.88
545.352	117.88
545.566	91.88
545.779	104.88
545.993	121.88
546.206	109.88
546.42	98.88
546.633	106.88
546.847	98.88
547.06	103.88
547.274	110.88
547.487	117.88
547.7	103.88
547.914	99.88
548.127	104.88
548.34	113.88
548.554	100.88
548.767	116.88
548.98	93.88
549.193	115.88
549.407	109.88
549.62	94.88
549.833	111.88
550.046	102.88
550.259	118.88
550.473	98.88
550.686	103.88
550.899	102.88
551.112	95.88
551.325	86.88
551.538	103.88
551.751	90.88
551.964	101.88
552.177	89.88
552.39	106.88
552.603	112.88
552.816	104.88
553.029	124.88
553.242	102.88
553.455	109.88
553.667	102.88
553.88	100.88
554.093	97.88
554.306	116.88
554.519	112.88
554.732	110.88
554.944	118.88
555.157	104.88
555.37	96.88
555.583	97.88
555.795	100.88
556.008	87.88
556.221	107.88
556.433	90.88
556.646	96.88
556.859	115.88
557.071	101.88
557.284	102.88
557.496	118.88
557.709	86.88
557.921	116.88
558.134	100.88
558.346	96.88
558.559	89.88
558.771	107.88
558.984	91.88
559.196	100.88
559.409	108.88
559.621	92.88
559.833	93.88
560.046	95.88
560.258	99.88
560.47	110.88
560.683	92.88
560.895	95.88
561.107	117.88
561.32	102.88
561.532	87.88
561.744	86.88
561.956	98.88
562.168	106.88
562.381	99.88
562.593	97.88
562.805	87.88
563.017	92.88
563.229	90.88
563.441	98.88
563.653	91.88
563.865	91.88
564.077	100.88
564.289	92.88
564.501	92.88
564.713	93.88
564.925	98.88
565.137	94.88
565.349	97.88
565.561	85.88
565.773	85.88
565.985	95.88
566.197	97.88
566.408	89.88
566.62	88.88
566.832	78.88
567.044	89.88
567.255	86.88
567.467	103.88
567.679	93.88
567.891	88.88
568.102	94.88
568.314	78.88
568.526	79.88
568.737	103.88
568.949	90.88
569.161	93.88
569.372	69.88
569.584	98.88
569.795	86.88
570.007	96.88
570.218	84.88
570.43	76.88
570.641	86.88
570.853	82.88
571.064	91.88
571.276	93.88
571.487	94.88
571.698	72.88
571.91	88.88
572.121	105.88
572.333	89.88
572.544	97.88
572.755	85.88
572.966	85.88
573.178	85.88
573.389	91.88
573.6	95.88
573.811	91.88
574.023	82.88
574.234	80.88
574.445	100.88
574.656	75.88
574.867	84.88
575.078	92.88
575.289	80.88
575.501	76.88
575.712	89.88
575.923	81.88
576.134	79.88
576.345	89.88
576.556	74.88
576.767	89.88
576.978	94.88
577.188	98.88
577.399	97.88
577.61	81.88
577.821	91.88
578.032	84.88
578.243	73.88
578.454	85.88
578.665	68.88
578.875	77.88
579.086	74.88
579.297	75.88
579.508	86.88
579.718	93.88
579.929	86.88
580.14	80.88
580.35	81.88
580.561	85.88
580.772	85.88
580.982	92.88
581.193	101.88
581.403	78.88
581.614	77.88
581.825	84.88
582.035	83.88
582.246	82.88
582.456	86.88
582.667	92.88
582.877	97.88
583.087	86.88
583.298	70.88
583.508	78.88
583.719	74.88
583.929	75.88
584.139	96.88
584.35	74.88
584.56	83.88
584.77	84.88
584.981	77.88
585.191	75.88
585.401	64.88
585.611	80.88
585.821	85.88
586.032	82.88
586.242	84.88
586.452	91.88
586.662	87.88
586.872	87.88
587.082	87.88
587.292	84.88
587.502	76.88
587.713	81.88
587.923	81.88
588.133	91.88
588.343	73.88
588.553	84.88
588.762	86.88
588.972	84.88
589.182	81.88
589.392	85.88
589.602	83.88
589.812	75.88
590.022	77.88
590.232	87.88
590.441	84.88
590.651	94.88
590.861	85.88
591.071	81.88
591.281	87.88
591.49	82.88
591.7	80.88
591.91	96.88
592.119	70.88
592.329	83.88
592.539	85.88
592.748	81.88
592.958	93.88
593.167	95.88
593.377	85.88
593.587	83.88
593.796	97.88
594.006	78.88
594.215	78.88
594.424	78.88
594.634	73.88
594.843	78.88
595.053	84.88
595.262	78.88
595.472	76.88
595.681	88.88
595.89	85.88
596.1	88.88
596.309	83.88
596.518	88.88
596.727	88.88
596.937	86.88
597.146	93.88
597.355	89.88
597.564	86.88
597.774	109.88
597.983	85.88
598.192	81.88
598.401	78.88
598.61	97.88
598.819	102.88
599.028	89.88
599.237	86.88
599.446	86.88
599.655	76.88
599.864	96.88
600.073	91.88
600.282	79.88
600.491	92.88
600.7	75.88
600.909	91.88
601.118	86.88
601.327	104.88
601.536	89.88
601.745	87.88
601.953	95.88
602.162	83.88
602.371	82.88
602.58	85.88
602.789	87.88
602.997	98.88
603.206	93.88
603.415	88.88
603.623	92.88
603.832	85.88
604.041	81.88
604.249	82.88
604.458	93.88
604.666	81.88
604.875	99.88
605.084	81.88
605.292	100.88
605.501	99.88
605.709	99.88
605.918	99.88
606.126	110.88
606.334	97.88
606.543	84.88
606.751	96.88
606.96	105.88
607.168	81.88
607.376	95.88
607.585	81.88
607.793	98.88
608.001	88.88
608.21	91.88
608.418	83.88
608.626	104.88
608.834	96.88
609.043	86.88
609.251	82.88
609.459	83.88
609.667	88.88
609.875	91.88
610.083	93.88
610.291	90.88
610.499	101.88
610.707	82.88
610.916	99.88
611.124	96.88
611.332	105.88
611.54	79.88
611.748	99.88
611.955	93.88
612.163	88.88
612.371	102.88
612.579	75.88
612.787	81.88
612.995	97.88
613.203	87.88
613.411	98.88
613.618	87.88
613.826	96.88
614.034	89.88
614.242	88.88
614.449	89.88
614.657	91.88
614.865	86.88
615.072	91.88
615.28	84.88
615.488	94.88
615.695	99.88
615.903	93.88
616.111	79.88
616.318	114.88
616.526	87.88
616.733	86.88
616.941	91.88
617.148	90.88
617.356	81.88
617.563	88.88
617.771	86.88
617.978	90.88
618.185	83.88
618.393	86.88
618.6	94.88
618.807	88.88
619.015	86.88
619.222	110.88
619.429	82.88
619.637	100.88
619.844	103.88
620.051	91.88
620.258	88.88
620.466	89.88
620.673	91.88
620.88	90.88
621.087	93.88
621.294	98.88
621.501	79.88
621.708	83.88
621.915	94.88
622.122	83.88
622.329	98.88
622.536	93.88
622.743	83.88
622.95	95.88
623.157	91.88
623.364	85.88
623.571	97.88
623.778	94.88
623.985	88.88
624.192	97.88
624.399	84.88
624.606	82.88
624.812	94.88
625.019	91.88
625.226	95.88
625.433	98.88
625.639	102.88
625.846	93.88
626.053	89.88
626.259	95.88
626.466	90.88
626.673	87.88
626.879	81.88
627.086	91.88
627.293	80.88
627.499	103.88
627.706	92.88
627.912	98.88
628.119	75.88
628.325	98.88
628.532	91.88
628.738	90.88
628.945	85.88
629.151	93.88
629.357	97.88
629.564	82.88
629.77	90.88
629.976	97.88
630.183	85.88
630.389	86.88
630.595	88.88
630.802	76.88
631.008	81.88
631.214	92.88
631.42	79.88
631.627	93.88
631.833	90.88
632.039	83.88
632.245	99.88
632.451	101.88
632.657	93.88
632.863	91.88
633.069	88.88
633.275	81.88
633.481	90.88
633.688	98.88
633.893	96.88
634.099	86.88
634.305	77.88
634.511	102.88
634.717	88.88
634.923	95.88
635.129	88.88
635.335	86.88
635.541	90.88
635.747	81.88
635.952	90.88
636.158	93.88
636.364	68.88
636.57	93.88
636.775	91.88
636.981	79.88
637.187	91.88
637.392	90.88
637.598	80.88
637.804	98.88
638.009	90.88
638.215	77.88
638.421	95.88
638.626	90.88
638.832	93.88
639.037	87.88
639.243	75.88
639.448	89.88
639.654	88.88
639.859	82.88
640.065	82.88
640.27	90.88
640.475	89.88
640.681	83.88
640.886	105.88
641.091	91.88
641.297	94.88
641.502	86.88
641.707	91.88
641.913	107.88
642.118	96.88
642.323	75.88
642.528	95.88
642.733	104.88
642.939	90.88
643.144	99.88
643.349	72.88
643.554	90.88
643.759	94.88
643.964	73.88
644.169	86.88
644.374	86.88
644.579	82.88
644.784	93.88
644.989	102.88
645.194	89.88
645.399	89.88
645.604	81.88
645.809	79.88
646.014	96.88
646.219	88.88
646.423	74.88
646.628	81.88
646.833	81.88
647.038	82.88
647.243	81.88
647.447	88.88
647.652	87.88
647.857	86.88
648.062	87.88
648.266	84.88
648.471	84.88
648.676	104.88
648.88	82.88
649.085	81.88
649.289	74.88
649.494	74.88
649.698	104.88
649.903	91.88
650.107	82.88
650.312	86.88
650.516	88.88
650.721	90.88
650.925	76.88
651.13	81.88
651.334	82.88
651.539	89.88
651.743	87.88
651.947	70.88
652.152	102.88
652.356	85.88
652.56	98.88
652.764	79.88
652.969	87.88
653.173	100.88
653.377	95.88
653.581	86.88
653.785	112.88
653.99	89.88
654.194	96.88
654.398	107.88
654.602	85.88
654.806	89.88
655.01	91.88
655.214	78.88
655.418	80.88
655.622	83.88
655.826	84.88
656.03	91.88
656.234	92.88
656.438	89.88
656.642	80.88
656.846	88.88
657.049	92.88
657.253	78.88
657.457	82.88
657.661	80.88
657.865	78.88
658.068	76.88
658.272	81.88
658.476	82.88
658.68	88.88
658.883	90.88
659.087	81.88
659.291	80.88
659.494	94.88
659.698	88.88
659.901	87.88
660.105	82.88
660.309	89.88
660.512	99.88
660.716	74.88
660.919	90.88
661.123	89.88
661.326	75.88
661.53	81.88
661.733	85.88
661.936	90.88
662.14	82.88
662.343	85.88
662.546	79.88
662.75	88.88
662.953	81.88
663.156	71.88
663.36	75.88
663.563	86.88
663.766	81.88
663.969	75.88
664.173	74.88
664.376	84.88
664.579	74.88
664.782	83.88
664.985	74.88
665.188	74.88
665.391	87.88
665.594	79.88
665.797	86.88
666	90.88
666.203	74.88
666.406	76.88
666.609	89.88
666.812	81.88
667.015	91.88
667.218	85.88
667.421	80.88
667.624	86.88
667.827	83.88
668.03	81.88
668.232	84.88
668.435	83.88
668.638	79.88
668.841	94.88
669.043	76.88
669.246	72.88
669.449	83.88
669.651	79.88
669.854	79.88
670.057	86.88
670.259	89.88
670.462	85.88
670.665	87.88
670.867	84.88
671.07	85.88
671.272	82.88
671.475	73.88
671.677	70.88
671.88	83.88
672.082	77.88
672.284	74.88
672.487	89.88
672.689	71.88
672.892	98.88
