Data from Location3.07152019.Energy5.Lamp.07192019.3%Agarose_HRD10591_15-18-11-270.txt Node
Date: Fri Jul 19 15:18:11 EDT 2019
User: cochatt
Spectrometer: HR+D1059
Trigger mode: 1
Integration Time (sec): 1.000000E-1
Scans to average: 1
Electric dark correction enabled: true
Nonlinearity correction enabled: false
Boxcar width: 0
XAxis mode: Wavelengths
Number of Pixels in Spectrum: 2048
>>>>>Begin Spectral Data<<<<<
223.165	-15.12
223.4	-15.12
223.635	-15.12
223.869	-5.12
224.104	-20.12
224.338	-21.12
224.573	-24.12
224.808	-10.12
225.042	-0.12
225.277	-2.12
225.511	-9.12
225.746	-1.12
225.98	1.88
226.215	25.88
226.449	18.88
226.683	21.88
226.918	26.88
227.152	12.88
227.387	28.88
227.621	29.88
227.856	39.88
228.09	44.88
228.324	44.88
228.559	56.88
228.793	54.88
229.027	57.88
229.262	65.88
229.496	62.88
229.73	74.88
229.964	68.88
230.199	73.88
230.433	70.88
230.667	85.88
230.901	85.88
231.136	58.88
231.37	81.88
231.604	77.88
231.838	78.88
232.072	78.88
232.306	93.88
232.541	87.88
232.775	87.88
233.009	96.88
233.243	81.88
233.477	74.88
233.711	85.88
233.945	76.88
234.179	80.88
234.413	89.88
234.647	90.88
234.881	76.88
235.115	77.88
235.349	80.88
235.583	71.88
235.817	72.88
236.051	65.88
236.285	72.88
236.519	64.88
236.753	72.88
236.987	69.88
237.221	75.88
237.455	79.88
237.689	68.88
237.922	74.88
238.156	64.88
238.39	78.88
238.624	76.88
238.858	74.88
239.091	72.88
239.325	81.88
239.559	66.88
239.793	88.88
240.027	74.88
240.26	76.88
240.494	68.88
240.728	65.88
240.961	60.88
241.195	76.88
241.429	62.88
241.662	87.88
241.896	71.88
242.13	72.88
242.363	65.88
242.597	82.88
242.83	79.88
243.064	68.88
243.298	55.88
243.531	59.88
243.765	63.88
243.998	77.88
244.232	63.88
244.465	71.88
244.699	76.88
244.932	65.88
245.166	70.88
245.399	86.88
245.633	57.88
245.866	77.88
246.099	71.88
246.333	67.88
246.566	79.88
246.8	75.88
247.033	78.88
247.266	66.88
247.5	64.88
247.733	81.88
247.966	71.88
248.2	79.88
248.433	64.88
248.666	64.88
248.899	82.88
249.133	87.88
249.366	72.88
249.599	67.88
249.832	70.88
250.066	77.88
250.299	68.88
250.532	62.88
250.765	64.88
250.998	62.88
251.231	84.88
251.465	82.88
251.698	76.88
251.931	94.88
252.164	75.88
252.397	82.88
252.63	73.88
252.863	71.88
253.096	85.88
253.329	76.88
253.562	72.88
253.795	69.88
254.028	63.88
254.261	80.88
254.494	74.88
254.727	73.88
254.96	93.88
255.193	72.88
255.426	65.88
255.659	79.88
255.892	78.88
256.124	74.88
256.357	85.88
256.59	82.88
256.823	77.88
257.056	77.88
257.289	74.88
257.521	70.88
257.754	80.88
257.987	78.88
258.22	78.88
258.452	61.88
258.685	66.88
258.918	70.88
259.151	76.88
259.383	61.88
259.616	79.88
259.849	82.88
260.081	75.88
260.314	79.88
260.547	92.88
260.779	71.88
261.012	74.88
261.244	68.88
261.477	67.88
261.71	75.88
261.942	81.88
262.175	87.88
262.407	72.88
262.64	84.88
262.872	86.88
263.105	87.88
263.337	96.88
263.57	77.88
263.802	65.88
264.035	65.88
264.267	80.88
264.499	77.88
264.732	72.88
264.964	70.88
265.197	93.88
265.429	92.88
265.661	91.88
265.894	91.88
266.126	74.88
266.358	82.88
266.591	78.88
266.823	77.88
267.055	76.88
267.287	86.88
267.52	82.88
267.752	67.88
267.984	88.88
268.216	69.88
268.448	73.88
268.681	85.88
268.913	72.88
269.145	68.88
269.377	67.88
269.609	77.88
269.841	87.88
270.073	71.88
270.306	80.88
270.538	90.88
270.77	79.88
271.002	69.88
271.234	79.88
271.466	73.88
271.698	88.88
271.93	84.88
272.162	76.88
272.394	77.88
272.626	81.88
272.858	79.88
273.09	80.88
273.322	69.88
273.553	90.88
273.785	83.88
274.017	78.88
274.249	69.88
274.481	75.88
274.713	97.88
274.945	76.88
275.176	76.88
275.408	70.88
275.64	76.88
275.872	77.88
276.104	82.88
276.335	93.88
276.567	84.88
276.799	75.88
277.031	74.88
277.262	86.88
277.494	87.88
277.726	80.88
277.957	70.88
278.189	63.88
278.421	70.88
278.652	76.88
278.884	71.88
279.115	88.88
279.347	83.88
279.579	80.88
279.81	83.88
280.042	79.88
280.273	79.88
280.505	86.88
280.736	83.88
280.968	74.88
281.199	84.88
281.431	78.88
281.662	94.88
281.894	71.88
282.125	81.88
282.356	70.88
282.588	73.88
282.819	78.88
283.051	73.88
283.282	84.88
283.513	80.88
283.745	74.88
283.976	82.88
284.207	76.88
284.439	79.88
284.67	78.88
284.901	67.88
285.132	82.88
285.364	65.88
285.595	76.88
285.826	79.88
286.057	78.88
286.288	87.88
286.52	82.88
286.751	77.88
286.982	86.88
287.213	85.88
287.444	71.88
287.675	71.88
287.906	78.88
288.138	86.88
288.369	92.88
288.6	78.88
288.831	80.88
289.062	77.88
289.293	74.88
289.524	78.88
289.755	72.88
289.986	78.88
290.217	79.88
290.448	80.88
290.679	98.88
290.91	90.88
291.141	86.88
291.371	64.88
291.602	87.88
291.833	72.88
292.064	77.88
292.295	80.88
292.526	89.88
292.757	79.88
292.987	78.88
293.218	70.88
293.449	80.88
293.68	71.88
293.91	66.88
294.141	80.88
294.372	79.88
294.603	85.88
294.833	81.88
295.064	88.88
295.295	76.88
295.525	74.88
295.756	85.88
295.987	84.88
296.217	95.88
296.448	77.88
296.679	79.88
296.909	86.88
297.14	77.88
297.37	98.88
297.601	85.88
297.831	68.88
298.062	80.88
298.292	87.88
298.523	76.88
298.753	75.88
298.984	75.88
299.214	73.88
299.445	90.88
299.675	83.88
299.905	72.88
300.136	86.88
300.366	82.88
300.597	83.88
300.827	76.88
301.057	83.88
301.288	101.88
301.518	101.88
301.748	87.88
301.979	89.88
302.209	74.88
302.439	97.88
302.669	82.88
302.9	83.88
303.13	97.88
303.36	84.88
303.59	74.88
303.82	88.88
304.051	75.88
304.281	87.88
304.511	98.88
304.741	71.88
304.971	81.88
305.201	93.88
305.431	70.88
305.661	71.88
305.891	85.88
306.121	91.88
306.352	95.88
306.582	79.88
306.812	85.88
307.042	87.88
307.272	79.88
307.502	75.88
307.731	73.88
307.961	88.88
308.191	74.88
308.421	70.88
308.651	78.88
308.881	83.88
309.111	77.88
309.341	89.88
309.571	84.88
309.8	85.88
310.03	70.88
310.26	68.88
310.49	98.88
310.72	86.88
310.949	62.88
311.179	76.88
311.409	63.88
311.639	83.88
311.868	80.88
312.098	65.88
312.328	80.88
312.557	85.88
312.787	89.88
313.017	76.88
313.246	89.88
313.476	81.88
313.706	78.88
313.935	95.88
314.165	75.88
314.394	77.88
314.624	82.88
314.853	90.88
315.083	73.88
315.312	79.88
315.542	91.88
315.771	84.88
316.001	91.88
316.23	98.88
316.46	80.88
316.689	84.88
316.919	80.88
317.148	69.88
317.377	78.88
317.607	79.88
317.836	77.88
318.065	82.88
318.295	80.88
318.524	75.88
318.753	83.88
318.983	90.88
319.212	80.88
319.441	80.88
319.67	76.88
319.9	83.88
320.129	81.88
320.358	92.88
320.587	87.88
320.816	85.88
321.046	65.88
321.275	91.88
321.504	85.88
321.733	74.88
321.962	101.88
322.191	79.88
322.42	76.88
322.649	89.88
322.878	87.88
323.108	92.88
323.337	90.88
323.566	87.88
323.795	80.88
324.024	86.88
324.253	75.88
324.482	83.88
324.71	91.88
324.939	81.88
325.168	83.88
325.397	87.88
325.626	76.88
325.855	76.88
326.084	87.88
326.313	74.88
326.542	79.88
326.77	71.88
326.999	70.88
327.228	90.88
327.457	71.88
327.686	71.88
327.914	84.88
328.143	64.88
328.372	85.88
328.6	86.88
328.829	95.88
329.058	86.88
329.287	92.88
329.515	74.88
329.744	90.88
329.972	83.88
330.201	62.88
330.43	73.88
330.658	76.88
330.887	70.88
331.115	72.88
331.344	71.88
331.572	83.88
331.801	75.88
332.03	70.88
332.258	81.88
332.486	81.88
332.715	73.88
332.943	91.88
333.172	75.88
333.4	76.88
333.629	70.88
333.857	86.88
334.085	94.88
334.314	81.88
334.542	78.88
334.771	85.88
334.999	93.88
335.227	76.88
335.455	81.88
335.684	90.88
335.912	89.88
336.14	85.88
336.369	82.88
336.597	82.88
336.825	74.88
337.053	74.88
337.281	82.88
337.51	87.88
337.738	84.88
337.966	92.88
338.194	67.88
338.422	70.88
338.65	79.88
338.878	90.88
339.106	81.88
339.334	77.88
339.562	80.88
339.79	92.88
340.018	82.88
340.246	86.88
340.474	75.88
340.702	75.88
340.93	74.88
341.158	75.88
341.386	76.88
341.614	87.88
341.842	97.88
342.07	98.88
342.298	86.88
342.526	71.88
342.754	80.88
342.981	78.88
343.209	86.88
343.437	79.88
343.665	83.88
343.893	85.88
344.12	82.88
344.348	88.88
344.576	79.88
344.804	81.88
345.031	88.88
345.259	70.88
345.487	69.88
345.714	82.88
345.942	79.88
346.17	105.88
346.397	93.88
346.625	76.88
346.853	82.88
347.08	77.88
347.308	78.88
347.535	82.88
347.763	87.88
347.99	84.88
348.218	84.88
348.445	74.88
348.673	81.88
348.9	81.88
349.128	71.88
349.355	70.88
349.583	83.88
349.81	79.88
350.037	68.88
350.265	77.88
350.492	66.88
350.72	79.88
350.947	83.88
351.174	82.88
351.402	71.88
351.629	80.88
351.856	82.88
352.083	92.88
352.311	81.88
352.538	64.88
352.765	87.88
352.992	88.88
353.22	85.88
353.447	82.88
353.674	73.88
353.901	88.88
354.128	84.88
354.355	74.88
354.583	74.88
354.81	75.88
355.037	78.88
355.264	82.88
355.491	72.88
355.718	90.88
355.945	79.88
356.172	79.88
356.399	72.88
356.626	85.88
356.853	75.88
357.08	85.88
357.307	73.88
357.534	74.88
357.761	67.88
357.988	76.88
358.215	76.88
358.441	86.88
358.668	82.88
358.895	76.88
359.122	81.88
359.349	90.88
359.576	92.88
359.802	76.88
360.029	82.88
360.256	71.88
360.483	76.88
360.709	81.88
360.936	84.88
361.163	63.88
361.39	79.88
361.616	86.88
361.843	90.88
362.07	79.88
362.296	83.88
362.523	87.88
362.749	80.88
362.976	78.88
363.203	81.88
363.429	79.88
363.656	96.88
363.882	87.88
364.109	92.88
364.335	80.88
364.562	91.88
364.788	90.88
365.015	81.88
365.241	73.88
365.468	74.88
365.694	78.88
365.92	84.88
366.147	68.88
366.373	82.88
366.599	75.88
366.826	83.88
367.052	94.88
367.278	79.88
367.505	75.88
367.731	80.88
367.957	91.88
368.184	95.88
368.41	90.88
368.636	67.88
368.862	81.88
369.089	76.88
369.315	87.88
369.541	93.88
369.767	77.88
369.993	91.88
370.219	75.88
370.445	82.88
370.672	71.88
370.898	78.88
371.124	79.88
371.35	84.88
371.576	83.88
371.802	74.88
372.028	81.88
372.254	84.88
372.48	81.88
372.706	82.88
372.932	80.88
373.158	83.88
373.384	82.88
373.61	95.88
373.835	87.88
374.061	76.88
374.287	80.88
374.513	84.88
374.739	91.88
374.965	91.88
375.191	81.88
375.416	83.88
375.642	88.88
375.868	75.88
376.094	87.88
376.319	77.88
376.545	71.88
376.771	78.88
376.997	61.88
377.222	78.88
377.448	98.88
377.674	89.88
377.899	85.88
378.125	83.88
378.35	86.88
378.576	89.88
378.802	74.88
379.027	79.88
379.253	81.88
379.478	91.88
379.704	79.88
379.929	84.88
380.155	82.88
380.38	79.88
380.606	64.88
380.831	82.88
381.057	92.88
381.282	86.88
381.507	90.88
381.733	83.88
381.958	80.88
382.184	83.88
382.409	97.88
382.634	71.88
382.86	72.88
383.085	70.88
383.31	100.88
383.535	83.88
383.761	77.88
383.986	79.88
384.211	83.88
384.436	82.88
384.662	74.88
384.887	101.88
385.112	83.88
385.337	85.88
385.562	95.88
385.787	89.88
386.013	76.88
386.238	85.88
386.463	93.88
386.688	92.88
386.913	85.88
387.138	86.88
387.363	86.88
387.588	84.88
387.813	78.88
388.038	86.88
388.263	82.88
388.488	83.88
388.713	67.88
388.938	89.88
389.163	95.88
389.387	85.88
389.612	94.88
389.837	81.88
390.062	84.88
390.287	77.88
390.512	84.88
390.736	81.88
390.961	80.88
391.186	67.88
391.411	80.88
391.636	75.88
391.86	94.88
392.085	72.88
392.31	75.88
392.534	85.88
392.759	62.88
392.984	80.88
393.208	76.88
393.433	78.88
393.658	86.88
393.882	83.88
394.107	82.88
394.331	90.88
394.556	78.88
394.78	75.88
395.005	96.88
395.229	81.88
395.454	79.88
395.678	87.88
395.903	92.88
396.127	80.88
396.352	87.88
396.576	79.88
396.801	86.88
397.025	85.88
397.249	71.88
397.474	92.88
397.698	90.88
397.922	70.88
398.147	78.88
398.371	71.88
398.595	81.88
398.82	86.88
399.044	76.88
399.268	85.88
399.492	78.88
399.717	82.88
399.941	95.88
400.165	89.88
400.389	84.88
400.613	79.88
400.837	96.88
401.062	79.88
401.286	89.88
401.51	84.88
401.734	81.88
401.958	77.88
402.182	77.88
402.406	97.88
402.63	82.88
402.854	84.88
403.078	73.88
403.302	83.88
403.526	91.88
403.75	78.88
403.974	77.88
404.198	92.88
404.422	84.88
404.645	80.88
404.869	79.88
405.093	77.88
405.317	91.88
405.541	82.88
405.765	92.88
405.988	82.88
406.212	80.88
406.436	95.88
406.66	93.88
406.883	86.88
407.107	88.88
407.331	75.88
407.555	86.88
407.778	84.88
408.002	76.88
408.226	85.88
408.449	90.88
408.673	89.88
408.896	81.88
409.12	84.88
409.344	82.88
409.567	84.88
409.791	75.88
410.014	98.88
410.238	91.88
410.461	88.88
410.685	83.88
410.908	84.88
411.132	90.88
411.355	84.88
411.578	77.88
411.802	83.88
412.025	88.88
412.249	84.88
412.472	76.88
412.695	92.88
412.919	97.88
413.142	93.88
413.365	90.88
413.589	77.88
413.812	89.88
414.035	76.88
414.258	100.88
414.482	82.88
414.705	95.88
414.928	82.88
415.151	81.88
415.374	89.88
415.597	92.88
415.821	87.88
416.044	90.88
416.267	93.88
416.49	69.88
416.713	86.88
416.936	100.88
417.159	87.88
417.382	100.88
417.605	78.88
417.828	90.88
418.051	101.88
418.274	91.88
418.497	78.88
418.72	96.88
418.943	82.88
419.166	90.88
419.389	82.88
419.611	85.88
419.834	95.88
420.057	87.88
420.28	81.88
420.503	88.88
420.726	95.88
420.948	87.88
421.171	104.88
421.394	97.88
421.617	89.88
421.839	91.88
422.062	94.88
422.285	94.88
422.507	108.88
422.73	83.88
422.953	77.88
423.175	93.88
423.398	88.88
423.621	85.88
423.843	86.88
424.066	86.88
424.288	89.88
424.511	90.88
424.733	94.88
424.956	81.88
425.178	79.88
425.401	92.88
425.623	94.88
425.846	92.88
426.068	81.88
426.291	97.88
426.513	79.88
426.735	89.88
426.958	96.88
427.18	87.88
427.402	87.88
427.625	84.88
427.847	105.88
428.069	77.88
428.292	97.88
428.514	96.88
428.736	87.88
428.958	94.88
429.181	87.88
429.403	75.88
429.625	87.88
429.847	100.88
430.069	100.88
430.292	89.88
430.514	73.88
430.736	87.88
430.958	95.88
431.18	89.88
431.402	91.88
431.624	76.88
431.846	80.88
432.068	77.88
432.29	94.88
432.512	94.88
432.734	76.88
432.956	81.88
433.178	96.88
433.4	110.88
433.622	104.88
433.844	82.88
434.066	93.88
434.287	98.88
434.509	84.88
434.731	83.88
434.953	70.88
435.175	98.88
435.397	93.88
435.618	76.88
435.84	91.88
436.062	93.88
436.284	91.88
436.505	90.88
436.727	85.88
436.949	85.88
437.17	84.88
437.392	99.88
437.614	81.88
437.835	78.88
438.057	92.88
438.278	80.88
438.5	95.88
438.721	100.88
438.943	115.88
439.165	89.88
439.386	97.88
439.608	94.88
439.829	104.88
440.05	99.88
440.272	86.88
440.493	90.88
440.715	103.88
440.936	107.88
441.158	107.88
441.379	94.88
441.6	109.88
441.822	97.88
442.043	77.88
442.264	86.88
442.486	108.88
442.707	97.88
442.928	108.88
443.149	94.88
443.371	94.88
443.592	103.88
443.813	83.88
444.034	99.88
444.255	96.88
444.476	92.88
444.698	101.88
444.919	90.88
445.14	191.88
445.361	125.88
445.582	95.88
445.803	85.88
446.024	97.88
446.245	111.88
446.466	91.88
446.687	95.88
446.908	101.88
447.129	100.88
447.35	99.88
447.571	98.88
447.792	91.88
448.013	97.88
448.234	91.88
448.455	89.88
448.675	94.88
448.896	103.88
449.117	96.88
449.338	92.88
449.559	106.88
449.779	92.88
450	81.88
450.221	96.88
450.442	87.88
450.662	96.88
450.883	86.88
451.104	81.88
451.324	101.88
451.545	81.88
451.766	90.88
451.986	80.88
452.207	73.88
452.428	94.88
452.648	94.88
452.869	96.88
453.089	76.88
453.31	84.88
453.53	82.88
453.751	78.88
453.971	83.88
454.192	87.88
454.412	91.88
454.633	89.88
454.853	88.88
455.073	87.88
455.294	77.88
455.514	98.88
455.734	83.88
455.955	79.88
456.175	93.88
456.395	88.88
456.616	82.88
456.836	121.88
457.056	71.88
457.276	66.88
457.497	87.88
457.717	71.88
457.937	83.88
458.157	85.88
458.377	90.88
458.598	89.88
458.818	82.88
459.038	63.88
459.258	73.88
459.478	83.88
459.698	81.88
459.918	86.88
460.138	78.88
460.358	98.88
460.578	102.88
460.798	90.88
461.018	78.88
461.238	84.88
461.458	94.88
461.678	96.88
461.898	89.88
462.118	82.88
462.338	103.88
462.558	84.88
462.777	77.88
462.997	86.88
463.217	91.88
463.437	75.88
463.657	76.88
463.876	84.88
464.096	64.88
464.316	85.88
464.536	81.88
464.755	79.88
464.975	76.88
465.195	88.88
465.414	87.88
465.634	90.88
465.854	85.88
466.073	96.88
466.293	91.88
466.512	87.88
466.732	81.88
466.951	95.88
467.171	85.88
467.391	86.88
467.61	86.88
467.829	89.88
468.049	105.88
468.268	93.88
468.488	96.88
468.707	92.88
468.927	87.88
469.146	97.88
469.365	84.88
469.585	100.88
469.804	91.88
470.023	89.88
470.243	76.88
470.462	97.88
470.681	112.88
470.901	111.88
471.12	86.88
471.339	95.88
471.558	88.88
471.777	100.88
471.997	117.88
472.216	92.88
472.435	83.88
472.654	81.88
472.873	92.88
473.092	84.88
473.311	95.88
473.53	81.88
473.749	82.88
473.968	97.88
474.187	80.88
474.406	87.88
474.625	83.88
474.844	88.88
475.063	101.88
475.282	75.88
475.501	87.88
475.72	105.88
475.939	96.88
476.158	91.88
476.377	83.88
476.596	84.88
476.814	85.88
477.033	98.88
477.252	99.88
477.471	74.88
477.69	96.88
477.908	94.88
478.127	94.88
478.346	80.88
478.564	81.88
478.783	77.88
479.002	87.88
479.22	84.88
479.439	101.88
479.658	82.88
479.876	70.88
480.095	79.88
480.313	87.88
480.532	98.88
480.751	89.88
480.969	82.88
481.188	86.88
481.406	86.88
481.624	86.88
481.843	81.88
482.061	74.88
482.28	79.88
482.498	68.88
482.717	94.88
482.935	86.88
483.153	74.88
483.372	95.88
483.59	100.88
483.808	94.88
484.027	99.88
484.245	83.88
484.463	99.88
484.681	103.88
484.9	105.88
485.118	98.88
485.336	96.88
485.554	87.88
485.772	89.88
485.99	96.88
486.209	95.88
486.427	96.88
486.645	97.88
486.863	93.88
487.081	112.88
487.299	83.88
487.517	109.88
487.735	99.88
487.953	104.88
488.171	102.88
488.389	102.88
488.607	94.88
488.825	86.88
489.043	90.88
489.261	82.88
489.479	88.88
489.696	106.88
489.914	84.88
490.132	110.88
490.35	97.88
490.568	98.88
490.786	108.88
491.003	98.88
491.221	113.88
491.439	110.88
491.657	113.88
491.874	111.88
492.092	112.88
492.31	129.88
492.527	127.88
492.745	102.88
492.963	123.88
493.18	111.88
493.398	102.88
493.615	100.88
493.833	109.88
494.05	96.88
494.268	113.88
494.485	118.88
494.703	102.88
494.92	94.88
495.138	100.88
495.355	92.88
495.573	103.88
495.79	114.88
496.008	111.88
496.225	96.88
496.442	97.88
496.66	106.88
496.877	99.88
497.094	110.88
497.312	97.88
497.529	103.88
497.746	96.88
497.963	105.88
498.181	79.88
498.398	81.88
498.615	93.88
498.832	95.88
499.049	105.88
499.267	91.88
499.484	91.88
499.701	87.88
499.918	94.88
500.135	87.88
500.352	106.88
500.569	89.88
500.786	95.88
501.003	94.88
501.22	94.88
501.437	87.88
501.654	99.88
501.871	98.88
502.088	83.88
502.305	90.88
502.522	98.88
502.739	85.88
502.956	87.88
503.172	88.88
503.389	79.88
503.606	82.88
503.823	83.88
504.04	97.88
504.256	95.88
504.473	85.88
504.69	74.88
504.907	85.88
505.123	103.88
505.34	83.88
505.557	94.88
505.773	91.88
505.99	92.88
506.207	90.88
506.423	85.88
506.64	85.88
506.856	93.88
507.073	99.88
507.289	85.88
507.506	94.88
507.722	93.88
507.939	89.88
508.155	94.88
508.372	89.88
508.588	82.88
508.805	82.88
509.021	94.88
509.238	85.88
509.454	72.88
509.67	77.88
509.887	92.88
510.103	86.88
510.319	85.88
510.536	78.88
510.752	79.88
510.968	71.88
511.184	86.88
511.401	78.88
511.617	77.88
511.833	77.88
512.049	81.88
512.265	74.88
512.481	76.88
512.698	80.88
512.914	90.88
513.13	96.88
513.346	86.88
513.562	93.88
513.778	88.88
513.994	82.88
514.21	88.88
514.426	77.88
514.642	82.88
514.858	86.88
515.074	82.88
515.29	77.88
515.506	86.88
515.721	94.88
515.937	75.88
516.153	81.88
516.369	71.88
516.585	83.88
516.801	83.88
517.016	86.88
517.232	71.88
517.448	94.88
517.664	72.88
517.879	88.88
518.095	97.88
518.311	83.88
518.527	62.88
518.742	86.88
518.958	89.88
519.173	81.88
519.389	68.88
519.605	84.88
519.82	88.88
520.036	85.88
520.251	83.88
520.467	90.88
520.682	85.88
520.898	86.88
521.113	71.88
521.329	77.88
521.544	83.88
521.76	78.88
521.975	77.88
522.19	69.88
522.406	92.88
522.621	71.88
522.836	76.88
523.052	92.88
523.267	80.88
523.482	77.88
523.698	92.88
523.913	85.88
524.128	102.88
524.343	100.88
524.559	97.88
524.774	95.88
524.989	93.88
525.204	102.88
525.419	76.88
525.634	77.88
525.849	86.88
526.064	82.88
526.28	75.88
526.495	79.88
526.71	88.88
526.925	82.88
527.14	74.88
527.355	76.88
527.57	87.88
527.785	81.88
527.999	68.88
528.214	82.88
528.429	84.88
528.644	91.88
528.859	93.88
529.074	83.88
529.289	112.88
529.503	127.88
529.718	93.88
529.933	97.88
530.148	81.88
530.363	78.88
530.577	84.88
530.792	79.88
531.007	68.88
531.221	77.88
531.436	90.88
531.651	81.88
531.865	72.88
532.08	79.88
532.295	92.88
532.509	75.88
532.724	83.88
532.938	75.88
533.153	78.88
533.367	74.88
533.582	93.88
533.796	84.88
534.011	77.88
534.225	85.88
534.44	78.88
534.654	85.88
534.868	90.88
535.083	91.88
535.297	93.88
535.511	85.88
535.726	99.88
535.94	83.88
536.154	86.88
536.369	79.88
536.583	73.88
536.797	90.88
537.011	92.88
537.225	80.88
537.44	68.88
537.654	67.88
537.868	88.88
538.082	73.88
538.296	81.88
538.51	82.88
538.724	96.88
538.938	89.88
539.153	96.88
539.367	92.88
539.581	87.88
539.795	81.88
540.009	84.88
540.222	90.88
540.436	82.88
540.65	77.88
540.864	85.88
541.078	98.88
541.292	102.88
541.506	98.88
541.72	103.88
541.934	110.88
542.147	109.88
542.361	115.88
542.575	113.88
542.789	83.88
543.002	84.88
543.216	78.88
543.43	97.88
543.644	98.88
543.857	96.88
544.071	90.88
544.285	91.88
544.498	96.88
544.712	101.88
544.925	101.88
545.139	104.88
545.352	117.88
545.566	109.88
545.779	101.88
545.993	106.88
546.206	94.88
546.42	118.88
546.633	92.88
546.847	105.88
547.06	100.88
547.274	110.88
547.487	95.88
547.7	128.88
547.914	108.88
548.127	107.88
548.34	112.88
548.554	102.88
548.767	98.88
548.98	103.88
549.193	107.88
549.407	97.88
549.62	95.88
549.833	92.88
550.046	97.88
550.259	108.88
550.473	101.88
550.686	100.88
550.899	105.88
551.112	109.88
551.325	102.88
551.538	87.88
551.751	92.88
551.964	97.88
552.177	98.88
552.39	93.88
552.603	97.88
552.816	89.88
553.029	87.88
553.242	94.88
553.455	105.88
553.667	105.88
553.88	100.88
554.093	90.88
554.306	91.88
554.519	101.88
554.732	95.88
554.944	90.88
555.157	82.88
555.37	71.88
555.583	85.88
555.795	108.88
556.008	107.88
556.221	98.88
556.433	89.88
556.646	79.88
556.859	88.88
557.071	93.88
557.284	94.88
557.496	104.88
557.709	91.88
557.921	91.88
558.134	105.88
558.346	91.88
558.559	83.88
558.771	81.88
558.984	96.88
559.196	92.88
559.409	99.88
559.621	85.88
559.833	85.88
560.046	98.88
560.258	90.88
560.47	90.88
560.683	102.88
560.895	102.88
561.107	95.88
561.32	92.88
561.532	78.88
561.744	97.88
561.956	117.88
562.168	87.88
562.381	89.88
562.593	83.88
562.805	91.88
563.017	92.88
563.229	92.88
563.441	107.88
563.653	98.88
563.865	94.88
564.077	98.88
564.289	101.88
564.501	93.88
564.713	97.88
564.925	90.88
565.137	92.88
565.349	83.88
565.561	89.88
565.773	85.88
565.985	89.88
566.197	79.88
566.408	84.88
566.62	96.88
566.832	95.88
567.044	83.88
567.255	91.88
567.467	89.88
567.679	93.88
567.891	91.88
568.102	79.88
568.314	82.88
568.526	77.88
568.737	101.88
568.949	98.88
569.161	76.88
569.372	78.88
569.584	68.88
569.795	71.88
570.007	80.88
570.218	65.88
570.43	76.88
570.641	93.88
570.853	90.88
571.064	90.88
571.276	92.88
571.487	91.88
571.698	91.88
571.91	94.88
572.121	84.88
572.333	92.88
572.544	76.88
572.755	89.88
572.966	76.88
573.178	86.88
573.389	70.88
573.6	76.88
573.811	87.88
574.023	69.88
574.234	71.88
574.445	86.88
574.656	86.88
574.867	83.88
575.078	92.88
575.289	81.88
575.501	95.88
575.712	83.88
575.923	76.88
576.134	73.88
576.345	87.88
576.556	89.88
576.767	99.88
576.978	84.88
577.188	82.88
577.399	82.88
577.61	84.88
577.821	92.88
578.032	76.88
578.243	90.88
578.454	76.88
578.665	71.88
578.875	88.88
579.086	79.88
579.297	73.88
579.508	70.88
579.718	85.88
579.929	88.88
580.14	77.88
580.35	72.88
580.561	77.88
580.772	74.88
580.982	89.88
581.193	71.88
581.403	98.88
581.614	80.88
581.825	93.88
582.035	84.88
582.246	86.88
582.456	73.88
582.667	81.88
582.877	81.88
583.087	87.88
583.298	71.88
583.508	71.88
583.719	75.88
583.929	79.88
584.139	80.88
584.35	84.88
584.56	65.88
584.77	74.88
584.981	92.88
585.191	72.88
585.401	69.88
585.611	71.88
585.821	85.88
586.032	71.88
586.242	75.88
586.452	79.88
586.662	89.88
586.872	66.88
587.082	86.88
587.292	79.88
587.502	80.88
587.713	81.88
587.923	77.88
588.133	78.88
588.343	70.88
588.553	76.88
588.762	74.88
588.972	75.88
589.182	93.88
589.392	86.88
589.602	78.88
589.812	76.88
590.022	86.88
590.232	80.88
590.441	80.88
590.651	72.88
590.861	82.88
591.071	76.88
591.281	85.88
591.49	76.88
591.7	87.88
591.91	82.88
592.119	77.88
592.329	86.88
592.539	84.88
592.748	86.88
592.958	78.88
593.167	84.88
593.377	81.88
593.587	90.88
593.796	65.88
594.006	75.88
594.215	74.88
594.424	92.88
594.634	78.88
594.843	93.88
595.053	95.88
595.262	80.88
595.472	75.88
595.681	81.88
595.89	86.88
596.1	85.88
596.309	75.88
596.518	70.88
596.727	85.88
596.937	77.88
597.146	74.88
597.355	100.88
597.564	82.88
597.774	82.88
597.983	81.88
598.192	87.88
598.401	81.88
598.61	92.88
598.819	98.88
599.028	76.88
599.237	84.88
599.446	77.88
599.655	94.88
599.864	91.88
600.073	88.88
600.282	84.88
600.491	102.88
600.7	85.88
600.909	86.88
601.118	88.88
601.327	83.88
601.536	85.88
601.745	83.88
601.953	97.88
602.162	87.88
602.371	87.88
602.58	87.88
602.789	85.88
602.997	95.88
603.206	105.88
603.415	89.88
603.623	92.88
603.832	81.88
604.041	91.88
604.249	93.88
604.458	86.88
604.666	99.88
604.875	82.88
605.084	80.88
605.292	92.88
605.501	99.88
605.709	84.88
605.918	81.88
606.126	92.88
606.334	91.88
606.543	95.88
606.751	86.88
606.96	105.88
607.168	83.88
607.376	82.88
607.585	97.88
607.793	94.88
608.001	94.88
608.21	86.88
608.418	89.88
608.626	81.88
608.834	78.88
609.043	77.88
609.251	86.88
609.459	85.88
609.667	95.88
609.875	91.88
610.083	91.88
610.291	98.88
610.499	93.88
610.707	84.88
610.916	94.88
611.124	86.88
611.332	73.88
611.54	86.88
611.748	97.88
611.955	99.88
612.163	109.88
612.371	93.88
612.579	96.88
612.787	93.88
612.995	86.88
613.203	86.88
613.411	95.88
613.618	83.88
613.826	94.88
614.034	82.88
614.242	95.88
614.449	87.88
614.657	83.88
614.865	92.88
615.072	98.88
615.28	95.88
615.488	83.88
615.695	83.88
615.903	87.88
616.111	83.88
616.318	104.88
616.526	97.88
616.733	85.88
616.941	90.88
617.148	83.88
617.356	94.88
617.563	79.88
617.771	75.88
617.978	97.88
618.185	90.88
618.393	79.88
618.6	96.88
618.807	81.88
619.015	92.88
619.222	90.88
619.429	100.88
619.637	84.88
619.844	86.88
620.051	92.88
620.258	76.88
620.466	81.88
620.673	87.88
620.88	87.88
621.087	100.88
621.294	95.88
621.501	88.88
621.708	98.88
621.915	85.88
622.122	92.88
622.329	92.88
622.536	84.88
622.743	91.88
622.95	87.88
623.157	90.88
623.364	94.88
623.571	95.88
623.778	76.88
623.985	81.88
624.192	92.88
624.399	91.88
624.606	87.88
624.812	79.88
625.019	89.88
625.226	87.88
625.433	84.88
625.639	81.88
625.846	87.88
626.053	87.88
626.259	80.88
626.466	79.88
626.673	82.88
626.879	80.88
627.086	82.88
627.293	92.88
627.499	92.88
627.706	88.88
627.912	82.88
628.119	85.88
628.325	94.88
628.532	92.88
628.738	89.88
628.945	86.88
629.151	73.88
629.357	82.88
629.564	96.88
629.77	80.88
629.976	98.88
630.183	82.88
630.389	75.88
630.595	90.88
630.802	99.88
631.008	93.88
631.214	88.88
631.42	91.88
631.627	94.88
631.833	76.88
632.039	87.88
632.245	73.88
632.451	92.88
632.657	72.88
632.863	78.88
633.069	85.88
633.275	88.88
633.481	96.88
633.688	77.88
633.893	96.88
634.099	103.88
634.305	90.88
634.511	91.88
634.717	79.88
634.923	85.88
635.129	90.88
635.335	85.88
635.541	86.88
635.747	90.88
635.952	92.88
636.158	105.88
636.364	93.88
636.57	82.88
636.775	75.88
636.981	79.88
637.187	97.88
637.392	82.88
637.598	85.88
637.804	82.88
638.009	73.88
638.215	76.88
638.421	84.88
638.626	82.88
638.832	75.88
639.037	84.88
639.243	97.88
639.448	82.88
639.654	91.88
639.859	90.88
640.065	94.88
640.27	97.88
640.475	91.88
640.681	91.88
640.886	74.88
641.091	106.88
641.297	98.88
641.502	87.88
641.707	106.88
641.913	86.88
642.118	86.88
642.323	83.88
642.528	95.88
642.733	98.88
642.939	89.88
643.144	95.88
643.349	82.88
643.554	79.88
643.759	96.88
643.964	67.88
644.169	91.88
644.374	78.88
644.579	72.88
644.784	100.88
644.989	92.88
645.194	93.88
645.399	81.88
645.604	92.88
645.809	91.88
646.014	89.88
646.219	89.88
646.423	69.88
646.628	85.88
646.833	82.88
647.038	73.88
647.243	86.88
647.447	78.88
647.652	99.88
647.857	80.88
648.062	83.88
648.266	82.88
648.471	90.88
648.676	100.88
648.88	91.88
649.085	77.88
649.289	90.88
649.494	72.88
649.698	79.88
649.903	78.88
650.107	83.88
650.312	86.88
650.516	86.88
650.721	92.88
650.925	85.88
651.13	82.88
651.334	85.88
651.539	95.88
651.743	74.88
651.947	93.88
652.152	64.88
652.356	86.88
652.56	93.88
652.764	91.88
652.969	77.88
653.173	92.88
653.377	84.88
653.581	90.88
653.785	79.88
653.99	94.88
654.194	87.88
654.398	71.88
654.602	78.88
654.806	69.88
655.01	71.88
655.214	88.88
655.418	77.88
655.622	80.88
655.826	89.88
656.03	88.88
656.234	78.88
656.438	84.88
656.642	92.88
656.846	93.88
657.049	81.88
657.253	91.88
657.457	85.88
657.661	89.88
657.865	90.88
658.068	74.88
658.272	78.88
658.476	81.88
658.68	85.88
658.883	69.88
659.087	89.88
659.291	77.88
659.494	82.88
659.698	64.88
659.901	94.88
660.105	84.88
660.309	86.88
660.512	77.88
660.716	96.88
660.919	91.88
661.123	70.88
661.326	82.88
661.53	81.88
661.733	75.88
661.936	75.88
662.14	86.88
662.343	71.88
662.546	94.88
662.75	72.88
662.953	76.88
663.156	82.88
663.36	75.88
663.563	70.88
663.766	73.88
663.969	73.88
664.173	78.88
664.376	78.88
664.579	93.88
664.782	78.88
664.985	82.88
665.188	67.88
665.391	78.88
665.594	81.88
665.797	64.88
666	83.88
666.203	68.88
666.406	83.88
666.609	69.88
666.812	66.88
667.015	72.88
667.218	78.88
667.421	79.88
667.624	71.88
667.827	73.88
668.03	71.88
668.232	74.88
668.435	78.88
668.638	78.88
668.841	78.88
669.043	70.88
669.246	73.88
669.449	74.88
669.651	73.88
669.854	86.88
670.057	88.88
670.259	84.88
670.462	84.88
670.665	78.88
670.867	69.88
671.07	76.88
671.272	79.88
671.475	89.88
671.677	92.88
671.88	85.88
672.082	78.88
672.284	86.88
672.487	75.88
672.689	74.88
672.892	84.88
