Data from Location3.07152019.Energy5.Lamp.07192019.3%Agarose_HRD10591_15-18-52-276.txt Node
Date: Fri Jul 19 15:18:52 EDT 2019
User: cochatt
Spectrometer: HR+D1059
Trigger mode: 1
Integration Time (sec): 1.000000E-1
Scans to average: 1
Electric dark correction enabled: true
Nonlinearity correction enabled: false
Boxcar width: 0
XAxis mode: Wavelengths
Number of Pixels in Spectrum: 2048
>>>>>Begin Spectral Data<<<<<
223.165	-20.94
223.4	-20.94
223.635	-20.94
223.869	-22.94
224.104	-14.94
224.338	-22.94
224.573	-22.94
224.808	-12.94
225.042	-8.94
225.277	-6.94
225.511	5.06
225.746	-7.94
225.98	10.06
226.215	17.06
226.449	20.06
226.683	23.06
226.918	39.06
227.152	27.06
227.387	36.06
227.621	34.06
227.856	47.06
228.09	46.06
228.324	49.06
228.559	58.06
228.793	69.06
229.027	63.06
229.262	62.06
229.496	57.06
229.73	72.06
229.964	90.06
230.199	72.06
230.433	80.06
230.667	74.06
230.901	82.06
231.136	82.06
231.37	79.06
231.604	74.06
231.838	65.06
232.072	69.06
232.306	82.06
232.541	83.06
232.775	97.06
233.009	72.06
233.243	76.06
233.477	86.06
233.711	80.06
233.945	68.06
234.179	72.06
234.413	85.06
234.647	70.06
234.881	86.06
235.115	71.06
235.349	82.06
235.583	95.06
235.817	75.06
236.051	72.06
236.285	69.06
236.519	69.06
236.753	85.06
236.987	88.06
237.221	71.06
237.455	71.06
237.689	64.06
237.922	97.06
238.156	77.06
238.39	85.06
238.624	82.06
238.858	84.06
239.091	71.06
239.325	75.06
239.559	75.06
239.793	93.06
240.027	73.06
240.26	72.06
240.494	75.06
240.728	68.06
240.961	64.06
241.195	70.06
241.429	73.06
241.662	70.06
241.896	56.06
242.13	72.06
242.363	58.06
242.597	78.06
242.83	82.06
243.064	69.06
243.298	86.06
243.531	73.06
243.765	75.06
243.998	71.06
244.232	74.06
244.465	76.06
244.699	66.06
244.932	74.06
245.166	79.06
245.399	67.06
245.633	75.06
245.866	64.06
246.099	78.06
246.333	69.06
246.566	69.06
246.8	77.06
247.033	96.06
247.266	83.06
247.5	57.06
247.733	84.06
247.966	92.06
248.2	92.06
248.433	66.06
248.666	75.06
248.899	71.06
249.133	72.06
249.366	76.06
249.599	95.06
249.832	73.06
250.066	76.06
250.299	73.06
250.532	87.06
250.765	79.06
250.998	80.06
251.231	72.06
251.465	75.06
251.698	77.06
251.931	79.06
252.164	74.06
252.397	75.06
252.63	71.06
252.863	78.06
253.096	47.06
253.329	87.06
253.562	93.06
253.795	79.06
254.028	78.06
254.261	88.06
254.494	90.06
254.727	78.06
254.96	80.06
255.193	62.06
255.426	69.06
255.659	73.06
255.892	86.06
256.124	94.06
256.357	70.06
256.59	91.06
256.823	71.06
257.056	78.06
257.289	86.06
257.521	63.06
257.754	81.06
257.987	81.06
258.22	83.06
258.452	86.06
258.685	86.06
258.918	85.06
259.151	85.06
259.383	90.06
259.616	74.06
259.849	78.06
260.081	70.06
260.314	81.06
260.547	76.06
260.779	89.06
261.012	85.06
261.244	98.06
261.477	79.06
261.71	75.06
261.942	94.06
262.175	84.06
262.407	72.06
262.64	83.06
262.872	98.06
263.105	82.06
263.337	75.06
263.57	95.06
263.802	87.06
264.035	74.06
264.267	62.06
264.499	74.06
264.732	96.06
264.964	65.06
265.197	72.06
265.429	84.06
265.661	89.06
265.894	79.06
266.126	83.06
266.358	73.06
266.591	85.06
266.823	80.06
267.055	83.06
267.287	95.06
267.52	86.06
267.752	77.06
267.984	95.06
268.216	94.06
268.448	85.06
268.681	99.06
268.913	75.06
269.145	75.06
269.377	80.06
269.609	85.06
269.841	79.06
270.073	77.06
270.306	86.06
270.538	75.06
270.77	89.06
271.002	87.06
271.234	72.06
271.466	96.06
271.698	81.06
271.93	81.06
272.162	86.06
272.394	84.06
272.626	90.06
272.858	84.06
273.09	91.06
273.322	93.06
273.553	85.06
273.785	87.06
274.017	89.06
274.249	71.06
274.481	85.06
274.713	74.06
274.945	80.06
275.176	80.06
275.408	75.06
275.64	74.06
275.872	58.06
276.104	85.06
276.335	97.06
276.567	82.06
276.799	85.06
277.031	73.06
277.262	78.06
277.494	89.06
277.726	80.06
277.957	78.06
278.189	77.06
278.421	78.06
278.652	81.06
278.884	74.06
279.115	94.06
279.347	74.06
279.579	92.06
279.81	90.06
280.042	83.06
280.273	81.06
280.505	81.06
280.736	79.06
280.968	72.06
281.199	85.06
281.431	90.06
281.662	81.06
281.894	78.06
282.125	75.06
282.356	98.06
282.588	77.06
282.819	98.06
283.051	86.06
283.282	79.06
283.513	93.06
283.745	85.06
283.976	81.06
284.207	83.06
284.439	75.06
284.67	82.06
284.901	79.06
285.132	85.06
285.364	74.06
285.595	90.06
285.826	94.06
286.057	80.06
286.288	70.06
286.52	89.06
286.751	82.06
286.982	92.06
287.213	81.06
287.444	93.06
287.675	91.06
287.906	93.06
288.138	94.06
288.369	73.06
288.6	73.06
288.831	75.06
289.062	72.06
289.293	87.06
289.524	86.06
289.755	84.06
289.986	84.06
290.217	70.06
290.448	78.06
290.679	92.06
290.91	80.06
291.141	80.06
291.371	79.06
291.602	88.06
291.833	94.06
292.064	72.06
292.295	67.06
292.526	76.06
292.757	81.06
292.987	96.06
293.218	82.06
293.449	80.06
293.68	73.06
293.91	69.06
294.141	81.06
294.372	86.06
294.603	69.06
294.833	81.06
295.064	82.06
295.295	73.06
295.525	79.06
295.756	87.06
295.987	97.06
296.217	85.06
296.448	77.06
296.679	88.06
296.909	94.06
297.14	86.06
297.37	79.06
297.601	86.06
297.831	98.06
298.062	93.06
298.292	85.06
298.523	87.06
298.753	82.06
298.984	83.06
299.214	78.06
299.445	82.06
299.675	74.06
299.905	73.06
300.136	81.06
300.366	85.06
300.597	89.06
300.827	91.06
301.057	87.06
301.288	103.06
301.518	91.06
301.748	87.06
301.979	82.06
302.209	96.06
302.439	82.06
302.669	89.06
302.9	97.06
303.13	89.06
303.36	81.06
303.59	80.06
303.82	82.06
304.051	88.06
304.281	81.06
304.511	86.06
304.741	88.06
304.971	85.06
305.201	97.06
305.431	90.06
305.661	72.06
305.891	82.06
306.121	85.06
306.352	85.06
306.582	81.06
306.812	80.06
307.042	79.06
307.272	76.06
307.502	95.06
307.731	96.06
307.961	82.06
308.191	82.06
308.421	84.06
308.651	81.06
308.881	75.06
309.111	82.06
309.341	76.06
309.571	80.06
309.8	86.06
310.03	69.06
310.26	73.06
310.49	94.06
310.72	82.06
310.949	81.06
311.179	88.06
311.409	81.06
311.639	101.06
311.868	92.06
312.098	85.06
312.328	92.06
312.557	82.06
312.787	71.06
313.017	88.06
313.246	97.06
313.476	80.06
313.706	75.06
313.935	81.06
314.165	90.06
314.394	90.06
314.624	89.06
314.853	73.06
315.083	78.06
315.312	86.06
315.542	76.06
315.771	97.06
316.001	84.06
316.23	90.06
316.46	86.06
316.689	74.06
316.919	93.06
317.148	80.06
317.377	84.06
317.607	80.06
317.836	93.06
318.065	96.06
318.295	90.06
318.524	102.06
318.753	74.06
318.983	75.06
319.212	88.06
319.441	88.06
319.67	93.06
319.9	73.06
320.129	79.06
320.358	83.06
320.587	88.06
320.816	96.06
321.046	82.06
321.275	74.06
321.504	80.06
321.733	74.06
321.962	81.06
322.191	91.06
322.42	87.06
322.649	82.06
322.878	82.06
323.108	86.06
323.337	80.06
323.566	97.06
323.795	94.06
324.024	89.06
324.253	98.06
324.482	80.06
324.71	85.06
324.939	74.06
325.168	88.06
325.397	91.06
325.626	83.06
325.855	95.06
326.084	76.06
326.313	75.06
326.542	85.06
326.77	79.06
326.999	90.06
327.228	80.06
327.457	78.06
327.686	101.06
327.914	90.06
328.143	86.06
328.372	87.06
328.6	78.06
328.829	92.06
329.058	88.06
329.287	85.06
329.515	87.06
329.744	93.06
329.972	88.06
330.201	82.06
330.43	86.06
330.658	73.06
330.887	74.06
331.115	75.06
331.344	96.06
331.572	90.06
331.801	78.06
332.03	71.06
332.258	88.06
332.486	83.06
332.715	93.06
332.943	80.06
333.172	83.06
333.4	85.06
333.629	92.06
333.857	95.06
334.085	75.06
334.314	84.06
334.542	76.06
334.771	78.06
334.999	79.06
335.227	83.06
335.455	80.06
335.684	86.06
335.912	81.06
336.14	79.06
336.369	89.06
336.597	83.06
336.825	87.06
337.053	87.06
337.281	83.06
337.51	93.06
337.738	77.06
337.966	85.06
338.194	71.06
338.422	75.06
338.65	71.06
338.878	96.06
339.106	85.06
339.334	99.06
339.562	93.06
339.79	62.06
340.018	78.06
340.246	82.06
340.474	87.06
340.702	87.06
340.93	81.06
341.158	79.06
341.386	83.06
341.614	72.06
341.842	78.06
342.07	89.06
342.298	82.06
342.526	96.06
342.754	87.06
342.981	79.06
343.209	88.06
343.437	96.06
343.665	104.06
343.893	83.06
344.12	82.06
344.348	90.06
344.576	89.06
344.804	87.06
345.031	83.06
345.259	85.06
345.487	82.06
345.714	82.06
345.942	69.06
346.17	89.06
346.397	89.06
346.625	86.06
346.853	71.06
347.08	87.06
347.308	98.06
347.535	86.06
347.763	73.06
347.99	86.06
348.218	74.06
348.445	85.06
348.673	89.06
348.9	85.06
349.128	82.06
349.355	92.06
349.583	70.06
349.81	79.06
350.037	90.06
350.265	79.06
350.492	90.06
350.72	81.06
350.947	96.06
351.174	87.06
351.402	84.06
351.629	93.06
351.856	83.06
352.083	82.06
352.311	82.06
352.538	90.06
352.765	71.06
352.992	83.06
353.22	82.06
353.447	83.06
353.674	96.06
353.901	95.06
354.128	86.06
354.355	72.06
354.583	88.06
354.81	85.06
355.037	76.06
355.264	86.06
355.491	66.06
355.718	81.06
355.945	86.06
356.172	88.06
356.399	80.06
356.626	77.06
356.853	76.06
357.08	91.06
357.307	93.06
357.534	83.06
357.761	79.06
357.988	83.06
358.215	79.06
358.441	81.06
358.668	86.06
358.895	86.06
359.122	82.06
359.349	82.06
359.576	87.06
359.802	82.06
360.029	58.06
360.256	85.06
360.483	82.06
360.709	83.06
360.936	89.06
361.163	91.06
361.39	92.06
361.616	79.06
361.843	90.06
362.07	88.06
362.296	83.06
362.523	103.06
362.749	89.06
362.976	83.06
363.203	86.06
363.429	84.06
363.656	85.06
363.882	87.06
364.109	81.06
364.335	73.06
364.562	75.06
364.788	80.06
365.015	86.06
365.241	70.06
365.468	75.06
365.694	77.06
365.92	92.06
366.147	91.06
366.373	81.06
366.599	94.06
366.826	79.06
367.052	84.06
367.278	83.06
367.505	76.06
367.731	86.06
367.957	77.06
368.184	86.06
368.41	93.06
368.636	84.06
368.862	83.06
369.089	72.06
369.315	86.06
369.541	89.06
369.767	93.06
369.993	89.06
370.219	88.06
370.445	85.06
370.672	82.06
370.898	74.06
371.124	84.06
371.35	81.06
371.576	80.06
371.802	79.06
372.028	82.06
372.254	74.06
372.48	74.06
372.706	83.06
372.932	82.06
373.158	94.06
373.384	84.06
373.61	84.06
373.835	85.06
374.061	91.06
374.287	77.06
374.513	78.06
374.739	82.06
374.965	81.06
375.191	89.06
375.416	75.06
375.642	73.06
375.868	85.06
376.094	86.06
376.319	95.06
376.545	89.06
376.771	83.06
376.997	102.06
377.222	90.06
377.448	92.06
377.674	81.06
377.899	75.06
378.125	84.06
378.35	78.06
378.576	78.06
378.802	79.06
379.027	88.06
379.253	81.06
379.478	86.06
379.704	93.06
379.929	102.06
380.155	79.06
380.38	84.06
380.606	89.06
380.831	83.06
381.057	87.06
381.282	85.06
381.507	80.06
381.733	79.06
381.958	100.06
382.184	90.06
382.409	98.06
382.634	70.06
382.86	76.06
383.085	99.06
383.31	93.06
383.535	85.06
383.761	78.06
383.986	79.06
384.211	76.06
384.436	77.06
384.662	89.06
384.887	84.06
385.112	85.06
385.337	87.06
385.562	87.06
385.787	86.06
386.013	91.06
386.238	75.06
386.463	73.06
386.688	97.06
386.913	105.06
387.138	94.06
387.363	79.06
387.588	88.06
387.813	70.06
388.038	81.06
388.263	85.06
388.488	92.06
388.713	85.06
388.938	83.06
389.163	88.06
389.387	75.06
389.612	80.06
389.837	94.06
390.062	95.06
390.287	88.06
390.512	77.06
390.736	91.06
390.961	63.06
391.186	88.06
391.411	91.06
391.636	98.06
391.86	83.06
392.085	88.06
392.31	79.06
392.534	85.06
392.759	85.06
392.984	79.06
393.208	75.06
393.433	90.06
393.658	88.06
393.882	92.06
394.107	83.06
394.331	74.06
394.556	103.06
394.78	102.06
395.005	82.06
395.229	78.06
395.454	83.06
395.678	93.06
395.903	90.06
396.127	90.06
396.352	80.06
396.576	72.06
396.801	79.06
397.025	69.06
397.249	91.06
397.474	91.06
397.698	97.06
397.922	99.06
398.147	78.06
398.371	78.06
398.595	83.06
398.82	83.06
399.044	95.06
399.268	90.06
399.492	72.06
399.717	94.06
399.941	88.06
400.165	83.06
400.389	88.06
400.613	99.06
400.837	85.06
401.062	90.06
401.286	104.06
401.51	90.06
401.734	87.06
401.958	84.06
402.182	97.06
402.406	92.06
402.63	78.06
402.854	88.06
403.078	79.06
403.302	85.06
403.526	78.06
403.75	90.06
403.974	82.06
404.198	82.06
404.422	91.06
404.645	96.06
404.869	77.06
405.093	99.06
405.317	85.06
405.541	77.06
405.765	86.06
405.988	112.06
406.212	97.06
406.436	84.06
406.66	89.06
406.883	90.06
407.107	74.06
407.331	90.06
407.555	85.06
407.778	77.06
408.002	82.06
408.226	93.06
408.449	75.06
408.673	102.06
408.896	81.06
409.12	90.06
409.344	83.06
409.567	89.06
409.791	88.06
410.014	90.06
410.238	98.06
410.461	87.06
410.685	91.06
410.908	91.06
411.132	76.06
411.355	97.06
411.578	89.06
411.802	90.06
412.025	108.06
412.249	79.06
412.472	90.06
412.695	79.06
412.919	71.06
413.142	96.06
413.365	93.06
413.589	93.06
413.812	86.06
414.035	94.06
414.258	94.06
414.482	97.06
414.705	86.06
414.928	85.06
415.151	98.06
415.374	96.06
415.597	79.06
415.821	84.06
416.044	100.06
416.267	85.06
416.49	97.06
416.713	99.06
416.936	90.06
417.159	87.06
417.382	74.06
417.605	89.06
417.828	97.06
418.051	91.06
418.274	89.06
418.497	102.06
418.72	107.06
418.943	97.06
419.166	93.06
419.389	94.06
419.611	86.06
419.834	102.06
420.057	93.06
420.28	106.06
420.503	94.06
420.726	80.06
420.948	83.06
421.171	102.06
421.394	101.06
421.617	109.06
421.839	98.06
422.062	102.06
422.285	95.06
422.507	90.06
422.73	92.06
422.953	91.06
423.175	111.06
423.398	93.06
423.621	91.06
423.843	83.06
424.066	95.06
424.288	91.06
424.511	89.06
424.733	103.06
424.956	92.06
425.178	89.06
425.401	102.06
425.623	91.06
425.846	88.06
426.068	95.06
426.291	95.06
426.513	97.06
426.735	108.06
426.958	93.06
427.18	95.06
427.402	101.06
427.625	102.06
427.847	98.06
428.069	100.06
428.292	89.06
428.514	95.06
428.736	88.06
428.958	72.06
429.181	94.06
429.403	90.06
429.625	91.06
429.847	86.06
430.069	87.06
430.292	88.06
430.514	104.06
430.736	102.06
430.958	87.06
431.18	109.06
431.402	97.06
431.624	104.06
431.846	85.06
432.068	85.06
432.29	80.06
432.512	103.06
432.734	100.06
432.956	83.06
433.178	102.06
433.4	95.06
433.622	97.06
433.844	94.06
434.066	93.06
434.287	71.06
434.509	74.06
434.731	94.06
434.953	86.06
435.175	91.06
435.397	96.06
435.618	104.06
435.84	91.06
436.062	94.06
436.284	86.06
436.505	99.06
436.727	88.06
436.949	99.06
437.17	91.06
437.392	104.06
437.614	87.06
437.835	79.06
438.057	88.06
438.278	81.06
438.5	85.06
438.721	99.06
438.943	97.06
439.165	95.06
439.386	93.06
439.608	105.06
439.829	96.06
440.05	98.06
440.272	110.06
440.493	77.06
440.715	97.06
440.936	86.06
441.158	87.06
441.379	93.06
441.6	91.06
441.822	101.06
442.043	99.06
442.264	91.06
442.486	92.06
442.707	86.06
442.928	85.06
443.149	95.06
443.371	106.06
443.592	85.06
443.813	110.06
444.034	94.06
444.255	98.06
444.476	96.06
444.698	81.06
444.919	90.06
445.14	233.06
445.361	149.06
445.582	87.06
445.803	89.06
446.024	98.06
446.245	98.06
446.466	97.06
446.687	104.06
446.908	80.06
447.129	87.06
447.35	96.06
447.571	94.06
447.792	111.06
448.013	86.06
448.234	102.06
448.455	92.06
448.675	90.06
448.896	87.06
449.117	88.06
449.338	103.06
449.559	89.06
449.779	94.06
450	88.06
450.221	109.06
450.442	97.06
450.662	80.06
450.883	92.06
451.104	86.06
451.324	96.06
451.545	101.06
451.766	121.06
451.986	97.06
452.207	95.06
452.428	88.06
452.648	104.06
452.869	103.06
453.089	102.06
453.31	91.06
453.53	86.06
453.751	97.06
453.971	91.06
454.192	87.06
454.412	80.06
454.633	80.06
454.853	94.06
455.073	96.06
455.294	88.06
455.514	106.06
455.734	93.06
455.955	92.06
456.175	95.06
456.395	94.06
456.616	77.06
456.836	83.06
457.056	89.06
457.276	84.06
457.497	75.06
457.717	92.06
457.937	90.06
458.157	69.06
458.377	95.06
458.598	72.06
458.818	81.06
459.038	69.06
459.258	85.06
459.478	83.06
459.698	80.06
459.918	77.06
460.138	93.06
460.358	83.06
460.578	86.06
460.798	79.06
461.018	94.06
461.238	96.06
461.458	90.06
461.678	91.06
461.898	88.06
462.118	74.06
462.338	74.06
462.558	85.06
462.777	94.06
462.997	93.06
463.217	88.06
463.437	90.06
463.657	90.06
463.876	71.06
464.096	79.06
464.316	71.06
464.536	91.06
464.755	93.06
464.975	86.06
465.195	103.06
465.414	79.06
465.634	86.06
465.854	98.06
466.073	98.06
466.293	90.06
466.512	106.06
466.732	93.06
466.951	103.06
467.171	97.06
467.391	95.06
467.61	97.06
467.829	91.06
468.049	111.06
468.268	78.06
468.488	100.06
468.707	97.06
468.927	92.06
469.146	105.06
469.365	85.06
469.585	93.06
469.804	106.06
470.023	101.06
470.243	93.06
470.462	97.06
470.681	110.06
470.901	111.06
471.12	92.06
471.339	94.06
471.558	97.06
471.777	90.06
471.997	94.06
472.216	90.06
472.435	95.06
472.654	89.06
472.873	87.06
473.092	95.06
473.311	96.06
473.53	86.06
473.749	87.06
473.968	98.06
474.187	94.06
474.406	91.06
474.625	93.06
474.844	94.06
475.063	96.06
475.282	106.06
475.501	101.06
475.72	94.06
475.939	94.06
476.158	94.06
476.377	89.06
476.596	89.06
476.814	88.06
477.033	78.06
477.252	82.06
477.471	102.06
477.69	103.06
477.908	104.06
478.127	105.06
478.346	93.06
478.564	97.06
478.783	82.06
479.002	100.06
479.22	98.06
479.439	92.06
479.658	95.06
479.876	91.06
480.095	97.06
480.313	90.06
480.532	93.06
480.751	81.06
480.969	85.06
481.188	86.06
481.406	78.06
481.624	91.06
481.843	98.06
482.061	81.06
482.28	106.06
482.498	92.06
482.717	84.06
482.935	97.06
483.153	101.06
483.372	93.06
483.59	90.06
483.808	91.06
484.027	96.06
484.245	88.06
484.463	101.06
484.681	106.06
484.9	102.06
485.118	108.06
485.336	87.06
485.554	88.06
485.772	85.06
485.99	85.06
486.209	94.06
486.427	96.06
486.645	93.06
486.863	92.06
487.081	104.06
487.299	92.06
487.517	103.06
487.735	95.06
487.953	117.06
488.171	118.06
488.389	113.06
488.607	114.06
488.825	101.06
489.043	97.06
489.261	103.06
489.479	94.06
489.696	103.06
489.914	110.06
490.132	96.06
490.35	106.06
490.568	116.06
490.786	95.06
491.003	102.06
491.221	120.06
491.439	121.06
491.657	102.06
491.874	116.06
492.092	110.06
492.31	121.06
492.527	121.06
492.745	128.06
492.963	129.06
493.18	104.06
493.398	105.06
493.615	114.06
493.833	109.06
494.05	113.06
494.268	103.06
494.485	98.06
494.703	110.06
494.92	103.06
495.138	115.06
495.355	101.06
495.573	106.06
495.79	109.06
496.008	125.06
496.225	96.06
496.442	121.06
496.66	129.06
496.877	122.06
497.094	110.06
497.312	113.06
497.529	109.06
497.746	95.06
497.963	111.06
498.181	92.06
498.398	98.06
498.615	87.06
498.832	81.06
499.049	91.06
499.267	86.06
499.484	105.06
499.701	90.06
499.918	98.06
500.135	96.06
500.352	91.06
500.569	98.06
500.786	88.06
501.003	115.06
501.22	90.06
501.437	95.06
501.654	105.06
501.871	89.06
502.088	85.06
502.305	102.06
502.522	95.06
502.739	106.06
502.956	98.06
503.172	92.06
503.389	104.06
503.606	101.06
503.823	89.06
504.04	94.06
504.256	78.06
504.473	83.06
504.69	101.06
504.907	103.06
505.123	111.06
505.34	89.06
505.557	104.06
505.773	86.06
505.99	83.06
506.207	103.06
506.423	89.06
506.64	99.06
506.856	86.06
507.073	100.06
507.289	88.06
507.506	102.06
507.722	88.06
507.939	99.06
508.155	99.06
508.372	83.06
508.588	94.06
508.805	90.06
509.021	93.06
509.238	95.06
509.454	91.06
509.67	85.06
509.887	90.06
510.103	102.06
510.319	105.06
510.536	90.06
510.752	75.06
510.968	72.06
511.184	87.06
511.401	86.06
511.617	80.06
511.833	100.06
512.049	84.06
512.265	91.06
512.481	78.06
512.698	94.06
512.914	81.06
513.13	87.06
513.346	79.06
513.562	74.06
513.778	90.06
513.994	90.06
514.21	81.06
514.426	99.06
514.642	82.06
514.858	87.06
515.074	78.06
515.29	98.06
515.506	89.06
515.721	84.06
515.937	87.06
516.153	75.06
516.369	89.06
516.585	84.06
516.801	93.06
517.016	96.06
517.232	88.06
517.448	88.06
517.664	87.06
517.879	92.06
518.095	87.06
518.311	84.06
518.527	86.06
518.742	95.06
518.958	84.06
519.173	92.06
519.389	99.06
519.605	92.06
519.82	100.06
520.036	98.06
520.251	84.06
520.467	83.06
520.682	87.06
520.898	74.06
521.113	89.06
521.329	79.06
521.544	81.06
521.76	84.06
521.975	82.06
522.19	80.06
522.406	88.06
522.621	89.06
522.836	75.06
523.052	96.06
523.267	85.06
523.482	96.06
523.698	89.06
523.913	87.06
524.128	91.06
524.343	93.06
524.559	88.06
524.774	98.06
524.989	85.06
525.204	82.06
525.419	87.06
525.634	94.06
525.849	93.06
526.064	78.06
526.28	82.06
526.495	78.06
526.71	93.06
526.925	82.06
527.14	93.06
527.355	82.06
527.57	92.06
527.785	90.06
527.999	77.06
528.214	101.06
528.429	103.06
528.644	107.06
528.859	100.06
529.074	106.06
529.289	115.06
529.503	99.06
529.718	92.06
529.933	97.06
530.148	90.06
530.363	83.06
530.577	78.06
530.792	83.06
531.007	88.06
531.221	97.06
531.436	87.06
531.651	95.06
531.865	85.06
532.08	83.06
532.295	92.06
532.509	87.06
532.724	87.06
532.938	79.06
533.153	91.06
533.367	103.06
533.582	96.06
533.796	109.06
534.011	89.06
534.225	87.06
534.44	87.06
534.654	88.06
534.868	86.06
535.083	85.06
535.297	90.06
535.511	90.06
535.726	94.06
535.94	80.06
536.154	85.06
536.369	81.06
536.583	73.06
536.797	83.06
537.011	95.06
537.225	94.06
537.44	71.06
537.654	88.06
537.868	88.06
538.082	74.06
538.296	95.06
538.51	96.06
538.724	95.06
538.938	97.06
539.153	69.06
539.367	85.06
539.581	87.06
539.795	83.06
540.009	85.06
540.222	81.06
540.436	94.06
540.65	77.06
540.864	88.06
541.078	91.06
541.292	103.06
541.506	104.06
541.72	105.06
541.934	117.06
542.147	117.06
542.361	118.06
542.575	98.06
542.789	100.06
543.002	98.06
543.216	82.06
543.43	102.06
543.644	93.06
543.857	99.06
544.071	101.06
544.285	117.06
544.498	120.06
544.712	96.06
544.925	105.06
545.139	98.06
545.352	103.06
545.566	101.06
545.779	100.06
545.993	114.06
546.206	113.06
546.42	98.06
546.633	112.06
546.847	88.06
547.06	112.06
547.274	117.06
547.487	121.06
547.7	111.06
547.914	100.06
548.127	112.06
548.34	105.06
548.554	114.06
548.767	105.06
548.98	106.06
549.193	94.06
549.407	110.06
549.62	111.06
549.833	91.06
550.046	117.06
550.259	103.06
550.473	106.06
550.686	119.06
550.899	106.06
551.112	101.06
551.325	96.06
551.538	106.06
551.751	108.06
551.964	94.06
552.177	99.06
552.39	106.06
552.603	114.06
552.816	112.06
553.029	102.06
553.242	112.06
553.455	105.06
553.667	95.06
553.88	99.06
554.093	99.06
554.306	94.06
554.519	101.06
554.732	116.06
554.944	102.06
555.157	101.06
555.37	116.06
555.583	99.06
555.795	96.06
556.008	94.06
556.221	98.06
556.433	109.06
556.646	97.06
556.859	97.06
557.071	101.06
557.284	102.06
557.496	98.06
557.709	120.06
557.921	113.06
558.134	101.06
558.346	92.06
558.559	113.06
558.771	106.06
558.984	100.06
559.196	104.06
559.409	94.06
559.621	97.06
559.833	85.06
560.046	88.06
560.258	115.06
560.47	93.06
560.683	98.06
560.895	106.06
561.107	96.06
561.32	99.06
561.532	97.06
561.744	99.06
561.956	105.06
562.168	95.06
562.381	90.06
562.593	90.06
562.805	84.06
563.017	101.06
563.229	112.06
563.441	83.06
563.653	87.06
563.865	93.06
564.077	82.06
564.289	85.06
564.501	104.06
564.713	93.06
564.925	86.06
565.137	105.06
565.349	95.06
565.561	97.06
565.773	98.06
565.985	75.06
566.197	77.06
566.408	87.06
566.62	96.06
566.832	96.06
567.044	98.06
567.255	101.06
567.467	101.06
567.679	88.06
567.891	101.06
568.102	73.06
568.314	91.06
568.526	86.06
568.737	90.06
568.949	73.06
569.161	104.06
569.372	80.06
569.584	60.06
569.795	66.06
570.007	79.06
570.218	95.06
570.43	82.06
570.641	86.06
570.853	90.06
571.064	95.06
571.276	85.06
571.487	94.06
571.698	84.06
571.91	95.06
572.121	95.06
572.333	86.06
572.544	91.06
572.755	90.06
572.966	91.06
573.178	103.06
573.389	89.06
573.6	102.06
573.811	79.06
574.023	81.06
574.234	80.06
574.445	85.06
574.656	79.06
574.867	81.06
575.078	85.06
575.289	89.06
575.501	99.06
575.712	82.06
575.923	97.06
576.134	95.06
576.345	99.06
576.556	97.06
576.767	100.06
576.978	74.06
577.188	95.06
577.399	81.06
577.61	98.06
577.821	91.06
578.032	83.06
578.243	86.06
578.454	86.06
578.665	76.06
578.875	82.06
579.086	100.06
579.297	78.06
579.508	82.06
579.718	67.06
579.929	94.06
580.14	90.06
580.35	71.06
580.561	73.06
580.772	89.06
580.982	90.06
581.193	93.06
581.403	83.06
581.614	104.06
581.825	101.06
582.035	71.06
582.246	91.06
582.456	97.06
582.667	86.06
582.877	83.06
583.087	90.06
583.298	83.06
583.508	83.06
583.719	99.06
583.929	89.06
584.139	93.06
584.35	84.06
584.56	75.06
584.77	89.06
584.981	85.06
585.191	85.06
585.401	75.06
585.611	91.06
585.821	91.06
586.032	91.06
586.242	94.06
586.452	90.06
586.662	78.06
586.872	94.06
587.082	94.06
587.292	77.06
587.502	73.06
587.713	88.06
587.923	76.06
588.133	80.06
588.343	82.06
588.553	97.06
588.762	85.06
588.972	73.06
589.182	74.06
589.392	86.06
589.602	92.06
589.812	98.06
590.022	77.06
590.232	93.06
590.441	84.06
590.651	83.06
590.861	84.06
591.071	77.06
591.281	87.06
591.49	69.06
591.7	86.06
591.91	92.06
592.119	85.06
592.329	87.06
592.539	87.06
592.748	82.06
592.958	83.06
593.167	82.06
593.377	82.06
593.587	87.06
593.796	80.06
594.006	79.06
594.215	83.06
594.424	86.06
594.634	89.06
594.843	86.06
595.053	81.06
595.262	86.06
595.472	81.06
595.681	89.06
595.89	85.06
596.1	99.06
596.309	93.06
596.518	83.06
596.727	88.06
596.937	84.06
597.146	93.06
597.355	88.06
597.564	101.06
597.774	90.06
597.983	86.06
598.192	88.06
598.401	93.06
598.61	76.06
598.819	72.06
599.028	102.06
599.237	77.06
599.446	90.06
599.655	86.06
599.864	82.06
600.073	64.06
600.282	95.06
600.491	99.06
600.7	95.06
600.909	72.06
601.118	81.06
601.327	91.06
601.536	74.06
601.745	88.06
601.953	88.06
602.162	99.06
602.371	87.06
602.58	101.06
602.789	91.06
602.997	95.06
603.206	86.06
603.415	80.06
603.623	92.06
603.832	92.06
604.041	99.06
604.249	83.06
604.458	86.06
604.666	77.06
604.875	100.06
605.084	86.06
605.292	89.06
605.501	88.06
605.709	97.06
605.918	99.06
606.126	105.06
606.334	101.06
606.543	86.06
606.751	89.06
606.96	86.06
607.168	99.06
607.376	86.06
607.585	93.06
607.793	82.06
608.001	80.06
608.21	71.06
608.418	99.06
608.626	85.06
608.834	90.06
609.043	90.06
609.251	93.06
609.459	85.06
609.667	90.06
609.875	103.06
610.083	90.06
610.291	96.06
610.499	87.06
610.707	91.06
610.916	99.06
611.124	95.06
611.332	99.06
611.54	89.06
611.748	88.06
611.955	93.06
612.163	87.06
612.371	90.06
612.579	84.06
612.787	89.06
612.995	98.06
613.203	102.06
613.411	81.06
613.618	72.06
613.826	87.06
614.034	87.06
614.242	88.06
614.449	94.06
614.657	95.06
614.865	75.06
615.072	93.06
615.28	101.06
615.488	82.06
615.695	95.06
615.903	100.06
616.111	96.06
616.318	94.06
616.526	75.06
616.733	92.06
616.941	73.06
617.148	95.06
617.356	104.06
617.563	83.06
617.771	84.06
617.978	89.06
618.185	94.06
618.393	90.06
618.6	83.06
618.807	94.06
619.015	91.06
619.222	97.06
619.429	86.06
619.637	110.06
619.844	90.06
620.051	100.06
620.258	93.06
620.466	75.06
620.673	86.06
620.88	97.06
621.087	99.06
621.294	87.06
621.501	91.06
621.708	95.06
621.915	81.06
622.122	107.06
622.329	82.06
622.536	67.06
622.743	88.06
622.95	90.06
623.157	78.06
623.364	97.06
623.571	98.06
623.778	88.06
623.985	102.06
624.192	87.06
624.399	98.06
624.606	94.06
624.812	88.06
625.019	81.06
625.226	101.06
625.433	94.06
625.639	96.06
625.846	88.06
626.053	81.06
626.259	102.06
626.466	79.06
626.673	88.06
626.879	81.06
627.086	85.06
627.293	87.06
627.499	89.06
627.706	77.06
627.912	84.06
628.119	96.06
628.325	84.06
628.532	90.06
628.738	93.06
628.945	94.06
629.151	81.06
629.357	84.06
629.564	109.06
629.77	104.06
629.976	88.06
630.183	85.06
630.389	90.06
630.595	95.06
630.802	79.06
631.008	93.06
631.214	81.06
631.42	89.06
631.627	102.06
631.833	88.06
632.039	73.06
632.245	81.06
632.451	82.06
632.657	80.06
632.863	77.06
633.069	87.06
633.275	94.06
633.481	93.06
633.688	82.06
633.893	80.06
634.099	99.06
634.305	93.06
634.511	97.06
634.717	99.06
634.923	89.06
635.129	80.06
635.335	97.06
635.541	78.06
635.747	96.06
635.952	98.06
636.158	81.06
636.364	82.06
636.57	92.06
636.775	82.06
636.981	92.06
637.187	80.06
637.392	90.06
637.598	89.06
637.804	107.06
638.009	84.06
638.215	90.06
638.421	70.06
638.626	91.06
638.832	94.06
639.037	91.06
639.243	91.06
639.448	74.06
639.654	94.06
639.859	96.06
640.065	89.06
640.27	98.06
640.475	98.06
640.681	96.06
640.886	87.06
641.091	77.06
641.297	92.06
641.502	82.06
641.707	99.06
641.913	89.06
642.118	82.06
642.323	92.06
642.528	98.06
642.733	83.06
642.939	86.06
643.144	90.06
643.349	86.06
643.554	99.06
643.759	85.06
643.964	84.06
644.169	100.06
644.374	96.06
644.579	97.06
644.784	89.06
644.989	67.06
645.194	91.06
645.399	78.06
645.604	94.06
645.809	94.06
646.014	86.06
646.219	84.06
646.423	85.06
646.628	73.06
646.833	89.06
647.038	98.06
647.243	87.06
647.447	103.06
647.652	87.06
647.857	95.06
648.062	88.06
648.266	99.06
648.471	83.06
648.676	68.06
648.88	95.06
649.085	77.06
649.289	97.06
649.494	89.06
649.698	86.06
649.903	66.06
650.107	74.06
650.312	88.06
650.516	92.06
650.721	91.06
650.925	86.06
651.13	89.06
651.334	82.06
651.539	79.06
651.743	80.06
651.947	98.06
652.152	84.06
652.356	86.06
652.56	91.06
652.764	96.06
652.969	86.06
653.173	82.06
653.377	74.06
653.581	92.06
653.785	85.06
653.99	73.06
654.194	88.06
654.398	73.06
654.602	75.06
654.806	72.06
655.01	87.06
655.214	95.06
655.418	92.06
655.622	85.06
655.826	82.06
656.03	86.06
656.234	83.06
656.438	84.06
656.642	77.06
656.846	77.06
657.049	89.06
657.253	78.06
657.457	80.06
657.661	97.06
657.865	100.06
658.068	81.06
658.272	81.06
658.476	85.06
658.68	78.06
658.883	88.06
659.087	82.06
659.291	73.06
659.494	85.06
659.698	93.06
659.901	86.06
660.105	74.06
660.309	90.06
660.512	89.06
660.716	93.06
660.919	82.06
661.123	96.06
661.326	84.06
661.53	95.06
661.733	90.06
661.936	86.06
662.14	72.06
662.343	81.06
662.546	70.06
662.75	89.06
662.953	86.06
663.156	75.06
663.36	79.06
663.563	82.06
663.766	90.06
663.969	103.06
664.173	85.06
664.376	77.06
664.579	76.06
664.782	78.06
664.985	80.06
665.188	67.06
665.391	80.06
665.594	91.06
665.797	85.06
666	74.06
666.203	77.06
666.406	98.06
666.609	92.06
666.812	87.06
667.015	79.06
667.218	69.06
667.421	68.06
667.624	89.06
667.827	86.06
668.03	83.06
668.232	79.06
668.435	75.06
668.638	89.06
668.841	82.06
669.043	78.06
669.246	93.06
669.449	86.06
669.651	87.06
669.854	86.06
670.057	77.06
670.259	80.06
670.462	70.06
670.665	82.06
670.867	82.06
671.07	85.06
671.272	89.06
671.475	80.06
671.677	85.06
671.88	83.06
672.082	90.06
672.284	90.06
672.487	80.06
672.689	83.06
672.892	76.06
