Data from Location3.07152019.Energy5.Lamp.07192019.3%Agarose_HRD10591_15-19-00-271.txt Node
Date: Fri Jul 19 15:19:00 EDT 2019
User: cochatt
Spectrometer: HR+D1059
Trigger mode: 1
Integration Time (sec): 1.000000E-1
Scans to average: 1
Electric dark correction enabled: true
Nonlinearity correction enabled: false
Boxcar width: 0
XAxis mode: Wavelengths
Number of Pixels in Spectrum: 2048
>>>>>Begin Spectral Data<<<<<
223.165	-22.31
223.4	-22.31
223.635	-22.31
223.869	-7.31
224.104	-19.31
224.338	2.69
224.573	-17.31
224.808	-15.31
225.042	-3.31
225.277	9.69
225.511	-11.31
225.746	-1.31
225.98	-11.31
226.215	17.69
226.449	13.69
226.683	25.69
226.918	26.69
227.152	12.69
227.387	31.69
227.621	36.69
227.856	46.69
228.09	34.69
228.324	52.69
228.559	50.69
228.793	67.69
229.027	58.69
229.262	63.69
229.496	71.69
229.73	81.69
229.964	62.69
230.199	80.69
230.433	72.69
230.667	69.69
230.901	63.69
231.136	59.69
231.37	75.69
231.604	75.69
231.838	68.69
232.072	84.69
232.306	85.69
232.541	84.69
232.775	88.69
233.009	83.69
233.243	85.69
233.477	88.69
233.711	78.69
233.945	76.69
234.179	87.69
234.413	92.69
234.647	78.69
234.881	82.69
235.115	74.69
235.349	86.69
235.583	74.69
235.817	68.69
236.051	85.69
236.285	72.69
236.519	82.69
236.753	76.69
236.987	64.69
237.221	77.69
237.455	87.69
237.689	80.69
237.922	80.69
238.156	87.69
238.39	71.69
238.624	80.69
238.858	82.69
239.091	67.69
239.325	67.69
239.559	79.69
239.793	64.69
240.027	81.69
240.26	73.69
240.494	69.69
240.728	69.69
240.961	78.69
241.195	88.69
241.429	80.69
241.662	56.69
241.896	76.69
242.13	68.69
242.363	68.69
242.597	81.69
242.83	80.69
243.064	71.69
243.298	82.69
243.531	73.69
243.765	72.69
243.998	74.69
244.232	88.69
244.465	75.69
244.699	79.69
244.932	72.69
245.166	73.69
245.399	83.69
245.633	73.69
245.866	64.69
246.099	67.69
246.333	84.69
246.566	83.69
246.8	84.69
247.033	71.69
247.266	75.69
247.5	83.69
247.733	70.69
247.966	68.69
248.2	72.69
248.433	79.69
248.666	82.69
248.899	70.69
249.133	93.69
249.366	71.69
249.599	89.69
249.832	73.69
250.066	83.69
250.299	76.69
250.532	94.69
250.765	79.69
250.998	76.69
251.231	68.69
251.465	87.69
251.698	76.69
251.931	75.69
252.164	76.69
252.397	82.69
252.63	66.69
252.863	79.69
253.096	69.69
253.329	81.69
253.562	63.69
253.795	66.69
254.028	100.69
254.261	65.69
254.494	76.69
254.727	65.69
254.96	79.69
255.193	83.69
255.426	73.69
255.659	93.69
255.892	97.69
256.124	89.69
256.357	72.69
256.59	75.69
256.823	73.69
257.056	89.69
257.289	83.69
257.521	86.69
257.754	73.69
257.987	84.69
258.22	90.69
258.452	78.69
258.685	91.69
258.918	86.69
259.151	82.69
259.383	80.69
259.616	84.69
259.849	81.69
260.081	70.69
260.314	76.69
260.547	87.69
260.779	87.69
261.012	93.69
261.244	84.69
261.477	87.69
261.71	94.69
261.942	89.69
262.175	82.69
262.407	71.69
262.64	97.69
262.872	100.69
263.105	86.69
263.337	75.69
263.57	73.69
263.802	80.69
264.035	86.69
264.267	94.69
264.499	70.69
264.732	80.69
264.964	81.69
265.197	94.69
265.429	61.69
265.661	84.69
265.894	89.69
266.126	87.69
266.358	75.69
266.591	98.69
266.823	92.69
267.055	74.69
267.287	99.69
267.52	73.69
267.752	82.69
267.984	77.69
268.216	76.69
268.448	82.69
268.681	76.69
268.913	82.69
269.145	76.69
269.377	75.69
269.609	92.69
269.841	73.69
270.073	85.69
270.306	82.69
270.538	81.69
270.77	75.69
271.002	81.69
271.234	83.69
271.466	87.69
271.698	87.69
271.93	85.69
272.162	76.69
272.394	79.69
272.626	86.69
272.858	91.69
273.09	84.69
273.322	68.69
273.553	83.69
273.785	76.69
274.017	82.69
274.249	95.69
274.481	91.69
274.713	98.69
274.945	87.69
275.176	79.69
275.408	80.69
275.64	86.69
275.872	75.69
276.104	73.69
276.335	76.69
276.567	81.69
276.799	88.69
277.031	87.69
277.262	74.69
277.494	84.69
277.726	86.69
277.957	76.69
278.189	80.69
278.421	79.69
278.652	98.69
278.884	84.69
279.115	83.69
279.347	75.69
279.579	96.69
279.81	94.69
280.042	80.69
280.273	83.69
280.505	81.69
280.736	74.69
280.968	66.69
281.199	82.69
281.431	83.69
281.662	86.69
281.894	92.69
282.125	81.69
282.356	95.69
282.588	89.69
282.819	86.69
283.051	75.69
283.282	80.69
283.513	84.69
283.745	73.69
283.976	75.69
284.207	86.69
284.439	83.69
284.67	82.69
284.901	83.69
285.132	87.69
285.364	89.69
285.595	76.69
285.826	79.69
286.057	99.69
286.288	87.69
286.52	84.69
286.751	90.69
286.982	87.69
287.213	80.69
287.444	92.69
287.675	79.69
287.906	87.69
288.138	78.69
288.369	80.69
288.6	87.69
288.831	83.69
289.062	82.69
289.293	82.69
289.524	81.69
289.755	77.69
289.986	83.69
290.217	87.69
290.448	85.69
290.679	94.69
290.91	91.69
291.141	73.69
291.371	81.69
291.602	88.69
291.833	78.69
292.064	79.69
292.295	76.69
292.526	80.69
292.757	82.69
292.987	81.69
293.218	80.69
293.449	76.69
293.68	87.69
293.91	73.69
294.141	87.69
294.372	88.69
294.603	76.69
294.833	72.69
295.064	76.69
295.295	82.69
295.525	81.69
295.756	96.69
295.987	74.69
296.217	94.69
296.448	77.69
296.679	83.69
296.909	86.69
297.14	82.69
297.37	86.69
297.601	88.69
297.831	83.69
298.062	92.69
298.292	94.69
298.523	91.69
298.753	85.69
298.984	79.69
299.214	83.69
299.445	103.69
299.675	94.69
299.905	83.69
300.136	77.69
300.366	89.69
300.597	89.69
300.827	83.69
301.057	82.69
301.288	84.69
301.518	86.69
301.748	94.69
301.979	94.69
302.209	81.69
302.439	85.69
302.669	84.69
302.9	89.69
303.13	62.69
303.36	81.69
303.59	88.69
303.82	80.69
304.051	91.69
304.281	86.69
304.511	83.69
304.741	86.69
304.971	95.69
305.201	93.69
305.431	87.69
305.661	93.69
305.891	83.69
306.121	82.69
306.352	86.69
306.582	73.69
306.812	90.69
307.042	86.69
307.272	88.69
307.502	90.69
307.731	86.69
307.961	83.69
308.191	67.69
308.421	87.69
308.651	87.69
308.881	85.69
309.111	89.69
309.341	83.69
309.571	89.69
309.8	79.69
310.03	77.69
310.26	85.69
310.49	83.69
310.72	82.69
310.949	74.69
311.179	84.69
311.409	86.69
311.639	96.69
311.868	88.69
312.098	84.69
312.328	68.69
312.557	90.69
312.787	70.69
313.017	79.69
313.246	94.69
313.476	86.69
313.706	79.69
313.935	80.69
314.165	73.69
314.394	81.69
314.624	79.69
314.853	97.69
315.083	94.69
315.312	98.69
315.542	99.69
315.771	75.69
316.001	81.69
316.23	78.69
316.46	79.69
316.689	76.69
316.919	80.69
317.148	92.69
317.377	87.69
317.607	83.69
317.836	93.69
318.065	73.69
318.295	76.69
318.524	86.69
318.753	77.69
318.983	72.69
319.212	80.69
319.441	76.69
319.67	92.69
319.9	95.69
320.129	97.69
320.358	87.69
320.587	76.69
320.816	85.69
321.046	78.69
321.275	85.69
321.504	86.69
321.733	91.69
321.962	89.69
322.191	84.69
322.42	78.69
322.649	76.69
322.878	91.69
323.108	81.69
323.337	91.69
323.566	96.69
323.795	89.69
324.024	82.69
324.253	90.69
324.482	96.69
324.71	95.69
324.939	91.69
325.168	98.69
325.397	84.69
325.626	74.69
325.855	83.69
326.084	74.69
326.313	74.69
326.542	79.69
326.77	86.69
326.999	91.69
327.228	81.69
327.457	98.69
327.686	92.69
327.914	89.69
328.143	78.69
328.372	87.69
328.6	92.69
328.829	74.69
329.058	88.69
329.287	96.69
329.515	92.69
329.744	94.69
329.972	82.69
330.201	93.69
330.43	88.69
330.658	82.69
330.887	86.69
331.115	84.69
331.344	76.69
331.572	85.69
331.801	82.69
332.03	87.69
332.258	76.69
332.486	83.69
332.715	73.69
332.943	88.69
333.172	87.69
333.4	90.69
333.629	82.69
333.857	82.69
334.085	90.69
334.314	73.69
334.542	85.69
334.771	84.69
334.999	70.69
335.227	73.69
335.455	72.69
335.684	83.69
335.912	76.69
336.14	66.69
336.369	95.69
336.597	83.69
336.825	98.69
337.053	80.69
337.281	82.69
337.51	98.69
337.738	97.69
337.966	87.69
338.194	76.69
338.422	91.69
338.65	85.69
338.878	85.69
339.106	92.69
339.334	90.69
339.562	87.69
339.79	78.69
340.018	74.69
340.246	72.69
340.474	107.69
340.702	86.69
340.93	83.69
341.158	75.69
341.386	87.69
341.614	77.69
341.842	80.69
342.07	82.69
342.298	107.69
342.526	89.69
342.754	81.69
342.981	89.69
343.209	82.69
343.437	75.69
343.665	74.69
343.893	86.69
344.12	84.69
344.348	71.69
344.576	68.69
344.804	87.69
345.031	90.69
345.259	90.69
345.487	81.69
345.714	102.69
345.942	94.69
346.17	73.69
346.397	76.69
346.625	78.69
346.853	100.69
347.08	76.69
347.308	84.69
347.535	83.69
347.763	76.69
347.99	85.69
348.218	71.69
348.445	79.69
348.673	87.69
348.9	86.69
349.128	80.69
349.355	89.69
349.583	83.69
349.81	83.69
350.037	95.69
350.265	78.69
350.492	88.69
350.72	84.69
350.947	94.69
351.174	80.69
351.402	78.69
351.629	87.69
351.856	86.69
352.083	91.69
352.311	76.69
352.538	98.69
352.765	82.69
352.992	92.69
353.22	89.69
353.447	85.69
353.674	82.69
353.901	83.69
354.128	73.69
354.355	80.69
354.583	93.69
354.81	79.69
355.037	92.69
355.264	78.69
355.491	96.69
355.718	82.69
355.945	81.69
356.172	90.69
356.399	77.69
356.626	82.69
356.853	89.69
357.08	91.69
357.307	89.69
357.534	76.69
357.761	80.69
357.988	91.69
358.215	82.69
358.441	95.69
358.668	94.69
358.895	80.69
359.122	89.69
359.349	91.69
359.576	70.69
359.802	81.69
360.029	73.69
360.256	74.69
360.483	73.69
360.709	68.69
360.936	90.69
361.163	98.69
361.39	76.69
361.616	94.69
361.843	84.69
362.07	63.69
362.296	73.69
362.523	89.69
362.749	89.69
362.976	86.69
363.203	76.69
363.429	71.69
363.656	87.69
363.882	88.69
364.109	94.69
364.335	68.69
364.562	74.69
364.788	78.69
365.015	88.69
365.241	79.69
365.468	80.69
365.694	89.69
365.92	90.69
366.147	69.69
366.373	82.69
366.599	96.69
366.826	83.69
367.052	85.69
367.278	78.69
367.505	86.69
367.731	77.69
367.957	87.69
368.184	76.69
368.41	80.69
368.636	75.69
368.862	82.69
369.089	83.69
369.315	85.69
369.541	73.69
369.767	93.69
369.993	87.69
370.219	85.69
370.445	88.69
370.672	79.69
370.898	95.69
371.124	73.69
371.35	77.69
371.576	82.69
371.802	74.69
372.028	83.69
372.254	82.69
372.48	79.69
372.706	76.69
372.932	83.69
373.158	79.69
373.384	95.69
373.61	74.69
373.835	73.69
374.061	87.69
374.287	82.69
374.513	80.69
374.739	90.69
374.965	74.69
375.191	95.69
375.416	74.69
375.642	77.69
375.868	95.69
376.094	88.69
376.319	103.69
376.545	84.69
376.771	84.69
376.997	86.69
377.222	91.69
377.448	75.69
377.674	96.69
377.899	86.69
378.125	71.69
378.35	80.69
378.576	94.69
378.802	82.69
379.027	72.69
379.253	93.69
379.478	82.69
379.704	80.69
379.929	75.69
380.155	69.69
380.38	86.69
380.606	90.69
380.831	94.69
381.057	95.69
381.282	88.69
381.507	81.69
381.733	79.69
381.958	81.69
382.184	92.69
382.409	74.69
382.634	84.69
382.86	94.69
383.085	88.69
383.31	101.69
383.535	94.69
383.761	96.69
383.986	81.69
384.211	66.69
384.436	80.69
384.662	83.69
384.887	90.69
385.112	86.69
385.337	79.69
385.562	78.69
385.787	98.69
386.013	75.69
386.238	85.69
386.463	92.69
386.688	76.69
386.913	93.69
387.138	96.69
387.363	87.69
387.588	85.69
387.813	86.69
388.038	74.69
388.263	85.69
388.488	88.69
388.713	99.69
388.938	80.69
389.163	83.69
389.387	87.69
389.612	89.69
389.837	82.69
390.062	94.69
390.287	81.69
390.512	90.69
390.736	100.69
390.961	81.69
391.186	83.69
391.411	91.69
391.636	85.69
391.86	89.69
392.085	86.69
392.31	87.69
392.534	96.69
392.759	87.69
392.984	88.69
393.208	85.69
393.433	84.69
393.658	81.69
393.882	92.69
394.107	80.69
394.331	81.69
394.556	81.69
394.78	87.69
395.005	94.69
395.229	91.69
395.454	103.69
395.678	86.69
395.903	100.69
396.127	67.69
396.352	79.69
396.576	98.69
396.801	88.69
397.025	85.69
397.249	86.69
397.474	96.69
397.698	88.69
397.922	100.69
398.147	75.69
398.371	91.69
398.595	91.69
398.82	82.69
399.044	82.69
399.268	95.69
399.492	97.69
399.717	71.69
399.941	93.69
400.165	85.69
400.389	96.69
400.613	84.69
400.837	84.69
401.062	87.69
401.286	90.69
401.51	87.69
401.734	86.69
401.958	82.69
402.182	90.69
402.406	76.69
402.63	87.69
402.854	88.69
403.078	77.69
403.302	74.69
403.526	82.69
403.75	86.69
403.974	96.69
404.198	88.69
404.422	94.69
404.645	91.69
404.869	82.69
405.093	94.69
405.317	98.69
405.541	92.69
405.765	81.69
405.988	92.69
406.212	98.69
406.436	93.69
406.66	81.69
406.883	84.69
407.107	84.69
407.331	104.69
407.555	105.69
407.778	88.69
408.002	88.69
408.226	89.69
408.449	92.69
408.673	84.69
408.896	86.69
409.12	88.69
409.344	88.69
409.567	73.69
409.791	88.69
410.014	99.69
410.238	90.69
410.461	92.69
410.685	105.69
410.908	96.69
411.132	83.69
411.355	92.69
411.578	92.69
411.802	84.69
412.025	90.69
412.249	78.69
412.472	84.69
412.695	80.69
412.919	81.69
413.142	89.69
413.365	93.69
413.589	91.69
413.812	86.69
414.035	92.69
414.258	101.69
414.482	94.69
414.705	94.69
414.928	91.69
415.151	90.69
415.374	97.69
415.597	93.69
415.821	92.69
416.044	97.69
416.267	90.69
416.49	71.69
416.713	83.69
416.936	91.69
417.159	102.69
417.382	86.69
417.605	71.69
417.828	83.69
418.051	76.69
418.274	102.69
418.497	96.69
418.72	102.69
418.943	84.69
419.166	88.69
419.389	101.69
419.611	93.69
419.834	83.69
420.057	99.69
420.28	87.69
420.503	89.69
420.726	93.69
420.948	89.69
421.171	88.69
421.394	90.69
421.617	95.69
421.839	96.69
422.062	103.69
422.285	86.69
422.507	98.69
422.73	84.69
422.953	93.69
423.175	99.69
423.398	82.69
423.621	97.69
423.843	99.69
424.066	91.69
424.288	90.69
424.511	102.69
424.733	87.69
424.956	73.69
425.178	100.69
425.401	96.69
425.623	90.69
425.846	96.69
426.068	99.69
426.291	94.69
426.513	84.69
426.735	87.69
426.958	85.69
427.18	96.69
427.402	93.69
427.625	85.69
427.847	79.69
428.069	86.69
428.292	88.69
428.514	80.69
428.736	103.69
428.958	97.69
429.181	89.69
429.403	98.69
429.625	99.69
429.847	88.69
430.069	99.69
430.292	97.69
430.514	89.69
430.736	86.69
430.958	94.69
431.18	92.69
431.402	91.69
431.624	91.69
431.846	92.69
432.068	92.69
432.29	91.69
432.512	86.69
432.734	88.69
432.956	87.69
433.178	101.69
433.4	99.69
433.622	87.69
433.844	103.69
434.066	90.69
434.287	87.69
434.509	82.69
434.731	87.69
434.953	88.69
435.175	81.69
435.397	103.69
435.618	80.69
435.84	87.69
436.062	95.69
436.284	91.69
436.505	105.69
436.727	96.69
436.949	88.69
437.17	107.69
437.392	97.69
437.614	86.69
437.835	79.69
438.057	83.69
438.278	75.69
438.5	93.69
438.721	98.69
438.943	107.69
439.165	101.69
439.386	89.69
439.608	101.69
439.829	100.69
440.05	98.69
440.272	101.69
440.493	110.69
440.715	104.69
440.936	96.69
441.158	93.69
441.379	106.69
441.6	88.69
441.822	85.69
442.043	105.69
442.264	93.69
442.486	94.69
442.707	90.69
442.928	103.69
443.149	92.69
443.371	104.69
443.592	96.69
443.813	90.69
444.034	86.69
444.255	92.69
444.476	106.69
444.698	94.69
444.919	100.69
445.14	228.69
445.361	174.69
445.582	108.69
445.803	113.69
446.024	99.69
446.245	98.69
446.466	112.69
446.687	105.69
446.908	112.69
447.129	94.69
447.35	99.69
447.571	111.69
447.792	114.69
448.013	108.69
448.234	95.69
448.455	100.69
448.675	91.69
448.896	93.69
449.117	90.69
449.338	72.69
449.559	83.69
449.779	86.69
450	95.69
450.221	88.69
450.442	99.69
450.662	85.69
450.883	92.69
451.104	90.69
451.324	112.69
451.545	103.69
451.766	96.69
451.986	89.69
452.207	83.69
452.428	103.69
452.648	105.69
452.869	89.69
453.089	90.69
453.31	84.69
453.53	67.69
453.751	81.69
453.971	78.69
454.192	80.69
454.412	90.69
454.633	89.69
454.853	96.69
455.073	86.69
455.294	82.69
455.514	88.69
455.734	90.69
455.955	86.69
456.175	82.69
456.395	84.69
456.616	86.69
456.836	87.69
457.056	107.69
457.276	79.69
457.497	96.69
457.717	78.69
457.937	86.69
458.157	82.69
458.377	80.69
458.598	82.69
458.818	75.69
459.038	80.69
459.258	78.69
459.478	82.69
459.698	76.69
459.918	87.69
460.138	85.69
460.358	101.69
460.578	84.69
460.798	103.69
461.018	102.69
461.238	73.69
461.458	88.69
461.678	98.69
461.898	75.69
462.118	91.69
462.338	94.69
462.558	106.69
462.777	90.69
462.997	88.69
463.217	73.69
463.437	95.69
463.657	72.69
463.876	73.69
464.096	83.69
464.316	94.69
464.536	80.69
464.755	94.69
464.975	95.69
465.195	101.69
465.414	103.69
465.634	98.69
465.854	74.69
466.073	87.69
466.293	81.69
466.512	88.69
466.732	88.69
466.951	98.69
467.171	102.69
467.391	82.69
467.61	91.69
467.829	91.69
468.049	98.69
468.268	86.69
468.488	85.69
468.707	87.69
468.927	95.69
469.146	101.69
469.365	97.69
469.585	100.69
469.804	98.69
470.023	109.69
470.243	86.69
470.462	84.69
470.681	97.69
470.901	97.69
471.12	86.69
471.339	98.69
471.558	103.69
471.777	117.69
471.997	101.69
472.216	95.69
472.435	84.69
472.654	90.69
472.873	117.69
473.092	90.69
473.311	87.69
473.53	103.69
473.749	90.69
473.968	81.69
474.187	92.69
474.406	98.69
474.625	78.69
474.844	89.69
475.063	91.69
475.282	106.69
475.501	92.69
475.72	100.69
475.939	89.69
476.158	86.69
476.377	88.69
476.596	101.69
476.814	84.69
477.033	84.69
477.252	89.69
477.471	102.69
477.69	112.69
477.908	111.69
478.127	102.69
478.346	93.69
478.564	101.69
478.783	99.69
479.002	97.69
479.22	102.69
479.439	105.69
479.658	98.69
479.876	85.69
480.095	74.69
480.313	88.69
480.532	76.69
480.751	93.69
480.969	74.69
481.188	91.69
481.406	73.69
481.624	88.69
481.843	75.69
482.061	84.69
482.28	86.69
482.498	99.69
482.717	91.69
482.935	112.69
483.153	92.69
483.372	104.69
483.59	105.69
483.808	98.69
484.027	102.69
484.245	99.69
484.463	115.69
484.681	114.69
484.9	110.69
485.118	101.69
485.336	97.69
485.554	83.69
485.772	79.69
485.99	83.69
486.209	101.69
486.427	81.69
486.645	102.69
486.863	97.69
487.081	87.69
487.299	85.69
487.517	94.69
487.735	102.69
487.953	123.69
488.171	110.69
488.389	112.69
488.607	119.69
488.825	88.69
489.043	92.69
489.261	90.69
489.479	92.69
489.696	95.69
489.914	103.69
490.132	88.69
490.35	95.69
490.568	106.69
490.786	95.69
491.003	105.69
491.221	104.69
491.439	105.69
491.657	114.69
491.874	114.69
492.092	109.69
492.31	142.69
492.527	123.69
492.745	121.69
492.963	115.69
493.18	108.69
493.398	118.69
493.615	118.69
493.833	105.69
494.05	109.69
494.268	118.69
494.485	116.69
494.703	107.69
494.92	102.69
495.138	110.69
495.355	118.69
495.573	121.69
495.79	118.69
496.008	104.69
496.225	110.69
496.442	115.69
496.66	113.69
496.877	115.69
497.094	103.69
497.312	104.69
497.529	105.69
497.746	102.69
497.963	108.69
498.181	91.69
498.398	82.69
498.615	90.69
498.832	99.69
499.049	86.69
499.267	97.69
499.484	87.69
499.701	84.69
499.918	85.69
500.135	111.69
500.352	109.69
500.569	91.69
500.786	89.69
501.003	110.69
501.22	105.69
501.437	112.69
501.654	99.69
501.871	99.69
502.088	99.69
502.305	111.69
502.522	98.69
502.739	94.69
502.956	102.69
503.172	84.69
503.389	88.69
503.606	98.69
503.823	84.69
504.04	87.69
504.256	101.69
504.473	103.69
504.69	87.69
504.907	96.69
505.123	90.69
505.34	95.69
505.557	87.69
505.773	97.69
505.99	88.69
506.207	83.69
506.423	88.69
506.64	103.69
506.856	102.69
507.073	102.69
507.289	100.69
507.506	90.69
507.722	105.69
507.939	87.69
508.155	84.69
508.372	90.69
508.588	89.69
508.805	86.69
509.021	101.69
509.238	104.69
509.454	84.69
509.67	90.69
509.887	94.69
510.103	100.69
510.319	93.69
510.536	82.69
510.752	87.69
510.968	80.69
511.184	80.69
511.401	93.69
511.617	77.69
511.833	83.69
512.049	89.69
512.265	73.69
512.481	95.69
512.698	113.69
512.914	91.69
513.13	82.69
513.346	85.69
513.562	91.69
513.778	85.69
513.994	87.69
514.21	85.69
514.426	99.69
514.642	96.69
514.858	83.69
515.074	86.69
515.29	86.69
515.506	82.69
515.721	94.69
515.937	83.69
516.153	87.69
516.369	72.69
516.585	81.69
516.801	88.69
517.016	94.69
517.232	86.69
517.448	91.69
517.664	72.69
517.879	82.69
518.095	91.69
518.311	91.69
518.527	95.69
518.742	84.69
518.958	87.69
519.173	107.69
519.389	92.69
519.605	96.69
519.82	84.69
520.036	92.69
520.251	89.69
520.467	73.69
520.682	88.69
520.898	88.69
521.113	89.69
521.329	83.69
521.544	81.69
521.76	92.69
521.975	79.69
522.19	82.69
522.406	91.69
522.621	92.69
522.836	90.69
523.052	92.69
523.267	89.69
523.482	94.69
523.698	97.69
523.913	83.69
524.128	91.69
524.343	90.69
524.559	79.69
524.774	108.69
524.989	91.69
525.204	97.69
525.419	108.69
525.634	79.69
525.849	93.69
526.064	98.69
526.28	91.69
526.495	86.69
526.71	90.69
526.925	80.69
527.14	81.69
527.355	77.69
527.57	99.69
527.785	90.69
527.999	83.69
528.214	80.69
528.429	100.69
528.644	91.69
528.859	99.69
529.074	102.69
529.289	102.69
529.503	106.69
529.718	100.69
529.933	94.69
530.148	89.69
530.363	88.69
530.577	83.69
530.792	89.69
531.007	73.69
531.221	88.69
531.436	79.69
531.651	92.69
531.865	77.69
532.08	72.69
532.295	83.69
532.509	86.69
532.724	75.69
532.938	85.69
533.153	92.69
533.367	116.69
533.582	109.69
533.796	90.69
534.011	91.69
534.225	98.69
534.44	77.69
534.654	73.69
534.868	88.69
535.083	96.69
535.297	100.69
535.511	85.69
535.726	89.69
535.94	91.69
536.154	100.69
536.369	87.69
536.583	73.69
536.797	98.69
537.011	83.69
537.225	94.69
537.44	78.69
537.654	89.69
537.868	84.69
538.082	79.69
538.296	86.69
538.51	85.69
538.724	92.69
538.938	93.69
539.153	94.69
539.367	98.69
539.581	88.69
539.795	97.69
540.009	100.69
540.222	97.69
540.436	97.69
540.65	106.69
540.864	101.69
541.078	109.69
541.292	107.69
541.506	117.69
541.72	108.69
541.934	122.69
542.147	121.69
542.361	121.69
542.575	121.69
542.789	103.69
543.002	89.69
543.216	105.69
543.43	95.69
543.644	99.69
543.857	103.69
544.071	113.69
544.285	118.69
544.498	105.69
544.712	108.69
544.925	107.69
545.139	108.69
545.352	96.69
545.566	116.69
545.779	99.69
545.993	101.69
546.206	113.69
546.42	115.69
546.633	120.69
546.847	125.69
547.06	123.69
547.274	115.69
547.487	105.69
547.7	109.69
547.914	106.69
548.127	102.69
548.34	123.69
548.554	110.69
548.767	112.69
548.98	117.69
549.193	116.69
549.407	116.69
549.62	98.69
549.833	114.69
550.046	110.69
550.259	102.69
550.473	103.69
550.686	102.69
550.899	99.69
551.112	104.69
551.325	107.69
551.538	100.69
551.751	99.69
551.964	90.69
552.177	102.69
552.39	117.69
552.603	107.69
552.816	105.69
553.029	114.69
553.242	101.69
553.455	102.69
553.667	99.69
553.88	106.69
554.093	114.69
554.306	94.69
554.519	109.69
554.732	104.69
554.944	101.69
555.157	108.69
555.37	106.69
555.583	120.69
555.795	106.69
556.008	106.69
556.221	91.69
556.433	96.69
556.646	104.69
556.859	94.69
557.071	94.69
557.284	104.69
557.496	105.69
557.709	95.69
557.921	96.69
558.134	110.69
558.346	99.69
558.559	104.69
558.771	101.69
558.984	113.69
559.196	105.69
559.409	100.69
559.621	99.69
559.833	99.69
560.046	87.69
560.258	99.69
560.47	99.69
560.683	88.69
560.895	99.69
561.107	106.69
561.32	92.69
561.532	115.69
561.744	107.69
561.956	94.69
562.168	95.69
562.381	103.69
562.593	94.69
562.805	95.69
563.017	98.69
563.229	92.69
563.441	82.69
563.653	96.69
563.865	107.69
564.077	103.69
564.289	93.69
564.501	90.69
564.713	89.69
564.925	91.69
565.137	111.69
565.349	94.69
565.561	85.69
565.773	95.69
565.985	90.69
566.197	91.69
566.408	105.69
566.62	95.69
566.832	86.69
567.044	102.69
567.255	84.69
567.467	99.69
567.679	90.69
567.891	88.69
568.102	84.69
568.314	85.69
568.526	73.69
568.737	93.69
568.949	84.69
569.161	82.69
569.372	81.69
569.584	93.69
569.795	81.69
570.007	95.69
570.218	90.69
570.43	80.69
570.641	78.69
570.853	93.69
571.064	82.69
571.276	105.69
571.487	96.69
571.698	88.69
571.91	93.69
572.121	92.69
572.333	88.69
572.544	98.69
572.755	99.69
572.966	86.69
573.178	92.69
573.389	69.69
573.6	82.69
573.811	84.69
574.023	86.69
574.234	85.69
574.445	79.69
574.656	84.69
574.867	81.69
575.078	98.69
575.289	97.69
575.501	80.69
575.712	99.69
575.923	74.69
576.134	81.69
576.345	99.69
576.556	102.69
576.767	99.69
576.978	72.69
577.188	94.69
577.399	97.69
577.61	98.69
577.821	82.69
578.032	68.69
578.243	81.69
578.454	110.69
578.665	90.69
578.875	86.69
579.086	74.69
579.297	75.69
579.508	80.69
579.718	87.69
579.929	89.69
580.14	83.69
580.35	87.69
580.561	80.69
580.772	87.69
580.982	97.69
581.193	76.69
581.403	81.69
581.614	89.69
581.825	94.69
582.035	87.69
582.246	88.69
582.456	92.69
582.667	83.69
582.877	89.69
583.087	72.69
583.298	74.69
583.508	90.69
583.719	84.69
583.929	90.69
584.139	78.69
584.35	84.69
584.56	88.69
584.77	82.69
584.981	91.69
585.191	117.69
585.401	100.69
585.611	82.69
585.821	83.69
586.032	81.69
586.242	90.69
586.452	95.69
586.662	88.69
586.872	84.69
587.082	90.69
587.292	91.69
587.502	89.69
587.713	80.69
587.923	90.69
588.133	104.69
588.343	72.69
588.553	72.69
588.762	86.69
588.972	76.69
589.182	75.69
589.392	89.69
589.602	79.69
589.812	87.69
590.022	86.69
590.232	86.69
590.441	80.69
590.651	79.69
590.861	84.69
591.071	72.69
591.281	91.69
591.49	74.69
591.7	86.69
591.91	86.69
592.119	85.69
592.329	84.69
592.539	103.69
592.748	80.69
592.958	87.69
593.167	90.69
593.377	86.69
593.587	96.69
593.796	85.69
594.006	91.69
594.215	90.69
594.424	100.69
594.634	83.69
594.843	85.69
595.053	89.69
595.262	91.69
595.472	90.69
595.681	86.69
595.89	91.69
596.1	80.69
596.309	71.69
596.518	81.69
596.727	91.69
596.937	92.69
597.146	95.69
597.355	90.69
597.564	96.69
597.774	86.69
597.983	86.69
598.192	91.69
598.401	78.69
598.61	75.69
598.819	79.69
599.028	90.69
599.237	88.69
599.446	95.69
599.655	95.69
599.864	75.69
600.073	77.69
600.282	93.69
600.491	92.69
600.7	88.69
600.909	88.69
601.118	85.69
601.327	96.69
601.536	97.69
601.745	104.69
601.953	91.69
602.162	78.69
602.371	76.69
602.58	92.69
602.789	76.69
602.997	95.69
603.206	104.69
603.415	87.69
603.623	89.69
603.832	100.69
604.041	88.69
604.249	102.69
604.458	91.69
604.666	91.69
604.875	94.69
605.084	83.69
605.292	104.69
605.501	80.69
605.709	96.69
605.918	89.69
606.126	90.69
606.334	89.69
606.543	89.69
606.751	91.69
606.96	84.69
607.168	81.69
607.376	91.69
607.585	93.69
607.793	86.69
608.001	90.69
608.21	87.69
608.418	100.69
608.626	92.69
608.834	97.69
609.043	100.69
609.251	112.69
609.459	86.69
609.667	100.69
609.875	87.69
610.083	94.69
610.291	87.69
610.499	93.69
610.707	94.69
610.916	91.69
611.124	107.69
611.332	90.69
611.54	99.69
611.748	87.69
611.955	98.69
612.163	91.69
612.371	98.69
612.579	91.69
612.787	93.69
612.995	95.69
613.203	97.69
613.411	103.69
613.618	94.69
613.826	95.69
614.034	96.69
614.242	78.69
614.449	96.69
614.657	89.69
614.865	91.69
615.072	80.69
615.28	75.69
615.488	85.69
615.695	94.69
615.903	111.69
616.111	102.69
616.318	88.69
616.526	83.69
616.733	112.69
616.941	107.69
617.148	83.69
617.356	76.69
617.563	93.69
617.771	90.69
617.978	87.69
618.185	104.69
618.393	103.69
618.6	94.69
618.807	84.69
619.015	92.69
619.222	90.69
619.429	93.69
619.637	104.69
619.844	98.69
620.051	81.69
620.258	102.69
620.466	99.69
620.673	83.69
620.88	93.69
621.087	94.69
621.294	89.69
621.501	99.69
621.708	87.69
621.915	86.69
622.122	97.69
622.329	96.69
622.536	89.69
622.743	106.69
622.95	90.69
623.157	80.69
623.364	88.69
623.571	105.69
623.778	92.69
623.985	91.69
624.192	103.69
624.399	91.69
624.606	106.69
624.812	105.69
625.019	95.69
625.226	87.69
625.433	86.69
625.639	92.69
625.846	94.69
626.053	75.69
626.259	91.69
626.466	79.69
626.673	81.69
626.879	84.69
627.086	88.69
627.293	86.69
627.499	74.69
627.706	101.69
627.912	88.69
628.119	94.69
628.325	82.69
628.532	89.69
628.738	82.69
628.945	82.69
629.151	95.69
629.357	91.69
629.564	106.69
629.77	93.69
629.976	91.69
630.183	81.69
630.389	97.69
630.595	75.69
630.802	89.69
631.008	84.69
631.214	99.69
631.42	87.69
631.627	99.69
631.833	85.69
632.039	90.69
632.245	81.69
632.451	96.69
632.657	99.69
632.863	98.69
633.069	88.69
633.275	86.69
633.481	79.69
633.688	80.69
633.893	87.69
634.099	98.69
634.305	82.69
634.511	89.69
634.717	77.69
634.923	98.69
635.129	90.69
635.335	89.69
635.541	96.69
635.747	84.69
635.952	85.69
636.158	85.69
636.364	96.69
636.57	92.69
636.775	86.69
636.981	89.69
637.187	96.69
637.392	85.69
637.598	82.69
637.804	98.69
638.009	89.69
638.215	85.69
638.421	95.69
638.626	87.69
638.832	104.69
639.037	83.69
639.243	83.69
639.448	82.69
639.654	92.69
639.859	74.69
640.065	78.69
640.27	97.69
640.475	92.69
640.681	102.69
640.886	98.69
641.091	86.69
641.297	91.69
641.502	93.69
641.707	100.69
641.913	81.69
642.118	78.69
642.323	90.69
642.528	84.69
642.733	98.69
642.939	98.69
643.144	108.69
643.349	92.69
643.554	88.69
643.759	80.69
643.964	93.69
644.169	92.69
644.374	94.69
644.579	95.69
644.784	92.69
644.989	93.69
645.194	84.69
645.399	72.69
645.604	83.69
645.809	93.69
646.014	85.69
646.219	74.69
646.423	75.69
646.628	83.69
646.833	80.69
647.038	96.69
647.243	95.69
647.447	90.69
647.652	91.69
647.857	103.69
648.062	97.69
648.266	104.69
648.471	88.69
648.676	92.69
648.88	91.69
649.085	81.69
649.289	79.69
649.494	79.69
649.698	88.69
649.903	101.69
650.107	79.69
650.312	86.69
650.516	84.69
650.721	84.69
650.925	87.69
651.13	77.69
651.334	85.69
651.539	89.69
651.743	88.69
651.947	90.69
652.152	84.69
652.356	79.69
652.56	69.69
652.764	69.69
652.969	85.69
653.173	74.69
653.377	79.69
653.581	80.69
653.785	92.69
653.99	82.69
654.194	94.69
654.398	80.69
654.602	86.69
654.806	83.69
655.01	82.69
655.214	79.69
655.418	79.69
655.622	86.69
655.826	78.69
656.03	90.69
656.234	83.69
656.438	106.69
656.642	91.69
656.846	82.69
657.049	86.69
657.253	80.69
657.457	82.69
657.661	90.69
657.865	96.69
658.068	76.69
658.272	102.69
658.476	82.69
658.68	89.69
658.883	88.69
659.087	91.69
659.291	79.69
659.494	78.69
659.698	91.69
659.901	72.69
660.105	77.69
660.309	82.69
660.512	87.69
660.716	90.69
660.919	70.69
661.123	86.69
661.326	89.69
661.53	89.69
661.733	83.69
661.936	80.69
662.14	90.69
662.343	81.69
662.546	73.69
662.75	80.69
662.953	77.69
663.156	84.69
663.36	71.69
663.563	90.69
663.766	90.69
663.969	83.69
664.173	82.69
664.376	89.69
664.579	77.69
664.782	87.69
664.985	81.69
665.188	76.69
665.391	79.69
665.594	75.69
665.797	90.69
666	77.69
666.203	84.69
666.406	80.69
666.609	79.69
666.812	82.69
667.015	82.69
667.218	79.69
667.421	72.69
667.624	75.69
667.827	99.69
668.03	91.69
668.232	89.69
668.435	78.69
668.638	84.69
668.841	75.69
669.043	69.69
669.246	87.69
669.449	84.69
669.651	87.69
669.854	76.69
670.057	84.69
670.259	74.69
670.462	77.69
670.665	90.69
670.867	85.69
671.07	100.69
671.272	87.69
671.475	83.69
671.677	83.69
671.88	94.69
672.082	83.69
672.284	83.69
672.487	76.69
672.689	74.69
672.892	80.69
