Data from Location3.07152019.Energy5.Lamp.07192019.3%Agarose_HRD10591_15-17-20-269.txt Node
Date: Fri Jul 19 15:17:20 EDT 2019
User: cochatt
Spectrometer: HR+D1059
Trigger mode: 1
Integration Time (sec): 1.000000E-1
Scans to average: 1
Electric dark correction enabled: true
Nonlinearity correction enabled: false
Boxcar width: 0
XAxis mode: Wavelengths
Number of Pixels in Spectrum: 2048
>>>>>Begin Spectral Data<<<<<
223.165	-15.25
223.4	-15.25
223.635	-15.25
223.869	-22.25
224.104	-16.25
224.338	-3.25
224.573	-24.25
224.808	-13.25
225.042	-14.25
225.277	-2.25
225.511	-10.25
225.746	8.75
225.98	11.75
226.215	8.75
226.449	27.75
226.683	33.75
226.918	5.75
227.152	24.75
227.387	33.75
227.621	29.75
227.856	49.75
228.09	33.75
228.324	53.75
228.559	49.75
228.793	38.75
229.027	64.75
229.262	69.75
229.496	63.75
229.73	61.75
229.964	69.75
230.199	71.75
230.433	76.75
230.667	76.75
230.901	86.75
231.136	74.75
231.37	75.75
231.604	75.75
231.838	88.75
232.072	62.75
232.306	73.75
232.541	82.75
232.775	84.75
233.009	84.75
233.243	85.75
233.477	72.75
233.711	85.75
233.945	88.75
234.179	79.75
234.413	72.75
234.647	81.75
234.881	92.75
235.115	84.75
235.349	83.75
235.583	72.75
235.817	74.75
236.051	64.75
236.285	95.75
236.519	74.75
236.753	77.75
236.987	65.75
237.221	97.75
237.455	77.75
237.689	93.75
237.922	72.75
238.156	88.75
238.39	74.75
238.624	81.75
238.858	66.75
239.091	73.75
239.325	76.75
239.559	69.75
239.793	75.75
240.027	78.75
240.26	80.75
240.494	86.75
240.728	67.75
240.961	89.75
241.195	78.75
241.429	93.75
241.662	81.75
241.896	75.75
242.13	78.75
242.363	79.75
242.597	75.75
242.83	67.75
243.064	83.75
243.298	75.75
243.531	76.75
243.765	91.75
243.998	78.75
244.232	72.75
244.465	75.75
244.699	68.75
244.932	87.75
245.166	83.75
245.399	67.75
245.633	89.75
245.866	79.75
246.099	85.75
246.333	75.75
246.566	79.75
246.8	71.75
247.033	76.75
247.266	85.75
247.5	64.75
247.733	71.75
247.966	80.75
248.2	65.75
248.433	103.75
248.666	81.75
248.899	88.75
249.133	84.75
249.366	87.75
249.599	66.75
249.832	82.75
250.066	70.75
250.299	59.75
250.532	82.75
250.765	75.75
250.998	75.75
251.231	76.75
251.465	77.75
251.698	73.75
251.931	78.75
252.164	87.75
252.397	77.75
252.63	78.75
252.863	90.75
253.096	85.75
253.329	76.75
253.562	75.75
253.795	88.75
254.028	83.75
254.261	75.75
254.494	85.75
254.727	79.75
254.96	85.75
255.193	80.75
255.426	67.75
255.659	85.75
255.892	68.75
256.124	79.75
256.357	82.75
256.59	70.75
256.823	73.75
257.056	76.75
257.289	72.75
257.521	83.75
257.754	83.75
257.987	83.75
258.22	74.75
258.452	77.75
258.685	72.75
258.918	74.75
259.151	72.75
259.383	73.75
259.616	79.75
259.849	90.75
260.081	63.75
260.314	80.75
260.547	82.75
260.779	77.75
261.012	86.75
261.244	77.75
261.477	81.75
261.71	81.75
261.942	70.75
262.175	78.75
262.407	85.75
262.64	78.75
262.872	71.75
263.105	65.75
263.337	79.75
263.57	95.75
263.802	66.75
264.035	77.75
264.267	89.75
264.499	86.75
264.732	85.75
264.964	82.75
265.197	82.75
265.429	82.75
265.661	75.75
265.894	81.75
266.126	76.75
266.358	81.75
266.591	74.75
266.823	72.75
267.055	79.75
267.287	87.75
267.52	80.75
267.752	95.75
267.984	76.75
268.216	86.75
268.448	84.75
268.681	82.75
268.913	83.75
269.145	77.75
269.377	86.75
269.609	85.75
269.841	73.75
270.073	68.75
270.306	72.75
270.538	91.75
270.77	85.75
271.002	89.75
271.234	83.75
271.466	95.75
271.698	85.75
271.93	79.75
272.162	78.75
272.394	75.75
272.626	73.75
272.858	68.75
273.09	86.75
273.322	95.75
273.553	71.75
273.785	92.75
274.017	91.75
274.249	86.75
274.481	69.75
274.713	87.75
274.945	81.75
275.176	86.75
275.408	74.75
275.64	74.75
275.872	90.75
276.104	77.75
276.335	71.75
276.567	89.75
276.799	81.75
277.031	76.75
277.262	87.75
277.494	95.75
277.726	72.75
277.957	79.75
278.189	85.75
278.421	75.75
278.652	85.75
278.884	69.75
279.115	82.75
279.347	75.75
279.579	81.75
279.81	79.75
280.042	94.75
280.273	88.75
280.505	78.75
280.736	94.75
280.968	87.75
281.199	91.75
281.431	78.75
281.662	84.75
281.894	80.75
282.125	90.75
282.356	94.75
282.588	76.75
282.819	85.75
283.051	79.75
283.282	84.75
283.513	70.75
283.745	79.75
283.976	79.75
284.207	81.75
284.439	85.75
284.67	85.75
284.901	94.75
285.132	88.75
285.364	79.75
285.595	83.75
285.826	80.75
286.057	95.75
286.288	78.75
286.52	83.75
286.751	90.75
286.982	89.75
287.213	73.75
287.444	100.75
287.675	78.75
287.906	81.75
288.138	73.75
288.369	89.75
288.6	89.75
288.831	87.75
289.062	89.75
289.293	83.75
289.524	78.75
289.755	86.75
289.986	86.75
290.217	70.75
290.448	81.75
290.679	83.75
290.91	87.75
291.141	97.75
291.371	90.75
291.602	86.75
291.833	91.75
292.064	79.75
292.295	74.75
292.526	88.75
292.757	86.75
292.987	85.75
293.218	88.75
293.449	96.75
293.68	92.75
293.91	84.75
294.141	91.75
294.372	87.75
294.603	90.75
294.833	74.75
295.064	86.75
295.295	87.75
295.525	77.75
295.756	79.75
295.987	85.75
296.217	87.75
296.448	78.75
296.679	86.75
296.909	82.75
297.14	89.75
297.37	78.75
297.601	87.75
297.831	73.75
298.062	84.75
298.292	91.75
298.523	101.75
298.753	89.75
298.984	93.75
299.214	93.75
299.445	88.75
299.675	85.75
299.905	81.75
300.136	78.75
300.366	68.75
300.597	77.75
300.827	93.75
301.057	104.75
301.288	76.75
301.518	73.75
301.748	92.75
301.979	80.75
302.209	77.75
302.439	73.75
302.669	88.75
302.9	88.75
303.13	88.75
303.36	89.75
303.59	82.75
303.82	88.75
304.051	74.75
304.281	87.75
304.511	85.75
304.741	88.75
304.971	83.75
305.201	83.75
305.431	99.75
305.661	94.75
305.891	78.75
306.121	88.75
306.352	87.75
306.582	84.75
306.812	75.75
307.042	99.75
307.272	85.75
307.502	88.75
307.731	86.75
307.961	74.75
308.191	82.75
308.421	85.75
308.651	76.75
308.881	87.75
309.111	88.75
309.341	94.75
309.571	91.75
309.8	89.75
310.03	74.75
310.26	85.75
310.49	83.75
310.72	78.75
310.949	70.75
311.179	67.75
311.409	79.75
311.639	79.75
311.868	87.75
312.098	75.75
312.328	87.75
312.557	99.75
312.787	87.75
313.017	86.75
313.246	76.75
313.476	72.75
313.706	76.75
313.935	95.75
314.165	90.75
314.394	78.75
314.624	83.75
314.853	73.75
315.083	98.75
315.312	84.75
315.542	94.75
315.771	86.75
316.001	80.75
316.23	77.75
316.46	81.75
316.689	92.75
316.919	100.75
317.148	82.75
317.377	70.75
317.607	77.75
317.836	78.75
318.065	71.75
318.295	75.75
318.524	72.75
318.753	89.75
318.983	102.75
319.212	91.75
319.441	85.75
319.67	80.75
319.9	78.75
320.129	80.75
320.358	85.75
320.587	80.75
320.816	72.75
321.046	94.75
321.275	87.75
321.504	104.75
321.733	85.75
321.962	77.75
322.191	71.75
322.42	87.75
322.649	86.75
322.878	88.75
323.108	90.75
323.337	82.75
323.566	85.75
323.795	71.75
324.024	79.75
324.253	78.75
324.482	78.75
324.71	95.75
324.939	80.75
325.168	91.75
325.397	88.75
325.626	84.75
325.855	94.75
326.084	93.75
326.313	100.75
326.542	66.75
326.77	96.75
326.999	98.75
327.228	93.75
327.457	80.75
327.686	84.75
327.914	79.75
328.143	85.75
328.372	79.75
328.6	84.75
328.829	91.75
329.058	84.75
329.287	90.75
329.515	95.75
329.744	81.75
329.972	94.75
330.201	91.75
330.43	90.75
330.658	88.75
330.887	89.75
331.115	75.75
331.344	73.75
331.572	78.75
331.801	90.75
332.03	85.75
332.258	75.75
332.486	81.75
332.715	81.75
332.943	93.75
333.172	70.75
333.4	76.75
333.629	93.75
333.857	75.75
334.085	87.75
334.314	92.75
334.542	87.75
334.771	82.75
334.999	87.75
335.227	84.75
335.455	93.75
335.684	78.75
335.912	90.75
336.14	90.75
336.369	90.75
336.597	88.75
336.825	87.75
337.053	82.75
337.281	79.75
337.51	82.75
337.738	91.75
337.966	83.75
338.194	71.75
338.422	91.75
338.65	87.75
338.878	94.75
339.106	89.75
339.334	96.75
339.562	80.75
339.79	80.75
340.018	83.75
340.246	80.75
340.474	75.75
340.702	75.75
340.93	68.75
341.158	89.75
341.386	85.75
341.614	93.75
341.842	89.75
342.07	82.75
342.298	82.75
342.526	94.75
342.754	75.75
342.981	82.75
343.209	62.75
343.437	92.75
343.665	89.75
343.893	88.75
344.12	84.75
344.348	85.75
344.576	77.75
344.804	86.75
345.031	82.75
345.259	75.75
345.487	87.75
345.714	98.75
345.942	89.75
346.17	85.75
346.397	84.75
346.625	83.75
346.853	78.75
347.08	100.75
347.308	99.75
347.535	91.75
347.763	90.75
347.99	90.75
348.218	89.75
348.445	88.75
348.673	76.75
348.9	82.75
349.128	70.75
349.355	79.75
349.583	78.75
349.81	76.75
350.037	80.75
350.265	82.75
350.492	97.75
350.72	87.75
350.947	98.75
351.174	86.75
351.402	77.75
351.629	89.75
351.856	69.75
352.083	80.75
352.311	94.75
352.538	89.75
352.765	84.75
352.992	96.75
353.22	80.75
353.447	88.75
353.674	94.75
353.901	80.75
354.128	75.75
354.355	81.75
354.583	88.75
354.81	97.75
355.037	86.75
355.264	82.75
355.491	94.75
355.718	85.75
355.945	76.75
356.172	89.75
356.399	75.75
356.626	73.75
356.853	72.75
357.08	82.75
357.307	68.75
357.534	86.75
357.761	80.75
357.988	63.75
358.215	93.75
358.441	103.75
358.668	92.75
358.895	86.75
359.122	79.75
359.349	79.75
359.576	85.75
359.802	74.75
360.029	77.75
360.256	76.75
360.483	88.75
360.709	69.75
360.936	72.75
361.163	95.75
361.39	86.75
361.616	86.75
361.843	89.75
362.07	90.75
362.296	86.75
362.523	82.75
362.749	72.75
362.976	84.75
363.203	93.75
363.429	63.75
363.656	81.75
363.882	82.75
364.109	76.75
364.335	79.75
364.562	73.75
364.788	76.75
365.015	87.75
365.241	76.75
365.468	78.75
365.694	82.75
365.92	72.75
366.147	82.75
366.373	73.75
366.599	89.75
366.826	89.75
367.052	58.75
367.278	70.75
367.505	90.75
367.731	87.75
367.957	92.75
368.184	98.75
368.41	91.75
368.636	78.75
368.862	83.75
369.089	73.75
369.315	63.75
369.541	68.75
369.767	73.75
369.993	72.75
370.219	82.75
370.445	78.75
370.672	76.75
370.898	79.75
371.124	79.75
371.35	84.75
371.576	88.75
371.802	69.75
372.028	90.75
372.254	89.75
372.48	91.75
372.706	95.75
372.932	81.75
373.158	89.75
373.384	75.75
373.61	87.75
373.835	83.75
374.061	84.75
374.287	85.75
374.513	95.75
374.739	73.75
374.965	79.75
375.191	78.75
375.416	75.75
375.642	92.75
375.868	79.75
376.094	82.75
376.319	74.75
376.545	77.75
376.771	81.75
376.997	96.75
377.222	74.75
377.448	78.75
377.674	79.75
377.899	81.75
378.125	89.75
378.35	87.75
378.576	75.75
378.802	90.75
379.027	93.75
379.253	89.75
379.478	81.75
379.704	95.75
379.929	81.75
380.155	89.75
380.38	87.75
380.606	97.75
380.831	84.75
381.057	94.75
381.282	84.75
381.507	78.75
381.733	85.75
381.958	88.75
382.184	78.75
382.409	72.75
382.634	69.75
382.86	78.75
383.085	98.75
383.31	86.75
383.535	94.75
383.761	97.75
383.986	83.75
384.211	84.75
384.436	71.75
384.662	76.75
384.887	88.75
385.112	82.75
385.337	77.75
385.562	85.75
385.787	83.75
386.013	94.75
386.238	90.75
386.463	89.75
386.688	89.75
386.913	82.75
387.138	84.75
387.363	83.75
387.588	82.75
387.813	81.75
388.038	77.75
388.263	78.75
388.488	94.75
388.713	59.75
388.938	77.75
389.163	69.75
389.387	97.75
389.612	85.75
389.837	75.75
390.062	80.75
390.287	91.75
390.512	74.75
390.736	82.75
390.961	86.75
391.186	74.75
391.411	91.75
391.636	80.75
391.86	91.75
392.085	96.75
392.31	89.75
392.534	86.75
392.759	87.75
392.984	86.75
393.208	82.75
393.433	87.75
393.658	86.75
393.882	85.75
394.107	74.75
394.331	96.75
394.556	84.75
394.78	91.75
395.005	93.75
395.229	90.75
395.454	88.75
395.678	102.75
395.903	82.75
396.127	88.75
396.352	93.75
396.576	87.75
396.801	84.75
397.025	70.75
397.249	88.75
397.474	85.75
397.698	96.75
397.922	95.75
398.147	79.75
398.371	89.75
398.595	83.75
398.82	78.75
399.044	77.75
399.268	90.75
399.492	78.75
399.717	75.75
399.941	85.75
400.165	87.75
400.389	102.75
400.613	86.75
400.837	82.75
401.062	87.75
401.286	90.75
401.51	90.75
401.734	110.75
401.958	90.75
402.182	85.75
402.406	111.75
402.63	91.75
402.854	89.75
403.078	77.75
403.302	93.75
403.526	89.75
403.75	79.75
403.974	96.75
404.198	102.75
404.422	91.75
404.645	82.75
404.869	85.75
405.093	79.75
405.317	86.75
405.541	93.75
405.765	83.75
405.988	93.75
406.212	83.75
406.436	91.75
406.66	94.75
406.883	93.75
407.107	86.75
407.331	88.75
407.555	83.75
407.778	85.75
408.002	81.75
408.226	84.75
408.449	73.75
408.673	103.75
408.896	80.75
409.12	95.75
409.344	93.75
409.567	74.75
409.791	73.75
410.014	99.75
410.238	87.75
410.461	83.75
410.685	91.75
410.908	80.75
411.132	89.75
411.355	86.75
411.578	87.75
411.802	79.75
412.025	91.75
412.249	90.75
412.472	83.75
412.695	95.75
412.919	85.75
413.142	90.75
413.365	89.75
413.589	99.75
413.812	94.75
414.035	93.75
414.258	87.75
414.482	94.75
414.705	96.75
414.928	88.75
415.151	104.75
415.374	93.75
415.597	83.75
415.821	75.75
416.044	81.75
416.267	91.75
416.49	89.75
416.713	97.75
416.936	86.75
417.159	84.75
417.382	86.75
417.605	94.75
417.828	87.75
418.051	96.75
418.274	95.75
418.497	90.75
418.72	86.75
418.943	90.75
419.166	94.75
419.389	91.75
419.611	91.75
419.834	89.75
420.057	85.75
420.28	91.75
420.503	96.75
420.726	95.75
420.948	96.75
421.171	74.75
421.394	84.75
421.617	100.75
421.839	94.75
422.062	93.75
422.285	89.75
422.507	95.75
422.73	90.75
422.953	102.75
423.175	93.75
423.398	89.75
423.621	89.75
423.843	88.75
424.066	98.75
424.288	94.75
424.511	90.75
424.733	94.75
424.956	105.75
425.178	89.75
425.401	98.75
425.623	98.75
425.846	87.75
426.068	96.75
426.291	83.75
426.513	95.75
426.735	105.75
426.958	94.75
427.18	93.75
427.402	94.75
427.625	84.75
427.847	86.75
428.069	90.75
428.292	93.75
428.514	98.75
428.736	85.75
428.958	75.75
429.181	93.75
429.403	98.75
429.625	93.75
429.847	99.75
430.069	88.75
430.292	85.75
430.514	97.75
430.736	91.75
430.958	98.75
431.18	93.75
431.402	94.75
431.624	88.75
431.846	86.75
432.068	85.75
432.29	89.75
432.512	97.75
432.734	90.75
432.956	75.75
433.178	109.75
433.4	85.75
433.622	88.75
433.844	100.75
434.066	94.75
434.287	90.75
434.509	78.75
434.731	91.75
434.953	93.75
435.175	80.75
435.397	70.75
435.618	94.75
435.84	85.75
436.062	93.75
436.284	99.75
436.505	81.75
436.727	87.75
436.949	89.75
437.17	105.75
437.392	92.75
437.614	87.75
437.835	78.75
438.057	70.75
438.278	85.75
438.5	96.75
438.721	93.75
438.943	112.75
439.165	89.75
439.386	115.75
439.608	98.75
439.829	99.75
440.05	94.75
440.272	89.75
440.493	97.75
440.715	104.75
440.936	91.75
441.158	107.75
441.379	105.75
441.6	103.75
441.822	98.75
442.043	101.75
442.264	83.75
442.486	111.75
442.707	98.75
442.928	94.75
443.149	78.75
443.371	86.75
443.592	86.75
443.813	85.75
444.034	101.75
444.255	78.75
444.476	85.75
444.698	104.75
444.919	100.75
445.14	212.75
445.361	174.75
445.582	121.75
445.803	92.75
446.024	106.75
446.245	85.75
446.466	97.75
446.687	101.75
446.908	85.75
447.129	87.75
447.35	110.75
447.571	83.75
447.792	103.75
448.013	115.75
448.234	94.75
448.455	101.75
448.675	102.75
448.896	102.75
449.117	87.75
449.338	77.75
449.559	112.75
449.779	106.75
450	102.75
450.221	88.75
450.442	75.75
450.662	91.75
450.883	88.75
451.104	93.75
451.324	85.75
451.545	99.75
451.766	97.75
451.986	97.75
452.207	97.75
452.428	86.75
452.648	85.75
452.869	98.75
453.089	80.75
453.31	80.75
453.53	94.75
453.751	93.75
453.971	93.75
454.192	73.75
454.412	77.75
454.633	72.75
454.853	94.75
455.073	86.75
455.294	90.75
455.514	82.75
455.734	85.75
455.955	98.75
456.175	79.75
456.395	90.75
456.616	93.75
456.836	74.75
457.056	90.75
457.276	88.75
457.497	81.75
457.717	86.75
457.937	87.75
458.157	80.75
458.377	91.75
458.598	89.75
458.818	104.75
459.038	77.75
459.258	85.75
459.478	72.75
459.698	73.75
459.918	85.75
460.138	74.75
460.358	73.75
460.578	77.75
460.798	90.75
461.018	90.75
461.238	81.75
461.458	79.75
461.678	83.75
461.898	80.75
462.118	96.75
462.338	90.75
462.558	86.75
462.777	86.75
462.997	91.75
463.217	98.75
463.437	91.75
463.657	104.75
463.876	82.75
464.096	88.75
464.316	90.75
464.536	85.75
464.755	101.75
464.975	87.75
465.195	74.75
465.414	97.75
465.634	100.75
465.854	90.75
466.073	102.75
466.293	93.75
466.512	91.75
466.732	103.75
466.951	106.75
467.171	99.75
467.391	80.75
467.61	96.75
467.829	105.75
468.049	103.75
468.268	100.75
468.488	92.75
468.707	104.75
468.927	96.75
469.146	107.75
469.365	94.75
469.585	88.75
469.804	86.75
470.023	97.75
470.243	86.75
470.462	102.75
470.681	96.75
470.901	95.75
471.12	99.75
471.339	97.75
471.558	99.75
471.777	106.75
471.997	105.75
472.216	87.75
472.435	97.75
472.654	80.75
472.873	98.75
473.092	99.75
473.311	87.75
473.53	85.75
473.749	82.75
473.968	93.75
474.187	91.75
474.406	85.75
474.625	109.75
474.844	103.75
475.063	93.75
475.282	84.75
475.501	85.75
475.72	97.75
475.939	89.75
476.158	82.75
476.377	87.75
476.596	82.75
476.814	90.75
477.033	85.75
477.252	76.75
477.471	100.75
477.69	82.75
477.908	99.75
478.127	91.75
478.346	87.75
478.564	88.75
478.783	94.75
479.002	117.75
479.22	91.75
479.439	112.75
479.658	94.75
479.876	83.75
480.095	79.75
480.313	91.75
480.532	79.75
480.751	96.75
480.969	84.75
481.188	73.75
481.406	94.75
481.624	83.75
481.843	84.75
482.061	86.75
482.28	89.75
482.498	91.75
482.717	76.75
482.935	108.75
483.153	83.75
483.372	86.75
483.59	94.75
483.808	100.75
484.027	117.75
484.245	106.75
484.463	83.75
484.681	102.75
484.9	102.75
485.118	111.75
485.336	103.75
485.554	81.75
485.772	99.75
485.99	88.75
486.209	91.75
486.427	85.75
486.645	96.75
486.863	99.75
487.081	95.75
487.299	99.75
487.517	103.75
487.735	120.75
487.953	121.75
488.171	103.75
488.389	107.75
488.607	91.75
488.825	116.75
489.043	102.75
489.261	83.75
489.479	91.75
489.696	110.75
489.914	93.75
490.132	88.75
490.35	95.75
490.568	95.75
490.786	122.75
491.003	93.75
491.221	123.75
491.439	119.75
491.657	119.75
491.874	128.75
492.092	116.75
492.31	140.75
492.527	118.75
492.745	113.75
492.963	114.75
493.18	110.75
493.398	115.75
493.615	104.75
493.833	117.75
494.05	108.75
494.268	106.75
494.485	104.75
494.703	111.75
494.92	113.75
495.138	117.75
495.355	106.75
495.573	119.75
495.79	95.75
496.008	102.75
496.225	104.75
496.442	111.75
496.66	112.75
496.877	109.75
497.094	95.75
497.312	104.75
497.529	116.75
497.746	112.75
497.963	96.75
498.181	86.75
498.398	79.75
498.615	88.75
498.832	96.75
499.049	82.75
499.267	98.75
499.484	94.75
499.701	111.75
499.918	104.75
500.135	96.75
500.352	94.75
500.569	113.75
500.786	103.75
501.003	109.75
501.22	104.75
501.437	96.75
501.654	99.75
501.871	103.75
502.088	93.75
502.305	94.75
502.522	105.75
502.739	103.75
502.956	96.75
503.172	102.75
503.389	102.75
503.606	99.75
503.823	104.75
504.04	85.75
504.256	90.75
504.473	93.75
504.69	101.75
504.907	86.75
505.123	82.75
505.34	96.75
505.557	84.75
505.773	89.75
505.99	85.75
506.207	97.75
506.423	94.75
506.64	95.75
506.856	84.75
507.073	93.75
507.289	88.75
507.506	97.75
507.722	88.75
507.939	95.75
508.155	98.75
508.372	92.75
508.588	84.75
508.805	87.75
509.021	96.75
509.238	85.75
509.454	101.75
509.67	77.75
509.887	90.75
510.103	79.75
510.319	84.75
510.536	83.75
510.752	85.75
510.968	83.75
511.184	74.75
511.401	84.75
511.617	82.75
511.833	94.75
512.049	84.75
512.265	78.75
512.481	80.75
512.698	98.75
512.914	78.75
513.13	95.75
513.346	83.75
513.562	83.75
513.778	92.75
513.994	80.75
514.21	86.75
514.426	93.75
514.642	81.75
514.858	90.75
515.074	87.75
515.29	83.75
515.506	73.75
515.721	67.75
515.937	78.75
516.153	95.75
516.369	81.75
516.585	78.75
516.801	83.75
517.016	89.75
517.232	71.75
517.448	77.75
517.664	90.75
517.879	81.75
518.095	81.75
518.311	84.75
518.527	81.75
518.742	87.75
518.958	98.75
519.173	87.75
519.389	82.75
519.605	80.75
519.82	75.75
520.036	81.75
520.251	86.75
520.467	93.75
520.682	77.75
520.898	81.75
521.113	97.75
521.329	95.75
521.544	82.75
521.76	77.75
521.975	67.75
522.19	87.75
522.406	83.75
522.621	90.75
522.836	91.75
523.052	90.75
523.267	93.75
523.482	79.75
523.698	93.75
523.913	85.75
524.128	91.75
524.343	94.75
524.559	104.75
524.774	118.75
524.989	83.75
525.204	93.75
525.419	90.75
525.634	85.75
525.849	94.75
526.064	92.75
526.28	99.75
526.495	86.75
526.71	79.75
526.925	83.75
527.14	93.75
527.355	86.75
527.57	85.75
527.785	84.75
527.999	97.75
528.214	88.75
528.429	85.75
528.644	90.75
528.859	108.75
529.074	114.75
529.289	103.75
529.503	99.75
529.718	91.75
529.933	100.75
530.148	79.75
530.363	85.75
530.577	81.75
530.792	85.75
531.007	82.75
531.221	85.75
531.436	82.75
531.651	81.75
531.865	85.75
532.08	82.75
532.295	87.75
532.509	83.75
532.724	83.75
532.938	99.75
533.153	72.75
533.367	90.75
533.582	97.75
533.796	106.75
534.011	98.75
534.225	89.75
534.44	77.75
534.654	74.75
534.868	98.75
535.083	91.75
535.297	97.75
535.511	88.75
535.726	98.75
535.94	91.75
536.154	94.75
536.369	90.75
536.583	80.75
536.797	74.75
537.011	80.75
537.225	91.75
537.44	81.75
537.654	92.75
537.868	97.75
538.082	66.75
538.296	90.75
538.51	91.75
538.724	93.75
538.938	88.75
539.153	98.75
539.367	98.75
539.581	87.75
539.795	86.75
540.009	89.75
540.222	90.75
540.436	78.75
540.65	87.75
540.864	90.75
541.078	96.75
541.292	106.75
541.506	102.75
541.72	116.75
541.934	116.75
542.147	126.75
542.361	121.75
542.575	106.75
542.789	85.75
543.002	98.75
543.216	112.75
543.43	106.75
543.644	106.75
543.857	102.75
544.071	107.75
544.285	113.75
544.498	105.75
544.712	103.75
544.925	104.75
545.139	91.75
545.352	93.75
545.566	111.75
545.779	102.75
545.993	113.75
546.206	111.75
546.42	103.75
546.633	104.75
546.847	105.75
547.06	127.75
547.274	102.75
547.487	121.75
547.7	109.75
547.914	108.75
548.127	109.75
548.34	104.75
548.554	111.75
548.767	114.75
548.98	126.75
549.193	99.75
549.407	113.75
549.62	102.75
549.833	113.75
550.046	111.75
550.259	113.75
550.473	113.75
550.686	106.75
550.899	105.75
551.112	106.75
551.325	98.75
551.538	109.75
551.751	109.75
551.964	82.75
552.177	92.75
552.39	105.75
552.603	97.75
552.816	91.75
553.029	99.75
553.242	97.75
553.455	96.75
553.667	112.75
553.88	95.75
554.093	107.75
554.306	119.75
554.519	101.75
554.732	109.75
554.944	85.75
555.157	110.75
555.37	97.75
555.583	99.75
555.795	94.75
556.008	89.75
556.221	110.75
556.433	97.75
556.646	107.75
556.859	112.75
557.071	109.75
557.284	104.75
557.496	96.75
557.709	100.75
557.921	91.75
558.134	103.75
558.346	98.75
558.559	97.75
558.771	111.75
558.984	100.75
559.196	101.75
559.409	87.75
559.621	90.75
559.833	104.75
560.046	97.75
560.258	105.75
560.47	99.75
560.683	93.75
560.895	94.75
561.107	86.75
561.32	112.75
561.532	111.75
561.744	103.75
561.956	103.75
562.168	106.75
562.381	102.75
562.593	91.75
562.805	102.75
563.017	117.75
563.229	96.75
563.441	90.75
563.653	92.75
563.865	85.75
564.077	88.75
564.289	98.75
564.501	88.75
564.713	94.75
564.925	98.75
565.137	103.75
565.349	97.75
565.561	91.75
565.773	102.75
565.985	94.75
566.197	84.75
566.408	108.75
566.62	104.75
566.832	102.75
567.044	90.75
567.255	71.75
567.467	101.75
567.679	97.75
567.891	89.75
568.102	84.75
568.314	103.75
568.526	83.75
568.737	77.75
568.949	100.75
569.161	89.75
569.372	79.75
569.584	98.75
569.795	77.75
570.007	84.75
570.218	82.75
570.43	88.75
570.641	98.75
570.853	87.75
571.064	73.75
571.276	95.75
571.487	91.75
571.698	86.75
571.91	92.75
572.121	95.75
572.333	85.75
572.544	91.75
572.755	91.75
572.966	91.75
573.178	86.75
573.389	79.75
573.6	94.75
573.811	80.75
574.023	75.75
574.234	86.75
574.445	93.75
574.656	90.75
574.867	81.75
575.078	105.75
575.289	105.75
575.501	89.75
575.712	85.75
575.923	95.75
576.134	85.75
576.345	88.75
576.556	81.75
576.767	94.75
576.978	99.75
577.188	90.75
577.399	93.75
577.61	83.75
577.821	105.75
578.032	92.75
578.243	80.75
578.454	86.75
578.665	89.75
578.875	83.75
579.086	91.75
579.297	79.75
579.508	92.75
579.718	79.75
579.929	86.75
580.14	83.75
580.35	88.75
580.561	67.75
580.772	90.75
580.982	89.75
581.193	82.75
581.403	85.75
581.614	79.75
581.825	77.75
582.035	79.75
582.246	85.75
582.456	88.75
582.667	70.75
582.877	91.75
583.087	95.75
583.298	104.75
583.508	96.75
583.719	78.75
583.929	87.75
584.139	81.75
584.35	69.75
584.56	92.75
584.77	79.75
584.981	71.75
585.191	88.75
585.401	78.75
585.611	83.75
585.821	92.75
586.032	94.75
586.242	84.75
586.452	69.75
586.662	78.75
586.872	94.75
587.082	81.75
587.292	74.75
587.502	82.75
587.713	71.75
587.923	78.75
588.133	88.75
588.343	93.75
588.553	74.75
588.762	88.75
588.972	89.75
589.182	75.75
589.392	103.75
589.602	79.75
589.812	91.75
590.022	99.75
590.232	82.75
590.441	86.75
590.651	96.75
590.861	78.75
591.071	94.75
591.281	76.75
591.49	83.75
591.7	93.75
591.91	86.75
592.119	88.75
592.329	94.75
592.539	87.75
592.748	91.75
592.958	100.75
593.167	86.75
593.377	90.75
593.587	90.75
593.796	95.75
594.006	90.75
594.215	77.75
594.424	91.75
594.634	80.75
594.843	96.75
595.053	85.75
595.262	83.75
595.472	91.75
595.681	96.75
595.89	76.75
596.1	90.75
596.309	84.75
596.518	90.75
596.727	99.75
596.937	99.75
597.146	83.75
597.355	91.75
597.564	91.75
597.774	87.75
597.983	95.75
598.192	94.75
598.401	85.75
598.61	84.75
598.819	80.75
599.028	69.75
599.237	81.75
599.446	73.75
599.655	87.75
599.864	79.75
600.073	69.75
600.282	92.75
600.491	75.75
600.7	84.75
600.909	87.75
601.118	82.75
601.327	82.75
601.536	105.75
601.745	87.75
601.953	99.75
602.162	105.75
602.371	91.75
602.58	96.75
602.789	93.75
602.997	85.75
603.206	95.75
603.415	98.75
603.623	83.75
603.832	88.75
604.041	99.75
604.249	83.75
604.458	88.75
604.666	90.75
604.875	67.75
605.084	84.75
605.292	83.75
605.501	88.75
605.709	92.75
605.918	82.75
606.126	92.75
606.334	104.75
606.543	101.75
606.751	103.75
606.96	98.75
607.168	85.75
607.376	84.75
607.585	94.75
607.793	90.75
608.001	88.75
608.21	84.75
608.418	97.75
608.626	82.75
608.834	101.75
609.043	85.75
609.251	97.75
609.459	99.75
609.667	95.75
609.875	88.75
610.083	101.75
610.291	95.75
610.499	88.75
610.707	89.75
610.916	74.75
611.124	98.75
611.332	99.75
611.54	87.75
611.748	95.75
611.955	89.75
612.163	92.75
612.371	87.75
612.579	88.75
612.787	93.75
612.995	107.75
613.203	90.75
613.411	86.75
613.618	113.75
613.826	99.75
614.034	96.75
614.242	101.75
614.449	83.75
614.657	102.75
614.865	103.75
615.072	93.75
615.28	87.75
615.488	97.75
615.695	96.75
615.903	95.75
616.111	92.75
616.318	79.75
616.526	93.75
616.733	84.75
616.941	95.75
617.148	96.75
617.356	103.75
617.563	102.75
617.771	97.75
617.978	100.75
618.185	101.75
618.393	90.75
618.6	93.75
618.807	97.75
619.015	88.75
619.222	91.75
619.429	85.75
619.637	100.75
619.844	85.75
620.051	99.75
620.258	90.75
620.466	106.75
620.673	79.75
620.88	85.75
621.087	90.75
621.294	99.75
621.501	84.75
621.708	84.75
621.915	89.75
622.122	85.75
622.329	98.75
622.536	85.75
622.743	86.75
622.95	105.75
623.157	94.75
623.364	84.75
623.571	75.75
623.778	81.75
623.985	96.75
624.192	92.75
624.399	84.75
624.606	101.75
624.812	75.75
625.019	78.75
625.226	90.75
625.433	100.75
625.639	88.75
625.846	96.75
626.053	82.75
626.259	82.75
626.466	94.75
626.673	83.75
626.879	80.75
627.086	87.75
627.293	90.75
627.499	77.75
627.706	77.75
627.912	89.75
628.119	85.75
628.325	104.75
628.532	104.75
628.738	89.75
628.945	88.75
629.151	93.75
629.357	88.75
629.564	99.75
629.77	85.75
629.976	71.75
630.183	85.75
630.389	99.75
630.595	89.75
630.802	91.75
631.008	83.75
631.214	90.75
631.42	102.75
631.627	94.75
631.833	76.75
632.039	85.75
632.245	69.75
632.451	91.75
632.657	89.75
632.863	83.75
633.069	90.75
633.275	94.75
633.481	87.75
633.688	100.75
633.893	113.75
634.099	93.75
634.305	86.75
634.511	89.75
634.717	85.75
634.923	81.75
635.129	106.75
635.335	85.75
635.541	83.75
635.747	91.75
635.952	88.75
636.158	98.75
636.364	85.75
636.57	82.75
636.775	91.75
636.981	85.75
637.187	88.75
637.392	90.75
637.598	91.75
637.804	101.75
638.009	90.75
638.215	90.75
638.421	82.75
638.626	84.75
638.832	99.75
639.037	99.75
639.243	85.75
639.448	87.75
639.654	94.75
639.859	79.75
640.065	86.75
640.27	92.75
640.475	97.75
640.681	89.75
640.886	102.75
641.091	85.75
641.297	90.75
641.502	86.75
641.707	83.75
641.913	86.75
642.118	93.75
642.323	73.75
642.528	81.75
642.733	92.75
642.939	97.75
643.144	95.75
643.349	87.75
643.554	102.75
643.759	106.75
643.964	88.75
644.169	93.75
644.374	73.75
644.579	90.75
644.784	90.75
644.989	99.75
645.194	92.75
645.399	93.75
645.604	90.75
645.809	86.75
646.014	88.75
646.219	101.75
646.423	79.75
646.628	77.75
646.833	82.75
647.038	90.75
647.243	83.75
647.447	71.75
647.652	92.75
647.857	84.75
648.062	94.75
648.266	82.75
648.471	85.75
648.676	80.75
648.88	91.75
649.085	85.75
649.289	103.75
649.494	84.75
649.698	83.75
649.903	77.75
650.107	95.75
650.312	88.75
650.516	70.75
650.721	90.75
650.925	93.75
651.13	87.75
651.334	94.75
651.539	88.75
651.743	95.75
651.947	80.75
652.152	82.75
652.356	95.75
652.56	93.75
652.764	79.75
652.969	67.75
653.173	83.75
653.377	85.75
653.581	83.75
653.785	89.75
653.99	82.75
654.194	80.75
654.398	88.75
654.602	74.75
654.806	77.75
655.01	74.75
655.214	63.75
655.418	86.75
655.622	84.75
655.826	97.75
656.03	75.75
656.234	80.75
656.438	81.75
656.642	89.75
656.846	89.75
657.049	87.75
657.253	88.75
657.457	96.75
657.661	94.75
657.865	88.75
658.068	73.75
658.272	90.75
658.476	74.75
658.68	88.75
658.883	85.75
659.087	97.75
659.291	81.75
659.494	98.75
659.698	82.75
659.901	96.75
660.105	95.75
660.309	69.75
660.512	84.75
660.716	71.75
660.919	89.75
661.123	81.75
661.326	88.75
661.53	85.75
661.733	77.75
661.936	72.75
662.14	83.75
662.343	75.75
662.546	80.75
662.75	73.75
662.953	80.75
663.156	73.75
663.36	77.75
663.563	78.75
663.766	75.75
663.969	85.75
664.173	79.75
664.376	85.75
664.579	79.75
664.782	83.75
664.985	67.75
665.188	66.75
665.391	98.75
665.594	82.75
665.797	77.75
666	106.75
666.203	71.75
666.406	77.75
666.609	77.75
666.812	86.75
667.015	80.75
667.218	78.75
667.421	83.75
667.624	79.75
667.827	77.75
668.03	79.75
668.232	87.75
668.435	69.75
668.638	64.75
668.841	82.75
669.043	80.75
669.246	86.75
669.449	85.75
669.651	86.75
669.854	71.75
670.057	88.75
670.259	80.75
670.462	74.75
670.665	85.75
670.867	77.75
671.07	84.75
671.272	83.75
671.475	81.75
671.677	82.75
671.88	83.75
672.082	86.75
672.284	85.75
672.487	82.75
672.689	82.75
672.892	71.75
