Data from Location3.07152019.Energy5.Lamp.07192019.3%Agarose_HRD10591_15-16-42-268.txt Node
Date: Fri Jul 19 15:16:42 EDT 2019
User: cochatt
Spectrometer: HR+D1059
Trigger mode: 1
Integration Time (sec): 1.000000E-1
Scans to average: 1
Electric dark correction enabled: true
Nonlinearity correction enabled: false
Boxcar width: 0
XAxis mode: Wavelengths
Number of Pixels in Spectrum: 2048
>>>>>Begin Spectral Data<<<<<
223.165	-11.94
223.4	-11.94
223.635	-11.94
223.869	-14.94
224.104	-13.94
224.338	1.06
224.573	-18.94
224.808	-9.94
225.042	-12.94
225.277	-8.94
225.511	9.06
225.746	-2.94
225.98	6.06
226.215	15.06
226.449	8.06
226.683	11.06
226.918	9.06
227.152	35.06
227.387	24.06
227.621	37.06
227.856	50.06
228.09	37.06
228.324	47.06
228.559	69.06
228.793	60.06
229.027	78.06
229.262	73.06
229.496	76.06
229.73	80.06
229.964	61.06
230.199	76.06
230.433	71.06
230.667	83.06
230.901	69.06
231.136	92.06
231.37	83.06
231.604	78.06
231.838	75.06
232.072	90.06
232.306	80.06
232.541	83.06
232.775	75.06
233.009	81.06
233.243	83.06
233.477	96.06
233.711	80.06
233.945	76.06
234.179	72.06
234.413	94.06
234.647	95.06
234.881	76.06
235.115	75.06
235.349	85.06
235.583	75.06
235.817	75.06
236.051	84.06
236.285	87.06
236.519	82.06
236.753	81.06
236.987	74.06
237.221	81.06
237.455	75.06
237.689	87.06
237.922	81.06
238.156	78.06
238.39	92.06
238.624	87.06
238.858	82.06
239.091	65.06
239.325	79.06
239.559	71.06
239.793	83.06
240.027	63.06
240.26	81.06
240.494	73.06
240.728	83.06
240.961	79.06
241.195	76.06
241.429	85.06
241.662	77.06
241.896	70.06
242.13	66.06
242.363	79.06
242.597	89.06
242.83	87.06
243.064	81.06
243.298	72.06
243.531	85.06
243.765	83.06
243.998	79.06
244.232	94.06
244.465	77.06
244.699	75.06
244.932	85.06
245.166	74.06
245.399	85.06
245.633	75.06
245.866	66.06
246.099	81.06
246.333	75.06
246.566	75.06
246.8	78.06
247.033	72.06
247.266	84.06
247.5	88.06
247.733	88.06
247.966	85.06
248.2	74.06
248.433	97.06
248.666	73.06
248.899	92.06
249.133	78.06
249.366	91.06
249.599	80.06
249.832	67.06
250.066	81.06
250.299	83.06
250.532	77.06
250.765	82.06
250.998	85.06
251.231	73.06
251.465	83.06
251.698	79.06
251.931	72.06
252.164	78.06
252.397	82.06
252.63	76.06
252.863	88.06
253.096	81.06
253.329	73.06
253.562	84.06
253.795	75.06
254.028	77.06
254.261	89.06
254.494	83.06
254.727	78.06
254.96	83.06
255.193	81.06
255.426	82.06
255.659	89.06
255.892	88.06
256.124	98.06
256.357	73.06
256.59	74.06
256.823	80.06
257.056	78.06
257.289	74.06
257.521	93.06
257.754	82.06
257.987	76.06
258.22	88.06
258.452	77.06
258.685	81.06
258.918	71.06
259.151	81.06
259.383	80.06
259.616	68.06
259.849	81.06
260.081	87.06
260.314	82.06
260.547	69.06
260.779	77.06
261.012	79.06
261.244	83.06
261.477	86.06
261.71	82.06
261.942	88.06
262.175	88.06
262.407	75.06
262.64	68.06
262.872	72.06
263.105	72.06
263.337	74.06
263.57	91.06
263.802	90.06
264.035	89.06
264.267	96.06
264.499	92.06
264.732	71.06
264.964	77.06
265.197	87.06
265.429	79.06
265.661	77.06
265.894	97.06
266.126	84.06
266.358	92.06
266.591	79.06
266.823	77.06
267.055	91.06
267.287	69.06
267.52	81.06
267.752	75.06
267.984	83.06
268.216	76.06
268.448	88.06
268.681	88.06
268.913	91.06
269.145	91.06
269.377	89.06
269.609	82.06
269.841	74.06
270.073	75.06
270.306	81.06
270.538	91.06
270.77	97.06
271.002	73.06
271.234	78.06
271.466	69.06
271.698	72.06
271.93	73.06
272.162	85.06
272.394	102.06
272.626	92.06
272.858	81.06
273.09	93.06
273.322	81.06
273.553	80.06
273.785	90.06
274.017	83.06
274.249	89.06
274.481	83.06
274.713	87.06
274.945	74.06
275.176	71.06
275.408	92.06
275.64	86.06
275.872	91.06
276.104	89.06
276.335	73.06
276.567	78.06
276.799	91.06
277.031	81.06
277.262	87.06
277.494	92.06
277.726	84.06
277.957	81.06
278.189	85.06
278.421	88.06
278.652	83.06
278.884	76.06
279.115	90.06
279.347	86.06
279.579	92.06
279.81	87.06
280.042	86.06
280.273	93.06
280.505	70.06
280.736	79.06
280.968	89.06
281.199	74.06
281.431	89.06
281.662	86.06
281.894	88.06
282.125	84.06
282.356	91.06
282.588	90.06
282.819	86.06
283.051	84.06
283.282	81.06
283.513	79.06
283.745	93.06
283.976	92.06
284.207	91.06
284.439	95.06
284.67	97.06
284.901	81.06
285.132	85.06
285.364	92.06
285.595	78.06
285.826	106.06
286.057	92.06
286.288	107.06
286.52	96.06
286.751	84.06
286.982	87.06
287.213	96.06
287.444	85.06
287.675	96.06
287.906	86.06
288.138	81.06
288.369	100.06
288.6	86.06
288.831	81.06
289.062	90.06
289.293	89.06
289.524	85.06
289.755	76.06
289.986	84.06
290.217	81.06
290.448	96.06
290.679	92.06
290.91	80.06
291.141	87.06
291.371	98.06
291.602	87.06
291.833	91.06
292.064	89.06
292.295	81.06
292.526	84.06
292.757	86.06
292.987	76.06
293.218	90.06
293.449	86.06
293.68	85.06
293.91	80.06
294.141	86.06
294.372	91.06
294.603	91.06
294.833	92.06
295.064	83.06
295.295	99.06
295.525	84.06
295.756	77.06
295.987	91.06
296.217	79.06
296.448	70.06
296.679	79.06
296.909	75.06
297.14	80.06
297.37	71.06
297.601	94.06
297.831	103.06
298.062	76.06
298.292	82.06
298.523	102.06
298.753	91.06
298.984	94.06
299.214	85.06
299.445	103.06
299.675	81.06
299.905	83.06
300.136	82.06
300.366	86.06
300.597	82.06
300.827	78.06
301.057	85.06
301.288	96.06
301.518	84.06
301.748	85.06
301.979	84.06
302.209	81.06
302.439	87.06
302.669	72.06
302.9	96.06
303.13	74.06
303.36	88.06
303.59	89.06
303.82	84.06
304.051	89.06
304.281	97.06
304.511	95.06
304.741	99.06
304.971	87.06
305.201	89.06
305.431	100.06
305.661	93.06
305.891	97.06
306.121	89.06
306.352	93.06
306.582	80.06
306.812	83.06
307.042	86.06
307.272	79.06
307.502	87.06
307.731	89.06
307.961	85.06
308.191	85.06
308.421	64.06
308.651	76.06
308.881	81.06
309.111	99.06
309.341	83.06
309.571	80.06
309.8	79.06
310.03	90.06
310.26	75.06
310.49	83.06
310.72	93.06
310.949	84.06
311.179	75.06
311.409	84.06
311.639	85.06
311.868	89.06
312.098	92.06
312.328	95.06
312.557	91.06
312.787	88.06
313.017	78.06
313.246	85.06
313.476	85.06
313.706	80.06
313.935	84.06
314.165	75.06
314.394	78.06
314.624	98.06
314.853	86.06
315.083	88.06
315.312	88.06
315.542	85.06
315.771	87.06
316.001	90.06
316.23	86.06
316.46	86.06
316.689	92.06
316.919	102.06
317.148	88.06
317.377	85.06
317.607	93.06
317.836	81.06
318.065	77.06
318.295	85.06
318.524	79.06
318.753	73.06
318.983	85.06
319.212	79.06
319.441	83.06
319.67	84.06
319.9	86.06
320.129	79.06
320.358	73.06
320.587	111.06
320.816	91.06
321.046	83.06
321.275	84.06
321.504	80.06
321.733	95.06
321.962	98.06
322.191	97.06
322.42	79.06
322.649	79.06
322.878	93.06
323.108	80.06
323.337	80.06
323.566	88.06
323.795	78.06
324.024	76.06
324.253	78.06
324.482	80.06
324.71	74.06
324.939	101.06
325.168	97.06
325.397	84.06
325.626	87.06
325.855	84.06
326.084	93.06
326.313	88.06
326.542	94.06
326.77	76.06
326.999	84.06
327.228	87.06
327.457	84.06
327.686	84.06
327.914	75.06
328.143	88.06
328.372	96.06
328.6	89.06
328.829	96.06
329.058	89.06
329.287	85.06
329.515	89.06
329.744	89.06
329.972	89.06
330.201	89.06
330.43	89.06
330.658	82.06
330.887	79.06
331.115	78.06
331.344	97.06
331.572	89.06
331.801	82.06
332.03	78.06
332.258	90.06
332.486	85.06
332.715	92.06
332.943	71.06
333.172	81.06
333.4	82.06
333.629	90.06
333.857	105.06
334.085	95.06
334.314	88.06
334.542	95.06
334.771	79.06
334.999	87.06
335.227	86.06
335.455	82.06
335.684	89.06
335.912	85.06
336.14	89.06
336.369	79.06
336.597	96.06
336.825	91.06
337.053	68.06
337.281	91.06
337.51	96.06
337.738	91.06
337.966	75.06
338.194	88.06
338.422	83.06
338.65	83.06
338.878	84.06
339.106	88.06
339.334	73.06
339.562	85.06
339.79	85.06
340.018	86.06
340.246	77.06
340.474	74.06
340.702	100.06
340.93	104.06
341.158	79.06
341.386	86.06
341.614	86.06
341.842	91.06
342.07	91.06
342.298	81.06
342.526	77.06
342.754	97.06
342.981	86.06
343.209	80.06
343.437	81.06
343.665	92.06
343.893	80.06
344.12	83.06
344.348	87.06
344.576	86.06
344.804	85.06
345.031	79.06
345.259	82.06
345.487	107.06
345.714	91.06
345.942	72.06
346.17	95.06
346.397	79.06
346.625	84.06
346.853	92.06
347.08	91.06
347.308	80.06
347.535	83.06
347.763	85.06
347.99	91.06
348.218	82.06
348.445	80.06
348.673	84.06
348.9	91.06
349.128	62.06
349.355	85.06
349.583	85.06
349.81	81.06
350.037	71.06
350.265	95.06
350.492	80.06
350.72	88.06
350.947	67.06
351.174	77.06
351.402	76.06
351.629	95.06
351.856	97.06
352.083	76.06
352.311	74.06
352.538	83.06
352.765	103.06
352.992	67.06
353.22	84.06
353.447	81.06
353.674	81.06
353.901	75.06
354.128	97.06
354.355	68.06
354.583	87.06
354.81	87.06
355.037	73.06
355.264	83.06
355.491	87.06
355.718	71.06
355.945	73.06
356.172	88.06
356.399	88.06
356.626	92.06
356.853	95.06
357.08	72.06
357.307	87.06
357.534	83.06
357.761	83.06
357.988	87.06
358.215	85.06
358.441	82.06
358.668	76.06
358.895	73.06
359.122	85.06
359.349	76.06
359.576	78.06
359.802	85.06
360.029	67.06
360.256	83.06
360.483	78.06
360.709	78.06
360.936	88.06
361.163	93.06
361.39	94.06
361.616	76.06
361.843	89.06
362.07	85.06
362.296	93.06
362.523	88.06
362.749	82.06
362.976	86.06
363.203	90.06
363.429	91.06
363.656	88.06
363.882	85.06
364.109	86.06
364.335	89.06
364.562	94.06
364.788	73.06
365.015	69.06
365.241	89.06
365.468	93.06
365.694	86.06
365.92	92.06
366.147	98.06
366.373	93.06
366.599	77.06
366.826	91.06
367.052	81.06
367.278	83.06
367.505	82.06
367.731	82.06
367.957	79.06
368.184	79.06
368.41	84.06
368.636	73.06
368.862	75.06
369.089	85.06
369.315	83.06
369.541	75.06
369.767	95.06
369.993	85.06
370.219	85.06
370.445	75.06
370.672	84.06
370.898	92.06
371.124	88.06
371.35	94.06
371.576	83.06
371.802	96.06
372.028	91.06
372.254	98.06
372.48	77.06
372.706	71.06
372.932	85.06
373.158	73.06
373.384	76.06
373.61	84.06
373.835	83.06
374.061	86.06
374.287	87.06
374.513	87.06
374.739	85.06
374.965	89.06
375.191	85.06
375.416	83.06
375.642	88.06
375.868	86.06
376.094	87.06
376.319	83.06
376.545	98.06
376.771	78.06
376.997	88.06
377.222	80.06
377.448	89.06
377.674	83.06
377.899	85.06
378.125	76.06
378.35	79.06
378.576	104.06
378.802	89.06
379.027	95.06
379.253	83.06
379.478	87.06
379.704	80.06
379.929	89.06
380.155	79.06
380.38	76.06
380.606	102.06
380.831	80.06
381.057	93.06
381.282	87.06
381.507	93.06
381.733	85.06
381.958	96.06
382.184	75.06
382.409	73.06
382.634	89.06
382.86	75.06
383.085	90.06
383.31	91.06
383.535	100.06
383.761	97.06
383.986	92.06
384.211	100.06
384.436	79.06
384.662	91.06
384.887	87.06
385.112	92.06
385.337	87.06
385.562	73.06
385.787	76.06
386.013	86.06
386.238	91.06
386.463	95.06
386.688	92.06
386.913	83.06
387.138	76.06
387.363	83.06
387.588	104.06
387.813	83.06
388.038	81.06
388.263	85.06
388.488	83.06
388.713	87.06
388.938	87.06
389.163	81.06
389.387	74.06
389.612	81.06
389.837	89.06
390.062	87.06
390.287	84.06
390.512	103.06
390.736	86.06
390.961	84.06
391.186	77.06
391.411	83.06
391.636	75.06
391.86	75.06
392.085	98.06
392.31	84.06
392.534	84.06
392.759	93.06
392.984	89.06
393.208	85.06
393.433	101.06
393.658	85.06
393.882	96.06
394.107	96.06
394.331	80.06
394.556	84.06
394.78	85.06
395.005	88.06
395.229	89.06
395.454	97.06
395.678	102.06
395.903	89.06
396.127	86.06
396.352	93.06
396.576	89.06
396.801	87.06
397.025	72.06
397.249	84.06
397.474	105.06
397.698	95.06
397.922	89.06
398.147	86.06
398.371	93.06
398.595	88.06
398.82	85.06
399.044	71.06
399.268	90.06
399.492	80.06
399.717	88.06
399.941	106.06
400.165	89.06
400.389	79.06
400.613	100.06
400.837	92.06
401.062	90.06
401.286	100.06
401.51	82.06
401.734	95.06
401.958	93.06
402.182	90.06
402.406	89.06
402.63	92.06
402.854	91.06
403.078	94.06
403.302	90.06
403.526	85.06
403.75	89.06
403.974	83.06
404.198	100.06
404.422	94.06
404.645	88.06
404.869	79.06
405.093	97.06
405.317	92.06
405.541	95.06
405.765	99.06
405.988	94.06
406.212	98.06
406.436	91.06
406.66	86.06
406.883	107.06
407.107	90.06
407.331	82.06
407.555	81.06
407.778	84.06
408.002	87.06
408.226	80.06
408.449	98.06
408.673	81.06
408.896	86.06
409.12	92.06
409.344	97.06
409.567	92.06
409.791	93.06
410.014	103.06
410.238	82.06
410.461	96.06
410.685	92.06
410.908	95.06
411.132	94.06
411.355	90.06
411.578	91.06
411.802	85.06
412.025	98.06
412.249	95.06
412.472	98.06
412.695	95.06
412.919	88.06
413.142	86.06
413.365	99.06
413.589	100.06
413.812	84.06
414.035	87.06
414.258	77.06
414.482	89.06
414.705	95.06
414.928	85.06
415.151	89.06
415.374	100.06
415.597	95.06
415.821	83.06
416.044	85.06
416.267	90.06
416.49	84.06
416.713	98.06
416.936	81.06
417.159	83.06
417.382	90.06
417.605	93.06
417.828	101.06
418.051	104.06
418.274	97.06
418.497	101.06
418.72	99.06
418.943	79.06
419.166	98.06
419.389	101.06
419.611	104.06
419.834	96.06
420.057	99.06
420.28	97.06
420.503	88.06
420.726	103.06
420.948	86.06
421.171	92.06
421.394	94.06
421.617	96.06
421.839	109.06
422.062	100.06
422.285	77.06
422.507	91.06
422.73	90.06
422.953	76.06
423.175	83.06
423.398	83.06
423.621	95.06
423.843	89.06
424.066	77.06
424.288	97.06
424.511	116.06
424.733	96.06
424.956	111.06
425.178	101.06
425.401	113.06
425.623	96.06
425.846	100.06
426.068	97.06
426.291	106.06
426.513	107.06
426.735	87.06
426.958	100.06
427.18	94.06
427.402	90.06
427.625	78.06
427.847	85.06
428.069	85.06
428.292	97.06
428.514	98.06
428.736	102.06
428.958	111.06
429.181	89.06
429.403	103.06
429.625	103.06
429.847	90.06
430.069	84.06
430.292	88.06
430.514	84.06
430.736	86.06
430.958	95.06
431.18	97.06
431.402	99.06
431.624	99.06
431.846	91.06
432.068	94.06
432.29	91.06
432.512	89.06
432.734	84.06
432.956	90.06
433.178	97.06
433.4	118.06
433.622	99.06
433.844	92.06
434.066	97.06
434.287	81.06
434.509	81.06
434.731	79.06
434.953	87.06
435.175	90.06
435.397	89.06
435.618	95.06
435.84	92.06
436.062	80.06
436.284	108.06
436.505	89.06
436.727	86.06
436.949	90.06
437.17	93.06
437.392	92.06
437.614	92.06
437.835	89.06
438.057	100.06
438.278	85.06
438.5	94.06
438.721	94.06
438.943	108.06
439.165	89.06
439.386	97.06
439.608	96.06
439.829	90.06
440.05	89.06
440.272	104.06
440.493	97.06
440.715	97.06
440.936	113.06
441.158	88.06
441.379	95.06
441.6	115.06
441.822	107.06
442.043	87.06
442.264	93.06
442.486	104.06
442.707	98.06
442.928	102.06
443.149	100.06
443.371	93.06
443.592	103.06
443.813	111.06
444.034	107.06
444.255	97.06
444.476	87.06
444.698	110.06
444.919	103.06
445.14	173.06
445.361	145.06
445.582	119.06
445.803	97.06
446.024	94.06
446.245	106.06
446.466	98.06
446.687	105.06
446.908	100.06
447.129	105.06
447.35	96.06
447.571	100.06
447.792	102.06
448.013	107.06
448.234	101.06
448.455	109.06
448.675	104.06
448.896	85.06
449.117	104.06
449.338	89.06
449.559	91.06
449.779	99.06
450	113.06
450.221	105.06
450.442	91.06
450.662	101.06
450.883	101.06
451.104	94.06
451.324	95.06
451.545	113.06
451.766	92.06
451.986	93.06
452.207	90.06
452.428	100.06
452.648	97.06
452.869	99.06
453.089	91.06
453.31	77.06
453.53	85.06
453.751	94.06
453.971	78.06
454.192	93.06
454.412	79.06
454.633	99.06
454.853	91.06
455.073	95.06
455.294	101.06
455.514	80.06
455.734	87.06
455.955	89.06
456.175	91.06
456.395	97.06
456.616	89.06
456.836	92.06
457.056	93.06
457.276	94.06
457.497	85.06
457.717	86.06
457.937	82.06
458.157	86.06
458.377	93.06
458.598	91.06
458.818	93.06
459.038	89.06
459.258	87.06
459.478	99.06
459.698	70.06
459.918	79.06
460.138	94.06
460.358	92.06
460.578	90.06
460.798	81.06
461.018	98.06
461.238	95.06
461.458	94.06
461.678	105.06
461.898	96.06
462.118	98.06
462.338	93.06
462.558	83.06
462.777	98.06
462.997	85.06
463.217	84.06
463.437	103.06
463.657	98.06
463.876	88.06
464.096	90.06
464.316	89.06
464.536	89.06
464.755	93.06
464.975	82.06
465.195	98.06
465.414	100.06
465.634	112.06
465.854	101.06
466.073	100.06
466.293	82.06
466.512	93.06
466.732	110.06
466.951	91.06
467.171	91.06
467.391	83.06
467.61	101.06
467.829	98.06
468.049	93.06
468.268	101.06
468.488	89.06
468.707	107.06
468.927	97.06
469.146	96.06
469.365	102.06
469.585	115.06
469.804	92.06
470.023	119.06
470.243	103.06
470.462	104.06
470.681	101.06
470.901	99.06
471.12	99.06
471.339	104.06
471.558	103.06
471.777	100.06
471.997	98.06
472.216	96.06
472.435	111.06
472.654	81.06
472.873	91.06
473.092	92.06
473.311	101.06
473.53	96.06
473.749	101.06
473.968	98.06
474.187	100.06
474.406	114.06
474.625	99.06
474.844	103.06
475.063	85.06
475.282	95.06
475.501	98.06
475.72	88.06
475.939	104.06
476.158	103.06
476.377	103.06
476.596	107.06
476.814	82.06
477.033	86.06
477.252	97.06
477.471	110.06
477.69	90.06
477.908	89.06
478.127	88.06
478.346	93.06
478.564	107.06
478.783	92.06
479.002	108.06
479.22	86.06
479.439	89.06
479.658	81.06
479.876	98.06
480.095	104.06
480.313	81.06
480.532	98.06
480.751	77.06
480.969	88.06
481.188	84.06
481.406	83.06
481.624	66.06
481.843	89.06
482.061	88.06
482.28	100.06
482.498	93.06
482.717	92.06
482.935	90.06
483.153	98.06
483.372	107.06
483.59	97.06
483.808	127.06
484.027	92.06
484.245	93.06
484.463	101.06
484.681	96.06
484.9	104.06
485.118	103.06
485.336	103.06
485.554	92.06
485.772	83.06
485.99	74.06
486.209	87.06
486.427	90.06
486.645	94.06
486.863	107.06
487.081	102.06
487.299	99.06
487.517	106.06
487.735	112.06
487.953	121.06
488.171	119.06
488.389	104.06
488.607	111.06
488.825	100.06
489.043	104.06
489.261	101.06
489.479	95.06
489.696	90.06
489.914	91.06
490.132	91.06
490.35	87.06
490.568	96.06
490.786	101.06
491.003	104.06
491.221	118.06
491.439	114.06
491.657	112.06
491.874	118.06
492.092	129.06
492.31	126.06
492.527	126.06
492.745	120.06
492.963	115.06
493.18	122.06
493.398	132.06
493.615	103.06
493.833	113.06
494.05	109.06
494.268	118.06
494.485	107.06
494.703	107.06
494.92	94.06
495.138	115.06
495.355	108.06
495.573	95.06
495.79	98.06
496.008	96.06
496.225	106.06
496.442	95.06
496.66	104.06
496.877	96.06
497.094	107.06
497.312	100.06
497.529	131.06
497.746	99.06
497.963	94.06
498.181	88.06
498.398	92.06
498.615	86.06
498.832	83.06
499.049	103.06
499.267	98.06
499.484	89.06
499.701	108.06
499.918	101.06
500.135	101.06
500.352	96.06
500.569	125.06
500.786	117.06
501.003	96.06
501.22	95.06
501.437	99.06
501.654	94.06
501.871	96.06
502.088	91.06
502.305	102.06
502.522	91.06
502.739	92.06
502.956	98.06
503.172	96.06
503.389	95.06
503.606	100.06
503.823	101.06
504.04	98.06
504.256	95.06
504.473	98.06
504.69	95.06
504.907	92.06
505.123	110.06
505.34	90.06
505.557	91.06
505.773	107.06
505.99	97.06
506.207	93.06
506.423	96.06
506.64	106.06
506.856	88.06
507.073	93.06
507.289	94.06
507.506	99.06
507.722	96.06
507.939	96.06
508.155	105.06
508.372	100.06
508.588	80.06
508.805	91.06
509.021	84.06
509.238	81.06
509.454	98.06
509.67	81.06
509.887	70.06
510.103	90.06
510.319	84.06
510.536	92.06
510.752	103.06
510.968	87.06
511.184	86.06
511.401	91.06
511.617	87.06
511.833	76.06
512.049	93.06
512.265	89.06
512.481	98.06
512.698	87.06
512.914	99.06
513.13	83.06
513.346	90.06
513.562	69.06
513.778	81.06
513.994	83.06
514.21	85.06
514.426	102.06
514.642	95.06
514.858	77.06
515.074	99.06
515.29	84.06
515.506	81.06
515.721	74.06
515.937	84.06
516.153	95.06
516.369	100.06
516.585	76.06
516.801	80.06
517.016	80.06
517.232	86.06
517.448	87.06
517.664	102.06
517.879	72.06
518.095	90.06
518.311	90.06
518.527	101.06
518.742	103.06
518.958	88.06
519.173	96.06
519.389	87.06
519.605	83.06
519.82	91.06
520.036	77.06
520.251	90.06
520.467	88.06
520.682	97.06
520.898	83.06
521.113	81.06
521.329	76.06
521.544	93.06
521.76	86.06
521.975	89.06
522.19	80.06
522.406	71.06
522.621	83.06
522.836	106.06
523.052	95.06
523.267	92.06
523.482	82.06
523.698	95.06
523.913	113.06
524.128	94.06
524.343	86.06
524.559	93.06
524.774	92.06
524.989	92.06
525.204	104.06
525.419	85.06
525.634	91.06
525.849	96.06
526.064	84.06
526.28	84.06
526.495	97.06
526.71	83.06
526.925	99.06
527.14	85.06
527.355	86.06
527.57	93.06
527.785	91.06
527.999	123.06
528.214	90.06
528.429	93.06
528.644	104.06
528.859	92.06
529.074	99.06
529.289	107.06
529.503	120.06
529.718	105.06
529.933	105.06
530.148	91.06
530.363	81.06
530.577	91.06
530.792	73.06
531.007	94.06
531.221	84.06
531.436	82.06
531.651	98.06
531.865	90.06
532.08	94.06
532.295	77.06
532.509	100.06
532.724	69.06
532.938	93.06
533.153	96.06
533.367	97.06
533.582	107.06
533.796	93.06
534.011	93.06
534.225	100.06
534.44	97.06
534.654	79.06
534.868	93.06
535.083	89.06
535.297	87.06
535.511	96.06
535.726	82.06
535.94	93.06
536.154	101.06
536.369	74.06
536.583	100.06
536.797	92.06
537.011	72.06
537.225	87.06
537.44	86.06
537.654	96.06
537.868	79.06
538.082	89.06
538.296	72.06
538.51	96.06
538.724	109.06
538.938	103.06
539.153	89.06
539.367	87.06
539.581	95.06
539.795	88.06
540.009	83.06
540.222	96.06
540.436	98.06
540.65	103.06
540.864	99.06
541.078	94.06
541.292	108.06
541.506	108.06
541.72	113.06
541.934	125.06
542.147	120.06
542.361	116.06
542.575	122.06
542.789	115.06
543.002	96.06
543.216	95.06
543.43	98.06
543.644	104.06
543.857	116.06
544.071	111.06
544.285	111.06
544.498	102.06
544.712	117.06
544.925	93.06
545.139	108.06
545.352	108.06
545.566	112.06
545.779	101.06
545.993	125.06
546.206	107.06
546.42	127.06
546.633	108.06
546.847	91.06
547.06	120.06
547.274	106.06
547.487	116.06
547.7	119.06
547.914	106.06
548.127	106.06
548.34	104.06
548.554	100.06
548.767	106.06
548.98	113.06
549.193	100.06
549.407	112.06
549.62	106.06
549.833	93.06
550.046	106.06
550.259	113.06
550.473	93.06
550.686	105.06
550.899	122.06
551.112	90.06
551.325	99.06
551.538	109.06
551.751	97.06
551.964	108.06
552.177	92.06
552.39	92.06
552.603	108.06
552.816	113.06
553.029	94.06
553.242	111.06
553.455	99.06
553.667	108.06
553.88	97.06
554.093	113.06
554.306	109.06
554.519	93.06
554.732	100.06
554.944	115.06
555.157	101.06
555.37	98.06
555.583	111.06
555.795	101.06
556.008	106.06
556.221	97.06
556.433	89.06
556.646	92.06
556.859	104.06
557.071	116.06
557.284	119.06
557.496	113.06
557.709	105.06
557.921	100.06
558.134	93.06
558.346	105.06
558.559	113.06
558.771	96.06
558.984	108.06
559.196	112.06
559.409	100.06
559.621	104.06
559.833	83.06
560.046	104.06
560.258	82.06
560.47	98.06
560.683	95.06
560.895	112.06
561.107	93.06
561.32	93.06
561.532	99.06
561.744	90.06
561.956	99.06
562.168	85.06
562.381	90.06
562.593	97.06
562.805	88.06
563.017	104.06
563.229	103.06
563.441	100.06
563.653	105.06
563.865	83.06
564.077	83.06
564.289	100.06
564.501	92.06
564.713	98.06
564.925	103.06
565.137	98.06
565.349	95.06
565.561	97.06
565.773	98.06
565.985	116.06
566.197	99.06
566.408	88.06
566.62	92.06
566.832	75.06
567.044	84.06
567.255	100.06
567.467	99.06
567.679	86.06
567.891	88.06
568.102	78.06
568.314	81.06
568.526	86.06
568.737	100.06
568.949	88.06
569.161	84.06
569.372	87.06
569.584	82.06
569.795	88.06
570.007	85.06
570.218	85.06
570.43	82.06
570.641	91.06
570.853	98.06
571.064	92.06
571.276	104.06
571.487	109.06
571.698	90.06
571.91	90.06
572.121	88.06
572.333	84.06
572.544	83.06
572.755	87.06
572.966	76.06
573.178	78.06
573.389	86.06
573.6	86.06
573.811	80.06
574.023	86.06
574.234	79.06
574.445	85.06
574.656	87.06
574.867	87.06
575.078	100.06
575.289	91.06
575.501	97.06
575.712	91.06
575.923	80.06
576.134	97.06
576.345	109.06
576.556	84.06
576.767	85.06
576.978	92.06
577.188	84.06
577.399	73.06
577.61	85.06
577.821	102.06
578.032	89.06
578.243	97.06
578.454	85.06
578.665	86.06
578.875	81.06
579.086	94.06
579.297	96.06
579.508	75.06
579.718	88.06
579.929	81.06
580.14	89.06
580.35	80.06
580.561	91.06
580.772	98.06
580.982	85.06
581.193	72.06
581.403	96.06
581.614	84.06
581.825	98.06
582.035	85.06
582.246	80.06
582.456	84.06
582.667	75.06
582.877	84.06
583.087	90.06
583.298	84.06
583.508	88.06
583.719	75.06
583.929	106.06
584.139	86.06
584.35	85.06
584.56	93.06
584.77	93.06
584.981	69.06
585.191	77.06
585.401	86.06
585.611	85.06
585.821	89.06
586.032	94.06
586.242	88.06
586.452	99.06
586.662	84.06
586.872	89.06
587.082	98.06
587.292	87.06
587.502	91.06
587.713	90.06
587.923	91.06
588.133	100.06
588.343	97.06
588.553	73.06
588.762	88.06
588.972	87.06
589.182	85.06
589.392	75.06
589.602	90.06
589.812	76.06
590.022	86.06
590.232	98.06
590.441	93.06
590.651	75.06
590.861	86.06
591.071	91.06
591.281	75.06
591.49	87.06
591.7	77.06
591.91	85.06
592.119	76.06
592.329	99.06
592.539	88.06
592.748	89.06
592.958	74.06
593.167	89.06
593.377	84.06
593.587	95.06
593.796	84.06
594.006	89.06
594.215	73.06
594.424	83.06
594.634	103.06
594.843	94.06
595.053	86.06
595.262	101.06
595.472	81.06
595.681	81.06
595.89	72.06
596.1	81.06
596.309	80.06
596.518	68.06
596.727	82.06
596.937	93.06
597.146	88.06
597.355	85.06
597.564	93.06
597.774	92.06
597.983	82.06
598.192	84.06
598.401	99.06
598.61	85.06
598.819	61.06
599.028	95.06
599.237	89.06
599.446	92.06
599.655	86.06
599.864	80.06
600.073	90.06
600.282	78.06
600.491	92.06
600.7	82.06
600.909	81.06
601.118	84.06
601.327	78.06
601.536	94.06
601.745	99.06
601.953	85.06
602.162	91.06
602.371	89.06
602.58	97.06
602.789	91.06
602.997	96.06
603.206	98.06
603.415	106.06
603.623	86.06
603.832	83.06
604.041	102.06
604.249	91.06
604.458	98.06
604.666	88.06
604.875	87.06
605.084	95.06
605.292	101.06
605.501	107.06
605.709	101.06
605.918	89.06
606.126	88.06
606.334	96.06
606.543	95.06
606.751	99.06
606.96	98.06
607.168	78.06
607.376	98.06
607.585	89.06
607.793	98.06
608.001	89.06
608.21	97.06
608.418	83.06
608.626	95.06
608.834	96.06
609.043	92.06
609.251	101.06
609.459	91.06
609.667	88.06
609.875	100.06
610.083	98.06
610.291	96.06
610.499	104.06
610.707	91.06
610.916	98.06
611.124	99.06
611.332	100.06
611.54	103.06
611.748	101.06
611.955	85.06
612.163	97.06
612.371	92.06
612.579	82.06
612.787	92.06
612.995	96.06
613.203	96.06
613.411	92.06
613.618	92.06
613.826	90.06
614.034	88.06
614.242	98.06
614.449	100.06
614.657	101.06
614.865	84.06
615.072	96.06
615.28	95.06
615.488	91.06
615.695	88.06
615.903	104.06
616.111	106.06
616.318	103.06
616.526	83.06
616.733	102.06
616.941	97.06
617.148	98.06
617.356	87.06
617.563	93.06
617.771	71.06
617.978	88.06
618.185	91.06
618.393	82.06
618.6	90.06
618.807	94.06
619.015	99.06
619.222	99.06
619.429	96.06
619.637	84.06
619.844	97.06
620.051	95.06
620.258	107.06
620.466	92.06
620.673	89.06
620.88	67.06
621.087	92.06
621.294	81.06
621.501	93.06
621.708	102.06
621.915	98.06
622.122	80.06
622.329	91.06
622.536	80.06
622.743	95.06
622.95	85.06
623.157	88.06
623.364	111.06
623.571	82.06
623.778	79.06
623.985	83.06
624.192	106.06
624.399	76.06
624.606	81.06
624.812	79.06
625.019	92.06
625.226	96.06
625.433	105.06
625.639	101.06
625.846	93.06
626.053	94.06
626.259	79.06
626.466	77.06
626.673	83.06
626.879	88.06
627.086	73.06
627.293	98.06
627.499	88.06
627.706	99.06
627.912	99.06
628.119	90.06
628.325	100.06
628.532	96.06
628.738	100.06
628.945	98.06
629.151	96.06
629.357	89.06
629.564	86.06
629.77	103.06
629.976	90.06
630.183	86.06
630.389	99.06
630.595	83.06
630.802	92.06
631.008	98.06
631.214	99.06
631.42	89.06
631.627	98.06
631.833	92.06
632.039	94.06
632.245	90.06
632.451	98.06
632.657	83.06
632.863	88.06
633.069	88.06
633.275	92.06
633.481	92.06
633.688	92.06
633.893	99.06
634.099	79.06
634.305	75.06
634.511	86.06
634.717	78.06
634.923	80.06
635.129	99.06
635.335	88.06
635.541	87.06
635.747	85.06
635.952	82.06
636.158	90.06
636.364	99.06
636.57	91.06
636.775	100.06
636.981	78.06
637.187	77.06
637.392	95.06
637.598	90.06
637.804	82.06
638.009	86.06
638.215	101.06
638.421	65.06
638.626	96.06
638.832	101.06
639.037	78.06
639.243	77.06
639.448	94.06
639.654	101.06
639.859	77.06
640.065	80.06
640.27	108.06
640.475	98.06
640.681	99.06
640.886	92.06
641.091	95.06
641.297	99.06
641.502	89.06
641.707	93.06
641.913	84.06
642.118	87.06
642.323	91.06
642.528	90.06
642.733	96.06
642.939	92.06
643.144	93.06
643.349	83.06
643.554	94.06
643.759	90.06
643.964	90.06
644.169	102.06
644.374	80.06
644.579	83.06
644.784	105.06
644.989	85.06
645.194	99.06
645.399	86.06
645.604	103.06
645.809	96.06
646.014	86.06
646.219	98.06
646.423	95.06
646.628	89.06
646.833	88.06
647.038	90.06
647.243	108.06
647.447	93.06
647.652	88.06
647.857	75.06
648.062	81.06
648.266	93.06
648.471	91.06
648.676	101.06
648.88	81.06
649.085	95.06
649.289	95.06
649.494	84.06
649.698	103.06
649.903	97.06
650.107	80.06
650.312	83.06
650.516	86.06
650.721	84.06
650.925	88.06
651.13	93.06
651.334	71.06
651.539	83.06
651.743	100.06
651.947	74.06
652.152	99.06
652.356	70.06
652.56	81.06
652.764	82.06
652.969	88.06
653.173	95.06
653.377	89.06
653.581	84.06
653.785	91.06
653.99	94.06
654.194	83.06
654.398	88.06
654.602	98.06
654.806	91.06
655.01	83.06
655.214	88.06
655.418	83.06
655.622	75.06
655.826	96.06
656.03	78.06
656.234	92.06
656.438	97.06
656.642	87.06
656.846	71.06
657.049	82.06
657.253	88.06
657.457	74.06
657.661	77.06
657.865	79.06
658.068	85.06
658.272	76.06
658.476	82.06
658.68	76.06
658.883	63.06
659.087	88.06
659.291	86.06
659.494	93.06
659.698	89.06
659.901	70.06
660.105	81.06
660.309	97.06
660.512	92.06
660.716	76.06
660.919	82.06
661.123	89.06
661.326	83.06
661.53	82.06
661.733	73.06
661.936	72.06
662.14	75.06
662.343	72.06
662.546	77.06
662.75	81.06
662.953	81.06
663.156	84.06
663.36	82.06
663.563	83.06
663.766	85.06
663.969	99.06
664.173	83.06
664.376	75.06
664.579	72.06
664.782	84.06
664.985	95.06
665.188	77.06
665.391	76.06
665.594	77.06
665.797	86.06
666	81.06
666.203	88.06
666.406	74.06
666.609	92.06
666.812	81.06
667.015	77.06
667.218	86.06
667.421	95.06
667.624	86.06
667.827	80.06
668.03	77.06
668.232	81.06
668.435	84.06
668.638	83.06
668.841	69.06
669.043	74.06
669.246	71.06
669.449	84.06
669.651	74.06
669.854	90.06
670.057	82.06
670.259	82.06
670.462	87.06
670.665	85.06
670.867	74.06
671.07	78.06
671.272	85.06
671.475	82.06
671.677	83.06
671.88	83.06
672.082	88.06
672.284	74.06
672.487	96.06
672.689	90.06
672.892	79.06
