Data from Location3.07152019.Energy5.Lamp.07192019.3%Agarose_HRD10591_15-18-27-269.txt Node
Date: Fri Jul 19 15:18:27 EDT 2019
User: cochatt
Spectrometer: HR+D1059
Trigger mode: 1
Integration Time (sec): 1.000000E-1
Scans to average: 1
Electric dark correction enabled: true
Nonlinearity correction enabled: false
Boxcar width: 0
XAxis mode: Wavelengths
Number of Pixels in Spectrum: 2048
>>>>>Begin Spectral Data<<<<<
223.165	-16.25
223.4	-16.25
223.635	-16.25
223.869	-19.25
224.104	-7.25
224.338	-13.25
224.573	-27.25
224.808	-4.25
225.042	-19.25
225.277	-6.25
225.511	-14.25
225.746	12.75
225.98	5.75
226.215	17.75
226.449	15.75
226.683	20.75
226.918	30.75
227.152	23.75
227.387	31.75
227.621	24.75
227.856	27.75
228.09	39.75
228.324	19.75
228.559	53.75
228.793	39.75
229.027	41.75
229.262	51.75
229.496	63.75
229.73	64.75
229.964	74.75
230.199	70.75
230.433	81.75
230.667	62.75
230.901	64.75
231.136	70.75
231.37	76.75
231.604	68.75
231.838	81.75
232.072	87.75
232.306	68.75
232.541	85.75
232.775	83.75
233.009	84.75
233.243	76.75
233.477	73.75
233.711	71.75
233.945	61.75
234.179	70.75
234.413	80.75
234.647	84.75
234.881	88.75
235.115	88.75
235.349	66.75
235.583	68.75
235.817	67.75
236.051	69.75
236.285	67.75
236.519	68.75
236.753	70.75
236.987	84.75
237.221	81.75
237.455	72.75
237.689	67.75
237.922	82.75
238.156	64.75
238.39	78.75
238.624	63.75
238.858	82.75
239.091	69.75
239.325	72.75
239.559	72.75
239.793	72.75
240.027	73.75
240.26	71.75
240.494	72.75
240.728	78.75
240.961	81.75
241.195	70.75
241.429	77.75
241.662	77.75
241.896	90.75
242.13	73.75
242.363	79.75
242.597	69.75
242.83	76.75
243.064	82.75
243.298	73.75
243.531	57.75
243.765	85.75
243.998	86.75
244.232	76.75
244.465	55.75
244.699	65.75
244.932	75.75
245.166	77.75
245.399	74.75
245.633	64.75
245.866	87.75
246.099	68.75
246.333	61.75
246.566	78.75
246.8	86.75
247.033	76.75
247.266	76.75
247.5	73.75
247.733	65.75
247.966	80.75
248.2	74.75
248.433	66.75
248.666	65.75
248.899	55.75
249.133	65.75
249.366	81.75
249.599	80.75
249.832	68.75
250.066	95.75
250.299	72.75
250.532	81.75
250.765	80.75
250.998	82.75
251.231	70.75
251.465	73.75
251.698	73.75
251.931	79.75
252.164	75.75
252.397	66.75
252.63	84.75
252.863	78.75
253.096	82.75
253.329	72.75
253.562	75.75
253.795	66.75
254.028	91.75
254.261	75.75
254.494	68.75
254.727	75.75
254.96	84.75
255.193	76.75
255.426	79.75
255.659	69.75
255.892	69.75
256.124	66.75
256.357	68.75
256.59	78.75
256.823	100.75
257.056	81.75
257.289	81.75
257.521	67.75
257.754	73.75
257.987	83.75
258.22	81.75
258.452	81.75
258.685	83.75
258.918	76.75
259.151	80.75
259.383	80.75
259.616	81.75
259.849	73.75
260.081	82.75
260.314	84.75
260.547	69.75
260.779	71.75
261.012	73.75
261.244	78.75
261.477	84.75
261.71	83.75
261.942	82.75
262.175	93.75
262.407	78.75
262.64	72.75
262.872	74.75
263.105	82.75
263.337	76.75
263.57	86.75
263.802	79.75
264.035	73.75
264.267	79.75
264.499	61.75
264.732	87.75
264.964	73.75
265.197	77.75
265.429	79.75
265.661	82.75
265.894	73.75
266.126	86.75
266.358	83.75
266.591	77.75
266.823	79.75
267.055	80.75
267.287	75.75
267.52	90.75
267.752	73.75
267.984	69.75
268.216	91.75
268.448	72.75
268.681	74.75
268.913	81.75
269.145	70.75
269.377	83.75
269.609	77.75
269.841	67.75
270.073	71.75
270.306	89.75
270.538	76.75
270.77	65.75
271.002	78.75
271.234	70.75
271.466	89.75
271.698	67.75
271.93	73.75
272.162	75.75
272.394	83.75
272.626	75.75
272.858	99.75
273.09	83.75
273.322	87.75
273.553	82.75
273.785	83.75
274.017	82.75
274.249	77.75
274.481	77.75
274.713	72.75
274.945	88.75
275.176	70.75
275.408	90.75
275.64	92.75
275.872	70.75
276.104	79.75
276.335	72.75
276.567	66.75
276.799	77.75
277.031	73.75
277.262	65.75
277.494	79.75
277.726	89.75
277.957	72.75
278.189	80.75
278.421	80.75
278.652	76.75
278.884	77.75
279.115	85.75
279.347	86.75
279.579	84.75
279.81	84.75
280.042	92.75
280.273	91.75
280.505	84.75
280.736	69.75
280.968	88.75
281.199	78.75
281.431	88.75
281.662	79.75
281.894	76.75
282.125	86.75
282.356	79.75
282.588	82.75
282.819	82.75
283.051	81.75
283.282	77.75
283.513	81.75
283.745	67.75
283.976	71.75
284.207	96.75
284.439	76.75
284.67	77.75
284.901	77.75
285.132	81.75
285.364	70.75
285.595	77.75
285.826	75.75
286.057	76.75
286.288	88.75
286.52	80.75
286.751	67.75
286.982	73.75
287.213	77.75
287.444	78.75
287.675	84.75
287.906	79.75
288.138	92.75
288.369	86.75
288.6	89.75
288.831	62.75
289.062	88.75
289.293	83.75
289.524	80.75
289.755	85.75
289.986	78.75
290.217	85.75
290.448	86.75
290.679	79.75
290.91	87.75
291.141	76.75
291.371	82.75
291.602	87.75
291.833	80.75
292.064	92.75
292.295	89.75
292.526	86.75
292.757	80.75
292.987	88.75
293.218	87.75
293.449	88.75
293.68	81.75
293.91	87.75
294.141	95.75
294.372	89.75
294.603	79.75
294.833	78.75
295.064	83.75
295.295	90.75
295.525	81.75
295.756	84.75
295.987	75.75
296.217	78.75
296.448	81.75
296.679	87.75
296.909	85.75
297.14	88.75
297.37	91.75
297.601	73.75
297.831	84.75
298.062	78.75
298.292	88.75
298.523	89.75
298.753	87.75
298.984	83.75
299.214	84.75
299.445	85.75
299.675	73.75
299.905	74.75
300.136	67.75
300.366	79.75
300.597	69.75
300.827	86.75
301.057	81.75
301.288	71.75
301.518	74.75
301.748	62.75
301.979	77.75
302.209	88.75
302.439	94.75
302.669	71.75
302.9	75.75
303.13	83.75
303.36	79.75
303.59	83.75
303.82	83.75
304.051	79.75
304.281	82.75
304.511	89.75
304.741	76.75
304.971	86.75
305.201	80.75
305.431	76.75
305.661	85.75
305.891	80.75
306.121	78.75
306.352	78.75
306.582	87.75
306.812	75.75
307.042	78.75
307.272	88.75
307.502	85.75
307.731	84.75
307.961	88.75
308.191	75.75
308.421	69.75
308.651	87.75
308.881	87.75
309.111	87.75
309.341	80.75
309.571	74.75
309.8	82.75
310.03	83.75
310.26	93.75
310.49	76.75
310.72	74.75
310.949	73.75
311.179	75.75
311.409	61.75
311.639	85.75
311.868	92.75
312.098	81.75
312.328	74.75
312.557	83.75
312.787	78.75
313.017	82.75
313.246	80.75
313.476	74.75
313.706	80.75
313.935	73.75
314.165	87.75
314.394	85.75
314.624	90.75
314.853	94.75
315.083	82.75
315.312	73.75
315.542	93.75
315.771	85.75
316.001	78.75
316.23	88.75
316.46	91.75
316.689	73.75
316.919	79.75
317.148	84.75
317.377	87.75
317.607	78.75
317.836	75.75
318.065	84.75
318.295	78.75
318.524	68.75
318.753	75.75
318.983	76.75
319.212	82.75
319.441	76.75
319.67	89.75
319.9	76.75
320.129	84.75
320.358	78.75
320.587	67.75
320.816	83.75
321.046	77.75
321.275	76.75
321.504	83.75
321.733	80.75
321.962	88.75
322.191	83.75
322.42	86.75
322.649	82.75
322.878	82.75
323.108	68.75
323.337	76.75
323.566	74.75
323.795	80.75
324.024	79.75
324.253	91.75
324.482	72.75
324.71	80.75
324.939	85.75
325.168	73.75
325.397	74.75
325.626	67.75
325.855	84.75
326.084	79.75
326.313	81.75
326.542	87.75
326.77	71.75
326.999	72.75
327.228	78.75
327.457	87.75
327.686	85.75
327.914	81.75
328.143	71.75
328.372	86.75
328.6	88.75
328.829	65.75
329.058	81.75
329.287	84.75
329.515	76.75
329.744	72.75
329.972	90.75
330.201	89.75
330.43	77.75
330.658	87.75
330.887	90.75
331.115	68.75
331.344	83.75
331.572	92.75
331.801	73.75
332.03	94.75
332.258	61.75
332.486	62.75
332.715	95.75
332.943	79.75
333.172	71.75
333.4	87.75
333.629	57.75
333.857	79.75
334.085	91.75
334.314	82.75
334.542	85.75
334.771	79.75
334.999	88.75
335.227	72.75
335.455	75.75
335.684	93.75
335.912	90.75
336.14	87.75
336.369	70.75
336.597	87.75
336.825	83.75
337.053	80.75
337.281	84.75
337.51	76.75
337.738	77.75
337.966	68.75
338.194	83.75
338.422	87.75
338.65	88.75
338.878	92.75
339.106	71.75
339.334	81.75
339.562	89.75
339.79	76.75
340.018	80.75
340.246	77.75
340.474	80.75
340.702	84.75
340.93	81.75
341.158	87.75
341.386	84.75
341.614	85.75
341.842	85.75
342.07	100.75
342.298	96.75
342.526	78.75
342.754	86.75
342.981	85.75
343.209	93.75
343.437	80.75
343.665	84.75
343.893	75.75
344.12	83.75
344.348	97.75
344.576	81.75
344.804	78.75
345.031	85.75
345.259	82.75
345.487	93.75
345.714	74.75
345.942	79.75
346.17	90.75
346.397	83.75
346.625	87.75
346.853	81.75
347.08	73.75
347.308	87.75
347.535	86.75
347.763	59.75
347.99	90.75
348.218	93.75
348.445	60.75
348.673	94.75
348.9	89.75
349.128	77.75
349.355	86.75
349.583	70.75
349.81	77.75
350.037	79.75
350.265	81.75
350.492	73.75
350.72	81.75
350.947	80.75
351.174	80.75
351.402	85.75
351.629	93.75
351.856	79.75
352.083	81.75
352.311	82.75
352.538	88.75
352.765	77.75
352.992	87.75
353.22	75.75
353.447	85.75
353.674	85.75
353.901	87.75
354.128	75.75
354.355	72.75
354.583	84.75
354.81	91.75
355.037	87.75
355.264	73.75
355.491	82.75
355.718	76.75
355.945	80.75
356.172	86.75
356.399	81.75
356.626	71.75
356.853	72.75
357.08	81.75
357.307	81.75
357.534	76.75
357.761	81.75
357.988	77.75
358.215	86.75
358.441	80.75
358.668	95.75
358.895	83.75
359.122	79.75
359.349	77.75
359.576	87.75
359.802	80.75
360.029	81.75
360.256	76.75
360.483	88.75
360.709	76.75
360.936	81.75
361.163	65.75
361.39	79.75
361.616	93.75
361.843	87.75
362.07	80.75
362.296	79.75
362.523	75.75
362.749	63.75
362.976	84.75
363.203	86.75
363.429	72.75
363.656	95.75
363.882	83.75
364.109	85.75
364.335	84.75
364.562	84.75
364.788	72.75
365.015	88.75
365.241	80.75
365.468	85.75
365.694	80.75
365.92	67.75
366.147	85.75
366.373	69.75
366.599	75.75
366.826	93.75
367.052	94.75
367.278	64.75
367.505	81.75
367.731	84.75
367.957	75.75
368.184	72.75
368.41	96.75
368.636	73.75
368.862	76.75
369.089	75.75
369.315	86.75
369.541	81.75
369.767	92.75
369.993	75.75
370.219	71.75
370.445	91.75
370.672	83.75
370.898	77.75
371.124	82.75
371.35	91.75
371.576	79.75
371.802	88.75
372.028	76.75
372.254	83.75
372.48	89.75
372.706	96.75
372.932	70.75
373.158	82.75
373.384	82.75
373.61	87.75
373.835	97.75
374.061	95.75
374.287	79.75
374.513	83.75
374.739	86.75
374.965	80.75
375.191	80.75
375.416	73.75
375.642	92.75
375.868	75.75
376.094	72.75
376.319	72.75
376.545	70.75
376.771	72.75
376.997	78.75
377.222	80.75
377.448	94.75
377.674	101.75
377.899	75.75
378.125	82.75
378.35	71.75
378.576	87.75
378.802	87.75
379.027	83.75
379.253	91.75
379.478	77.75
379.704	84.75
379.929	92.75
380.155	85.75
380.38	68.75
380.606	81.75
380.831	81.75
381.057	74.75
381.282	69.75
381.507	91.75
381.733	87.75
381.958	90.75
382.184	90.75
382.409	88.75
382.634	83.75
382.86	90.75
383.085	90.75
383.31	72.75
383.535	90.75
383.761	94.75
383.986	87.75
384.211	89.75
384.436	82.75
384.662	91.75
384.887	87.75
385.112	69.75
385.337	79.75
385.562	76.75
385.787	72.75
386.013	79.75
386.238	67.75
386.463	79.75
386.688	71.75
386.913	75.75
387.138	82.75
387.363	82.75
387.588	81.75
387.813	80.75
388.038	84.75
388.263	94.75
388.488	78.75
388.713	75.75
388.938	79.75
389.163	79.75
389.387	77.75
389.612	82.75
389.837	85.75
390.062	85.75
390.287	73.75
390.512	71.75
390.736	94.75
390.961	80.75
391.186	88.75
391.411	85.75
391.636	89.75
391.86	82.75
392.085	72.75
392.31	86.75
392.534	84.75
392.759	73.75
392.984	88.75
393.208	73.75
393.433	94.75
393.658	96.75
393.882	84.75
394.107	88.75
394.331	82.75
394.556	78.75
394.78	96.75
395.005	87.75
395.229	76.75
395.454	82.75
395.678	79.75
395.903	69.75
396.127	94.75
396.352	85.75
396.576	88.75
396.801	88.75
397.025	75.75
397.249	77.75
397.474	86.75
397.698	79.75
397.922	99.75
398.147	81.75
398.371	89.75
398.595	95.75
398.82	82.75
399.044	79.75
399.268	86.75
399.492	75.75
399.717	98.75
399.941	79.75
400.165	84.75
400.389	76.75
400.613	65.75
400.837	71.75
401.062	78.75
401.286	77.75
401.51	102.75
401.734	96.75
401.958	89.75
402.182	91.75
402.406	91.75
402.63	79.75
402.854	83.75
403.078	84.75
403.302	90.75
403.526	84.75
403.75	85.75
403.974	80.75
404.198	96.75
404.422	89.75
404.645	88.75
404.869	91.75
405.093	88.75
405.317	82.75
405.541	76.75
405.765	88.75
405.988	82.75
406.212	69.75
406.436	73.75
406.66	81.75
406.883	90.75
407.107	87.75
407.331	83.75
407.555	68.75
407.778	92.75
408.002	89.75
408.226	83.75
408.449	73.75
408.673	70.75
408.896	84.75
409.12	83.75
409.344	70.75
409.567	81.75
409.791	93.75
410.014	78.75
410.238	82.75
410.461	83.75
410.685	85.75
410.908	96.75
411.132	99.75
411.355	100.75
411.578	96.75
411.802	84.75
412.025	96.75
412.249	83.75
412.472	73.75
412.695	99.75
412.919	83.75
413.142	84.75
413.365	86.75
413.589	88.75
413.812	74.75
414.035	79.75
414.258	80.75
414.482	101.75
414.705	85.75
414.928	88.75
415.151	88.75
415.374	91.75
415.597	91.75
415.821	88.75
416.044	79.75
416.267	88.75
416.49	100.75
416.713	95.75
416.936	90.75
417.159	92.75
417.382	81.75
417.605	98.75
417.828	87.75
418.051	87.75
418.274	70.75
418.497	100.75
418.72	92.75
418.943	85.75
419.166	103.75
419.389	95.75
419.611	87.75
419.834	94.75
420.057	94.75
420.28	82.75
420.503	100.75
420.726	91.75
420.948	77.75
421.171	97.75
421.394	101.75
421.617	93.75
421.839	91.75
422.062	89.75
422.285	78.75
422.507	74.75
422.73	84.75
422.953	97.75
423.175	99.75
423.398	103.75
423.621	86.75
423.843	92.75
424.066	92.75
424.288	92.75
424.511	104.75
424.733	99.75
424.956	89.75
425.178	95.75
425.401	88.75
425.623	87.75
425.846	95.75
426.068	82.75
426.291	87.75
426.513	91.75
426.735	97.75
426.958	105.75
427.18	88.75
427.402	88.75
427.625	82.75
427.847	76.75
428.069	83.75
428.292	89.75
428.514	86.75
428.736	99.75
428.958	98.75
429.181	84.75
429.403	101.75
429.625	87.75
429.847	83.75
430.069	73.75
430.292	80.75
430.514	85.75
430.736	96.75
430.958	88.75
431.18	85.75
431.402	95.75
431.624	90.75
431.846	70.75
432.068	74.75
432.29	80.75
432.512	84.75
432.734	91.75
432.956	101.75
433.178	113.75
433.4	87.75
433.622	93.75
433.844	95.75
434.066	83.75
434.287	80.75
434.509	96.75
434.731	72.75
434.953	89.75
435.175	87.75
435.397	93.75
435.618	81.75
435.84	79.75
436.062	78.75
436.284	82.75
436.505	79.75
436.727	92.75
436.949	90.75
437.17	86.75
437.392	92.75
437.614	81.75
437.835	83.75
438.057	84.75
438.278	99.75
438.5	83.75
438.721	86.75
438.943	102.75
439.165	108.75
439.386	93.75
439.608	111.75
439.829	104.75
440.05	97.75
440.272	98.75
440.493	77.75
440.715	92.75
440.936	96.75
441.158	84.75
441.379	99.75
441.6	96.75
441.822	92.75
442.043	87.75
442.264	100.75
442.486	96.75
442.707	86.75
442.928	103.75
443.149	89.75
443.371	85.75
443.592	86.75
443.813	112.75
444.034	97.75
444.255	104.75
444.476	86.75
444.698	97.75
444.919	82.75
445.14	206.75
445.361	152.75
445.582	96.75
445.803	102.75
446.024	100.75
446.245	87.75
446.466	91.75
446.687	102.75
446.908	83.75
447.129	102.75
447.35	83.75
447.571	89.75
447.792	102.75
448.013	101.75
448.234	102.75
448.455	98.75
448.675	102.75
448.896	96.75
449.117	97.75
449.338	98.75
449.559	92.75
449.779	94.75
450	95.75
450.221	94.75
450.442	93.75
450.662	79.75
450.883	76.75
451.104	91.75
451.324	70.75
451.545	94.75
451.766	97.75
451.986	100.75
452.207	91.75
452.428	94.75
452.648	83.75
452.869	85.75
453.089	76.75
453.31	69.75
453.53	78.75
453.751	80.75
453.971	97.75
454.192	86.75
454.412	73.75
454.633	83.75
454.853	82.75
455.073	79.75
455.294	81.75
455.514	92.75
455.734	88.75
455.955	79.75
456.175	70.75
456.395	81.75
456.616	79.75
456.836	86.75
457.056	98.75
457.276	79.75
457.497	87.75
457.717	78.75
457.937	75.75
458.157	83.75
458.377	83.75
458.598	84.75
458.818	81.75
459.038	79.75
459.258	85.75
459.478	94.75
459.698	82.75
459.918	95.75
460.138	68.75
460.358	81.75
460.578	80.75
460.798	98.75
461.018	83.75
461.238	86.75
461.458	87.75
461.678	79.75
461.898	95.75
462.118	72.75
462.338	100.75
462.558	91.75
462.777	79.75
462.997	84.75
463.217	102.75
463.437	88.75
463.657	80.75
463.876	75.75
464.096	86.75
464.316	75.75
464.536	81.75
464.755	80.75
464.975	81.75
465.195	86.75
465.414	86.75
465.634	91.75
465.854	80.75
466.073	98.75
466.293	77.75
466.512	85.75
466.732	103.75
466.951	89.75
467.171	88.75
467.391	93.75
467.61	97.75
467.829	98.75
468.049	102.75
468.268	103.75
468.488	88.75
468.707	77.75
468.927	90.75
469.146	96.75
469.365	100.75
469.585	97.75
469.804	89.75
470.023	93.75
470.243	78.75
470.462	90.75
470.681	102.75
470.901	95.75
471.12	79.75
471.339	95.75
471.558	93.75
471.777	99.75
471.997	89.75
472.216	96.75
472.435	83.75
472.654	75.75
472.873	91.75
473.092	85.75
473.311	90.75
473.53	103.75
473.749	89.75
473.968	91.75
474.187	101.75
474.406	78.75
474.625	96.75
474.844	84.75
475.063	88.75
475.282	99.75
475.501	88.75
475.72	96.75
475.939	94.75
476.158	84.75
476.377	88.75
476.596	98.75
476.814	99.75
477.033	81.75
477.252	83.75
477.471	76.75
477.69	95.75
477.908	106.75
478.127	102.75
478.346	95.75
478.564	86.75
478.783	94.75
479.002	91.75
479.22	97.75
479.439	93.75
479.658	75.75
479.876	83.75
480.095	76.75
480.313	91.75
480.532	85.75
480.751	87.75
480.969	84.75
481.188	79.75
481.406	84.75
481.624	72.75
481.843	78.75
482.061	83.75
482.28	80.75
482.498	80.75
482.717	87.75
482.935	89.75
483.153	104.75
483.372	98.75
483.59	112.75
483.808	94.75
484.027	91.75
484.245	104.75
484.463	94.75
484.681	104.75
484.9	88.75
485.118	96.75
485.336	98.75
485.554	83.75
485.772	72.75
485.99	72.75
486.209	77.75
486.427	91.75
486.645	86.75
486.863	91.75
487.081	86.75
487.299	102.75
487.517	100.75
487.735	118.75
487.953	123.75
488.171	102.75
488.389	97.75
488.607	97.75
488.825	105.75
489.043	97.75
489.261	97.75
489.479	100.75
489.696	95.75
489.914	89.75
490.132	105.75
490.35	107.75
490.568	94.75
490.786	115.75
491.003	109.75
491.221	119.75
491.439	107.75
491.657	101.75
491.874	114.75
492.092	118.75
492.31	123.75
492.527	121.75
492.745	125.75
492.963	108.75
493.18	101.75
493.398	112.75
493.615	100.75
493.833	100.75
494.05	93.75
494.268	115.75
494.485	109.75
494.703	114.75
494.92	113.75
495.138	101.75
495.355	94.75
495.573	103.75
495.79	94.75
496.008	98.75
496.225	98.75
496.442	115.75
496.66	104.75
496.877	85.75
497.094	105.75
497.312	97.75
497.529	110.75
497.746	105.75
497.963	98.75
498.181	110.75
498.398	97.75
498.615	94.75
498.832	85.75
499.049	84.75
499.267	87.75
499.484	87.75
499.701	82.75
499.918	99.75
500.135	97.75
500.352	93.75
500.569	105.75
500.786	102.75
501.003	89.75
501.22	92.75
501.437	93.75
501.654	104.75
501.871	92.75
502.088	118.75
502.305	101.75
502.522	99.75
502.739	98.75
502.956	96.75
503.172	91.75
503.389	78.75
503.606	94.75
503.823	110.75
504.04	83.75
504.256	91.75
504.473	87.75
504.69	97.75
504.907	90.75
505.123	87.75
505.34	87.75
505.557	79.75
505.773	85.75
505.99	93.75
506.207	86.75
506.423	86.75
506.64	87.75
506.856	107.75
507.073	87.75
507.289	91.75
507.506	84.75
507.722	99.75
507.939	92.75
508.155	83.75
508.372	92.75
508.588	86.75
508.805	90.75
509.021	82.75
509.238	93.75
509.454	89.75
509.67	79.75
509.887	80.75
510.103	97.75
510.319	65.75
510.536	83.75
510.752	86.75
510.968	78.75
511.184	90.75
511.401	74.75
511.617	70.75
511.833	85.75
512.049	84.75
512.265	84.75
512.481	96.75
512.698	81.75
512.914	83.75
513.13	79.75
513.346	89.75
513.562	93.75
513.778	82.75
513.994	65.75
514.21	95.75
514.426	76.75
514.642	90.75
514.858	64.75
515.074	79.75
515.29	75.75
515.506	72.75
515.721	83.75
515.937	75.75
516.153	79.75
516.369	80.75
516.585	80.75
516.801	81.75
517.016	81.75
517.232	81.75
517.448	79.75
517.664	82.75
517.879	64.75
518.095	70.75
518.311	87.75
518.527	74.75
518.742	75.75
518.958	82.75
519.173	99.75
519.389	74.75
519.605	86.75
519.82	91.75
520.036	87.75
520.251	85.75
520.467	76.75
520.682	64.75
520.898	81.75
521.113	77.75
521.329	88.75
521.544	71.75
521.76	84.75
521.975	90.75
522.19	68.75
522.406	74.75
522.621	88.75
522.836	85.75
523.052	90.75
523.267	97.75
523.482	87.75
523.698	93.75
523.913	85.75
524.128	87.75
524.343	87.75
524.559	87.75
524.774	91.75
524.989	107.75
525.204	77.75
525.419	95.75
525.634	86.75
525.849	80.75
526.064	93.75
526.28	83.75
526.495	82.75
526.71	77.75
526.925	62.75
527.14	82.75
527.355	85.75
527.57	88.75
527.785	82.75
527.999	86.75
528.214	85.75
528.429	96.75
528.644	94.75
528.859	94.75
529.074	113.75
529.289	109.75
529.503	102.75
529.718	105.75
529.933	98.75
530.148	87.75
530.363	73.75
530.577	85.75
530.792	80.75
531.007	92.75
531.221	83.75
531.436	77.75
531.651	75.75
531.865	74.75
532.08	78.75
532.295	81.75
532.509	79.75
532.724	87.75
532.938	82.75
533.153	84.75
533.367	93.75
533.582	93.75
533.796	88.75
534.011	84.75
534.225	71.75
534.44	83.75
534.654	84.75
534.868	63.75
535.083	93.75
535.297	84.75
535.511	70.75
535.726	84.75
535.94	70.75
536.154	89.75
536.369	78.75
536.583	87.75
536.797	82.75
537.011	84.75
537.225	77.75
537.44	78.75
537.654	88.75
537.868	91.75
538.082	92.75
538.296	91.75
538.51	88.75
538.724	70.75
538.938	87.75
539.153	99.75
539.367	82.75
539.581	75.75
539.795	72.75
540.009	91.75
540.222	95.75
540.436	87.75
540.65	81.75
540.864	80.75
541.078	103.75
541.292	97.75
541.506	103.75
541.72	107.75
541.934	108.75
542.147	108.75
542.361	107.75
542.575	119.75
542.789	110.75
543.002	92.75
543.216	77.75
543.43	89.75
543.644	96.75
543.857	90.75
544.071	109.75
544.285	104.75
544.498	94.75
544.712	98.75
544.925	103.75
545.139	116.75
545.352	107.75
545.566	91.75
545.779	90.75
545.993	108.75
546.206	121.75
546.42	105.75
546.633	104.75
546.847	90.75
547.06	97.75
547.274	114.75
547.487	108.75
547.7	101.75
547.914	102.75
548.127	103.75
548.34	111.75
548.554	98.75
548.767	107.75
548.98	109.75
549.193	115.75
549.407	96.75
549.62	105.75
549.833	91.75
550.046	97.75
550.259	107.75
550.473	100.75
550.686	95.75
550.899	105.75
551.112	82.75
551.325	98.75
551.538	88.75
551.751	98.75
551.964	92.75
552.177	90.75
552.39	94.75
552.603	87.75
552.816	95.75
553.029	85.75
553.242	103.75
553.455	112.75
553.667	112.75
553.88	115.75
554.093	92.75
554.306	101.75
554.519	101.75
554.732	92.75
554.944	110.75
555.157	100.75
555.37	113.75
555.583	103.75
555.795	107.75
556.008	93.75
556.221	100.75
556.433	88.75
556.646	94.75
556.859	99.75
557.071	92.75
557.284	109.75
557.496	85.75
557.709	92.75
557.921	94.75
558.134	81.75
558.346	91.75
558.559	101.75
558.771	100.75
558.984	91.75
559.196	83.75
559.409	83.75
559.621	93.75
559.833	90.75
560.046	92.75
560.258	100.75
560.47	105.75
560.683	102.75
560.895	97.75
561.107	89.75
561.32	115.75
561.532	95.75
561.744	86.75
561.956	96.75
562.168	99.75
562.381	89.75
562.593	84.75
562.805	93.75
563.017	107.75
563.229	87.75
563.441	92.75
563.653	87.75
563.865	86.75
564.077	85.75
564.289	95.75
564.501	93.75
564.713	98.75
564.925	90.75
565.137	86.75
565.349	101.75
565.561	102.75
565.773	100.75
565.985	94.75
566.197	99.75
566.408	81.75
566.62	92.75
566.832	83.75
567.044	97.75
567.255	107.75
567.467	95.75
567.679	93.75
567.891	86.75
568.102	88.75
568.314	89.75
568.526	98.75
568.737	87.75
568.949	101.75
569.161	80.75
569.372	90.75
569.584	81.75
569.795	87.75
570.007	94.75
570.218	89.75
570.43	84.75
570.641	84.75
570.853	73.75
571.064	85.75
571.276	74.75
571.487	87.75
571.698	74.75
571.91	102.75
572.121	98.75
572.333	87.75
572.544	83.75
572.755	91.75
572.966	89.75
573.178	84.75
573.389	80.75
573.6	71.75
573.811	72.75
574.023	69.75
574.234	75.75
574.445	83.75
574.656	73.75
574.867	79.75
575.078	80.75
575.289	92.75
575.501	79.75
575.712	77.75
575.923	80.75
576.134	67.75
576.345	83.75
576.556	93.75
576.767	85.75
576.978	88.75
577.188	83.75
577.399	76.75
577.61	73.75
577.821	88.75
578.032	89.75
578.243	88.75
578.454	86.75
578.665	95.75
578.875	83.75
579.086	91.75
579.297	88.75
579.508	73.75
579.718	80.75
579.929	88.75
580.14	84.75
580.35	86.75
580.561	102.75
580.772	93.75
580.982	84.75
581.193	101.75
581.403	95.75
581.614	83.75
581.825	90.75
582.035	84.75
582.246	73.75
582.456	99.75
582.667	85.75
582.877	100.75
583.087	86.75
583.298	89.75
583.508	81.75
583.719	79.75
583.929	83.75
584.139	79.75
584.35	80.75
584.56	70.75
584.77	93.75
584.981	85.75
585.191	78.75
585.401	77.75
585.611	89.75
585.821	94.75
586.032	76.75
586.242	86.75
586.452	92.75
586.662	100.75
586.872	83.75
587.082	82.75
587.292	87.75
587.502	87.75
587.713	82.75
587.923	93.75
588.133	66.75
588.343	83.75
588.553	78.75
588.762	93.75
588.972	98.75
589.182	73.75
589.392	75.75
589.602	81.75
589.812	92.75
590.022	94.75
590.232	96.75
590.441	75.75
590.651	95.75
590.861	72.75
591.071	91.75
591.281	81.75
591.49	75.75
591.7	91.75
591.91	79.75
592.119	77.75
592.329	79.75
592.539	93.75
592.748	105.75
592.958	82.75
593.167	93.75
593.377	72.75
593.587	73.75
593.796	68.75
594.006	85.75
594.215	86.75
594.424	93.75
594.634	92.75
594.843	93.75
595.053	63.75
595.262	82.75
595.472	84.75
595.681	89.75
595.89	75.75
596.1	76.75
596.309	89.75
596.518	81.75
596.727	87.75
596.937	94.75
597.146	91.75
597.355	78.75
597.564	95.75
597.774	75.75
597.983	89.75
598.192	95.75
598.401	91.75
598.61	87.75
598.819	81.75
599.028	92.75
599.237	82.75
599.446	84.75
599.655	89.75
599.864	86.75
600.073	77.75
600.282	80.75
600.491	73.75
600.7	95.75
600.909	92.75
601.118	84.75
601.327	81.75
601.536	95.75
601.745	93.75
601.953	108.75
602.162	80.75
602.371	83.75
602.58	92.75
602.789	92.75
602.997	93.75
603.206	91.75
603.415	87.75
603.623	77.75
603.832	100.75
604.041	86.75
604.249	86.75
604.458	92.75
604.666	82.75
604.875	87.75
605.084	94.75
605.292	94.75
605.501	95.75
605.709	82.75
605.918	97.75
606.126	83.75
606.334	80.75
606.543	90.75
606.751	91.75
606.96	94.75
607.168	82.75
607.376	75.75
607.585	79.75
607.793	96.75
608.001	94.75
608.21	78.75
608.418	79.75
608.626	91.75
608.834	89.75
609.043	98.75
609.251	78.75
609.459	86.75
609.667	85.75
609.875	103.75
610.083	99.75
610.291	91.75
610.499	85.75
610.707	91.75
610.916	101.75
611.124	91.75
611.332	88.75
611.54	92.75
611.748	86.75
611.955	73.75
612.163	75.75
612.371	83.75
612.579	86.75
612.787	89.75
612.995	89.75
613.203	93.75
613.411	97.75
613.618	93.75
613.826	76.75
614.034	91.75
614.242	102.75
614.449	97.75
614.657	85.75
614.865	99.75
615.072	94.75
615.28	87.75
615.488	86.75
615.695	86.75
615.903	88.75
616.111	86.75
616.318	93.75
616.526	94.75
616.733	87.75
616.941	84.75
617.148	93.75
617.356	96.75
617.563	96.75
617.771	82.75
617.978	84.75
618.185	90.75
618.393	77.75
618.6	79.75
618.807	93.75
619.015	89.75
619.222	84.75
619.429	96.75
619.637	82.75
619.844	82.75
620.051	94.75
620.258	84.75
620.466	77.75
620.673	97.75
620.88	87.75
621.087	80.75
621.294	80.75
621.501	112.75
621.708	89.75
621.915	99.75
622.122	79.75
622.329	90.75
622.536	93.75
622.743	94.75
622.95	96.75
623.157	81.75
623.364	93.75
623.571	115.75
623.778	86.75
623.985	88.75
624.192	96.75
624.399	95.75
624.606	91.75
624.812	98.75
625.019	101.75
625.226	77.75
625.433	97.75
625.639	91.75
625.846	71.75
626.053	77.75
626.259	87.75
626.466	99.75
626.673	84.75
626.879	98.75
627.086	83.75
627.293	92.75
627.499	83.75
627.706	92.75
627.912	79.75
628.119	90.75
628.325	91.75
628.532	96.75
628.738	78.75
628.945	84.75
629.151	85.75
629.357	95.75
629.564	93.75
629.77	98.75
629.976	89.75
630.183	96.75
630.389	91.75
630.595	91.75
630.802	90.75
631.008	77.75
631.214	84.75
631.42	86.75
631.627	91.75
631.833	91.75
632.039	94.75
632.245	96.75
632.451	95.75
632.657	77.75
632.863	73.75
633.069	92.75
633.275	84.75
633.481	91.75
633.688	78.75
633.893	78.75
634.099	83.75
634.305	78.75
634.511	79.75
634.717	96.75
634.923	92.75
635.129	84.75
635.335	71.75
635.541	79.75
635.747	86.75
635.952	88.75
636.158	84.75
636.364	84.75
636.57	89.75
636.775	71.75
636.981	86.75
637.187	87.75
637.392	77.75
637.598	103.75
637.804	90.75
638.009	95.75
638.215	87.75
638.421	82.75
638.626	85.75
638.832	84.75
639.037	76.75
639.243	80.75
639.448	88.75
639.654	96.75
639.859	88.75
640.065	87.75
640.27	86.75
640.475	91.75
640.681	89.75
640.886	97.75
641.091	78.75
641.297	105.75
641.502	80.75
641.707	90.75
641.913	90.75
642.118	93.75
642.323	81.75
642.528	95.75
642.733	87.75
642.939	75.75
643.144	75.75
643.349	81.75
643.554	83.75
643.759	91.75
643.964	71.75
644.169	85.75
644.374	93.75
644.579	94.75
644.784	82.75
644.989	76.75
645.194	78.75
645.399	87.75
645.604	80.75
645.809	92.75
646.014	94.75
646.219	87.75
646.423	80.75
646.628	87.75
646.833	75.75
647.038	96.75
647.243	85.75
647.447	94.75
647.652	90.75
647.857	74.75
648.062	96.75
648.266	90.75
648.471	87.75
648.676	74.75
648.88	70.75
649.085	89.75
649.289	85.75
649.494	90.75
649.698	92.75
649.903	77.75
650.107	80.75
650.312	80.75
650.516	92.75
650.721	97.75
650.925	99.75
651.13	77.75
651.334	96.75
651.539	81.75
651.743	87.75
651.947	79.75
652.152	88.75
652.356	79.75
652.56	86.75
652.764	99.75
652.969	75.75
653.173	88.75
653.377	84.75
653.581	85.75
653.785	80.75
653.99	83.75
654.194	84.75
654.398	71.75
654.602	92.75
654.806	83.75
655.01	88.75
655.214	85.75
655.418	84.75
655.622	85.75
655.826	95.75
656.03	78.75
656.234	79.75
656.438	86.75
656.642	87.75
656.846	83.75
657.049	83.75
657.253	66.75
657.457	74.75
657.661	89.75
657.865	86.75
658.068	77.75
658.272	73.75
658.476	78.75
658.68	87.75
658.883	88.75
659.087	73.75
659.291	85.75
659.494	83.75
659.698	91.75
659.901	76.75
660.105	65.75
660.309	71.75
660.512	60.75
660.716	75.75
660.919	77.75
661.123	79.75
661.326	73.75
661.53	78.75
661.733	67.75
661.936	82.75
662.14	80.75
662.343	76.75
662.546	73.75
662.75	83.75
662.953	93.75
663.156	101.75
663.36	91.75
663.563	83.75
663.766	85.75
663.969	67.75
664.173	76.75
664.376	79.75
664.579	71.75
664.782	75.75
664.985	74.75
665.188	67.75
665.391	73.75
665.594	88.75
665.797	88.75
666	85.75
666.203	76.75
666.406	79.75
666.609	87.75
666.812	76.75
667.015	67.75
667.218	74.75
667.421	97.75
667.624	93.75
667.827	88.75
668.03	73.75
668.232	75.75
668.435	80.75
668.638	73.75
668.841	92.75
669.043	77.75
669.246	69.75
669.449	75.75
669.651	72.75
669.854	52.75
670.057	69.75
670.259	95.75
670.462	63.75
670.665	86.75
670.867	71.75
671.07	70.75
671.272	86.75
671.475	63.75
671.677	89.75
671.88	78.75
672.082	72.75
672.284	86.75
672.487	104.75
672.689	88.75
672.892	89.75
