Data from Location3.07152019.Energy5.Lamp.07192019.3%Agarose_HRD10591_15-19-14-270.txt Node
Date: Fri Jul 19 15:19:14 EDT 2019
User: cochatt
Spectrometer: HR+D1059
Trigger mode: 1
Integration Time (sec): 1.000000E-1
Scans to average: 1
Electric dark correction enabled: true
Nonlinearity correction enabled: false
Boxcar width: 0
XAxis mode: Wavelengths
Number of Pixels in Spectrum: 2048
>>>>>Begin Spectral Data<<<<<
223.165	-16.62
223.4	-16.62
223.635	-16.62
223.869	-14.62
224.104	-16.62
224.338	-16.62
224.573	-1.62
224.808	-14.62
225.042	-1.62
225.277	-10.62
225.511	7.38
225.746	16.38
225.98	-2.62
226.215	13.38
226.449	16.38
226.683	2.38
226.918	24.38
227.152	15.38
227.387	38.38
227.621	41.38
227.856	45.38
228.09	45.38
228.324	56.38
228.559	51.38
228.793	59.38
229.027	49.38
229.262	68.38
229.496	72.38
229.73	62.38
229.964	64.38
230.199	79.38
230.433	67.38
230.667	56.38
230.901	88.38
231.136	73.38
231.37	85.38
231.604	78.38
231.838	77.38
232.072	77.38
232.306	79.38
232.541	84.38
232.775	70.38
233.009	69.38
233.243	78.38
233.477	71.38
233.711	83.38
233.945	80.38
234.179	78.38
234.413	81.38
234.647	67.38
234.881	75.38
235.115	67.38
235.349	86.38
235.583	75.38
235.817	68.38
236.051	63.38
236.285	80.38
236.519	65.38
236.753	66.38
236.987	69.38
237.221	82.38
237.455	73.38
237.689	65.38
237.922	74.38
238.156	77.38
238.39	89.38
238.624	82.38
238.858	68.38
239.091	74.38
239.325	79.38
239.559	74.38
239.793	63.38
240.027	93.38
240.26	77.38
240.494	55.38
240.728	73.38
240.961	54.38
241.195	74.38
241.429	79.38
241.662	62.38
241.896	87.38
242.13	74.38
242.363	83.38
242.597	68.38
242.83	78.38
243.064	75.38
243.298	85.38
243.531	69.38
243.765	73.38
243.998	75.38
244.232	91.38
244.465	84.38
244.699	78.38
244.932	78.38
245.166	81.38
245.399	83.38
245.633	72.38
245.866	81.38
246.099	84.38
246.333	82.38
246.566	74.38
246.8	80.38
247.033	71.38
247.266	87.38
247.5	77.38
247.733	82.38
247.966	76.38
248.2	78.38
248.433	81.38
248.666	71.38
248.899	80.38
249.133	75.38
249.366	89.38
249.599	73.38
249.832	79.38
250.066	87.38
250.299	100.38
250.532	80.38
250.765	90.38
250.998	87.38
251.231	67.38
251.465	74.38
251.698	78.38
251.931	77.38
252.164	71.38
252.397	82.38
252.63	81.38
252.863	86.38
253.096	80.38
253.329	75.38
253.562	77.38
253.795	73.38
254.028	75.38
254.261	76.38
254.494	96.38
254.727	86.38
254.96	86.38
255.193	76.38
255.426	81.38
255.659	85.38
255.892	82.38
256.124	70.38
256.357	72.38
256.59	84.38
256.823	81.38
257.056	89.38
257.289	79.38
257.521	88.38
257.754	81.38
257.987	79.38
258.22	88.38
258.452	78.38
258.685	74.38
258.918	83.38
259.151	81.38
259.383	83.38
259.616	80.38
259.849	85.38
260.081	87.38
260.314	70.38
260.547	73.38
260.779	85.38
261.012	82.38
261.244	92.38
261.477	71.38
261.71	76.38
261.942	70.38
262.175	86.38
262.407	78.38
262.64	75.38
262.872	74.38
263.105	87.38
263.337	86.38
263.57	71.38
263.802	83.38
264.035	83.38
264.267	79.38
264.499	78.38
264.732	87.38
264.964	83.38
265.197	92.38
265.429	78.38
265.661	85.38
265.894	81.38
266.126	90.38
266.358	78.38
266.591	97.38
266.823	85.38
267.055	77.38
267.287	73.38
267.52	78.38
267.752	82.38
267.984	80.38
268.216	72.38
268.448	75.38
268.681	78.38
268.913	91.38
269.145	84.38
269.377	75.38
269.609	95.38
269.841	85.38
270.073	81.38
270.306	85.38
270.538	89.38
270.77	79.38
271.002	88.38
271.234	86.38
271.466	81.38
271.698	97.38
271.93	83.38
272.162	75.38
272.394	86.38
272.626	76.38
272.858	83.38
273.09	93.38
273.322	82.38
273.553	78.38
273.785	81.38
274.017	82.38
274.249	71.38
274.481	67.38
274.713	83.38
274.945	81.38
275.176	74.38
275.408	85.38
275.64	89.38
275.872	67.38
276.104	78.38
276.335	84.38
276.567	84.38
276.799	84.38
277.031	84.38
277.262	86.38
277.494	79.38
277.726	66.38
277.957	78.38
278.189	90.38
278.421	89.38
278.652	86.38
278.884	88.38
279.115	84.38
279.347	86.38
279.579	85.38
279.81	79.38
280.042	77.38
280.273	74.38
280.505	92.38
280.736	86.38
280.968	77.38
281.199	74.38
281.431	81.38
281.662	80.38
281.894	73.38
282.125	79.38
282.356	110.38
282.588	92.38
282.819	79.38
283.051	83.38
283.282	86.38
283.513	82.38
283.745	86.38
283.976	73.38
284.207	80.38
284.439	69.38
284.67	75.38
284.901	90.38
285.132	96.38
285.364	76.38
285.595	70.38
285.826	71.38
286.057	91.38
286.288	80.38
286.52	81.38
286.751	78.38
286.982	94.38
287.213	82.38
287.444	86.38
287.675	81.38
287.906	65.38
288.138	75.38
288.369	80.38
288.6	74.38
288.831	67.38
289.062	88.38
289.293	84.38
289.524	75.38
289.755	90.38
289.986	88.38
290.217	91.38
290.448	79.38
290.679	88.38
290.91	79.38
291.141	88.38
291.371	79.38
291.602	79.38
291.833	72.38
292.064	80.38
292.295	97.38
292.526	85.38
292.757	82.38
292.987	78.38
293.218	74.38
293.449	81.38
293.68	71.38
293.91	81.38
294.141	92.38
294.372	87.38
294.603	88.38
294.833	83.38
295.064	85.38
295.295	63.38
295.525	94.38
295.756	93.38
295.987	86.38
296.217	88.38
296.448	81.38
296.679	98.38
296.909	90.38
297.14	77.38
297.37	79.38
297.601	74.38
297.831	73.38
298.062	89.38
298.292	83.38
298.523	96.38
298.753	64.38
298.984	89.38
299.214	93.38
299.445	81.38
299.675	86.38
299.905	85.38
300.136	94.38
300.366	75.38
300.597	86.38
300.827	90.38
301.057	95.38
301.288	97.38
301.518	91.38
301.748	67.38
301.979	96.38
302.209	90.38
302.439	83.38
302.669	95.38
302.9	93.38
303.13	96.38
303.36	79.38
303.59	96.38
303.82	85.38
304.051	93.38
304.281	101.38
304.511	99.38
304.741	83.38
304.971	81.38
305.201	91.38
305.431	92.38
305.661	83.38
305.891	89.38
306.121	78.38
306.352	87.38
306.582	85.38
306.812	87.38
307.042	67.38
307.272	81.38
307.502	80.38
307.731	99.38
307.961	98.38
308.191	87.38
308.421	84.38
308.651	84.38
308.881	86.38
309.111	74.38
309.341	91.38
309.571	83.38
309.8	93.38
310.03	95.38
310.26	79.38
310.49	75.38
310.72	83.38
310.949	74.38
311.179	83.38
311.409	89.38
311.639	68.38
311.868	81.38
312.098	89.38
312.328	90.38
312.557	92.38
312.787	101.38
313.017	82.38
313.246	77.38
313.476	75.38
313.706	81.38
313.935	78.38
314.165	90.38
314.394	89.38
314.624	82.38
314.853	86.38
315.083	72.38
315.312	73.38
315.542	87.38
315.771	76.38
316.001	78.38
316.23	92.38
316.46	97.38
316.689	86.38
316.919	81.38
317.148	91.38
317.377	89.38
317.607	83.38
317.836	75.38
318.065	83.38
318.295	81.38
318.524	72.38
318.753	79.38
318.983	81.38
319.212	86.38
319.441	84.38
319.67	85.38
319.9	89.38
320.129	79.38
320.358	85.38
320.587	108.38
320.816	87.38
321.046	82.38
321.275	109.38
321.504	87.38
321.733	104.38
321.962	99.38
322.191	84.38
322.42	71.38
322.649	87.38
322.878	85.38
323.108	85.38
323.337	86.38
323.566	76.38
323.795	83.38
324.024	78.38
324.253	62.38
324.482	77.38
324.71	88.38
324.939	80.38
325.168	80.38
325.397	88.38
325.626	71.38
325.855	83.38
326.084	94.38
326.313	88.38
326.542	80.38
326.77	88.38
326.999	80.38
327.228	78.38
327.457	80.38
327.686	80.38
327.914	73.38
328.143	89.38
328.372	80.38
328.6	82.38
328.829	90.38
329.058	95.38
329.287	78.38
329.515	82.38
329.744	87.38
329.972	95.38
330.201	91.38
330.43	83.38
330.658	93.38
330.887	72.38
331.115	95.38
331.344	82.38
331.572	84.38
331.801	87.38
332.03	86.38
332.258	81.38
332.486	89.38
332.715	67.38
332.943	78.38
333.172	74.38
333.4	87.38
333.629	88.38
333.857	89.38
334.085	86.38
334.314	85.38
334.542	88.38
334.771	69.38
334.999	94.38
335.227	85.38
335.455	85.38
335.684	93.38
335.912	82.38
336.14	83.38
336.369	79.38
336.597	76.38
336.825	82.38
337.053	89.38
337.281	81.38
337.51	78.38
337.738	87.38
337.966	82.38
338.194	81.38
338.422	70.38
338.65	73.38
338.878	79.38
339.106	91.38
339.334	83.38
339.562	83.38
339.79	93.38
340.018	93.38
340.246	84.38
340.474	78.38
340.702	100.38
340.93	80.38
341.158	67.38
341.386	97.38
341.614	97.38
341.842	69.38
342.07	88.38
342.298	76.38
342.526	90.38
342.754	82.38
342.981	90.38
343.209	88.38
343.437	73.38
343.665	89.38
343.893	77.38
344.12	87.38
344.348	88.38
344.576	96.38
344.804	94.38
345.031	86.38
345.259	82.38
345.487	72.38
345.714	79.38
345.942	82.38
346.17	84.38
346.397	82.38
346.625	88.38
346.853	84.38
347.08	75.38
347.308	82.38
347.535	78.38
347.763	76.38
347.99	75.38
348.218	85.38
348.445	82.38
348.673	82.38
348.9	97.38
349.128	85.38
349.355	70.38
349.583	82.38
349.81	71.38
350.037	86.38
350.265	71.38
350.492	86.38
350.72	86.38
350.947	91.38
351.174	85.38
351.402	84.38
351.629	80.38
351.856	90.38
352.083	83.38
352.311	80.38
352.538	71.38
352.765	71.38
352.992	84.38
353.22	69.38
353.447	78.38
353.674	81.38
353.901	81.38
354.128	87.38
354.355	85.38
354.583	80.38
354.81	94.38
355.037	76.38
355.264	95.38
355.491	84.38
355.718	98.38
355.945	84.38
356.172	81.38
356.399	89.38
356.626	70.38
356.853	76.38
357.08	89.38
357.307	94.38
357.534	93.38
357.761	86.38
357.988	78.38
358.215	85.38
358.441	95.38
358.668	89.38
358.895	64.38
359.122	82.38
359.349	91.38
359.576	85.38
359.802	86.38
360.029	91.38
360.256	77.38
360.483	75.38
360.709	71.38
360.936	93.38
361.163	94.38
361.39	98.38
361.616	93.38
361.843	86.38
362.07	97.38
362.296	81.38
362.523	74.38
362.749	82.38
362.976	78.38
363.203	79.38
363.429	85.38
363.656	85.38
363.882	80.38
364.109	83.38
364.335	88.38
364.562	76.38
364.788	90.38
365.015	92.38
365.241	89.38
365.468	85.38
365.694	84.38
365.92	81.38
366.147	64.38
366.373	92.38
366.599	82.38
366.826	78.38
367.052	82.38
367.278	70.38
367.505	89.38
367.731	87.38
367.957	65.38
368.184	67.38
368.41	102.38
368.636	84.38
368.862	91.38
369.089	99.38
369.315	88.38
369.541	98.38
369.767	70.38
369.993	87.38
370.219	97.38
370.445	89.38
370.672	85.38
370.898	94.38
371.124	78.38
371.35	87.38
371.576	73.38
371.802	74.38
372.028	77.38
372.254	89.38
372.48	76.38
372.706	84.38
372.932	101.38
373.158	85.38
373.384	77.38
373.61	95.38
373.835	100.38
374.061	82.38
374.287	97.38
374.513	78.38
374.739	82.38
374.965	67.38
375.191	85.38
375.416	85.38
375.642	84.38
375.868	89.38
376.094	79.38
376.319	83.38
376.545	85.38
376.771	78.38
376.997	76.38
377.222	100.38
377.448	81.38
377.674	82.38
377.899	85.38
378.125	82.38
378.35	80.38
378.576	81.38
378.802	75.38
379.027	69.38
379.253	84.38
379.478	95.38
379.704	97.38
379.929	71.38
380.155	102.38
380.38	85.38
380.606	84.38
380.831	81.38
381.057	81.38
381.282	89.38
381.507	88.38
381.733	89.38
381.958	83.38
382.184	84.38
382.409	86.38
382.634	99.38
382.86	87.38
383.085	81.38
383.31	84.38
383.535	79.38
383.761	85.38
383.986	89.38
384.211	88.38
384.436	98.38
384.662	81.38
384.887	73.38
385.112	88.38
385.337	90.38
385.562	89.38
385.787	89.38
386.013	90.38
386.238	108.38
386.463	92.38
386.688	102.38
386.913	87.38
387.138	84.38
387.363	109.38
387.588	80.38
387.813	91.38
388.038	86.38
388.263	80.38
388.488	85.38
388.713	75.38
388.938	83.38
389.163	81.38
389.387	92.38
389.612	69.38
389.837	89.38
390.062	65.38
390.287	75.38
390.512	90.38
390.736	99.38
390.961	96.38
391.186	89.38
391.411	85.38
391.636	95.38
391.86	93.38
392.085	97.38
392.31	83.38
392.534	92.38
392.759	72.38
392.984	87.38
393.208	99.38
393.433	87.38
393.658	98.38
393.882	82.38
394.107	83.38
394.331	70.38
394.556	81.38
394.78	101.38
395.005	87.38
395.229	93.38
395.454	90.38
395.678	93.38
395.903	81.38
396.127	91.38
396.352	86.38
396.576	75.38
396.801	96.38
397.025	97.38
397.249	87.38
397.474	96.38
397.698	79.38
397.922	95.38
398.147	97.38
398.371	88.38
398.595	87.38
398.82	80.38
399.044	84.38
399.268	81.38
399.492	84.38
399.717	104.38
399.941	92.38
400.165	101.38
400.389	97.38
400.613	84.38
400.837	94.38
401.062	78.38
401.286	99.38
401.51	90.38
401.734	81.38
401.958	103.38
402.182	83.38
402.406	97.38
402.63	96.38
402.854	58.38
403.078	104.38
403.302	101.38
403.526	97.38
403.75	92.38
403.974	95.38
404.198	89.38
404.422	94.38
404.645	93.38
404.869	96.38
405.093	83.38
405.317	94.38
405.541	102.38
405.765	94.38
405.988	81.38
406.212	90.38
406.436	93.38
406.66	82.38
406.883	92.38
407.107	79.38
407.331	79.38
407.555	99.38
407.778	86.38
408.002	81.38
408.226	80.38
408.449	86.38
408.673	83.38
408.896	96.38
409.12	91.38
409.344	96.38
409.567	79.38
409.791	88.38
410.014	88.38
410.238	93.38
410.461	86.38
410.685	86.38
410.908	87.38
411.132	86.38
411.355	110.38
411.578	101.38
411.802	97.38
412.025	97.38
412.249	98.38
412.472	95.38
412.695	98.38
412.919	108.38
413.142	104.38
413.365	101.38
413.589	82.38
413.812	83.38
414.035	103.38
414.258	86.38
414.482	73.38
414.705	103.38
414.928	79.38
415.151	94.38
415.374	96.38
415.597	96.38
415.821	101.38
416.044	93.38
416.267	83.38
416.49	88.38
416.713	90.38
416.936	99.38
417.159	92.38
417.382	101.38
417.605	109.38
417.828	96.38
418.051	97.38
418.274	82.38
418.497	105.38
418.72	95.38
418.943	78.38
419.166	96.38
419.389	89.38
419.611	87.38
419.834	99.38
420.057	101.38
420.28	96.38
420.503	98.38
420.726	91.38
420.948	102.38
421.171	96.38
421.394	93.38
421.617	93.38
421.839	91.38
422.062	104.38
422.285	87.38
422.507	99.38
422.73	110.38
422.953	84.38
423.175	85.38
423.398	92.38
423.621	84.38
423.843	114.38
424.066	95.38
424.288	77.38
424.511	81.38
424.733	87.38
424.956	93.38
425.178	101.38
425.401	109.38
425.623	91.38
425.846	106.38
426.068	109.38
426.291	105.38
426.513	97.38
426.735	101.38
426.958	81.38
427.18	89.38
427.402	98.38
427.625	110.38
427.847	90.38
428.069	81.38
428.292	86.38
428.514	95.38
428.736	74.38
428.958	97.38
429.181	93.38
429.403	91.38
429.625	100.38
429.847	93.38
430.069	99.38
430.292	108.38
430.514	102.38
430.736	93.38
430.958	93.38
431.18	87.38
431.402	96.38
431.624	97.38
431.846	84.38
432.068	93.38
432.29	88.38
432.512	104.38
432.734	89.38
432.956	104.38
433.178	86.38
433.4	110.38
433.622	107.38
433.844	86.38
434.066	87.38
434.287	92.38
434.509	93.38
434.731	76.38
434.953	90.38
435.175	89.38
435.397	87.38
435.618	87.38
435.84	88.38
436.062	91.38
436.284	95.38
436.505	97.38
436.727	90.38
436.949	104.38
437.17	89.38
437.392	88.38
437.614	90.38
437.835	94.38
438.057	87.38
438.278	103.38
438.5	94.38
438.721	86.38
438.943	90.38
439.165	93.38
439.386	91.38
439.608	104.38
439.829	110.38
440.05	105.38
440.272	115.38
440.493	97.38
440.715	102.38
440.936	99.38
441.158	93.38
441.379	102.38
441.6	105.38
441.822	113.38
442.043	102.38
442.264	91.38
442.486	85.38
442.707	99.38
442.928	85.38
443.149	99.38
443.371	99.38
443.592	119.38
443.813	102.38
444.034	97.38
444.255	101.38
444.476	103.38
444.698	95.38
444.919	103.38
445.14	233.38
445.361	159.38
445.582	96.38
445.803	91.38
446.024	109.38
446.245	105.38
446.466	94.38
446.687	94.38
446.908	109.38
447.129	91.38
447.35	102.38
447.571	84.38
447.792	103.38
448.013	97.38
448.234	99.38
448.455	93.38
448.675	89.38
448.896	91.38
449.117	97.38
449.338	95.38
449.559	102.38
449.779	94.38
450	102.38
450.221	90.38
450.442	105.38
450.662	96.38
450.883	81.38
451.104	88.38
451.324	120.38
451.545	99.38
451.766	88.38
451.986	85.38
452.207	97.38
452.428	89.38
452.648	85.38
452.869	86.38
453.089	110.38
453.31	88.38
453.53	85.38
453.751	77.38
453.971	78.38
454.192	85.38
454.412	77.38
454.633	77.38
454.853	82.38
455.073	98.38
455.294	87.38
455.514	98.38
455.734	86.38
455.955	98.38
456.175	105.38
456.395	88.38
456.616	93.38
456.836	90.38
457.056	97.38
457.276	91.38
457.497	91.38
457.717	79.38
457.937	86.38
458.157	92.38
458.377	87.38
458.598	81.38
458.818	86.38
459.038	91.38
459.258	82.38
459.478	76.38
459.698	83.38
459.918	91.38
460.138	84.38
460.358	93.38
460.578	101.38
460.798	79.38
461.018	83.38
461.238	88.38
461.458	99.38
461.678	89.38
461.898	96.38
462.118	97.38
462.338	88.38
462.558	94.38
462.777	91.38
462.997	97.38
463.217	83.38
463.437	90.38
463.657	93.38
463.876	98.38
464.096	103.38
464.316	82.38
464.536	89.38
464.755	91.38
464.975	96.38
465.195	93.38
465.414	88.38
465.634	91.38
465.854	88.38
466.073	84.38
466.293	98.38
466.512	93.38
466.732	86.38
466.951	88.38
467.171	117.38
467.391	101.38
467.61	101.38
467.829	104.38
468.049	94.38
468.268	104.38
468.488	106.38
468.707	84.38
468.927	85.38
469.146	101.38
469.365	111.38
469.585	101.38
469.804	98.38
470.023	88.38
470.243	102.38
470.462	88.38
470.681	84.38
470.901	90.38
471.12	95.38
471.339	106.38
471.558	83.38
471.777	102.38
471.997	99.38
472.216	97.38
472.435	95.38
472.654	90.38
472.873	91.38
473.092	78.38
473.311	98.38
473.53	91.38
473.749	98.38
473.968	99.38
474.187	98.38
474.406	90.38
474.625	88.38
474.844	96.38
475.063	88.38
475.282	97.38
475.501	99.38
475.72	93.38
475.939	82.38
476.158	90.38
476.377	92.38
476.596	100.38
476.814	96.38
477.033	86.38
477.252	102.38
477.471	96.38
477.69	93.38
477.908	74.38
478.127	91.38
478.346	105.38
478.564	95.38
478.783	98.38
479.002	109.38
479.22	110.38
479.439	111.38
479.658	95.38
479.876	90.38
480.095	97.38
480.313	102.38
480.532	83.38
480.751	95.38
480.969	90.38
481.188	97.38
481.406	85.38
481.624	77.38
481.843	97.38
482.061	90.38
482.28	110.38
482.498	80.38
482.717	95.38
482.935	89.38
483.153	90.38
483.372	109.38
483.59	99.38
483.808	98.38
484.027	96.38
484.245	101.38
484.463	91.38
484.681	104.38
484.9	98.38
485.118	98.38
485.336	96.38
485.554	76.38
485.772	85.38
485.99	85.38
486.209	86.38
486.427	98.38
486.645	89.38
486.863	82.38
487.081	100.38
487.299	101.38
487.517	102.38
487.735	107.38
487.953	112.38
488.171	117.38
488.389	109.38
488.607	104.38
488.825	94.38
489.043	102.38
489.261	93.38
489.479	106.38
489.696	97.38
489.914	90.38
490.132	94.38
490.35	100.38
490.568	110.38
490.786	111.38
491.003	103.38
491.221	125.38
491.439	110.38
491.657	106.38
491.874	115.38
492.092	137.38
492.31	121.38
492.527	120.38
492.745	121.38
492.963	118.38
493.18	115.38
493.398	119.38
493.615	111.38
493.833	110.38
494.05	106.38
494.268	106.38
494.485	107.38
494.703	119.38
494.92	121.38
495.138	112.38
495.355	102.38
495.573	127.38
495.79	114.38
496.008	99.38
496.225	110.38
496.442	110.38
496.66	102.38
496.877	105.38
497.094	99.38
497.312	88.38
497.529	114.38
497.746	113.38
497.963	105.38
498.181	102.38
498.398	104.38
498.615	105.38
498.832	96.38
499.049	112.38
499.267	96.38
499.484	86.38
499.701	92.38
499.918	97.38
500.135	106.38
500.352	99.38
500.569	103.38
500.786	110.38
501.003	106.38
501.22	95.38
501.437	94.38
501.654	78.38
501.871	90.38
502.088	90.38
502.305	102.38
502.522	87.38
502.739	94.38
502.956	75.38
503.172	90.38
503.389	98.38
503.606	85.38
503.823	84.38
504.04	97.38
504.256	98.38
504.473	95.38
504.69	92.38
504.907	89.38
505.123	109.38
505.34	96.38
505.557	88.38
505.773	101.38
505.99	95.38
506.207	95.38
506.423	95.38
506.64	87.38
506.856	88.38
507.073	96.38
507.289	102.38
507.506	92.38
507.722	94.38
507.939	84.38
508.155	84.38
508.372	88.38
508.588	91.38
508.805	84.38
509.021	82.38
509.238	84.38
509.454	87.38
509.67	90.38
509.887	95.38
510.103	74.38
510.319	87.38
510.536	84.38
510.752	88.38
510.968	101.38
511.184	76.38
511.401	75.38
511.617	89.38
511.833	82.38
512.049	84.38
512.265	83.38
512.481	90.38
512.698	75.38
512.914	85.38
513.13	80.38
513.346	91.38
513.562	74.38
513.778	104.38
513.994	76.38
514.21	95.38
514.426	98.38
514.642	90.38
514.858	89.38
515.074	90.38
515.29	82.38
515.506	91.38
515.721	86.38
515.937	71.38
516.153	81.38
516.369	77.38
516.585	90.38
516.801	87.38
517.016	102.38
517.232	82.38
517.448	85.38
517.664	91.38
517.879	91.38
518.095	85.38
518.311	93.38
518.527	83.38
518.742	75.38
518.958	77.38
519.173	91.38
519.389	89.38
519.605	94.38
519.82	93.38
520.036	89.38
520.251	81.38
520.467	89.38
520.682	84.38
520.898	86.38
521.113	80.38
521.329	87.38
521.544	85.38
521.76	80.38
521.975	78.38
522.19	97.38
522.406	88.38
522.621	95.38
522.836	90.38
523.052	81.38
523.267	98.38
523.482	84.38
523.698	93.38
523.913	105.38
524.128	92.38
524.343	107.38
524.559	101.38
524.774	88.38
524.989	110.38
525.204	78.38
525.419	95.38
525.634	85.38
525.849	93.38
526.064	101.38
526.28	91.38
526.495	84.38
526.71	98.38
526.925	74.38
527.14	87.38
527.355	71.38
527.57	76.38
527.785	89.38
527.999	83.38
528.214	82.38
528.429	87.38
528.644	99.38
528.859	105.38
529.074	107.38
529.289	109.38
529.503	101.38
529.718	102.38
529.933	98.38
530.148	88.38
530.363	80.38
530.577	78.38
530.792	82.38
531.007	82.38
531.221	84.38
531.436	81.38
531.651	91.38
531.865	84.38
532.08	65.38
532.295	75.38
532.509	92.38
532.724	94.38
532.938	75.38
533.153	99.38
533.367	101.38
533.582	114.38
533.796	88.38
534.011	103.38
534.225	79.38
534.44	74.38
534.654	87.38
534.868	96.38
535.083	80.38
535.297	85.38
535.511	109.38
535.726	92.38
535.94	89.38
536.154	80.38
536.369	81.38
536.583	79.38
536.797	93.38
537.011	74.38
537.225	95.38
537.44	79.38
537.654	93.38
537.868	78.38
538.082	80.38
538.296	92.38
538.51	83.38
538.724	86.38
538.938	86.38
539.153	99.38
539.367	93.38
539.581	101.38
539.795	93.38
540.009	76.38
540.222	82.38
540.436	98.38
540.65	114.38
540.864	95.38
541.078	81.38
541.292	107.38
541.506	106.38
541.72	113.38
541.934	112.38
542.147	116.38
542.361	104.38
542.575	115.38
542.789	111.38
543.002	101.38
543.216	94.38
543.43	91.38
543.644	97.38
543.857	93.38
544.071	79.38
544.285	89.38
544.498	112.38
544.712	111.38
544.925	109.38
545.139	112.38
545.352	99.38
545.566	111.38
545.779	106.38
545.993	103.38
546.206	96.38
546.42	115.38
546.633	104.38
546.847	106.38
547.06	113.38
547.274	97.38
547.487	113.38
547.7	122.38
547.914	120.38
548.127	119.38
548.34	104.38
548.554	109.38
548.767	119.38
548.98	98.38
549.193	116.38
549.407	98.38
549.62	106.38
549.833	100.38
550.046	107.38
550.259	96.38
550.473	109.38
550.686	119.38
550.899	97.38
551.112	119.38
551.325	100.38
551.538	106.38
551.751	101.38
551.964	107.38
552.177	106.38
552.39	103.38
552.603	106.38
552.816	103.38
553.029	115.38
553.242	109.38
553.455	115.38
553.667	107.38
553.88	108.38
554.093	102.38
554.306	109.38
554.519	103.38
554.732	90.38
554.944	92.38
555.157	110.38
555.37	92.38
555.583	104.38
555.795	105.38
556.008	96.38
556.221	99.38
556.433	117.38
556.646	94.38
556.859	99.38
557.071	109.38
557.284	95.38
557.496	101.38
557.709	94.38
557.921	97.38
558.134	93.38
558.346	96.38
558.559	102.38
558.771	89.38
558.984	111.38
559.196	105.38
559.409	102.38
559.621	101.38
559.833	106.38
560.046	106.38
560.258	93.38
560.47	87.38
560.683	110.38
560.895	96.38
561.107	80.38
561.32	94.38
561.532	97.38
561.744	106.38
561.956	103.38
562.168	106.38
562.381	96.38
562.593	92.38
562.805	90.38
563.017	93.38
563.229	91.38
563.441	87.38
563.653	97.38
563.865	86.38
564.077	106.38
564.289	96.38
564.501	90.38
564.713	91.38
564.925	89.38
565.137	90.38
565.349	102.38
565.561	86.38
565.773	102.38
565.985	105.38
566.197	103.38
566.408	94.38
566.62	96.38
566.832	84.38
567.044	103.38
567.255	101.38
567.467	85.38
567.679	93.38
567.891	96.38
568.102	85.38
568.314	101.38
568.526	88.38
568.737	95.38
568.949	101.38
569.161	86.38
569.372	92.38
569.584	83.38
569.795	70.38
570.007	79.38
570.218	88.38
570.43	90.38
570.641	84.38
570.853	99.38
571.064	85.38
571.276	92.38
571.487	93.38
571.698	96.38
571.91	96.38
572.121	90.38
572.333	87.38
572.544	84.38
572.755	88.38
572.966	79.38
573.178	87.38
573.389	90.38
573.6	74.38
573.811	91.38
574.023	90.38
574.234	74.38
574.445	80.38
574.656	88.38
574.867	83.38
575.078	85.38
575.289	82.38
575.501	77.38
575.712	95.38
575.923	78.38
576.134	93.38
576.345	85.38
576.556	88.38
576.767	74.38
576.978	75.38
577.188	87.38
577.399	91.38
577.61	97.38
577.821	66.38
578.032	84.38
578.243	86.38
578.454	97.38
578.665	82.38
578.875	86.38
579.086	85.38
579.297	89.38
579.508	87.38
579.718	81.38
579.929	95.38
580.14	91.38
580.35	88.38
580.561	80.38
580.772	95.38
580.982	84.38
581.193	80.38
581.403	81.38
581.614	88.38
581.825	72.38
582.035	77.38
582.246	95.38
582.456	87.38
582.667	91.38
582.877	87.38
583.087	82.38
583.298	96.38
583.508	77.38
583.719	75.38
583.929	88.38
584.139	92.38
584.35	82.38
584.56	89.38
584.77	76.38
584.981	80.38
585.191	88.38
585.401	83.38
585.611	70.38
585.821	84.38
586.032	81.38
586.242	77.38
586.452	86.38
586.662	91.38
586.872	87.38
587.082	89.38
587.292	81.38
587.502	89.38
587.713	79.38
587.923	83.38
588.133	79.38
588.343	82.38
588.553	90.38
588.762	85.38
588.972	89.38
589.182	79.38
589.392	91.38
589.602	85.38
589.812	81.38
590.022	78.38
590.232	97.38
590.441	89.38
590.651	91.38
590.861	88.38
591.071	90.38
591.281	90.38
591.49	89.38
591.7	82.38
591.91	89.38
592.119	77.38
592.329	89.38
592.539	79.38
592.748	86.38
592.958	86.38
593.167	89.38
593.377	82.38
593.587	87.38
593.796	89.38
594.006	85.38
594.215	82.38
594.424	90.38
594.634	77.38
594.843	87.38
595.053	80.38
595.262	83.38
595.472	88.38
595.681	83.38
595.89	85.38
596.1	83.38
596.309	89.38
596.518	85.38
596.727	88.38
596.937	102.38
597.146	98.38
597.355	81.38
597.564	84.38
597.774	78.38
597.983	89.38
598.192	79.38
598.401	84.38
598.61	76.38
598.819	82.38
599.028	75.38
599.237	83.38
599.446	83.38
599.655	75.38
599.864	80.38
600.073	78.38
600.282	83.38
600.491	79.38
600.7	76.38
600.909	85.38
601.118	84.38
601.327	95.38
601.536	86.38
601.745	96.38
601.953	90.38
602.162	100.38
602.371	89.38
602.58	81.38
602.789	91.38
602.997	94.38
603.206	95.38
603.415	110.38
603.623	87.38
603.832	85.38
604.041	106.38
604.249	84.38
604.458	97.38
604.666	82.38
604.875	92.38
605.084	89.38
605.292	87.38
605.501	82.38
605.709	80.38
605.918	104.38
606.126	94.38
606.334	102.38
606.543	91.38
606.751	93.38
606.96	100.38
607.168	71.38
607.376	85.38
607.585	97.38
607.793	93.38
608.001	72.38
608.21	84.38
608.418	109.38
608.626	84.38
608.834	90.38
609.043	93.38
609.251	90.38
609.459	91.38
609.667	94.38
609.875	98.38
610.083	96.38
610.291	97.38
610.499	95.38
610.707	89.38
610.916	90.38
611.124	99.38
611.332	87.38
611.54	91.38
611.748	98.38
611.955	98.38
612.163	103.38
612.371	89.38
612.579	88.38
612.787	93.38
612.995	93.38
613.203	94.38
613.411	86.38
613.618	90.38
613.826	83.38
614.034	98.38
614.242	92.38
614.449	108.38
614.657	89.38
614.865	95.38
615.072	94.38
615.28	85.38
615.488	83.38
615.695	99.38
615.903	97.38
616.111	88.38
616.318	92.38
616.526	90.38
616.733	107.38
616.941	106.38
617.148	74.38
617.356	91.38
617.563	91.38
617.771	82.38
617.978	76.38
618.185	94.38
618.393	96.38
618.6	93.38
618.807	86.38
619.015	88.38
619.222	77.38
619.429	87.38
619.637	101.38
619.844	81.38
620.051	86.38
620.258	89.38
620.466	90.38
620.673	100.38
620.88	84.38
621.087	102.38
621.294	84.38
621.501	93.38
621.708	96.38
621.915	85.38
622.122	81.38
622.329	84.38
622.536	88.38
622.743	85.38
622.95	97.38
623.157	100.38
623.364	68.38
623.571	93.38
623.778	96.38
623.985	98.38
624.192	99.38
624.399	81.38
624.606	76.38
624.812	96.38
625.019	87.38
625.226	108.38
625.433	98.38
625.639	93.38
625.846	91.38
626.053	86.38
626.259	79.38
626.466	75.38
626.673	87.38
626.879	93.38
627.086	81.38
627.293	90.38
627.499	91.38
627.706	85.38
627.912	88.38
628.119	80.38
628.325	87.38
628.532	87.38
628.738	98.38
628.945	96.38
629.151	102.38
629.357	98.38
629.564	95.38
629.77	75.38
629.976	94.38
630.183	86.38
630.389	87.38
630.595	85.38
630.802	93.38
631.008	82.38
631.214	97.38
631.42	93.38
631.627	94.38
631.833	91.38
632.039	103.38
632.245	90.38
632.451	93.38
632.657	89.38
632.863	90.38
633.069	89.38
633.275	79.38
633.481	103.38
633.688	109.38
633.893	96.38
634.099	88.38
634.305	86.38
634.511	96.38
634.717	101.38
634.923	94.38
635.129	92.38
635.335	73.38
635.541	89.38
635.747	82.38
635.952	89.38
636.158	86.38
636.364	95.38
636.57	85.38
636.775	87.38
636.981	94.38
637.187	89.38
637.392	81.38
637.598	74.38
637.804	90.38
638.009	98.38
638.215	97.38
638.421	82.38
638.626	95.38
638.832	88.38
639.037	83.38
639.243	87.38
639.448	78.38
639.654	85.38
639.859	91.38
640.065	93.38
640.27	85.38
640.475	85.38
640.681	83.38
640.886	88.38
641.091	88.38
641.297	100.38
641.502	89.38
641.707	75.38
641.913	83.38
642.118	85.38
642.323	75.38
642.528	92.38
642.733	86.38
642.939	85.38
643.144	101.38
643.349	85.38
643.554	86.38
643.759	93.38
643.964	89.38
644.169	103.38
644.374	97.38
644.579	94.38
644.784	98.38
644.989	99.38
645.194	91.38
645.399	83.38
645.604	79.38
645.809	82.38
646.014	98.38
646.219	89.38
646.423	81.38
646.628	86.38
646.833	93.38
647.038	81.38
647.243	95.38
647.447	78.38
647.652	90.38
647.857	90.38
648.062	93.38
648.266	79.38
648.471	86.38
648.676	88.38
648.88	67.38
649.085	87.38
649.289	76.38
649.494	75.38
649.698	86.38
649.903	88.38
650.107	99.38
650.312	89.38
650.516	97.38
650.721	77.38
650.925	80.38
651.13	84.38
651.334	95.38
651.539	92.38
651.743	87.38
651.947	92.38
652.152	90.38
652.356	105.38
652.56	79.38
652.764	93.38
652.969	87.38
653.173	82.38
653.377	76.38
653.581	82.38
653.785	87.38
653.99	90.38
654.194	93.38
654.398	78.38
654.602	85.38
654.806	86.38
655.01	98.38
655.214	83.38
655.418	65.38
655.622	87.38
655.826	86.38
656.03	93.38
656.234	73.38
656.438	85.38
656.642	84.38
656.846	83.38
657.049	78.38
657.253	93.38
657.457	85.38
657.661	79.38
657.865	93.38
658.068	90.38
658.272	74.38
658.476	81.38
658.68	71.38
658.883	81.38
659.087	85.38
659.291	83.38
659.494	85.38
659.698	74.38
659.901	63.38
660.105	73.38
660.309	96.38
660.512	89.38
660.716	93.38
660.919	92.38
661.123	85.38
661.326	105.38
661.53	85.38
661.733	78.38
661.936	83.38
662.14	74.38
662.343	84.38
662.546	89.38
662.75	87.38
662.953	79.38
663.156	101.38
663.36	80.38
663.563	69.38
663.766	97.38
663.969	81.38
664.173	83.38
664.376	94.38
664.579	70.38
664.782	86.38
664.985	87.38
665.188	90.38
665.391	84.38
665.594	81.38
665.797	71.38
666	81.38
666.203	82.38
666.406	79.38
666.609	80.38
666.812	88.38
667.015	82.38
667.218	95.38
667.421	78.38
667.624	82.38
667.827	86.38
668.03	74.38
668.232	78.38
668.435	80.38
668.638	82.38
668.841	89.38
669.043	76.38
669.246	86.38
669.449	84.38
669.651	83.38
669.854	79.38
670.057	83.38
670.259	87.38
670.462	69.38
670.665	84.38
670.867	83.38
671.07	81.38
671.272	79.38
671.475	75.38
671.677	79.38
671.88	86.38
672.082	88.38
672.284	95.38
672.487	86.38
672.689	82.38
672.892	88.38
