Data from Location3.07152019.Energy5.Lamp.07192019.3%Agarose_HRD10591_15-18-28-270.txt Node
Date: Fri Jul 19 15:18:28 EDT 2019
User: cochatt
Spectrometer: HR+D1059
Trigger mode: 1
Integration Time (sec): 1.000000E-1
Scans to average: 1
Electric dark correction enabled: true
Nonlinearity correction enabled: false
Boxcar width: 0
XAxis mode: Wavelengths
Number of Pixels in Spectrum: 2048
>>>>>Begin Spectral Data<<<<<
223.165	-23.62
223.4	-23.62
223.635	-23.62
223.869	-10.62
224.104	-18.62
224.338	-5.62
224.573	-0.62
224.808	-0.62
225.042	-1.62
225.277	-13.62
225.511	-15.62
225.746	-3.62
225.98	-3.62
226.215	24.38
226.449	13.38
226.683	20.38
226.918	8.38
227.152	31.38
227.387	28.38
227.621	40.38
227.856	43.38
228.09	39.38
228.324	29.38
228.559	44.38
228.793	38.38
229.027	51.38
229.262	63.38
229.496	59.38
229.73	62.38
229.964	69.38
230.199	66.38
230.433	63.38
230.667	68.38
230.901	69.38
231.136	76.38
231.37	60.38
231.604	79.38
231.838	59.38
232.072	62.38
232.306	63.38
232.541	84.38
232.775	75.38
233.009	87.38
233.243	71.38
233.477	83.38
233.711	81.38
233.945	82.38
234.179	66.38
234.413	73.38
234.647	73.38
234.881	90.38
235.115	85.38
235.349	74.38
235.583	73.38
235.817	63.38
236.051	67.38
236.285	88.38
236.519	77.38
236.753	81.38
236.987	83.38
237.221	78.38
237.455	77.38
237.689	65.38
237.922	74.38
238.156	82.38
238.39	84.38
238.624	69.38
238.858	61.38
239.091	65.38
239.325	75.38
239.559	80.38
239.793	72.38
240.027	79.38
240.26	71.38
240.494	63.38
240.728	76.38
240.961	73.38
241.195	69.38
241.429	80.38
241.662	82.38
241.896	79.38
242.13	57.38
242.363	73.38
242.597	76.38
242.83	59.38
243.064	80.38
243.298	77.38
243.531	55.38
243.765	71.38
243.998	73.38
244.232	78.38
244.465	66.38
244.699	82.38
244.932	88.38
245.166	80.38
245.399	76.38
245.633	81.38
245.866	67.38
246.099	91.38
246.333	80.38
246.566	75.38
246.8	73.38
247.033	79.38
247.266	73.38
247.5	78.38
247.733	84.38
247.966	76.38
248.2	85.38
248.433	89.38
248.666	80.38
248.899	77.38
249.133	81.38
249.366	68.38
249.599	76.38
249.832	65.38
250.066	86.38
250.299	68.38
250.532	92.38
250.765	74.38
250.998	65.38
251.231	67.38
251.465	91.38
251.698	68.38
251.931	84.38
252.164	73.38
252.397	68.38
252.63	63.38
252.863	87.38
253.096	66.38
253.329	81.38
253.562	87.38
253.795	70.38
254.028	77.38
254.261	85.38
254.494	73.38
254.727	79.38
254.96	77.38
255.193	81.38
255.426	83.38
255.659	77.38
255.892	91.38
256.124	68.38
256.357	78.38
256.59	72.38
256.823	73.38
257.056	84.38
257.289	86.38
257.521	84.38
257.754	92.38
257.987	66.38
258.22	80.38
258.452	87.38
258.685	76.38
258.918	76.38
259.151	77.38
259.383	74.38
259.616	86.38
259.849	87.38
260.081	74.38
260.314	87.38
260.547	81.38
260.779	76.38
261.012	85.38
261.244	76.38
261.477	77.38
261.71	88.38
261.942	74.38
262.175	64.38
262.407	77.38
262.64	79.38
262.872	98.38
263.105	78.38
263.337	69.38
263.57	69.38
263.802	83.38
264.035	77.38
264.267	84.38
264.499	75.38
264.732	76.38
264.964	83.38
265.197	84.38
265.429	76.38
265.661	65.38
265.894	70.38
266.126	85.38
266.358	75.38
266.591	75.38
266.823	77.38
267.055	78.38
267.287	70.38
267.52	84.38
267.752	73.38
267.984	74.38
268.216	84.38
268.448	84.38
268.681	75.38
268.913	73.38
269.145	75.38
269.377	81.38
269.609	76.38
269.841	63.38
270.073	78.38
270.306	75.38
270.538	71.38
270.77	72.38
271.002	79.38
271.234	80.38
271.466	88.38
271.698	69.38
271.93	79.38
272.162	78.38
272.394	94.38
272.626	79.38
272.858	76.38
273.09	88.38
273.322	74.38
273.553	88.38
273.785	77.38
274.017	84.38
274.249	95.38
274.481	72.38
274.713	83.38
274.945	79.38
275.176	80.38
275.408	87.38
275.64	78.38
275.872	82.38
276.104	85.38
276.335	82.38
276.567	85.38
276.799	86.38
277.031	87.38
277.262	87.38
277.494	84.38
277.726	82.38
277.957	77.38
278.189	73.38
278.421	86.38
278.652	88.38
278.884	69.38
279.115	81.38
279.347	72.38
279.579	78.38
279.81	82.38
280.042	96.38
280.273	82.38
280.505	87.38
280.736	83.38
280.968	80.38
281.199	84.38
281.431	87.38
281.662	76.38
281.894	81.38
282.125	83.38
282.356	87.38
282.588	83.38
282.819	70.38
283.051	69.38
283.282	78.38
283.513	79.38
283.745	64.38
283.976	96.38
284.207	86.38
284.439	64.38
284.67	70.38
284.901	79.38
285.132	78.38
285.364	83.38
285.595	88.38
285.826	79.38
286.057	87.38
286.288	69.38
286.52	83.38
286.751	74.38
286.982	89.38
287.213	70.38
287.444	86.38
287.675	78.38
287.906	87.38
288.138	74.38
288.369	73.38
288.6	76.38
288.831	77.38
289.062	81.38
289.293	84.38
289.524	82.38
289.755	66.38
289.986	73.38
290.217	81.38
290.448	76.38
290.679	89.38
290.91	86.38
291.141	76.38
291.371	63.38
291.602	77.38
291.833	88.38
292.064	77.38
292.295	77.38
292.526	86.38
292.757	87.38
292.987	94.38
293.218	82.38
293.449	81.38
293.68	74.38
293.91	79.38
294.141	80.38
294.372	87.38
294.603	76.38
294.833	87.38
295.064	71.38
295.295	64.38
295.525	84.38
295.756	84.38
295.987	84.38
296.217	94.38
296.448	71.38
296.679	92.38
296.909	84.38
297.14	92.38
297.37	96.38
297.601	87.38
297.831	95.38
298.062	77.38
298.292	75.38
298.523	78.38
298.753	78.38
298.984	89.38
299.214	70.38
299.445	88.38
299.675	74.38
299.905	95.38
300.136	85.38
300.366	83.38
300.597	75.38
300.827	64.38
301.057	73.38
301.288	94.38
301.518	82.38
301.748	77.38
301.979	79.38
302.209	87.38
302.439	88.38
302.669	69.38
302.9	80.38
303.13	79.38
303.36	92.38
303.59	82.38
303.82	75.38
304.051	69.38
304.281	80.38
304.511	81.38
304.741	81.38
304.971	71.38
305.201	93.38
305.431	99.38
305.661	76.38
305.891	82.38
306.121	100.38
306.352	84.38
306.582	63.38
306.812	75.38
307.042	72.38
307.272	74.38
307.502	82.38
307.731	88.38
307.961	94.38
308.191	93.38
308.421	74.38
308.651	87.38
308.881	72.38
309.111	88.38
309.341	77.38
309.571	81.38
309.8	84.38
310.03	83.38
310.26	81.38
310.49	69.38
310.72	73.38
310.949	87.38
311.179	79.38
311.409	60.38
311.639	91.38
311.868	84.38
312.098	86.38
312.328	69.38
312.557	85.38
312.787	85.38
313.017	80.38
313.246	97.38
313.476	87.38
313.706	72.38
313.935	78.38
314.165	82.38
314.394	78.38
314.624	95.38
314.853	77.38
315.083	95.38
315.312	71.38
315.542	77.38
315.771	82.38
316.001	87.38
316.23	73.38
316.46	83.38
316.689	86.38
316.919	88.38
317.148	76.38
317.377	92.38
317.607	84.38
317.836	83.38
318.065	77.38
318.295	81.38
318.524	87.38
318.753	87.38
318.983	87.38
319.212	80.38
319.441	86.38
319.67	98.38
319.9	92.38
320.129	82.38
320.358	72.38
320.587	84.38
320.816	87.38
321.046	81.38
321.275	87.38
321.504	80.38
321.733	84.38
321.962	80.38
322.191	87.38
322.42	71.38
322.649	90.38
322.878	84.38
323.108	96.38
323.337	76.38
323.566	91.38
323.795	92.38
324.024	75.38
324.253	85.38
324.482	80.38
324.71	85.38
324.939	83.38
325.168	69.38
325.397	87.38
325.626	76.38
325.855	72.38
326.084	96.38
326.313	70.38
326.542	77.38
326.77	70.38
326.999	93.38
327.228	73.38
327.457	84.38
327.686	76.38
327.914	83.38
328.143	80.38
328.372	72.38
328.6	75.38
328.829	82.38
329.058	88.38
329.287	90.38
329.515	77.38
329.744	92.38
329.972	88.38
330.201	77.38
330.43	85.38
330.658	83.38
330.887	84.38
331.115	73.38
331.344	76.38
331.572	84.38
331.801	87.38
332.03	85.38
332.258	72.38
332.486	73.38
332.715	82.38
332.943	91.38
333.172	72.38
333.4	66.38
333.629	87.38
333.857	80.38
334.085	75.38
334.314	83.38
334.542	79.38
334.771	81.38
334.999	72.38
335.227	80.38
335.455	74.38
335.684	86.38
335.912	78.38
336.14	93.38
336.369	87.38
336.597	73.38
336.825	77.38
337.053	81.38
337.281	76.38
337.51	85.38
337.738	78.38
337.966	81.38
338.194	69.38
338.422	88.38
338.65	73.38
338.878	82.38
339.106	84.38
339.334	88.38
339.562	77.38
339.79	89.38
340.018	71.38
340.246	73.38
340.474	73.38
340.702	90.38
340.93	73.38
341.158	90.38
341.386	74.38
341.614	90.38
341.842	88.38
342.07	83.38
342.298	87.38
342.526	80.38
342.754	91.38
342.981	91.38
343.209	82.38
343.437	79.38
343.665	84.38
343.893	75.38
344.12	90.38
344.348	82.38
344.576	76.38
344.804	82.38
345.031	83.38
345.259	90.38
345.487	67.38
345.714	72.38
345.942	86.38
346.17	87.38
346.397	72.38
346.625	73.38
346.853	79.38
347.08	80.38
347.308	80.38
347.535	86.38
347.763	93.38
347.99	84.38
348.218	79.38
348.445	93.38
348.673	98.38
348.9	89.38
349.128	88.38
349.355	83.38
349.583	69.38
349.81	91.38
350.037	73.38
350.265	67.38
350.492	77.38
350.72	88.38
350.947	87.38
351.174	87.38
351.402	93.38
351.629	69.38
351.856	76.38
352.083	86.38
352.311	82.38
352.538	69.38
352.765	67.38
352.992	79.38
353.22	67.38
353.447	79.38
353.674	84.38
353.901	85.38
354.128	88.38
354.355	79.38
354.583	94.38
354.81	78.38
355.037	91.38
355.264	79.38
355.491	79.38
355.718	77.38
355.945	75.38
356.172	70.38
356.399	83.38
356.626	70.38
356.853	83.38
357.08	83.38
357.307	78.38
357.534	77.38
357.761	76.38
357.988	89.38
358.215	91.38
358.441	75.38
358.668	76.38
358.895	59.38
359.122	84.38
359.349	95.38
359.576	84.38
359.802	75.38
360.029	65.38
360.256	77.38
360.483	79.38
360.709	69.38
360.936	100.38
361.163	83.38
361.39	72.38
361.616	85.38
361.843	81.38
362.07	100.38
362.296	76.38
362.523	83.38
362.749	85.38
362.976	90.38
363.203	105.38
363.429	74.38
363.656	81.38
363.882	80.38
364.109	85.38
364.335	95.38
364.562	81.38
364.788	88.38
365.015	96.38
365.241	69.38
365.468	92.38
365.694	72.38
365.92	97.38
366.147	99.38
366.373	74.38
366.599	72.38
366.826	74.38
367.052	78.38
367.278	70.38
367.505	72.38
367.731	80.38
367.957	78.38
368.184	83.38
368.41	74.38
368.636	72.38
368.862	74.38
369.089	73.38
369.315	77.38
369.541	87.38
369.767	70.38
369.993	85.38
370.219	86.38
370.445	83.38
370.672	80.38
370.898	82.38
371.124	73.38
371.35	77.38
371.576	68.38
371.802	65.38
372.028	70.38
372.254	78.38
372.48	78.38
372.706	80.38
372.932	86.38
373.158	93.38
373.384	86.38
373.61	80.38
373.835	76.38
374.061	81.38
374.287	79.38
374.513	86.38
374.739	83.38
374.965	87.38
375.191	71.38
375.416	68.38
375.642	70.38
375.868	90.38
376.094	70.38
376.319	78.38
376.545	68.38
376.771	94.38
376.997	86.38
377.222	79.38
377.448	79.38
377.674	83.38
377.899	87.38
378.125	81.38
378.35	74.38
378.576	81.38
378.802	77.38
379.027	78.38
379.253	84.38
379.478	72.38
379.704	83.38
379.929	95.38
380.155	95.38
380.38	79.38
380.606	79.38
380.831	81.38
381.057	84.38
381.282	88.38
381.507	84.38
381.733	75.38
381.958	88.38
382.184	79.38
382.409	77.38
382.634	84.38
382.86	91.38
383.085	75.38
383.31	73.38
383.535	79.38
383.761	83.38
383.986	80.38
384.211	93.38
384.436	87.38
384.662	79.38
384.887	83.38
385.112	82.38
385.337	79.38
385.562	79.38
385.787	79.38
386.013	77.38
386.238	64.38
386.463	85.38
386.688	90.38
386.913	75.38
387.138	87.38
387.363	77.38
387.588	85.38
387.813	94.38
388.038	95.38
388.263	89.38
388.488	93.38
388.713	80.38
388.938	81.38
389.163	73.38
389.387	93.38
389.612	75.38
389.837	77.38
390.062	84.38
390.287	84.38
390.512	70.38
390.736	84.38
390.961	72.38
391.186	73.38
391.411	70.38
391.636	81.38
391.86	64.38
392.085	109.38
392.31	80.38
392.534	95.38
392.759	100.38
392.984	85.38
393.208	86.38
393.433	79.38
393.658	77.38
393.882	77.38
394.107	95.38
394.331	81.38
394.556	80.38
394.78	86.38
395.005	78.38
395.229	90.38
395.454	86.38
395.678	71.38
395.903	89.38
396.127	88.38
396.352	88.38
396.576	70.38
396.801	87.38
397.025	76.38
397.249	66.38
397.474	96.38
397.698	88.38
397.922	91.38
398.147	87.38
398.371	91.38
398.595	95.38
398.82	86.38
399.044	88.38
399.268	80.38
399.492	81.38
399.717	85.38
399.941	79.38
400.165	92.38
400.389	86.38
400.613	76.38
400.837	77.38
401.062	78.38
401.286	72.38
401.51	87.38
401.734	81.38
401.958	87.38
402.182	69.38
402.406	86.38
402.63	82.38
402.854	84.38
403.078	81.38
403.302	97.38
403.526	77.38
403.75	78.38
403.974	107.38
404.198	93.38
404.422	93.38
404.645	87.38
404.869	69.38
405.093	82.38
405.317	85.38
405.541	99.38
405.765	88.38
405.988	93.38
406.212	104.38
406.436	80.38
406.66	73.38
406.883	93.38
407.107	88.38
407.331	79.38
407.555	84.38
407.778	86.38
408.002	76.38
408.226	92.38
408.449	90.38
408.673	83.38
408.896	87.38
409.12	80.38
409.344	82.38
409.567	86.38
409.791	92.38
410.014	94.38
410.238	92.38
410.461	94.38
410.685	91.38
410.908	87.38
411.132	94.38
411.355	94.38
411.578	96.38
411.802	97.38
412.025	82.38
412.249	84.38
412.472	88.38
412.695	94.38
412.919	91.38
413.142	96.38
413.365	98.38
413.589	91.38
413.812	87.38
414.035	85.38
414.258	80.38
414.482	84.38
414.705	74.38
414.928	96.38
415.151	87.38
415.374	93.38
415.597	87.38
415.821	85.38
416.044	81.38
416.267	83.38
416.49	96.38
416.713	85.38
416.936	101.38
417.159	98.38
417.382	95.38
417.605	104.38
417.828	84.38
418.051	86.38
418.274	92.38
418.497	83.38
418.72	89.38
418.943	90.38
419.166	104.38
419.389	82.38
419.611	82.38
419.834	79.38
420.057	82.38
420.28	73.38
420.503	86.38
420.726	85.38
420.948	88.38
421.171	92.38
421.394	87.38
421.617	87.38
421.839	80.38
422.062	96.38
422.285	77.38
422.507	89.38
422.73	85.38
422.953	102.38
423.175	86.38
423.398	99.38
423.621	93.38
423.843	105.38
424.066	104.38
424.288	88.38
424.511	85.38
424.733	100.38
424.956	97.38
425.178	94.38
425.401	80.38
425.623	100.38
425.846	81.38
426.068	79.38
426.291	96.38
426.513	87.38
426.735	73.38
426.958	93.38
427.18	91.38
427.402	96.38
427.625	101.38
427.847	77.38
428.069	76.38
428.292	97.38
428.514	93.38
428.736	91.38
428.958	85.38
429.181	86.38
429.403	86.38
429.625	97.38
429.847	93.38
430.069	103.38
430.292	89.38
430.514	99.38
430.736	90.38
430.958	95.38
431.18	99.38
431.402	81.38
431.624	79.38
431.846	111.38
432.068	78.38
432.29	78.38
432.512	92.38
432.734	103.38
432.956	82.38
433.178	81.38
433.4	96.38
433.622	90.38
433.844	97.38
434.066	100.38
434.287	85.38
434.509	93.38
434.731	84.38
434.953	82.38
435.175	89.38
435.397	94.38
435.618	81.38
435.84	85.38
436.062	92.38
436.284	88.38
436.505	92.38
436.727	113.38
436.949	89.38
437.17	82.38
437.392	86.38
437.614	80.38
437.835	81.38
438.057	61.38
438.278	82.38
438.5	84.38
438.721	93.38
438.943	102.38
439.165	100.38
439.386	97.38
439.608	103.38
439.829	87.38
440.05	83.38
440.272	89.38
440.493	88.38
440.715	72.38
440.936	81.38
441.158	85.38
441.379	82.38
441.6	96.38
441.822	114.38
442.043	91.38
442.264	93.38
442.486	99.38
442.707	94.38
442.928	89.38
443.149	97.38
443.371	83.38
443.592	99.38
443.813	99.38
444.034	92.38
444.255	98.38
444.476	92.38
444.698	97.38
444.919	96.38
445.14	200.38
445.361	152.38
445.582	100.38
445.803	78.38
446.024	97.38
446.245	92.38
446.466	94.38
446.687	104.38
446.908	95.38
447.129	117.38
447.35	92.38
447.571	95.38
447.792	104.38
448.013	109.38
448.234	81.38
448.455	95.38
448.675	99.38
448.896	95.38
449.117	91.38
449.338	85.38
449.559	92.38
449.779	87.38
450	92.38
450.221	85.38
450.442	101.38
450.662	85.38
450.883	98.38
451.104	75.38
451.324	96.38
451.545	92.38
451.766	98.38
451.986	88.38
452.207	86.38
452.428	88.38
452.648	86.38
452.869	77.38
453.089	83.38
453.31	86.38
453.53	91.38
453.751	101.38
453.971	80.38
454.192	78.38
454.412	93.38
454.633	82.38
454.853	88.38
455.073	77.38
455.294	80.38
455.514	90.38
455.734	94.38
455.955	83.38
456.175	88.38
456.395	71.38
456.616	84.38
456.836	83.38
457.056	98.38
457.276	88.38
457.497	82.38
457.717	87.38
457.937	72.38
458.157	75.38
458.377	81.38
458.598	88.38
458.818	102.38
459.038	80.38
459.258	97.38
459.478	79.38
459.698	76.38
459.918	86.38
460.138	84.38
460.358	86.38
460.578	93.38
460.798	86.38
461.018	92.38
461.238	77.38
461.458	97.38
461.678	90.38
461.898	85.38
462.118	79.38
462.338	78.38
462.558	111.38
462.777	93.38
462.997	91.38
463.217	76.38
463.437	82.38
463.657	86.38
463.876	84.38
464.096	91.38
464.316	73.38
464.536	84.38
464.755	85.38
464.975	93.38
465.195	98.38
465.414	97.38
465.634	98.38
465.854	63.38
466.073	94.38
466.293	92.38
466.512	89.38
466.732	98.38
466.951	91.38
467.171	97.38
467.391	92.38
467.61	89.38
467.829	96.38
468.049	92.38
468.268	90.38
468.488	90.38
468.707	95.38
468.927	109.38
469.146	87.38
469.365	99.38
469.585	83.38
469.804	94.38
470.023	100.38
470.243	94.38
470.462	98.38
470.681	92.38
470.901	88.38
471.12	95.38
471.339	94.38
471.558	92.38
471.777	83.38
471.997	95.38
472.216	89.38
472.435	107.38
472.654	86.38
472.873	78.38
473.092	83.38
473.311	93.38
473.53	83.38
473.749	81.38
473.968	92.38
474.187	90.38
474.406	95.38
474.625	98.38
474.844	83.38
475.063	80.38
475.282	90.38
475.501	83.38
475.72	95.38
475.939	94.38
476.158	95.38
476.377	87.38
476.596	97.38
476.814	81.38
477.033	100.38
477.252	88.38
477.471	83.38
477.69	91.38
477.908	88.38
478.127	87.38
478.346	87.38
478.564	78.38
478.783	78.38
479.002	84.38
479.22	83.38
479.439	84.38
479.658	92.38
479.876	86.38
480.095	86.38
480.313	86.38
480.532	98.38
480.751	100.38
480.969	87.38
481.188	83.38
481.406	94.38
481.624	83.38
481.843	68.38
482.061	80.38
482.28	91.38
482.498	94.38
482.717	83.38
482.935	88.38
483.153	87.38
483.372	104.38
483.59	96.38
483.808	95.38
484.027	99.38
484.245	85.38
484.463	96.38
484.681	105.38
484.9	104.38
485.118	96.38
485.336	88.38
485.554	82.38
485.772	84.38
485.99	76.38
486.209	82.38
486.427	77.38
486.645	81.38
486.863	100.38
487.081	104.38
487.299	82.38
487.517	95.38
487.735	93.38
487.953	100.38
488.171	89.38
488.389	104.38
488.607	115.38
488.825	93.38
489.043	95.38
489.261	97.38
489.479	72.38
489.696	94.38
489.914	85.38
490.132	87.38
490.35	92.38
490.568	103.38
490.786	91.38
491.003	112.38
491.221	108.38
491.439	112.38
491.657	113.38
491.874	109.38
492.092	121.38
492.31	129.38
492.527	120.38
492.745	119.38
492.963	117.38
493.18	120.38
493.398	116.38
493.615	118.38
493.833	101.38
494.05	122.38
494.268	105.38
494.485	111.38
494.703	111.38
494.92	103.38
495.138	104.38
495.355	115.38
495.573	94.38
495.79	111.38
496.008	96.38
496.225	99.38
496.442	84.38
496.66	107.38
496.877	114.38
497.094	108.38
497.312	108.38
497.529	106.38
497.746	89.38
497.963	101.38
498.181	109.38
498.398	97.38
498.615	93.38
498.832	91.38
499.049	83.38
499.267	92.38
499.484	97.38
499.701	87.38
499.918	79.38
500.135	108.38
500.352	99.38
500.569	96.38
500.786	107.38
501.003	100.38
501.22	95.38
501.437	79.38
501.654	90.38
501.871	98.38
502.088	109.38
502.305	92.38
502.522	99.38
502.739	105.38
502.956	92.38
503.172	95.38
503.389	71.38
503.606	93.38
503.823	93.38
504.04	90.38
504.256	91.38
504.473	95.38
504.69	94.38
504.907	96.38
505.123	92.38
505.34	94.38
505.557	94.38
505.773	93.38
505.99	89.38
506.207	94.38
506.423	103.38
506.64	93.38
506.856	90.38
507.073	69.38
507.289	87.38
507.506	88.38
507.722	77.38
507.939	95.38
508.155	87.38
508.372	79.38
508.588	101.38
508.805	103.38
509.021	83.38
509.238	94.38
509.454	103.38
509.67	86.38
509.887	84.38
510.103	76.38
510.319	98.38
510.536	78.38
510.752	89.38
510.968	82.38
511.184	75.38
511.401	81.38
511.617	89.38
511.833	71.38
512.049	78.38
512.265	87.38
512.481	98.38
512.698	109.38
512.914	93.38
513.13	84.38
513.346	91.38
513.562	85.38
513.778	84.38
513.994	79.38
514.21	77.38
514.426	84.38
514.642	56.38
514.858	82.38
515.074	82.38
515.29	95.38
515.506	79.38
515.721	77.38
515.937	69.38
516.153	70.38
516.369	85.38
516.585	74.38
516.801	78.38
517.016	78.38
517.232	82.38
517.448	75.38
517.664	76.38
517.879	83.38
518.095	90.38
518.311	82.38
518.527	85.38
518.742	83.38
518.958	84.38
519.173	91.38
519.389	101.38
519.605	95.38
519.82	88.38
520.036	95.38
520.251	79.38
520.467	84.38
520.682	82.38
520.898	72.38
521.113	83.38
521.329	68.38
521.544	87.38
521.76	91.38
521.975	85.38
522.19	95.38
522.406	88.38
522.621	88.38
522.836	88.38
523.052	84.38
523.267	83.38
523.482	85.38
523.698	102.38
523.913	101.38
524.128	93.38
524.343	87.38
524.559	84.38
524.774	82.38
524.989	82.38
525.204	110.38
525.419	86.38
525.634	74.38
525.849	82.38
526.064	77.38
526.28	78.38
526.495	85.38
526.71	77.38
526.925	88.38
527.14	73.38
527.355	79.38
527.57	94.38
527.785	95.38
527.999	85.38
528.214	89.38
528.429	103.38
528.644	95.38
528.859	100.38
529.074	88.38
529.289	85.38
529.503	101.38
529.718	109.38
529.933	88.38
530.148	87.38
530.363	94.38
530.577	87.38
530.792	70.38
531.007	94.38
531.221	79.38
531.436	85.38
531.651	79.38
531.865	90.38
532.08	78.38
532.295	91.38
532.509	75.38
532.724	81.38
532.938	85.38
533.153	95.38
533.367	80.38
533.582	97.38
533.796	93.38
534.011	99.38
534.225	81.38
534.44	91.38
534.654	88.38
534.868	81.38
535.083	86.38
535.297	103.38
535.511	84.38
535.726	86.38
535.94	85.38
536.154	94.38
536.369	80.38
536.583	86.38
536.797	86.38
537.011	83.38
537.225	92.38
537.44	87.38
537.654	88.38
537.868	76.38
538.082	80.38
538.296	83.38
538.51	79.38
538.724	73.38
538.938	86.38
539.153	91.38
539.367	92.38
539.581	96.38
539.795	90.38
540.009	81.38
540.222	87.38
540.436	93.38
540.65	96.38
540.864	86.38
541.078	93.38
541.292	92.38
541.506	110.38
541.72	101.38
541.934	125.38
542.147	118.38
542.361	101.38
542.575	114.38
542.789	96.38
543.002	91.38
543.216	90.38
543.43	92.38
543.644	94.38
543.857	89.38
544.071	107.38
544.285	107.38
544.498	102.38
544.712	121.38
544.925	98.38
545.139	101.38
545.352	115.38
545.566	116.38
545.779	98.38
545.993	100.38
546.206	107.38
546.42	115.38
546.633	118.38
546.847	104.38
547.06	96.38
547.274	95.38
547.487	113.38
547.7	103.38
547.914	115.38
548.127	99.38
548.34	95.38
548.554	100.38
548.767	107.38
548.98	113.38
549.193	97.38
549.407	117.38
549.62	115.38
549.833	103.38
550.046	104.38
550.259	110.38
550.473	89.38
550.686	108.38
550.899	109.38
551.112	104.38
551.325	102.38
551.538	91.38
551.751	95.38
551.964	92.38
552.177	88.38
552.39	109.38
552.603	99.38
552.816	101.38
553.029	87.38
553.242	101.38
553.455	111.38
553.667	99.38
553.88	89.38
554.093	108.38
554.306	99.38
554.519	102.38
554.732	118.38
554.944	103.38
555.157	114.38
555.37	99.38
555.583	110.38
555.795	99.38
556.008	86.38
556.221	115.38
556.433	87.38
556.646	102.38
556.859	96.38
557.071	103.38
557.284	86.38
557.496	98.38
557.709	91.38
557.921	87.38
558.134	97.38
558.346	112.38
558.559	108.38
558.771	97.38
558.984	94.38
559.196	79.38
559.409	99.38
559.621	109.38
559.833	92.38
560.046	89.38
560.258	84.38
560.47	98.38
560.683	95.38
560.895	103.38
561.107	93.38
561.32	105.38
561.532	111.38
561.744	110.38
561.956	104.38
562.168	97.38
562.381	99.38
562.593	96.38
562.805	99.38
563.017	92.38
563.229	103.38
563.441	98.38
563.653	83.38
563.865	87.38
564.077	83.38
564.289	84.38
564.501	103.38
564.713	95.38
564.925	91.38
565.137	83.38
565.349	85.38
565.561	95.38
565.773	100.38
565.985	80.38
566.197	85.38
566.408	86.38
566.62	86.38
566.832	94.38
567.044	94.38
567.255	100.38
567.467	89.38
567.679	88.38
567.891	96.38
568.102	100.38
568.314	88.38
568.526	78.38
568.737	84.38
568.949	71.38
569.161	80.38
569.372	79.38
569.584	89.38
569.795	85.38
570.007	72.38
570.218	76.38
570.43	84.38
570.641	77.38
570.853	77.38
571.064	71.38
571.276	81.38
571.487	77.38
571.698	86.38
571.91	95.38
572.121	81.38
572.333	77.38
572.544	73.38
572.755	83.38
572.966	89.38
573.178	83.38
573.389	80.38
573.6	82.38
573.811	86.38
574.023	94.38
574.234	90.38
574.445	99.38
574.656	76.38
574.867	75.38
575.078	76.38
575.289	85.38
575.501	90.38
575.712	80.38
575.923	78.38
576.134	88.38
576.345	78.38
576.556	80.38
576.767	84.38
576.978	89.38
577.188	76.38
577.399	85.38
577.61	87.38
577.821	80.38
578.032	76.38
578.243	76.38
578.454	94.38
578.665	85.38
578.875	92.38
579.086	66.38
579.297	80.38
579.508	88.38
579.718	76.38
579.929	84.38
580.14	74.38
580.35	83.38
580.561	78.38
580.772	80.38
580.982	79.38
581.193	87.38
581.403	85.38
581.614	89.38
581.825	92.38
582.035	95.38
582.246	77.38
582.456	73.38
582.667	84.38
582.877	80.38
583.087	67.38
583.298	83.38
583.508	69.38
583.719	88.38
583.929	86.38
584.139	79.38
584.35	70.38
584.56	83.38
584.77	76.38
584.981	83.38
585.191	69.38
585.401	81.38
585.611	70.38
585.821	76.38
586.032	83.38
586.242	77.38
586.452	91.38
586.662	77.38
586.872	92.38
587.082	85.38
587.292	86.38
587.502	78.38
587.713	84.38
587.923	88.38
588.133	78.38
588.343	77.38
588.553	85.38
588.762	103.38
588.972	84.38
589.182	100.38
589.392	78.38
589.602	89.38
589.812	84.38
590.022	98.38
590.232	92.38
590.441	81.38
590.651	90.38
590.861	79.38
591.071	77.38
591.281	86.38
591.49	76.38
591.7	66.38
591.91	69.38
592.119	67.38
592.329	82.38
592.539	76.38
592.748	93.38
592.958	83.38
593.167	84.38
593.377	97.38
593.587	95.38
593.796	77.38
594.006	77.38
594.215	66.38
594.424	80.38
594.634	84.38
594.843	89.38
595.053	81.38
595.262	79.38
595.472	86.38
595.681	76.38
595.89	88.38
596.1	89.38
596.309	83.38
596.518	80.38
596.727	97.38
596.937	94.38
597.146	95.38
597.355	86.38
597.564	84.38
597.774	85.38
597.983	89.38
598.192	67.38
598.401	81.38
598.61	80.38
598.819	85.38
599.028	92.38
599.237	83.38
599.446	96.38
599.655	78.38
599.864	71.38
600.073	76.38
600.282	79.38
600.491	84.38
600.7	90.38
600.909	86.38
601.118	68.38
601.327	82.38
601.536	103.38
601.745	88.38
601.953	84.38
602.162	97.38
602.371	77.38
602.58	87.38
602.789	87.38
602.997	91.38
603.206	101.38
603.415	98.38
603.623	79.38
603.832	87.38
604.041	78.38
604.249	77.38
604.458	88.38
604.666	90.38
604.875	95.38
605.084	93.38
605.292	84.38
605.501	82.38
605.709	92.38
605.918	88.38
606.126	90.38
606.334	88.38
606.543	99.38
606.751	96.38
606.96	99.38
607.168	92.38
607.376	101.38
607.585	98.38
607.793	82.38
608.001	87.38
608.21	94.38
608.418	81.38
608.626	72.38
608.834	79.38
609.043	99.38
609.251	89.38
609.459	81.38
609.667	84.38
609.875	91.38
610.083	99.38
610.291	85.38
610.499	91.38
610.707	88.38
610.916	101.38
611.124	92.38
611.332	83.38
611.54	90.38
611.748	89.38
611.955	83.38
612.163	80.38
612.371	79.38
612.579	75.38
612.787	81.38
612.995	80.38
613.203	88.38
613.411	84.38
613.618	95.38
613.826	79.38
614.034	75.38
614.242	73.38
614.449	90.38
614.657	86.38
614.865	98.38
615.072	97.38
615.28	99.38
615.488	87.38
615.695	86.38
615.903	77.38
616.111	75.38
616.318	89.38
616.526	87.38
616.733	84.38
616.941	96.38
617.148	80.38
617.356	100.38
617.563	88.38
617.771	93.38
617.978	85.38
618.185	87.38
618.393	84.38
618.6	88.38
618.807	86.38
619.015	86.38
619.222	78.38
619.429	91.38
619.637	84.38
619.844	80.38
620.051	96.38
620.258	101.38
620.466	85.38
620.673	91.38
620.88	94.38
621.087	99.38
621.294	91.38
621.501	84.38
621.708	96.38
621.915	88.38
622.122	85.38
622.329	86.38
622.536	96.38
622.743	95.38
622.95	74.38
623.157	88.38
623.364	80.38
623.571	88.38
623.778	103.38
623.985	81.38
624.192	70.38
624.399	85.38
624.606	102.38
624.812	94.38
625.019	85.38
625.226	91.38
625.433	90.38
625.639	92.38
625.846	92.38
626.053	86.38
626.259	90.38
626.466	85.38
626.673	82.38
626.879	84.38
627.086	82.38
627.293	97.38
627.499	89.38
627.706	87.38
627.912	81.38
628.119	88.38
628.325	97.38
628.532	93.38
628.738	51.38
628.945	82.38
629.151	81.38
629.357	81.38
629.564	89.38
629.77	84.38
629.976	79.38
630.183	85.38
630.389	85.38
630.595	85.38
630.802	100.38
631.008	88.38
631.214	82.38
631.42	96.38
631.627	80.38
631.833	81.38
632.039	83.38
632.245	79.38
632.451	86.38
632.657	85.38
632.863	87.38
633.069	91.38
633.275	87.38
633.481	84.38
633.688	84.38
633.893	84.38
634.099	83.38
634.305	84.38
634.511	78.38
634.717	91.38
634.923	94.38
635.129	70.38
635.335	84.38
635.541	83.38
635.747	91.38
635.952	87.38
636.158	77.38
636.364	88.38
636.57	75.38
636.775	93.38
636.981	91.38
637.187	93.38
637.392	83.38
637.598	95.38
637.804	89.38
638.009	89.38
638.215	94.38
638.421	76.38
638.626	96.38
638.832	95.38
639.037	84.38
639.243	84.38
639.448	77.38
639.654	95.38
639.859	94.38
640.065	84.38
640.27	87.38
640.475	82.38
640.681	83.38
640.886	99.38
641.091	85.38
641.297	91.38
641.502	86.38
641.707	100.38
641.913	90.38
642.118	99.38
642.323	80.38
642.528	84.38
642.733	87.38
642.939	78.38
643.144	84.38
643.349	106.38
643.554	95.38
643.759	88.38
643.964	80.38
644.169	79.38
644.374	87.38
644.579	87.38
644.784	79.38
644.989	81.38
645.194	67.38
645.399	82.38
645.604	93.38
645.809	76.38
646.014	73.38
646.219	78.38
646.423	85.38
646.628	87.38
646.833	93.38
647.038	109.38
647.243	88.38
647.447	101.38
647.652	85.38
647.857	95.38
648.062	81.38
648.266	92.38
648.471	88.38
648.676	80.38
648.88	72.38
649.085	77.38
649.289	79.38
649.494	84.38
649.698	89.38
649.903	91.38
650.107	88.38
650.312	75.38
650.516	88.38
650.721	70.38
650.925	85.38
651.13	77.38
651.334	69.38
651.539	81.38
651.743	80.38
651.947	64.38
652.152	88.38
652.356	64.38
652.56	87.38
652.764	89.38
652.969	79.38
653.173	74.38
653.377	75.38
653.581	74.38
653.785	83.38
653.99	80.38
654.194	86.38
654.398	76.38
654.602	77.38
654.806	88.38
655.01	84.38
655.214	72.38
655.418	88.38
655.622	66.38
655.826	59.38
656.03	77.38
656.234	87.38
656.438	90.38
656.642	82.38
656.846	72.38
657.049	77.38
657.253	90.38
657.457	85.38
657.661	79.38
657.865	79.38
658.068	89.38
658.272	73.38
658.476	77.38
658.68	79.38
658.883	105.38
659.087	73.38
659.291	78.38
659.494	83.38
659.698	69.38
659.901	93.38
660.105	91.38
660.309	90.38
660.512	70.38
660.716	78.38
660.919	86.38
661.123	95.38
661.326	88.38
661.53	85.38
661.733	79.38
661.936	73.38
662.14	62.38
662.343	83.38
662.546	91.38
662.75	76.38
662.953	72.38
663.156	71.38
663.36	81.38
663.563	84.38
663.766	71.38
663.969	71.38
664.173	91.38
664.376	82.38
664.579	77.38
664.782	65.38
664.985	89.38
665.188	79.38
665.391	89.38
665.594	89.38
665.797	87.38
666	82.38
666.203	72.38
666.406	72.38
666.609	87.38
666.812	84.38
667.015	83.38
667.218	78.38
667.421	73.38
667.624	84.38
667.827	77.38
668.03	67.38
668.232	85.38
668.435	70.38
668.638	83.38
668.841	80.38
669.043	84.38
669.246	70.38
669.449	78.38
669.651	89.38
669.854	73.38
670.057	75.38
670.259	73.38
670.462	87.38
670.665	88.38
670.867	71.38
671.07	69.38
671.272	74.38
671.475	85.38
671.677	73.38
671.88	79.38
672.082	65.38
672.284	64.38
672.487	79.38
672.689	92.38
672.892	81.38
