Data from Location3.07152019.Energy5.Lamp.07192019.3%Agarose_HRD10591_15-16-37-269.txt Node
Date: Fri Jul 19 15:16:37 EDT 2019
User: cochatt
Spectrometer: HR+D1059
Trigger mode: 1
Integration Time (sec): 1.000000E-1
Scans to average: 1
Electric dark correction enabled: true
Nonlinearity correction enabled: false
Boxcar width: 0
XAxis mode: Wavelengths
Number of Pixels in Spectrum: 2048
>>>>>Begin Spectral Data<<<<<
223.165	-4.62
223.4	-4.62
223.635	-4.62
223.869	-9.62
224.104	-28.62
224.338	-13.62
224.573	-13.62
224.808	-15.62
225.042	-2.62
225.277	-4.62
225.511	1.38
225.746	-0.62
225.98	3.38
226.215	-1.62
226.449	13.38
226.683	13.38
226.918	28.38
227.152	35.38
227.387	43.38
227.621	40.38
227.856	37.38
228.09	54.38
228.324	51.38
228.559	64.38
228.793	54.38
229.027	68.38
229.262	65.38
229.496	66.38
229.73	68.38
229.964	70.38
230.199	77.38
230.433	73.38
230.667	79.38
230.901	77.38
231.136	72.38
231.37	92.38
231.604	72.38
231.838	56.38
232.072	80.38
232.306	76.38
232.541	79.38
232.775	73.38
233.009	72.38
233.243	84.38
233.477	77.38
233.711	68.38
233.945	85.38
234.179	88.38
234.413	85.38
234.647	81.38
234.881	80.38
235.115	69.38
235.349	79.38
235.583	77.38
235.817	63.38
236.051	76.38
236.285	68.38
236.519	72.38
236.753	65.38
236.987	71.38
237.221	85.38
237.455	78.38
237.689	67.38
237.922	78.38
238.156	72.38
238.39	63.38
238.624	69.38
238.858	63.38
239.091	66.38
239.325	79.38
239.559	69.38
239.793	83.38
240.027	86.38
240.26	70.38
240.494	87.38
240.728	82.38
240.961	61.38
241.195	73.38
241.429	79.38
241.662	68.38
241.896	70.38
242.13	78.38
242.363	74.38
242.597	80.38
242.83	80.38
243.064	88.38
243.298	74.38
243.531	78.38
243.765	68.38
243.998	72.38
244.232	77.38
244.465	80.38
244.699	75.38
244.932	78.38
245.166	80.38
245.399	74.38
245.633	78.38
245.866	78.38
246.099	66.38
246.333	51.38
246.566	81.38
246.8	81.38
247.033	61.38
247.266	69.38
247.5	76.38
247.733	77.38
247.966	75.38
248.2	75.38
248.433	69.38
248.666	69.38
248.899	85.38
249.133	74.38
249.366	84.38
249.599	82.38
249.832	76.38
250.066	78.38
250.299	66.38
250.532	76.38
250.765	83.38
250.998	83.38
251.231	69.38
251.465	79.38
251.698	85.38
251.931	79.38
252.164	80.38
252.397	70.38
252.63	82.38
252.863	64.38
253.096	81.38
253.329	71.38
253.562	77.38
253.795	88.38
254.028	80.38
254.261	78.38
254.494	80.38
254.727	79.38
254.96	85.38
255.193	75.38
255.426	85.38
255.659	75.38
255.892	85.38
256.124	81.38
256.357	98.38
256.59	75.38
256.823	68.38
257.056	75.38
257.289	75.38
257.521	81.38
257.754	87.38
257.987	79.38
258.22	85.38
258.452	78.38
258.685	78.38
258.918	79.38
259.151	79.38
259.383	83.38
259.616	79.38
259.849	87.38
260.081	86.38
260.314	67.38
260.547	75.38
260.779	73.38
261.012	75.38
261.244	83.38
261.477	73.38
261.71	47.38
261.942	69.38
262.175	83.38
262.407	86.38
262.64	74.38
262.872	71.38
263.105	72.38
263.337	84.38
263.57	75.38
263.802	87.38
264.035	88.38
264.267	65.38
264.499	80.38
264.732	77.38
264.964	84.38
265.197	81.38
265.429	68.38
265.661	77.38
265.894	86.38
266.126	88.38
266.358	83.38
266.591	97.38
266.823	91.38
267.055	83.38
267.287	81.38
267.52	89.38
267.752	79.38
267.984	80.38
268.216	85.38
268.448	79.38
268.681	88.38
268.913	76.38
269.145	87.38
269.377	77.38
269.609	70.38
269.841	90.38
270.073	86.38
270.306	80.38
270.538	88.38
270.77	75.38
271.002	76.38
271.234	90.38
271.466	84.38
271.698	91.38
271.93	75.38
272.162	74.38
272.394	76.38
272.626	84.38
272.858	88.38
273.09	73.38
273.322	85.38
273.553	78.38
273.785	77.38
274.017	109.38
274.249	76.38
274.481	83.38
274.713	78.38
274.945	79.38
275.176	86.38
275.408	89.38
275.64	69.38
275.872	75.38
276.104	79.38
276.335	75.38
276.567	92.38
276.799	93.38
277.031	63.38
277.262	80.38
277.494	68.38
277.726	81.38
277.957	71.38
278.189	72.38
278.421	77.38
278.652	75.38
278.884	78.38
279.115	85.38
279.347	84.38
279.579	82.38
279.81	90.38
280.042	77.38
280.273	72.38
280.505	79.38
280.736	83.38
280.968	84.38
281.199	77.38
281.431	83.38
281.662	79.38
281.894	81.38
282.125	89.38
282.356	77.38
282.588	79.38
282.819	83.38
283.051	83.38
283.282	80.38
283.513	77.38
283.745	90.38
283.976	72.38
284.207	95.38
284.439	82.38
284.67	98.38
284.901	82.38
285.132	81.38
285.364	83.38
285.595	64.38
285.826	83.38
286.057	87.38
286.288	84.38
286.52	92.38
286.751	78.38
286.982	70.38
287.213	78.38
287.444	77.38
287.675	89.38
287.906	94.38
288.138	88.38
288.369	83.38
288.6	76.38
288.831	82.38
289.062	77.38
289.293	85.38
289.524	82.38
289.755	81.38
289.986	82.38
290.217	101.38
290.448	73.38
290.679	83.38
290.91	93.38
291.141	81.38
291.371	74.38
291.602	88.38
291.833	78.38
292.064	87.38
292.295	83.38
292.526	83.38
292.757	82.38
292.987	87.38
293.218	73.38
293.449	85.38
293.68	90.38
293.91	87.38
294.141	84.38
294.372	80.38
294.603	89.38
294.833	78.38
295.064	75.38
295.295	72.38
295.525	64.38
295.756	89.38
295.987	83.38
296.217	85.38
296.448	88.38
296.679	81.38
296.909	90.38
297.14	74.38
297.37	83.38
297.601	79.38
297.831	87.38
298.062	86.38
298.292	79.38
298.523	93.38
298.753	77.38
298.984	79.38
299.214	83.38
299.445	76.38
299.675	67.38
299.905	76.38
300.136	59.38
300.366	88.38
300.597	80.38
300.827	73.38
301.057	81.38
301.288	77.38
301.518	75.38
301.748	77.38
301.979	76.38
302.209	82.38
302.439	83.38
302.669	76.38
302.9	63.38
303.13	86.38
303.36	84.38
303.59	82.38
303.82	81.38
304.051	90.38
304.281	92.38
304.511	87.38
304.741	86.38
304.971	77.38
305.201	81.38
305.431	77.38
305.661	95.38
305.891	85.38
306.121	77.38
306.352	86.38
306.582	90.38
306.812	91.38
307.042	80.38
307.272	78.38
307.502	81.38
307.731	71.38
307.961	87.38
308.191	76.38
308.421	88.38
308.651	89.38
308.881	82.38
309.111	101.38
309.341	83.38
309.571	88.38
309.8	82.38
310.03	70.38
310.26	83.38
310.49	83.38
310.72	76.38
310.949	78.38
311.179	84.38
311.409	92.38
311.639	88.38
311.868	85.38
312.098	53.38
312.328	80.38
312.557	80.38
312.787	84.38
313.017	93.38
313.246	81.38
313.476	72.38
313.706	88.38
313.935	77.38
314.165	69.38
314.394	78.38
314.624	85.38
314.853	72.38
315.083	83.38
315.312	89.38
315.542	83.38
315.771	83.38
316.001	74.38
316.23	102.38
316.46	88.38
316.689	81.38
316.919	87.38
317.148	88.38
317.377	85.38
317.607	89.38
317.836	81.38
318.065	69.38
318.295	81.38
318.524	67.38
318.753	81.38
318.983	80.38
319.212	76.38
319.441	86.38
319.67	97.38
319.9	80.38
320.129	87.38
320.358	85.38
320.587	82.38
320.816	88.38
321.046	76.38
321.275	92.38
321.504	73.38
321.733	102.38
321.962	89.38
322.191	89.38
322.42	69.38
322.649	74.38
322.878	100.38
323.108	93.38
323.337	86.38
323.566	85.38
323.795	86.38
324.024	76.38
324.253	79.38
324.482	61.38
324.71	76.38
324.939	86.38
325.168	85.38
325.397	75.38
325.626	71.38
325.855	76.38
326.084	71.38
326.313	82.38
326.542	74.38
326.77	62.38
326.999	69.38
327.228	84.38
327.457	97.38
327.686	82.38
327.914	84.38
328.143	101.38
328.372	82.38
328.6	78.38
328.829	72.38
329.058	78.38
329.287	79.38
329.515	79.38
329.744	91.38
329.972	79.38
330.201	73.38
330.43	80.38
330.658	76.38
330.887	84.38
331.115	86.38
331.344	77.38
331.572	81.38
331.801	86.38
332.03	64.38
332.258	85.38
332.486	76.38
332.715	76.38
332.943	92.38
333.172	67.38
333.4	85.38
333.629	71.38
333.857	87.38
334.085	78.38
334.314	82.38
334.542	97.38
334.771	72.38
334.999	73.38
335.227	79.38
335.455	73.38
335.684	78.38
335.912	80.38
336.14	85.38
336.369	78.38
336.597	83.38
336.825	86.38
337.053	67.38
337.281	78.38
337.51	87.38
337.738	88.38
337.966	79.38
338.194	93.38
338.422	85.38
338.65	69.38
338.878	62.38
339.106	89.38
339.334	78.38
339.562	84.38
339.79	83.38
340.018	86.38
340.246	78.38
340.474	76.38
340.702	84.38
340.93	82.38
341.158	93.38
341.386	87.38
341.614	63.38
341.842	82.38
342.07	72.38
342.298	67.38
342.526	66.38
342.754	78.38
342.981	75.38
343.209	86.38
343.437	82.38
343.665	78.38
343.893	82.38
344.12	83.38
344.348	84.38
344.576	80.38
344.804	75.38
345.031	87.38
345.259	64.38
345.487	67.38
345.714	74.38
345.942	71.38
346.17	71.38
346.397	89.38
346.625	91.38
346.853	79.38
347.08	72.38
347.308	80.38
347.535	85.38
347.763	100.38
347.99	73.38
348.218	88.38
348.445	87.38
348.673	87.38
348.9	85.38
349.128	84.38
349.355	81.38
349.583	90.38
349.81	84.38
350.037	78.38
350.265	90.38
350.492	71.38
350.72	93.38
350.947	83.38
351.174	85.38
351.402	81.38
351.629	72.38
351.856	83.38
352.083	93.38
352.311	75.38
352.538	83.38
352.765	77.38
352.992	92.38
353.22	82.38
353.447	68.38
353.674	80.38
353.901	77.38
354.128	92.38
354.355	85.38
354.583	78.38
354.81	87.38
355.037	86.38
355.264	91.38
355.491	73.38
355.718	77.38
355.945	86.38
356.172	67.38
356.399	86.38
356.626	77.38
356.853	77.38
357.08	80.38
357.307	74.38
357.534	90.38
357.761	90.38
357.988	88.38
358.215	82.38
358.441	79.38
358.668	63.38
358.895	77.38
359.122	79.38
359.349	67.38
359.576	88.38
359.802	83.38
360.029	90.38
360.256	84.38
360.483	86.38
360.709	79.38
360.936	88.38
361.163	75.38
361.39	71.38
361.616	83.38
361.843	86.38
362.07	80.38
362.296	85.38
362.523	87.38
362.749	81.38
362.976	68.38
363.203	85.38
363.429	88.38
363.656	87.38
363.882	89.38
364.109	83.38
364.335	85.38
364.562	74.38
364.788	74.38
365.015	77.38
365.241	83.38
365.468	89.38
365.694	77.38
365.92	80.38
366.147	78.38
366.373	72.38
366.599	86.38
366.826	83.38
367.052	81.38
367.278	84.38
367.505	93.38
367.731	63.38
367.957	79.38
368.184	80.38
368.41	107.38
368.636	93.38
368.862	93.38
369.089	81.38
369.315	75.38
369.541	66.38
369.767	81.38
369.993	87.38
370.219	87.38
370.445	83.38
370.672	81.38
370.898	88.38
371.124	86.38
371.35	87.38
371.576	69.38
371.802	77.38
372.028	81.38
372.254	78.38
372.48	80.38
372.706	87.38
372.932	83.38
373.158	79.38
373.384	74.38
373.61	77.38
373.835	92.38
374.061	66.38
374.287	74.38
374.513	75.38
374.739	99.38
374.965	77.38
375.191	82.38
375.416	97.38
375.642	85.38
375.868	77.38
376.094	78.38
376.319	94.38
376.545	79.38
376.771	93.38
376.997	88.38
377.222	71.38
377.448	72.38
377.674	99.38
377.899	82.38
378.125	80.38
378.35	86.38
378.576	84.38
378.802	79.38
379.027	101.38
379.253	89.38
379.478	84.38
379.704	79.38
379.929	69.38
380.155	77.38
380.38	101.38
380.606	83.38
380.831	80.38
381.057	94.38
381.282	95.38
381.507	72.38
381.733	76.38
381.958	87.38
382.184	103.38
382.409	89.38
382.634	78.38
382.86	81.38
383.085	100.38
383.31	79.38
383.535	75.38
383.761	91.38
383.986	80.38
384.211	69.38
384.436	75.38
384.662	77.38
384.887	79.38
385.112	86.38
385.337	80.38
385.562	99.38
385.787	79.38
386.013	86.38
386.238	84.38
386.463	86.38
386.688	70.38
386.913	81.38
387.138	75.38
387.363	84.38
387.588	83.38
387.813	73.38
388.038	84.38
388.263	88.38
388.488	83.38
388.713	84.38
388.938	86.38
389.163	83.38
389.387	86.38
389.612	83.38
389.837	86.38
390.062	89.38
390.287	84.38
390.512	90.38
390.736	79.38
390.961	77.38
391.186	84.38
391.411	103.38
391.636	76.38
391.86	72.38
392.085	88.38
392.31	90.38
392.534	73.38
392.759	72.38
392.984	87.38
393.208	91.38
393.433	72.38
393.658	75.38
393.882	82.38
394.107	78.38
394.331	87.38
394.556	76.38
394.78	75.38
395.005	74.38
395.229	85.38
395.454	76.38
395.678	87.38
395.903	80.38
396.127	92.38
396.352	96.38
396.576	87.38
396.801	92.38
397.025	80.38
397.249	87.38
397.474	74.38
397.698	88.38
397.922	87.38
398.147	75.38
398.371	88.38
398.595	92.38
398.82	84.38
399.044	89.38
399.268	85.38
399.492	76.38
399.717	75.38
399.941	97.38
400.165	76.38
400.389	92.38
400.613	79.38
400.837	71.38
401.062	86.38
401.286	85.38
401.51	85.38
401.734	94.38
401.958	70.38
402.182	91.38
402.406	94.38
402.63	77.38
402.854	80.38
403.078	101.38
403.302	82.38
403.526	84.38
403.75	78.38
403.974	93.38
404.198	95.38
404.422	83.38
404.645	84.38
404.869	94.38
405.093	88.38
405.317	95.38
405.541	87.38
405.765	78.38
405.988	86.38
406.212	98.38
406.436	87.38
406.66	93.38
406.883	79.38
407.107	100.38
407.331	89.38
407.555	89.38
407.778	80.38
408.002	81.38
408.226	83.38
408.449	85.38
408.673	91.38
408.896	82.38
409.12	89.38
409.344	91.38
409.567	90.38
409.791	83.38
410.014	85.38
410.238	77.38
410.461	83.38
410.685	80.38
410.908	76.38
411.132	92.38
411.355	83.38
411.578	87.38
411.802	97.38
412.025	73.38
412.249	86.38
412.472	84.38
412.695	85.38
412.919	92.38
413.142	87.38
413.365	78.38
413.589	87.38
413.812	92.38
414.035	103.38
414.258	81.38
414.482	94.38
414.705	77.38
414.928	109.38
415.151	94.38
415.374	88.38
415.597	87.38
415.821	87.38
416.044	89.38
416.267	97.38
416.49	83.38
416.713	87.38
416.936	82.38
417.159	83.38
417.382	83.38
417.605	94.38
417.828	90.38
418.051	86.38
418.274	97.38
418.497	98.38
418.72	73.38
418.943	80.38
419.166	102.38
419.389	80.38
419.611	98.38
419.834	98.38
420.057	79.38
420.28	86.38
420.503	91.38
420.726	81.38
420.948	102.38
421.171	94.38
421.394	94.38
421.617	93.38
421.839	87.38
422.062	95.38
422.285	83.38
422.507	86.38
422.73	91.38
422.953	99.38
423.175	94.38
423.398	77.38
423.621	89.38
423.843	82.38
424.066	92.38
424.288	93.38
424.511	102.38
424.733	87.38
424.956	90.38
425.178	85.38
425.401	103.38
425.623	98.38
425.846	88.38
426.068	92.38
426.291	88.38
426.513	104.38
426.735	96.38
426.958	96.38
427.18	94.38
427.402	91.38
427.625	72.38
427.847	89.38
428.069	78.38
428.292	89.38
428.514	89.38
428.736	88.38
428.958	90.38
429.181	88.38
429.403	88.38
429.625	91.38
429.847	95.38
430.069	92.38
430.292	100.38
430.514	97.38
430.736	103.38
430.958	97.38
431.18	82.38
431.402	71.38
431.624	86.38
431.846	91.38
432.068	72.38
432.29	73.38
432.512	84.38
432.734	79.38
432.956	85.38
433.178	89.38
433.4	99.38
433.622	84.38
433.844	83.38
434.066	83.38
434.287	86.38
434.509	89.38
434.731	70.38
434.953	82.38
435.175	87.38
435.397	87.38
435.618	80.38
435.84	80.38
436.062	75.38
436.284	84.38
436.505	94.38
436.727	90.38
436.949	96.38
437.17	99.38
437.392	90.38
437.614	87.38
437.835	71.38
438.057	88.38
438.278	76.38
438.5	80.38
438.721	79.38
438.943	95.38
439.165	91.38
439.386	91.38
439.608	92.38
439.829	94.38
440.05	92.38
440.272	83.38
440.493	94.38
440.715	103.38
440.936	92.38
441.158	99.38
441.379	88.38
441.6	91.38
441.822	95.38
442.043	93.38
442.264	89.38
442.486	81.38
442.707	99.38
442.928	92.38
443.149	83.38
443.371	95.38
443.592	91.38
443.813	93.38
444.034	88.38
444.255	96.38
444.476	94.38
444.698	112.38
444.919	92.38
445.14	163.38
445.361	117.38
445.582	101.38
445.803	98.38
446.024	100.38
446.245	88.38
446.466	88.38
446.687	103.38
446.908	97.38
447.129	95.38
447.35	100.38
447.571	100.38
447.792	102.38
448.013	86.38
448.234	84.38
448.455	88.38
448.675	91.38
448.896	99.38
449.117	98.38
449.338	87.38
449.559	90.38
449.779	86.38
450	85.38
450.221	88.38
450.442	84.38
450.662	77.38
450.883	99.38
451.104	92.38
451.324	96.38
451.545	93.38
451.766	96.38
451.986	76.38
452.207	96.38
452.428	81.38
452.648	89.38
452.869	84.38
453.089	83.38
453.31	71.38
453.53	100.38
453.751	88.38
453.971	89.38
454.192	86.38
454.412	92.38
454.633	83.38
454.853	89.38
455.073	99.38
455.294	89.38
455.514	109.38
455.734	95.38
455.955	105.38
456.175	71.38
456.395	83.38
456.616	76.38
456.836	76.38
457.056	77.38
457.276	74.38
457.497	78.38
457.717	72.38
457.937	85.38
458.157	77.38
458.377	83.38
458.598	79.38
458.818	98.38
459.038	70.38
459.258	76.38
459.478	83.38
459.698	71.38
459.918	69.38
460.138	93.38
460.358	97.38
460.578	78.38
460.798	75.38
461.018	85.38
461.238	75.38
461.458	99.38
461.678	100.38
461.898	99.38
462.118	80.38
462.338	91.38
462.558	86.38
462.777	88.38
462.997	97.38
463.217	93.38
463.437	86.38
463.657	84.38
463.876	95.38
464.096	86.38
464.316	71.38
464.536	85.38
464.755	84.38
464.975	89.38
465.195	88.38
465.414	92.38
465.634	85.38
465.854	87.38
466.073	101.38
466.293	78.38
466.512	80.38
466.732	97.38
466.951	88.38
467.171	95.38
467.391	97.38
467.61	95.38
467.829	101.38
468.049	97.38
468.268	83.38
468.488	97.38
468.707	95.38
468.927	93.38
469.146	72.38
469.365	99.38
469.585	98.38
469.804	87.38
470.023	85.38
470.243	88.38
470.462	79.38
470.681	100.38
470.901	95.38
471.12	92.38
471.339	89.38
471.558	86.38
471.777	88.38
471.997	90.38
472.216	89.38
472.435	79.38
472.654	79.38
472.873	92.38
473.092	91.38
473.311	90.38
473.53	92.38
473.749	82.38
473.968	100.38
474.187	92.38
474.406	95.38
474.625	81.38
474.844	84.38
475.063	88.38
475.282	92.38
475.501	83.38
475.72	74.38
475.939	87.38
476.158	85.38
476.377	100.38
476.596	103.38
476.814	107.38
477.033	107.38
477.252	91.38
477.471	92.38
477.69	84.38
477.908	102.38
478.127	98.38
478.346	91.38
478.564	87.38
478.783	103.38
479.002	96.38
479.22	93.38
479.439	85.38
479.658	91.38
479.876	83.38
480.095	85.38
480.313	100.38
480.532	92.38
480.751	88.38
480.969	83.38
481.188	84.38
481.406	78.38
481.624	73.38
481.843	70.38
482.061	79.38
482.28	87.38
482.498	99.38
482.717	81.38
482.935	82.38
483.153	105.38
483.372	84.38
483.59	101.38
483.808	94.38
484.027	108.38
484.245	95.38
484.463	76.38
484.681	99.38
484.9	101.38
485.118	81.38
485.336	101.38
485.554	99.38
485.772	85.38
485.99	71.38
486.209	77.38
486.427	91.38
486.645	96.38
486.863	84.38
487.081	104.38
487.299	81.38
487.517	112.38
487.735	101.38
487.953	118.38
488.171	109.38
488.389	110.38
488.607	96.38
488.825	97.38
489.043	108.38
489.261	94.38
489.479	84.38
489.696	102.38
489.914	102.38
490.132	87.38
490.35	105.38
490.568	103.38
490.786	100.38
491.003	104.38
491.221	111.38
491.439	103.38
491.657	100.38
491.874	118.38
492.092	121.38
492.31	131.38
492.527	130.38
492.745	139.38
492.963	122.38
493.18	113.38
493.398	119.38
493.615	118.38
493.833	103.38
494.05	114.38
494.268	111.38
494.485	95.38
494.703	118.38
494.92	104.38
495.138	101.38
495.355	113.38
495.573	109.38
495.79	95.38
496.008	100.38
496.225	112.38
496.442	110.38
496.66	101.38
496.877	105.38
497.094	110.38
497.312	109.38
497.529	100.38
497.746	100.38
497.963	109.38
498.181	103.38
498.398	80.38
498.615	84.38
498.832	93.38
499.049	107.38
499.267	93.38
499.484	85.38
499.701	97.38
499.918	106.38
500.135	104.38
500.352	104.38
500.569	103.38
500.786	111.38
501.003	113.38
501.22	98.38
501.437	102.38
501.654	102.38
501.871	98.38
502.088	85.38
502.305	98.38
502.522	91.38
502.739	87.38
502.956	89.38
503.172	102.38
503.389	85.38
503.606	79.38
503.823	88.38
504.04	97.38
504.256	96.38
504.473	78.38
504.69	94.38
504.907	105.38
505.123	87.38
505.34	106.38
505.557	111.38
505.773	90.38
505.99	93.38
506.207	101.38
506.423	88.38
506.64	97.38
506.856	94.38
507.073	96.38
507.289	95.38
507.506	89.38
507.722	102.38
507.939	93.38
508.155	97.38
508.372	89.38
508.588	96.38
508.805	93.38
509.021	89.38
509.238	98.38
509.454	80.38
509.67	73.38
509.887	86.38
510.103	88.38
510.319	80.38
510.536	95.38
510.752	88.38
510.968	83.38
511.184	79.38
511.401	77.38
511.617	73.38
511.833	81.38
512.049	75.38
512.265	79.38
512.481	92.38
512.698	95.38
512.914	84.38
513.13	71.38
513.346	85.38
513.562	82.38
513.778	88.38
513.994	89.38
514.21	73.38
514.426	87.38
514.642	87.38
514.858	89.38
515.074	93.38
515.29	88.38
515.506	89.38
515.721	85.38
515.937	84.38
516.153	82.38
516.369	84.38
516.585	78.38
516.801	79.38
517.016	83.38
517.232	77.38
517.448	76.38
517.664	91.38
517.879	91.38
518.095	84.38
518.311	81.38
518.527	83.38
518.742	88.38
518.958	96.38
519.173	73.38
519.389	85.38
519.605	79.38
519.82	94.38
520.036	86.38
520.251	91.38
520.467	79.38
520.682	79.38
520.898	92.38
521.113	87.38
521.329	74.38
521.544	71.38
521.76	84.38
521.975	89.38
522.19	91.38
522.406	101.38
522.621	80.38
522.836	81.38
523.052	81.38
523.267	107.38
523.482	92.38
523.698	78.38
523.913	83.38
524.128	86.38
524.343	91.38
524.559	91.38
524.774	85.38
524.989	82.38
525.204	82.38
525.419	79.38
525.634	80.38
525.849	92.38
526.064	88.38
526.28	96.38
526.495	77.38
526.71	90.38
526.925	81.38
527.14	77.38
527.355	78.38
527.57	86.38
527.785	85.38
527.999	74.38
528.214	74.38
528.429	101.38
528.644	99.38
528.859	88.38
529.074	104.38
529.289	91.38
529.503	102.38
529.718	102.38
529.933	92.38
530.148	89.38
530.363	86.38
530.577	93.38
530.792	71.38
531.007	75.38
531.221	88.38
531.436	80.38
531.651	80.38
531.865	79.38
532.08	80.38
532.295	77.38
532.509	77.38
532.724	72.38
532.938	91.38
533.153	88.38
533.367	86.38
533.582	80.38
533.796	101.38
534.011	93.38
534.225	84.38
534.44	82.38
534.654	84.38
534.868	87.38
535.083	85.38
535.297	85.38
535.511	83.38
535.726	86.38
535.94	104.38
536.154	80.38
536.369	82.38
536.583	81.38
536.797	72.38
537.011	83.38
537.225	77.38
537.44	92.38
537.654	105.38
537.868	80.38
538.082	103.38
538.296	77.38
538.51	89.38
538.724	107.38
538.938	74.38
539.153	105.38
539.367	92.38
539.581	88.38
539.795	87.38
540.009	83.38
540.222	89.38
540.436	87.38
540.65	101.38
540.864	78.38
541.078	94.38
541.292	98.38
541.506	109.38
541.72	113.38
541.934	110.38
542.147	116.38
542.361	111.38
542.575	103.38
542.789	82.38
543.002	77.38
543.216	97.38
543.43	98.38
543.644	114.38
543.857	95.38
544.071	89.38
544.285	109.38
544.498	111.38
544.712	98.38
544.925	117.38
545.139	107.38
545.352	103.38
545.566	119.38
545.779	94.38
545.993	115.38
546.206	102.38
546.42	109.38
546.633	120.38
546.847	114.38
547.06	93.38
547.274	109.38
547.487	98.38
547.7	109.38
547.914	113.38
548.127	115.38
548.34	105.38
548.554	123.38
548.767	110.38
548.98	100.38
549.193	99.38
549.407	96.38
549.62	100.38
549.833	95.38
550.046	100.38
550.259	103.38
550.473	102.38
550.686	115.38
550.899	99.38
551.112	93.38
551.325	99.38
551.538	103.38
551.751	93.38
551.964	81.38
552.177	110.38
552.39	95.38
552.603	85.38
552.816	90.38
553.029	102.38
553.242	106.38
553.455	103.38
553.667	104.38
553.88	98.38
554.093	95.38
554.306	103.38
554.519	104.38
554.732	107.38
554.944	102.38
555.157	87.38
555.37	93.38
555.583	94.38
555.795	109.38
556.008	85.38
556.221	95.38
556.433	107.38
556.646	103.38
556.859	103.38
557.071	117.38
557.284	94.38
557.496	94.38
557.709	92.38
557.921	95.38
558.134	91.38
558.346	108.38
558.559	104.38
558.771	107.38
558.984	98.38
559.196	100.38
559.409	97.38
559.621	113.38
559.833	90.38
560.046	100.38
560.258	86.38
560.47	108.38
560.683	94.38
560.895	109.38
561.107	95.38
561.32	95.38
561.532	103.38
561.744	94.38
561.956	91.38
562.168	86.38
562.381	95.38
562.593	112.38
562.805	99.38
563.017	91.38
563.229	89.38
563.441	89.38
563.653	108.38
563.865	107.38
564.077	88.38
564.289	94.38
564.501	81.38
564.713	102.38
564.925	87.38
565.137	95.38
565.349	99.38
565.561	97.38
565.773	92.38
565.985	94.38
566.197	90.38
566.408	88.38
566.62	86.38
566.832	82.38
567.044	102.38
567.255	91.38
567.467	90.38
567.679	93.38
567.891	86.38
568.102	96.38
568.314	82.38
568.526	76.38
568.737	83.38
568.949	92.38
569.161	89.38
569.372	81.38
569.584	81.38
569.795	73.38
570.007	81.38
570.218	84.38
570.43	80.38
570.641	84.38
570.853	92.38
571.064	93.38
571.276	84.38
571.487	77.38
571.698	96.38
571.91	97.38
572.121	88.38
572.333	77.38
572.544	89.38
572.755	92.38
572.966	82.38
573.178	89.38
573.389	86.38
573.6	83.38
573.811	79.38
574.023	73.38
574.234	73.38
574.445	95.38
574.656	78.38
574.867	78.38
575.078	93.38
575.289	88.38
575.501	81.38
575.712	77.38
575.923	84.38
576.134	76.38
576.345	89.38
576.556	86.38
576.767	81.38
576.978	85.38
577.188	79.38
577.399	85.38
577.61	82.38
577.821	77.38
578.032	89.38
578.243	79.38
578.454	84.38
578.665	87.38
578.875	87.38
579.086	84.38
579.297	65.38
579.508	77.38
579.718	75.38
579.929	101.38
580.14	79.38
580.35	60.38
580.561	78.38
580.772	78.38
580.982	83.38
581.193	84.38
581.403	80.38
581.614	93.38
581.825	88.38
582.035	86.38
582.246	73.38
582.456	86.38
582.667	79.38
582.877	69.38
583.087	76.38
583.298	89.38
583.508	81.38
583.719	83.38
583.929	88.38
584.139	79.38
584.35	79.38
584.56	79.38
584.77	74.38
584.981	77.38
585.191	95.38
585.401	91.38
585.611	85.38
585.821	77.38
586.032	80.38
586.242	90.38
586.452	80.38
586.662	78.38
586.872	86.38
587.082	81.38
587.292	70.38
587.502	72.38
587.713	75.38
587.923	82.38
588.133	84.38
588.343	89.38
588.553	71.38
588.762	83.38
588.972	85.38
589.182	77.38
589.392	72.38
589.602	75.38
589.812	87.38
590.022	74.38
590.232	73.38
590.441	91.38
590.651	86.38
590.861	81.38
591.071	88.38
591.281	88.38
591.49	91.38
591.7	85.38
591.91	81.38
592.119	94.38
592.329	69.38
592.539	76.38
592.748	82.38
592.958	81.38
593.167	87.38
593.377	71.38
593.587	74.38
593.796	81.38
594.006	68.38
594.215	88.38
594.424	91.38
594.634	85.38
594.843	79.38
595.053	73.38
595.262	81.38
595.472	77.38
595.681	69.38
595.89	83.38
596.1	86.38
596.309	67.38
596.518	95.38
596.727	75.38
596.937	90.38
597.146	100.38
597.355	90.38
597.564	69.38
597.774	75.38
597.983	77.38
598.192	79.38
598.401	89.38
598.61	85.38
598.819	86.38
599.028	88.38
599.237	79.38
599.446	77.38
599.655	76.38
599.864	75.38
600.073	82.38
600.282	87.38
600.491	76.38
600.7	81.38
600.909	87.38
601.118	88.38
601.327	87.38
601.536	83.38
601.745	85.38
601.953	88.38
602.162	93.38
602.371	91.38
602.58	82.38
602.789	83.38
602.997	76.38
603.206	89.38
603.415	84.38
603.623	83.38
603.832	77.38
604.041	91.38
604.249	75.38
604.458	87.38
604.666	80.38
604.875	97.38
605.084	84.38
605.292	84.38
605.501	93.38
605.709	85.38
605.918	103.38
606.126	94.38
606.334	88.38
606.543	104.38
606.751	109.38
606.96	91.38
607.168	85.38
607.376	93.38
607.585	87.38
607.793	83.38
608.001	93.38
608.21	83.38
608.418	72.38
608.626	85.38
608.834	92.38
609.043	99.38
609.251	88.38
609.459	83.38
609.667	95.38
609.875	75.38
610.083	91.38
610.291	102.38
610.499	94.38
610.707	100.38
610.916	89.38
611.124	105.38
611.332	94.38
611.54	90.38
611.748	97.38
611.955	89.38
612.163	84.38
612.371	91.38
612.579	103.38
612.787	101.38
612.995	86.38
613.203	101.38
613.411	84.38
613.618	86.38
613.826	88.38
614.034	87.38
614.242	85.38
614.449	89.38
614.657	87.38
614.865	84.38
615.072	82.38
615.28	94.38
615.488	80.38
615.695	77.38
615.903	96.38
616.111	80.38
616.318	82.38
616.526	91.38
616.733	81.38
616.941	78.38
617.148	86.38
617.356	104.38
617.563	86.38
617.771	100.38
617.978	83.38
618.185	98.38
618.393	85.38
618.6	83.38
618.807	84.38
619.015	91.38
619.222	81.38
619.429	91.38
619.637	84.38
619.844	97.38
620.051	96.38
620.258	80.38
620.466	91.38
620.673	91.38
620.88	89.38
621.087	96.38
621.294	96.38
621.501	95.38
621.708	90.38
621.915	86.38
622.122	76.38
622.329	85.38
622.536	96.38
622.743	97.38
622.95	89.38
623.157	96.38
623.364	86.38
623.571	108.38
623.778	77.38
623.985	87.38
624.192	80.38
624.399	88.38
624.606	78.38
624.812	89.38
625.019	83.38
625.226	87.38
625.433	102.38
625.639	77.38
625.846	84.38
626.053	59.38
626.259	79.38
626.466	89.38
626.673	77.38
626.879	93.38
627.086	80.38
627.293	70.38
627.499	91.38
627.706	85.38
627.912	78.38
628.119	78.38
628.325	88.38
628.532	93.38
628.738	84.38
628.945	76.38
629.151	69.38
629.357	95.38
629.564	79.38
629.77	71.38
629.976	91.38
630.183	85.38
630.389	85.38
630.595	81.38
630.802	83.38
631.008	73.38
631.214	90.38
631.42	93.38
631.627	88.38
631.833	72.38
632.039	83.38
632.245	76.38
632.451	91.38
632.657	91.38
632.863	90.38
633.069	89.38
633.275	80.38
633.481	84.38
633.688	84.38
633.893	88.38
634.099	77.38
634.305	89.38
634.511	80.38
634.717	70.38
634.923	85.38
635.129	81.38
635.335	89.38
635.541	103.38
635.747	97.38
635.952	109.38
636.158	89.38
636.364	95.38
636.57	86.38
636.775	77.38
636.981	96.38
637.187	78.38
637.392	79.38
637.598	91.38
637.804	83.38
638.009	85.38
638.215	89.38
638.421	75.38
638.626	91.38
638.832	86.38
639.037	84.38
639.243	62.38
639.448	80.38
639.654	70.38
639.859	85.38
640.065	86.38
640.27	87.38
640.475	80.38
640.681	92.38
640.886	84.38
641.091	79.38
641.297	96.38
641.502	95.38
641.707	85.38
641.913	93.38
642.118	85.38
642.323	90.38
642.528	94.38
642.733	88.38
642.939	87.38
643.144	88.38
643.349	95.38
643.554	90.38
643.759	72.38
643.964	94.38
644.169	93.38
644.374	74.38
644.579	80.38
644.784	98.38
644.989	88.38
645.194	88.38
645.399	89.38
645.604	83.38
645.809	84.38
646.014	67.38
646.219	92.38
646.423	86.38
646.628	98.38
646.833	94.38
647.038	82.38
647.243	95.38
647.447	77.38
647.652	77.38
647.857	80.38
648.062	77.38
648.266	79.38
648.471	85.38
648.676	88.38
648.88	85.38
649.085	79.38
649.289	79.38
649.494	85.38
649.698	75.38
649.903	95.38
650.107	84.38
650.312	79.38
650.516	82.38
650.721	88.38
650.925	92.38
651.13	101.38
651.334	79.38
651.539	75.38
651.743	69.38
651.947	78.38
652.152	77.38
652.356	82.38
652.56	89.38
652.764	83.38
652.969	94.38
653.173	79.38
653.377	77.38
653.581	86.38
653.785	73.38
653.99	89.38
654.194	84.38
654.398	77.38
654.602	80.38
654.806	78.38
655.01	85.38
655.214	88.38
655.418	94.38
655.622	77.38
655.826	86.38
656.03	93.38
656.234	78.38
656.438	91.38
656.642	96.38
656.846	71.38
657.049	76.38
657.253	88.38
657.457	83.38
657.661	86.38
657.865	86.38
658.068	85.38
658.272	71.38
658.476	85.38
658.68	89.38
658.883	84.38
659.087	87.38
659.291	80.38
659.494	87.38
659.698	82.38
659.901	87.38
660.105	71.38
660.309	75.38
660.512	79.38
660.716	71.38
660.919	67.38
661.123	67.38
661.326	79.38
661.53	80.38
661.733	93.38
661.936	86.38
662.14	73.38
662.343	95.38
662.546	70.38
662.75	84.38
662.953	86.38
663.156	81.38
663.36	84.38
663.563	73.38
663.766	82.38
663.969	76.38
664.173	83.38
664.376	80.38
664.579	78.38
664.782	82.38
664.985	87.38
665.188	72.38
665.391	71.38
665.594	72.38
665.797	77.38
666	82.38
666.203	89.38
666.406	84.38
666.609	77.38
666.812	72.38
667.015	75.38
667.218	71.38
667.421	79.38
667.624	72.38
667.827	74.38
668.03	85.38
668.232	78.38
668.435	77.38
668.638	83.38
668.841	77.38
669.043	72.38
669.246	80.38
669.449	74.38
669.651	77.38
669.854	72.38
670.057	64.38
670.259	68.38
670.462	87.38
670.665	72.38
670.867	83.38
671.07	79.38
671.272	78.38
671.475	88.38
671.677	90.38
671.88	82.38
672.082	85.38
672.284	94.38
672.487	79.38
672.689	76.38
672.892	79.38
