Data from Location4.07152019.Energy5.Lamp.07192019.3%Agarose_HRD10591_16-20-39-926.txt Node
Date: Fri Jul 19 16:20:39 EDT 2019
User: cochatt
Spectrometer: HR+D1059
Trigger mode: 1
Integration Time (sec): 1.000000E-1
Scans to average: 1
Electric dark correction enabled: true
Nonlinearity correction enabled: false
Boxcar width: 0
XAxis mode: Wavelengths
Number of Pixels in Spectrum: 2048
>>>>>Begin Spectral Data<<<<<
223.165	-18.31
223.4	-18.31
223.635	-18.31
223.869	-5.31
224.104	-18.31
224.338	-12.31
224.573	-28.31
224.808	-16.31
225.042	-9.31
225.277	-10.31
225.511	1.69
225.746	25.69
225.98	4.69
226.215	6.69
226.449	5.69
226.683	18.69
226.918	22.69
227.152	32.69
227.387	38.69
227.621	32.69
227.856	35.69
228.09	40.69
228.324	38.69
228.559	50.69
228.793	48.69
229.027	73.69
229.262	73.69
229.496	66.69
229.73	61.69
229.964	64.69
230.199	90.69
230.433	72.69
230.667	76.69
230.901	78.69
231.136	68.69
231.37	74.69
231.604	70.69
231.838	83.69
232.072	78.69
232.306	64.69
232.541	90.69
232.775	85.69
233.009	72.69
233.243	73.69
233.477	89.69
233.711	83.69
233.945	73.69
234.179	85.69
234.413	59.69
234.647	72.69
234.881	78.69
235.115	95.69
235.349	80.69
235.583	87.69
235.817	71.69
236.051	79.69
236.285	79.69
236.519	68.69
236.753	84.69
236.987	84.69
237.221	82.69
237.455	74.69
237.689	86.69
237.922	84.69
238.156	73.69
238.39	58.69
238.624	71.69
238.858	72.69
239.091	71.69
239.325	73.69
239.559	78.69
239.793	70.69
240.027	67.69
240.26	75.69
240.494	86.69
240.728	73.69
240.961	88.69
241.195	80.69
241.429	85.69
241.662	88.69
241.896	84.69
242.13	87.69
242.363	69.69
242.597	72.69
242.83	79.69
243.064	92.69
243.298	88.69
243.531	78.69
243.765	81.69
243.998	78.69
244.232	89.69
244.465	82.69
244.699	84.69
244.932	65.69
245.166	77.69
245.399	82.69
245.633	71.69
245.866	78.69
246.099	86.69
246.333	77.69
246.566	78.69
246.8	76.69
247.033	71.69
247.266	68.69
247.5	67.69
247.733	76.69
247.966	88.69
248.2	73.69
248.433	88.69
248.666	74.69
248.899	87.69
249.133	87.69
249.366	78.69
249.599	73.69
249.832	81.69
250.066	76.69
250.299	69.69
250.532	75.69
250.765	77.69
250.998	91.69
251.231	73.69
251.465	73.69
251.698	69.69
251.931	89.69
252.164	96.69
252.397	84.69
252.63	85.69
252.863	71.69
253.096	85.69
253.329	90.69
253.562	69.69
253.795	89.69
254.028	78.69
254.261	79.69
254.494	75.69
254.727	82.69
254.96	82.69
255.193	85.69
255.426	79.69
255.659	76.69
255.892	91.69
256.124	91.69
256.357	78.69
256.59	95.69
256.823	78.69
257.056	78.69
257.289	70.69
257.521	81.69
257.754	82.69
257.987	85.69
258.22	91.69
258.452	77.69
258.685	84.69
258.918	87.69
259.151	67.69
259.383	87.69
259.616	77.69
259.849	78.69
260.081	73.69
260.314	97.69
260.547	83.69
260.779	89.69
261.012	83.69
261.244	92.69
261.477	75.69
261.71	79.69
261.942	89.69
262.175	79.69
262.407	69.69
262.64	74.69
262.872	71.69
263.105	73.69
263.337	82.69
263.57	77.69
263.802	78.69
264.035	82.69
264.267	85.69
264.499	75.69
264.732	85.69
264.964	64.69
265.197	65.69
265.429	84.69
265.661	82.69
265.894	94.69
266.126	100.69
266.358	76.69
266.591	76.69
266.823	84.69
267.055	76.69
267.287	74.69
267.52	92.69
267.752	83.69
267.984	89.69
268.216	87.69
268.448	76.69
268.681	84.69
268.913	90.69
269.145	93.69
269.377	85.69
269.609	75.69
269.841	86.69
270.073	95.69
270.306	75.69
270.538	75.69
270.77	84.69
271.002	68.69
271.234	65.69
271.466	88.69
271.698	89.69
271.93	87.69
272.162	82.69
272.394	84.69
272.626	66.69
272.858	77.69
273.09	74.69
273.322	86.69
273.553	82.69
273.785	92.69
274.017	74.69
274.249	92.69
274.481	80.69
274.713	88.69
274.945	91.69
275.176	75.69
275.408	105.69
275.64	82.69
275.872	78.69
276.104	88.69
276.335	86.69
276.567	80.69
276.799	92.69
277.031	84.69
277.262	87.69
277.494	81.69
277.726	79.69
277.957	75.69
278.189	97.69
278.421	85.69
278.652	90.69
278.884	84.69
279.115	80.69
279.347	89.69
279.579	82.69
279.81	78.69
280.042	85.69
280.273	82.69
280.505	77.69
280.736	84.69
280.968	86.69
281.199	89.69
281.431	80.69
281.662	84.69
281.894	86.69
282.125	89.69
282.356	87.69
282.588	92.69
282.819	83.69
283.051	81.69
283.282	84.69
283.513	96.69
283.745	77.69
283.976	88.69
284.207	92.69
284.439	77.69
284.67	97.69
284.901	77.69
285.132	82.69
285.364	91.69
285.595	88.69
285.826	104.69
286.057	95.69
286.288	80.69
286.52	77.69
286.751	60.69
286.982	84.69
287.213	72.69
287.444	94.69
287.675	80.69
287.906	71.69
288.138	78.69
288.369	95.69
288.6	80.69
288.831	85.69
289.062	84.69
289.293	84.69
289.524	82.69
289.755	88.69
289.986	76.69
290.217	97.69
290.448	94.69
290.679	82.69
290.91	80.69
291.141	73.69
291.371	76.69
291.602	82.69
291.833	86.69
292.064	96.69
292.295	90.69
292.526	86.69
292.757	84.69
292.987	80.69
293.218	92.69
293.449	76.69
293.68	82.69
293.91	88.69
294.141	78.69
294.372	75.69
294.603	89.69
294.833	84.69
295.064	80.69
295.295	89.69
295.525	93.69
295.756	68.69
295.987	78.69
296.217	87.69
296.448	80.69
296.679	95.69
296.909	78.69
297.14	85.69
297.37	72.69
297.601	88.69
297.831	76.69
298.062	91.69
298.292	83.69
298.523	84.69
298.753	77.69
298.984	83.69
299.214	71.69
299.445	83.69
299.675	87.69
299.905	88.69
300.136	82.69
300.366	86.69
300.597	89.69
300.827	86.69
301.057	86.69
301.288	101.69
301.518	73.69
301.748	84.69
301.979	86.69
302.209	86.69
302.439	84.69
302.669	78.69
302.9	91.69
303.13	73.69
303.36	93.69
303.59	85.69
303.82	78.69
304.051	98.69
304.281	92.69
304.511	95.69
304.741	74.69
304.971	67.69
305.201	84.69
305.431	93.69
305.661	70.69
305.891	89.69
306.121	91.69
306.352	81.69
306.582	67.69
306.812	77.69
307.042	76.69
307.272	78.69
307.502	80.69
307.731	76.69
307.961	93.69
308.191	82.69
308.421	81.69
308.651	90.69
308.881	77.69
309.111	76.69
309.341	78.69
309.571	76.69
309.8	83.69
310.03	84.69
310.26	78.69
310.49	83.69
310.72	84.69
310.949	84.69
311.179	85.69
311.409	80.69
311.639	93.69
311.868	83.69
312.098	85.69
312.328	81.69
312.557	73.69
312.787	89.69
313.017	80.69
313.246	83.69
313.476	89.69
313.706	76.69
313.935	95.69
314.165	75.69
314.394	86.69
314.624	98.69
314.853	77.69
315.083	77.69
315.312	89.69
315.542	89.69
315.771	82.69
316.001	69.69
316.23	78.69
316.46	97.69
316.689	79.69
316.919	78.69
317.148	91.69
317.377	88.69
317.607	76.69
317.836	96.69
318.065	72.69
318.295	85.69
318.524	80.69
318.753	83.69
318.983	80.69
319.212	82.69
319.441	88.69
319.67	97.69
319.9	96.69
320.129	90.69
320.358	75.69
320.587	93.69
320.816	67.69
321.046	85.69
321.275	98.69
321.504	89.69
321.733	82.69
321.962	107.69
322.191	84.69
322.42	91.69
322.649	78.69
322.878	89.69
323.108	85.69
323.337	87.69
323.566	89.69
323.795	78.69
324.024	92.69
324.253	85.69
324.482	96.69
324.71	69.69
324.939	89.69
325.168	96.69
325.397	81.69
325.626	85.69
325.855	96.69
326.084	81.69
326.313	94.69
326.542	88.69
326.77	98.69
326.999	81.69
327.228	83.69
327.457	71.69
327.686	87.69
327.914	79.69
328.143	94.69
328.372	88.69
328.6	93.69
328.829	86.69
329.058	79.69
329.287	84.69
329.515	84.69
329.744	84.69
329.972	66.69
330.201	92.69
330.43	77.69
330.658	86.69
330.887	72.69
331.115	90.69
331.344	85.69
331.572	96.69
331.801	91.69
332.03	90.69
332.258	72.69
332.486	76.69
332.715	89.69
332.943	81.69
333.172	84.69
333.4	98.69
333.629	85.69
333.857	76.69
334.085	83.69
334.314	90.69
334.542	88.69
334.771	73.69
334.999	82.69
335.227	81.69
335.455	82.69
335.684	106.69
335.912	93.69
336.14	88.69
336.369	73.69
336.597	86.69
336.825	89.69
337.053	80.69
337.281	87.69
337.51	100.69
337.738	78.69
337.966	92.69
338.194	88.69
338.422	85.69
338.65	77.69
338.878	96.69
339.106	85.69
339.334	87.69
339.562	68.69
339.79	83.69
340.018	94.69
340.246	92.69
340.474	81.69
340.702	80.69
340.93	91.69
341.158	87.69
341.386	78.69
341.614	80.69
341.842	94.69
342.07	93.69
342.298	87.69
342.526	92.69
342.754	86.69
342.981	72.69
343.209	85.69
343.437	77.69
343.665	77.69
343.893	86.69
344.12	85.69
344.348	87.69
344.576	88.69
344.804	76.69
345.031	85.69
345.259	79.69
345.487	74.69
345.714	68.69
345.942	87.69
346.17	82.69
346.397	83.69
346.625	90.69
346.853	67.69
347.08	83.69
347.308	96.69
347.535	73.69
347.763	72.69
347.99	75.69
348.218	93.69
348.445	76.69
348.673	85.69
348.9	79.69
349.128	92.69
349.355	92.69
349.583	84.69
349.81	83.69
350.037	81.69
350.265	78.69
350.492	90.69
350.72	97.69
350.947	96.69
351.174	82.69
351.402	83.69
351.629	72.69
351.856	81.69
352.083	76.69
352.311	81.69
352.538	78.69
352.765	82.69
352.992	85.69
353.22	87.69
353.447	94.69
353.674	95.69
353.901	82.69
354.128	77.69
354.355	79.69
354.583	98.69
354.81	82.69
355.037	82.69
355.264	85.69
355.491	75.69
355.718	88.69
355.945	88.69
356.172	78.69
356.399	82.69
356.626	87.69
356.853	90.69
357.08	92.69
357.307	96.69
357.534	78.69
357.761	90.69
357.988	85.69
358.215	99.69
358.441	88.69
358.668	74.69
358.895	80.69
359.122	73.69
359.349	91.69
359.576	87.69
359.802	88.69
360.029	75.69
360.256	81.69
360.483	75.69
360.709	84.69
360.936	94.69
361.163	79.69
361.39	82.69
361.616	77.69
361.843	93.69
362.07	81.69
362.296	78.69
362.523	77.69
362.749	64.69
362.976	87.69
363.203	72.69
363.429	87.69
363.656	85.69
363.882	93.69
364.109	88.69
364.335	80.69
364.562	78.69
364.788	84.69
365.015	77.69
365.241	87.69
365.468	84.69
365.694	88.69
365.92	77.69
366.147	91.69
366.373	85.69
366.599	84.69
366.826	92.69
367.052	103.69
367.278	98.69
367.505	94.69
367.731	86.69
367.957	82.69
368.184	82.69
368.41	85.69
368.636	97.69
368.862	105.69
369.089	86.69
369.315	92.69
369.541	78.69
369.767	74.69
369.993	85.69
370.219	100.69
370.445	73.69
370.672	88.69
370.898	83.69
371.124	99.69
371.35	85.69
371.576	96.69
371.802	86.69
372.028	91.69
372.254	96.69
372.48	90.69
372.706	86.69
372.932	75.69
373.158	90.69
373.384	90.69
373.61	87.69
373.835	92.69
374.061	96.69
374.287	92.69
374.513	86.69
374.739	100.69
374.965	84.69
375.191	89.69
375.416	98.69
375.642	91.69
375.868	89.69
376.094	104.69
376.319	90.69
376.545	90.69
376.771	97.69
376.997	93.69
377.222	104.69
377.448	89.69
377.674	91.69
377.899	96.69
378.125	101.69
378.35	98.69
378.576	97.69
378.802	107.69
379.027	86.69
379.253	89.69
379.478	88.69
379.704	92.69
379.929	84.69
380.155	90.69
380.38	82.69
380.606	91.69
380.831	87.69
381.057	98.69
381.282	101.69
381.507	92.69
381.733	97.69
381.958	78.69
382.184	87.69
382.409	87.69
382.634	106.69
382.86	82.69
383.085	93.69
383.31	105.69
383.535	99.69
383.761	82.69
383.986	101.69
384.211	90.69
384.436	88.69
384.662	90.69
384.887	87.69
385.112	99.69
385.337	90.69
385.562	90.69
385.787	96.69
386.013	100.69
386.238	94.69
386.463	112.69
386.688	91.69
386.913	102.69
387.138	99.69
387.363	96.69
387.588	102.69
387.813	92.69
388.038	88.69
388.263	108.69
388.488	100.69
388.713	103.69
388.938	107.69
389.163	103.69
389.387	97.69
389.612	101.69
389.837	94.69
390.062	104.69
390.287	109.69
390.512	97.69
390.736	107.69
390.961	93.69
391.186	100.69
391.411	87.69
391.636	91.69
391.86	90.69
392.085	120.69
392.31	97.69
392.534	94.69
392.759	94.69
392.984	105.69
393.208	104.69
393.433	112.69
393.658	105.69
393.882	105.69
394.107	97.69
394.331	93.69
394.556	109.69
394.78	104.69
395.005	78.69
395.229	119.69
395.454	105.69
395.678	109.69
395.903	108.69
396.127	119.69
396.352	105.69
396.576	108.69
396.801	114.69
397.025	105.69
397.249	109.69
397.474	109.69
397.698	111.69
397.922	108.69
398.147	102.69
398.371	121.69
398.595	120.69
398.82	105.69
399.044	112.69
399.268	103.69
399.492	103.69
399.717	120.69
399.941	98.69
400.165	93.69
400.389	105.69
400.613	106.69
400.837	113.69
401.062	102.69
401.286	112.69
401.51	94.69
401.734	108.69
401.958	108.69
402.182	118.69
402.406	114.69
402.63	112.69
402.854	106.69
403.078	113.69
403.302	110.69
403.526	108.69
403.75	125.69
403.974	109.69
404.198	118.69
404.422	107.69
404.645	114.69
404.869	105.69
405.093	116.69
405.317	114.69
405.541	97.69
405.765	124.69
405.988	108.69
406.212	120.69
406.436	99.69
406.66	124.69
406.883	132.69
407.107	106.69
407.331	105.69
407.555	124.69
407.778	107.69
408.002	119.69
408.226	112.69
408.449	124.69
408.673	113.69
408.896	106.69
409.12	114.69
409.344	117.69
409.567	122.69
409.791	110.69
410.014	125.69
410.238	113.69
410.461	104.69
410.685	109.69
410.908	127.69
411.132	124.69
411.355	107.69
411.578	114.69
411.802	116.69
412.025	116.69
412.249	122.69
412.472	115.69
412.695	132.69
412.919	109.69
413.142	110.69
413.365	118.69
413.589	124.69
413.812	122.69
414.035	115.69
414.258	103.69
414.482	110.69
414.705	107.69
414.928	125.69
415.151	103.69
415.374	121.69
415.597	122.69
415.821	116.69
416.044	123.69
416.267	115.69
416.49	122.69
416.713	128.69
416.936	134.69
417.159	114.69
417.382	126.69
417.605	130.69
417.828	118.69
418.051	135.69
418.274	122.69
418.497	127.69
418.72	118.69
418.943	143.69
419.166	128.69
419.389	124.69
419.611	138.69
419.834	148.69
420.057	142.69
420.28	123.69
420.503	125.69
420.726	122.69
420.948	123.69
421.171	125.69
421.394	143.69
421.617	140.69
421.839	157.69
422.062	142.69
422.285	120.69
422.507	134.69
422.73	128.69
422.953	141.69
423.175	128.69
423.398	120.69
423.621	116.69
423.843	126.69
424.066	134.69
424.288	128.69
424.511	140.69
424.733	146.69
424.956	144.69
425.178	134.69
425.401	132.69
425.623	131.69
425.846	105.69
426.068	141.69
426.291	116.69
426.513	124.69
426.735	120.69
426.958	122.69
427.18	118.69
427.402	127.69
427.625	128.69
427.847	149.69
428.069	130.69
428.292	126.69
428.514	133.69
428.736	102.69
428.958	112.69
429.181	110.69
429.403	109.69
429.625	125.69
429.847	135.69
430.069	123.69
430.292	136.69
430.514	138.69
430.736	144.69
430.958	139.69
431.18	140.69
431.402	132.69
431.624	121.69
431.846	107.69
432.068	92.69
432.29	99.69
432.512	128.69
432.734	120.69
432.956	134.69
433.178	132.69
433.4	121.69
433.622	124.69
433.844	133.69
434.066	130.69
434.287	106.69
434.509	101.69
434.731	88.69
434.953	120.69
435.175	118.69
435.397	115.69
435.618	126.69
435.84	90.69
436.062	104.69
436.284	126.69
436.505	124.69
436.727	123.69
436.949	149.69
437.17	142.69
437.392	132.69
437.614	127.69
437.835	131.69
438.057	116.69
438.278	120.69
438.5	121.69
438.721	125.69
438.943	147.69
439.165	133.69
439.386	139.69
439.608	132.69
439.829	130.69
440.05	146.69
440.272	147.69
440.493	148.69
440.715	144.69
440.936	131.69
441.158	144.69
441.379	141.69
441.6	127.69
441.822	143.69
442.043	147.69
442.264	138.69
442.486	137.69
442.707	134.69
442.928	138.69
443.149	137.69
443.371	140.69
443.592	153.69
443.813	130.69
444.034	136.69
444.255	132.69
444.476	136.69
444.698	129.69
444.919	136.69
445.14	274.69
445.361	201.69
445.582	148.69
445.803	143.69
446.024	147.69
446.245	153.69
446.466	145.69
446.687	152.69
446.908	160.69
447.129	151.69
447.35	150.69
447.571	146.69
447.792	125.69
448.013	156.69
448.234	150.69
448.455	129.69
448.675	149.69
448.896	124.69
449.117	132.69
449.338	119.69
449.559	134.69
449.779	134.69
450	123.69
450.221	137.69
450.442	141.69
450.662	147.69
450.883	142.69
451.104	126.69
451.324	125.69
451.545	128.69
451.766	144.69
451.986	122.69
452.207	124.69
452.428	121.69
452.648	130.69
452.869	113.69
453.089	120.69
453.31	106.69
453.53	101.69
453.751	110.69
453.971	109.69
454.192	107.69
454.412	107.69
454.633	112.69
454.853	124.69
455.073	123.69
455.294	117.69
455.514	120.69
455.734	119.69
455.955	117.69
456.175	122.69
456.395	105.69
456.616	107.69
456.836	103.69
457.056	108.69
457.276	112.69
457.497	114.69
457.717	116.69
457.937	107.69
458.157	109.69
458.377	113.69
458.598	103.69
458.818	92.69
459.038	90.69
459.258	86.69
459.478	91.69
459.698	93.69
459.918	99.69
460.138	103.69
460.358	105.69
460.578	105.69
460.798	121.69
461.018	124.69
461.238	122.69
461.458	109.69
461.678	119.69
461.898	126.69
462.118	109.69
462.338	113.69
462.558	110.69
462.777	104.69
462.997	116.69
463.217	112.69
463.437	120.69
463.657	103.69
463.876	105.69
464.096	101.69
464.316	114.69
464.536	112.69
464.755	116.69
464.975	108.69
465.195	103.69
465.414	106.69
465.634	112.69
465.854	113.69
466.073	129.69
466.293	124.69
466.512	118.69
466.732	138.69
466.951	122.69
467.171	120.69
467.391	138.69
467.61	125.69
467.829	131.69
468.049	140.69
468.268	135.69
468.488	127.69
468.707	133.69
468.927	122.69
469.146	132.69
469.365	121.69
469.585	128.69
469.804	124.69
470.023	122.69
470.243	141.69
470.462	141.69
470.681	138.69
470.901	142.69
471.12	134.69
471.339	135.69
471.558	139.69
471.777	136.69
471.997	136.69
472.216	134.69
472.435	115.69
472.654	102.69
472.873	110.69
473.092	120.69
473.311	117.69
473.53	120.69
473.749	126.69
473.968	132.69
474.187	121.69
474.406	125.69
474.625	130.69
474.844	145.69
475.063	127.69
475.282	130.69
475.501	130.69
475.72	128.69
475.939	114.69
476.158	128.69
476.377	124.69
476.596	120.69
476.814	112.69
477.033	112.69
477.252	118.69
477.471	112.69
477.69	124.69
477.908	140.69
478.127	133.69
478.346	138.69
478.564	127.69
478.783	141.69
479.002	134.69
479.22	133.69
479.439	124.69
479.658	121.69
479.876	114.69
480.095	105.69
480.313	116.69
480.532	122.69
480.751	108.69
480.969	102.69
481.188	90.69
481.406	84.69
481.624	92.69
481.843	94.69
482.061	89.69
482.28	111.69
482.498	118.69
482.717	87.69
482.935	124.69
483.153	137.69
483.372	158.69
483.59	152.69
483.808	126.69
484.027	120.69
484.245	121.69
484.463	150.69
484.681	154.69
484.9	162.69
485.118	133.69
485.336	117.69
485.554	116.69
485.772	117.69
485.99	102.69
486.209	98.69
486.427	117.69
486.645	113.69
486.863	130.69
487.081	119.69
487.299	124.69
487.517	120.69
487.735	158.69
487.953	178.69
488.171	185.69
488.389	180.69
488.607	162.69
488.825	150.69
489.043	114.69
489.261	130.69
489.479	120.69
489.696	146.69
489.914	140.69
490.132	151.69
490.35	152.69
490.568	159.69
490.786	169.69
491.003	158.69
491.221	184.69
491.439	181.69
491.657	186.69
491.874	208.69
492.092	212.69
492.31	244.69
492.527	233.69
492.745	190.69
492.963	188.69
493.18	186.69
493.398	166.69
493.615	171.69
493.833	167.69
494.05	181.69
494.268	172.69
494.485	173.69
494.703	180.69
494.92	173.69
495.138	165.69
495.355	181.69
495.573	154.69
495.79	165.69
496.008	169.69
496.225	160.69
496.442	164.69
496.66	157.69
496.877	161.69
497.094	155.69
497.312	178.69
497.529	176.69
497.746	131.69
497.963	134.69
498.181	132.69
498.398	118.69
498.615	125.69
498.832	114.69
499.049	126.69
499.267	116.69
499.484	130.69
499.701	128.69
499.918	133.69
500.135	134.69
500.352	143.69
500.569	137.69
500.786	132.69
501.003	141.69
501.22	128.69
501.437	134.69
501.654	127.69
501.871	136.69
502.088	130.69
502.305	134.69
502.522	119.69
502.739	138.69
502.956	127.69
503.172	138.69
503.389	126.69
503.606	122.69
503.823	122.69
504.04	107.69
504.256	120.69
504.473	126.69
504.69	114.69
504.907	121.69
505.123	127.69
505.34	136.69
505.557	119.69
505.773	129.69
505.99	114.69
506.207	125.69
506.423	128.69
506.64	112.69
506.856	103.69
507.073	117.69
507.289	112.69
507.506	121.69
507.722	125.69
507.939	101.69
508.155	112.69
508.372	122.69
508.588	125.69
508.805	112.69
509.021	114.69
509.238	100.69
509.454	95.69
509.67	99.69
509.887	109.69
510.103	94.69
510.319	92.69
510.536	94.69
510.752	86.69
510.968	78.69
511.184	90.69
511.401	77.69
511.617	73.69
511.833	94.69
512.049	104.69
512.265	81.69
512.481	96.69
512.698	111.69
512.914	107.69
513.13	101.69
513.346	92.69
513.562	90.69
513.778	84.69
513.994	81.69
514.21	89.69
514.426	90.69
514.642	98.69
514.858	87.69
515.074	85.69
515.29	83.69
515.506	85.69
515.721	87.69
515.937	90.69
516.153	86.69
516.369	82.69
516.585	84.69
516.801	90.69
517.016	87.69
517.232	98.69
517.448	96.69
517.664	83.69
517.879	102.69
518.095	100.69
518.311	102.69
518.527	93.69
518.742	92.69
518.958	86.69
519.173	102.69
519.389	103.69
519.605	122.69
519.82	111.69
520.036	101.69
520.251	116.69
520.467	100.69
520.682	96.69
520.898	117.69
521.113	104.69
521.329	81.69
521.544	96.69
521.76	112.69
521.975	101.69
522.19	94.69
522.406	102.69
522.621	94.69
522.836	95.69
523.052	107.69
523.267	107.69
523.482	117.69
523.698	101.69
523.913	124.69
524.128	124.69
524.343	117.69
524.559	128.69
524.774	129.69
524.989	116.69
525.204	109.69
525.419	120.69
525.634	108.69
525.849	101.69
526.064	104.69
526.28	102.69
526.495	92.69
526.71	106.69
526.925	94.69
527.14	102.69
527.355	79.69
527.57	79.69
527.785	94.69
527.999	90.69
528.214	101.69
528.429	102.69
528.644	123.69
528.859	128.69
529.074	132.69
529.289	162.69
529.503	158.69
529.718	137.69
529.933	112.69
530.148	113.69
530.363	101.69
530.577	94.69
530.792	78.69
531.007	94.69
531.221	84.69
531.436	82.69
531.651	87.69
531.865	80.69
532.08	82.69
532.295	77.69
532.509	83.69
532.724	93.69
532.938	93.69
533.153	98.69
533.367	116.69
533.582	112.69
533.796	108.69
534.011	104.69
534.225	96.69
534.44	81.69
534.654	91.69
534.868	99.69
535.083	106.69
535.297	93.69
535.511	101.69
535.726	97.69
535.94	115.69
536.154	99.69
536.369	98.69
536.583	96.69
536.797	91.69
537.011	90.69
537.225	82.69
537.44	67.69
537.654	101.69
537.868	96.69
538.082	98.69
538.296	97.69
538.51	109.69
538.724	100.69
538.938	116.69
539.153	128.69
539.367	138.69
539.581	115.69
539.795	91.69
540.009	94.69
540.222	91.69
540.436	100.69
540.65	126.69
540.864	121.69
541.078	129.69
541.292	148.69
541.506	173.69
541.72	184.69
541.934	171.69
542.147	193.69
542.361	179.69
542.575	150.69
542.789	142.69
543.002	136.69
543.216	121.69
543.43	114.69
543.644	134.69
543.857	147.69
544.071	152.69
544.285	148.69
544.498	152.69
544.712	137.69
544.925	139.69
545.139	160.69
545.352	153.69
545.566	142.69
545.779	150.69
545.993	161.69
546.206	171.69
546.42	164.69
546.633	150.69
546.847	158.69
547.06	152.69
547.274	161.69
547.487	154.69
547.7	158.69
547.914	172.69
548.127	169.69
548.34	141.69
548.554	164.69
548.767	149.69
548.98	146.69
549.193	148.69
549.407	160.69
549.62	160.69
549.833	150.69
550.046	164.69
550.259	157.69
550.473	146.69
550.686	149.69
550.899	141.69
551.112	148.69
551.325	139.69
551.538	140.69
551.751	126.69
551.964	126.69
552.177	132.69
552.39	143.69
552.603	148.69
552.816	141.69
553.029	162.69
553.242	152.69
553.455	141.69
553.667	152.69
553.88	153.69
554.093	147.69
554.306	148.69
554.519	147.69
554.732	143.69
554.944	151.69
555.157	151.69
555.37	148.69
555.583	138.69
555.795	132.69
556.008	140.69
556.221	125.69
556.433	118.69
556.646	140.69
556.859	146.69
557.071	130.69
557.284	128.69
557.496	137.69
557.709	136.69
557.921	138.69
558.134	133.69
558.346	131.69
558.559	138.69
558.771	125.69
558.984	129.69
559.196	143.69
559.409	127.69
559.621	135.69
559.833	122.69
560.046	120.69
560.258	122.69
560.47	119.69
560.683	128.69
560.895	131.69
561.107	138.69
561.32	122.69
561.532	140.69
561.744	120.69
561.956	121.69
562.168	139.69
562.381	127.69
562.593	121.69
562.805	137.69
563.017	114.69
563.229	121.69
563.441	124.69
563.653	126.69
563.865	124.69
564.077	122.69
564.289	128.69
564.501	112.69
564.713	121.69
564.925	121.69
565.137	118.69
565.349	125.69
565.561	123.69
565.773	105.69
565.985	117.69
566.197	114.69
566.408	119.69
566.62	113.69
566.832	113.69
567.044	128.69
567.255	111.69
567.467	118.69
567.679	106.69
567.891	103.69
568.102	102.69
568.314	98.69
568.526	93.69
568.737	80.69
568.949	74.69
569.161	98.69
569.372	82.69
569.584	94.69
569.795	84.69
570.007	73.69
570.218	94.69
570.43	95.69
570.641	100.69
570.853	112.69
571.064	108.69
571.276	121.69
571.487	102.69
571.698	106.69
571.91	108.69
572.121	113.69
572.333	98.69
572.544	101.69
572.755	97.69
572.966	83.69
573.178	82.69
573.389	87.69
573.6	81.69
573.811	95.69
574.023	94.69
574.234	91.69
574.445	82.69
574.656	101.69
574.867	90.69
575.078	91.69
575.289	97.69
575.501	98.69
575.712	94.69
575.923	92.69
576.134	77.69
576.345	97.69
576.556	112.69
576.767	104.69
576.978	97.69
577.188	98.69
577.399	106.69
577.61	90.69
577.821	91.69
578.032	102.69
578.243	98.69
578.454	90.69
578.665	89.69
578.875	89.69
579.086	100.69
579.297	79.69
579.508	89.69
579.718	88.69
579.929	96.69
580.14	86.69
580.35	84.69
580.561	84.69
580.772	85.69
580.982	87.69
581.193	102.69
581.403	97.69
581.614	112.69
581.825	93.69
582.035	80.69
582.246	89.69
582.456	78.69
582.667	96.69
582.877	88.69
583.087	88.69
583.298	89.69
583.508	82.69
583.719	76.69
583.929	86.69
584.139	91.69
584.35	88.69
584.56	96.69
584.77	107.69
584.981	87.69
585.191	99.69
585.401	101.69
585.611	101.69
585.821	97.69
586.032	72.69
586.242	88.69
586.452	82.69
586.662	89.69
586.872	94.69
587.082	89.69
587.292	75.69
587.502	97.69
587.713	81.69
587.923	80.69
588.133	91.69
588.343	86.69
588.553	76.69
588.762	96.69
588.972	83.69
589.182	86.69
589.392	98.69
589.602	72.69
589.812	88.69
590.022	93.69
590.232	86.69
590.441	89.69
590.651	81.69
590.861	91.69
591.071	65.69
591.281	83.69
591.49	75.69
591.7	91.69
591.91	97.69
592.119	65.69
592.329	91.69
592.539	83.69
592.748	89.69
592.958	96.69
593.167	84.69
593.377	98.69
593.587	112.69
593.796	94.69
594.006	84.69
594.215	84.69
594.424	91.69
594.634	89.69
594.843	91.69
595.053	100.69
595.262	88.69
595.472	89.69
595.681	95.69
595.89	78.69
596.1	98.69
596.309	98.69
596.518	79.69
596.727	105.69
596.937	99.69
597.146	103.69
597.355	101.69
597.564	98.69
597.774	87.69
597.983	93.69
598.192	84.69
598.401	77.69
598.61	80.69
598.819	99.69
599.028	85.69
599.237	101.69
599.446	106.69
599.655	102.69
599.864	100.69
600.073	95.69
600.282	92.69
600.491	89.69
600.7	84.69
600.909	89.69
601.118	107.69
601.327	98.69
601.536	107.69
601.745	107.69
601.953	94.69
602.162	103.69
602.371	112.69
602.58	120.69
602.789	112.69
602.997	109.69
603.206	96.69
603.415	109.69
603.623	108.69
603.832	122.69
604.041	110.69
604.249	105.69
604.458	104.69
604.666	105.69
604.875	98.69
605.084	107.69
605.292	92.69
605.501	118.69
605.709	108.69
605.918	114.69
606.126	121.69
606.334	91.69
606.543	101.69
606.751	113.69
606.96	116.69
607.168	112.69
607.376	123.69
607.585	104.69
607.793	105.69
608.001	112.69
608.21	107.69
608.418	121.69
608.626	105.69
608.834	112.69
609.043	107.69
609.251	112.69
609.459	95.69
609.667	118.69
609.875	133.69
610.083	111.69
610.291	116.69
610.499	113.69
610.707	137.69
610.916	114.69
611.124	124.69
611.332	96.69
611.54	110.69
611.748	98.69
611.955	103.69
612.163	108.69
612.371	102.69
612.579	86.69
612.787	108.69
612.995	114.69
613.203	118.69
613.411	110.69
613.618	115.69
613.826	100.69
614.034	118.69
614.242	119.69
614.449	109.69
614.657	114.69
614.865	114.69
615.072	123.69
615.28	92.69
615.488	118.69
615.695	103.69
615.903	100.69
616.111	108.69
616.318	103.69
616.526	114.69
616.733	98.69
616.941	114.69
617.148	114.69
617.356	116.69
617.563	122.69
617.771	106.69
617.978	110.69
618.185	105.69
618.393	125.69
618.6	101.69
618.807	105.69
619.015	105.69
619.222	99.69
619.429	113.69
619.637	100.69
619.844	102.69
620.051	114.69
620.258	112.69
620.466	126.69
620.673	128.69
620.88	117.69
621.087	116.69
621.294	107.69
621.501	100.69
621.708	103.69
621.915	96.69
622.122	105.69
622.329	86.69
622.536	112.69
622.743	107.69
622.95	107.69
623.157	100.69
623.364	93.69
623.571	128.69
623.778	106.69
623.985	105.69
624.192	86.69
624.399	97.69
624.606	106.69
624.812	100.69
625.019	124.69
625.226	101.69
625.433	103.69
625.639	93.69
625.846	86.69
626.053	79.69
626.259	91.69
626.466	88.69
626.673	86.69
626.879	106.69
627.086	97.69
627.293	115.69
627.499	101.69
627.706	112.69
627.912	96.69
628.119	128.69
628.325	104.69
628.532	108.69
628.738	102.69
628.945	90.69
629.151	90.69
629.357	84.69
629.564	107.69
629.77	101.69
629.976	122.69
630.183	100.69
630.389	94.69
630.595	94.69
630.802	91.69
631.008	106.69
631.214	106.69
631.42	97.69
631.627	102.69
631.833	85.69
632.039	90.69
632.245	100.69
632.451	101.69
632.657	114.69
632.863	102.69
633.069	99.69
633.275	110.69
633.481	82.69
633.688	100.69
633.893	108.69
634.099	107.69
634.305	119.69
634.511	92.69
634.717	97.69
634.923	102.69
635.129	92.69
635.335	101.69
635.541	108.69
635.747	94.69
635.952	99.69
636.158	91.69
636.364	102.69
636.57	96.69
636.775	88.69
636.981	99.69
637.187	89.69
637.392	100.69
637.598	88.69
637.804	98.69
638.009	104.69
638.215	95.69
638.421	94.69
638.626	93.69
638.832	100.69
639.037	95.69
639.243	112.69
639.448	98.69
639.654	108.69
639.859	94.69
640.065	91.69
640.27	104.69
640.475	96.69
640.681	93.69
640.886	97.69
641.091	105.69
641.297	100.69
641.502	105.69
641.707	108.69
641.913	98.69
642.118	92.69
642.323	96.69
642.528	105.69
642.733	100.69
642.939	102.69
643.144	97.69
643.349	100.69
643.554	107.69
643.759	107.69
643.964	100.69
644.169	109.69
644.374	98.69
644.579	99.69
644.784	107.69
644.989	99.69
645.194	104.69
645.399	101.69
645.604	91.69
645.809	98.69
646.014	106.69
646.219	83.69
646.423	92.69
646.628	101.69
646.833	108.69
647.038	115.69
647.243	97.69
647.447	106.69
647.652	99.69
647.857	99.69
648.062	90.69
648.266	93.69
648.471	99.69
648.676	105.69
648.88	91.69
649.085	87.69
649.289	89.69
649.494	98.69
649.698	93.69
649.903	99.69
650.107	104.69
650.312	85.69
650.516	98.69
650.721	98.69
650.925	108.69
651.13	84.69
651.334	98.69
651.539	96.69
651.743	92.69
651.947	100.69
652.152	87.69
652.356	91.69
652.56	95.69
652.764	96.69
652.969	93.69
653.173	88.69
653.377	82.69
653.581	97.69
653.785	85.69
653.99	92.69
654.194	83.69
654.398	94.69
654.602	99.69
654.806	92.69
655.01	94.69
655.214	108.69
655.418	98.69
655.622	89.69
655.826	88.69
656.03	97.69
656.234	83.69
656.438	81.69
656.642	74.69
656.846	73.69
657.049	100.69
657.253	89.69
657.457	105.69
657.661	90.69
657.865	82.69
658.068	83.69
658.272	92.69
658.476	88.69
658.68	91.69
658.883	91.69
659.087	81.69
659.291	83.69
659.494	87.69
659.698	76.69
659.901	81.69
660.105	73.69
660.309	82.69
660.512	76.69
660.716	73.69
660.919	77.69
661.123	84.69
661.326	93.69
661.53	80.69
661.733	96.69
661.936	87.69
662.14	88.69
662.343	84.69
662.546	90.69
662.75	87.69
662.953	81.69
663.156	90.69
663.36	79.69
663.563	90.69
663.766	98.69
663.969	85.69
664.173	89.69
664.376	85.69
664.579	70.69
664.782	89.69
664.985	78.69
665.188	87.69
665.391	80.69
665.594	85.69
665.797	87.69
666	78.69
666.203	86.69
666.406	81.69
666.609	75.69
666.812	92.69
667.015	73.69
667.218	96.69
667.421	89.69
667.624	85.69
667.827	81.69
668.03	90.69
668.232	84.69
668.435	87.69
668.638	84.69
668.841	90.69
669.043	84.69
669.246	86.69
669.449	73.69
669.651	73.69
669.854	86.69
670.057	86.69
670.259	78.69
670.462	89.69
670.665	70.69
670.867	94.69
671.07	94.69
671.272	75.69
671.475	91.69
671.677	76.69
671.88	89.69
672.082	78.69
672.284	87.69
672.487	77.69
672.689	87.69
672.892	84.69
