Data from Location4.07152019.Energy5.Lamp.07192019.3%Agarose_HRD10591_16-21-17-926.txt Node
Date: Fri Jul 19 16:21:17 EDT 2019
User: cochatt
Spectrometer: HR+D1059
Trigger mode: 1
Integration Time (sec): 1.000000E-1
Scans to average: 1
Electric dark correction enabled: true
Nonlinearity correction enabled: false
Boxcar width: 0
XAxis mode: Wavelengths
Number of Pixels in Spectrum: 2048
>>>>>Begin Spectral Data<<<<<
223.165	-19.12
223.4	-19.12
223.635	-19.12
223.869	-23.12
224.104	-9.12
224.338	-23.12
224.573	-18.12
224.808	-13.12
225.042	-7.12
225.277	8.88
225.511	-8.12
225.746	-1.12
225.98	14.88
226.215	24.88
226.449	13.88
226.683	7.88
226.918	26.88
227.152	24.88
227.387	24.88
227.621	28.88
227.856	43.88
228.09	36.88
228.324	59.88
228.559	54.88
228.793	47.88
229.027	60.88
229.262	47.88
229.496	67.88
229.73	56.88
229.964	75.88
230.199	57.88
230.433	77.88
230.667	67.88
230.901	75.88
231.136	78.88
231.37	80.88
231.604	64.88
231.838	83.88
232.072	79.88
232.306	68.88
232.541	77.88
232.775	78.88
233.009	79.88
233.243	88.88
233.477	81.88
233.711	76.88
233.945	95.88
234.179	76.88
234.413	62.88
234.647	67.88
234.881	84.88
235.115	85.88
235.349	79.88
235.583	82.88
235.817	74.88
236.051	80.88
236.285	84.88
236.519	65.88
236.753	75.88
236.987	71.88
237.221	78.88
237.455	66.88
237.689	67.88
237.922	65.88
238.156	82.88
238.39	73.88
238.624	77.88
238.858	71.88
239.091	57.88
239.325	66.88
239.559	65.88
239.793	72.88
240.027	70.88
240.26	71.88
240.494	60.88
240.728	64.88
240.961	66.88
241.195	80.88
241.429	76.88
241.662	81.88
241.896	77.88
242.13	73.88
242.363	60.88
242.597	65.88
242.83	65.88
243.064	80.88
243.298	68.88
243.531	58.88
243.765	75.88
243.998	85.88
244.232	69.88
244.465	77.88
244.699	79.88
244.932	62.88
245.166	46.88
245.399	74.88
245.633	83.88
245.866	71.88
246.099	68.88
246.333	76.88
246.566	81.88
246.8	76.88
247.033	69.88
247.266	77.88
247.5	62.88
247.733	72.88
247.966	73.88
248.2	70.88
248.433	66.88
248.666	70.88
248.899	74.88
249.133	85.88
249.366	74.88
249.599	63.88
249.832	76.88
250.066	75.88
250.299	79.88
250.532	72.88
250.765	77.88
250.998	74.88
251.231	77.88
251.465	67.88
251.698	69.88
251.931	77.88
252.164	83.88
252.397	57.88
252.63	81.88
252.863	74.88
253.096	78.88
253.329	87.88
253.562	83.88
253.795	83.88
254.028	71.88
254.261	75.88
254.494	84.88
254.727	69.88
254.96	70.88
255.193	79.88
255.426	71.88
255.659	73.88
255.892	74.88
256.124	77.88
256.357	76.88
256.59	84.88
256.823	66.88
257.056	71.88
257.289	65.88
257.521	58.88
257.754	74.88
257.987	82.88
258.22	75.88
258.452	77.88
258.685	88.88
258.918	69.88
259.151	80.88
259.383	73.88
259.616	81.88
259.849	61.88
260.081	77.88
260.314	69.88
260.547	73.88
260.779	85.88
261.012	74.88
261.244	82.88
261.477	84.88
261.71	75.88
261.942	87.88
262.175	79.88
262.407	82.88
262.64	80.88
262.872	83.88
263.105	86.88
263.337	75.88
263.57	82.88
263.802	68.88
264.035	64.88
264.267	81.88
264.499	84.88
264.732	89.88
264.964	81.88
265.197	83.88
265.429	90.88
265.661	74.88
265.894	73.88
266.126	72.88
266.358	71.88
266.591	60.88
266.823	65.88
267.055	88.88
267.287	87.88
267.52	79.88
267.752	80.88
267.984	83.88
268.216	74.88
268.448	85.88
268.681	87.88
268.913	76.88
269.145	72.88
269.377	75.88
269.609	95.88
269.841	80.88
270.073	82.88
270.306	75.88
270.538	68.88
270.77	76.88
271.002	65.88
271.234	72.88
271.466	82.88
271.698	76.88
271.93	73.88
272.162	83.88
272.394	91.88
272.626	61.88
272.858	65.88
273.09	80.88
273.322	78.88
273.553	81.88
273.785	76.88
274.017	92.88
274.249	93.88
274.481	67.88
274.713	70.88
274.945	80.88
275.176	83.88
275.408	80.88
275.64	74.88
275.872	73.88
276.104	75.88
276.335	71.88
276.567	80.88
276.799	80.88
277.031	73.88
277.262	85.88
277.494	78.88
277.726	63.88
277.957	74.88
278.189	81.88
278.421	72.88
278.652	88.88
278.884	80.88
279.115	71.88
279.347	79.88
279.579	74.88
279.81	85.88
280.042	84.88
280.273	69.88
280.505	73.88
280.736	61.88
280.968	76.88
281.199	68.88
281.431	74.88
281.662	86.88
281.894	78.88
282.125	80.88
282.356	65.88
282.588	89.88
282.819	72.88
283.051	95.88
283.282	82.88
283.513	87.88
283.745	71.88
283.976	82.88
284.207	83.88
284.439	75.88
284.67	72.88
284.901	69.88
285.132	68.88
285.364	72.88
285.595	84.88
285.826	75.88
286.057	79.88
286.288	86.88
286.52	75.88
286.751	79.88
286.982	80.88
287.213	84.88
287.444	85.88
287.675	75.88
287.906	81.88
288.138	87.88
288.369	76.88
288.6	83.88
288.831	81.88
289.062	83.88
289.293	78.88
289.524	67.88
289.755	79.88
289.986	79.88
290.217	72.88
290.448	89.88
290.679	83.88
290.91	87.88
291.141	82.88
291.371	75.88
291.602	69.88
291.833	79.88
292.064	77.88
292.295	77.88
292.526	83.88
292.757	76.88
292.987	85.88
293.218	84.88
293.449	76.88
293.68	68.88
293.91	83.88
294.141	92.88
294.372	78.88
294.603	84.88
294.833	88.88
295.064	82.88
295.295	99.88
295.525	96.88
295.756	69.88
295.987	70.88
296.217	70.88
296.448	76.88
296.679	84.88
296.909	80.88
297.14	91.88
297.37	83.88
297.601	76.88
297.831	73.88
298.062	75.88
298.292	70.88
298.523	75.88
298.753	92.88
298.984	75.88
299.214	88.88
299.445	85.88
299.675	82.88
299.905	70.88
300.136	86.88
300.366	71.88
300.597	87.88
300.827	91.88
301.057	86.88
301.288	71.88
301.518	86.88
301.748	76.88
301.979	87.88
302.209	86.88
302.439	73.88
302.669	79.88
302.9	84.88
303.13	79.88
303.36	91.88
303.59	80.88
303.82	79.88
304.051	79.88
304.281	83.88
304.511	100.88
304.741	81.88
304.971	69.88
305.201	86.88
305.431	79.88
305.661	76.88
305.891	79.88
306.121	82.88
306.352	75.88
306.582	78.88
306.812	73.88
307.042	84.88
307.272	81.88
307.502	70.88
307.731	84.88
307.961	71.88
308.191	83.88
308.421	87.88
308.651	78.88
308.881	83.88
309.111	81.88
309.341	77.88
309.571	86.88
309.8	89.88
310.03	77.88
310.26	66.88
310.49	67.88
310.72	88.88
310.949	93.88
311.179	86.88
311.409	79.88
311.639	74.88
311.868	92.88
312.098	74.88
312.328	82.88
312.557	88.88
312.787	76.88
313.017	80.88
313.246	89.88
313.476	81.88
313.706	78.88
313.935	67.88
314.165	61.88
314.394	65.88
314.624	65.88
314.853	71.88
315.083	81.88
315.312	80.88
315.542	88.88
315.771	88.88
316.001	86.88
316.23	85.88
316.46	83.88
316.689	69.88
316.919	75.88
317.148	76.88
317.377	94.88
317.607	79.88
317.836	93.88
318.065	87.88
318.295	92.88
318.524	81.88
318.753	77.88
318.983	79.88
319.212	76.88
319.441	69.88
319.67	84.88
319.9	88.88
320.129	87.88
320.358	81.88
320.587	77.88
320.816	87.88
321.046	72.88
321.275	81.88
321.504	81.88
321.733	80.88
321.962	81.88
322.191	74.88
322.42	75.88
322.649	71.88
322.878	69.88
323.108	70.88
323.337	87.88
323.566	77.88
323.795	66.88
324.024	92.88
324.253	95.88
324.482	88.88
324.71	87.88
324.939	80.88
325.168	83.88
325.397	90.88
325.626	77.88
325.855	90.88
326.084	86.88
326.313	87.88
326.542	77.88
326.77	82.88
326.999	82.88
327.228	78.88
327.457	85.88
327.686	79.88
327.914	79.88
328.143	97.88
328.372	80.88
328.6	77.88
328.829	87.88
329.058	72.88
329.287	76.88
329.515	83.88
329.744	83.88
329.972	78.88
330.201	83.88
330.43	81.88
330.658	83.88
330.887	72.88
331.115	86.88
331.344	79.88
331.572	69.88
331.801	88.88
332.03	79.88
332.258	77.88
332.486	97.88
332.715	79.88
332.943	78.88
333.172	84.88
333.4	83.88
333.629	83.88
333.857	73.88
334.085	79.88
334.314	74.88
334.542	73.88
334.771	82.88
334.999	81.88
335.227	75.88
335.455	76.88
335.684	82.88
335.912	86.88
336.14	77.88
336.369	85.88
336.597	76.88
336.825	87.88
337.053	59.88
337.281	84.88
337.51	89.88
337.738	84.88
337.966	76.88
338.194	81.88
338.422	91.88
338.65	74.88
338.878	84.88
339.106	76.88
339.334	80.88
339.562	80.88
339.79	76.88
340.018	78.88
340.246	84.88
340.474	90.88
340.702	86.88
340.93	76.88
341.158	88.88
341.386	85.88
341.614	76.88
341.842	74.88
342.07	76.88
342.298	90.88
342.526	96.88
342.754	82.88
342.981	57.88
343.209	70.88
343.437	88.88
343.665	79.88
343.893	79.88
344.12	74.88
344.348	82.88
344.576	87.88
344.804	88.88
345.031	84.88
345.259	86.88
345.487	91.88
345.714	72.88
345.942	64.88
346.17	82.88
346.397	81.88
346.625	85.88
346.853	73.88
347.08	74.88
347.308	92.88
347.535	84.88
347.763	75.88
347.99	82.88
348.218	77.88
348.445	83.88
348.673	86.88
348.9	79.88
349.128	83.88
349.355	88.88
349.583	86.88
349.81	79.88
350.037	75.88
350.265	84.88
350.492	78.88
350.72	66.88
350.947	79.88
351.174	89.88
351.402	90.88
351.629	80.88
351.856	86.88
352.083	85.88
352.311	83.88
352.538	72.88
352.765	73.88
352.992	79.88
353.22	87.88
353.447	87.88
353.674	79.88
353.901	85.88
354.128	67.88
354.355	80.88
354.583	75.88
354.81	81.88
355.037	80.88
355.264	70.88
355.491	81.88
355.718	87.88
355.945	83.88
356.172	81.88
356.399	85.88
356.626	72.88
356.853	76.88
357.08	85.88
357.307	81.88
357.534	86.88
357.761	74.88
357.988	76.88
358.215	79.88
358.441	76.88
358.668	76.88
358.895	78.88
359.122	83.88
359.349	66.88
359.576	80.88
359.802	83.88
360.029	90.88
360.256	85.88
360.483	80.88
360.709	83.88
360.936	76.88
361.163	84.88
361.39	79.88
361.616	75.88
361.843	77.88
362.07	85.88
362.296	72.88
362.523	79.88
362.749	69.88
362.976	79.88
363.203	79.88
363.429	69.88
363.656	81.88
363.882	67.88
364.109	81.88
364.335	90.88
364.562	82.88
364.788	87.88
365.015	80.88
365.241	62.88
365.468	83.88
365.694	76.88
365.92	67.88
366.147	72.88
366.373	79.88
366.599	79.88
366.826	72.88
367.052	77.88
367.278	77.88
367.505	87.88
367.731	81.88
367.957	71.88
368.184	74.88
368.41	84.88
368.636	88.88
368.862	89.88
369.089	60.88
369.315	91.88
369.541	84.88
369.767	94.88
369.993	94.88
370.219	82.88
370.445	80.88
370.672	95.88
370.898	94.88
371.124	80.88
371.35	80.88
371.576	86.88
371.802	84.88
372.028	87.88
372.254	94.88
372.48	89.88
372.706	89.88
372.932	64.88
373.158	79.88
373.384	94.88
373.61	82.88
373.835	83.88
374.061	90.88
374.287	85.88
374.513	90.88
374.739	82.88
374.965	96.88
375.191	90.88
375.416	79.88
375.642	88.88
375.868	87.88
376.094	93.88
376.319	94.88
376.545	98.88
376.771	94.88
376.997	78.88
377.222	94.88
377.448	92.88
377.674	79.88
377.899	86.88
378.125	92.88
378.35	88.88
378.576	88.88
378.802	92.88
379.027	85.88
379.253	88.88
379.478	82.88
379.704	93.88
379.929	85.88
380.155	86.88
380.38	86.88
380.606	86.88
380.831	94.88
381.057	89.88
381.282	91.88
381.507	87.88
381.733	90.88
381.958	91.88
382.184	86.88
382.409	90.88
382.634	86.88
382.86	93.88
383.085	101.88
383.31	85.88
383.535	95.88
383.761	97.88
383.986	95.88
384.211	99.88
384.436	88.88
384.662	84.88
384.887	105.88
385.112	99.88
385.337	88.88
385.562	95.88
385.787	99.88
386.013	101.88
386.238	99.88
386.463	92.88
386.688	94.88
386.913	96.88
387.138	104.88
387.363	83.88
387.588	98.88
387.813	93.88
388.038	96.88
388.263	100.88
388.488	82.88
388.713	97.88
388.938	92.88
389.163	102.88
389.387	105.88
389.612	99.88
389.837	73.88
390.062	85.88
390.287	108.88
390.512	113.88
390.736	96.88
390.961	93.88
391.186	103.88
391.411	93.88
391.636	104.88
391.86	101.88
392.085	98.88
392.31	94.88
392.534	111.88
392.759	102.88
392.984	107.88
393.208	102.88
393.433	94.88
393.658	91.88
393.882	102.88
394.107	110.88
394.331	92.88
394.556	101.88
394.78	103.88
395.005	93.88
395.229	97.88
395.454	94.88
395.678	104.88
395.903	106.88
396.127	105.88
396.352	85.88
396.576	96.88
396.801	95.88
397.025	103.88
397.249	89.88
397.474	96.88
397.698	107.88
397.922	101.88
398.147	107.88
398.371	103.88
398.595	105.88
398.82	111.88
399.044	112.88
399.268	103.88
399.492	102.88
399.717	121.88
399.941	96.88
400.165	107.88
400.389	105.88
400.613	115.88
400.837	102.88
401.062	107.88
401.286	109.88
401.51	112.88
401.734	101.88
401.958	103.88
402.182	95.88
402.406	123.88
402.63	115.88
402.854	113.88
403.078	101.88
403.302	114.88
403.526	107.88
403.75	105.88
403.974	104.88
404.198	111.88
404.422	114.88
404.645	105.88
404.869	112.88
405.093	127.88
405.317	112.88
405.541	109.88
405.765	112.88
405.988	116.88
406.212	116.88
406.436	123.88
406.66	96.88
406.883	104.88
407.107	119.88
407.331	123.88
407.555	112.88
407.778	104.88
408.002	121.88
408.226	111.88
408.449	107.88
408.673	113.88
408.896	112.88
409.12	110.88
409.344	113.88
409.567	118.88
409.791	123.88
410.014	125.88
410.238	121.88
410.461	119.88
410.685	111.88
410.908	114.88
411.132	104.88
411.355	127.88
411.578	119.88
411.802	114.88
412.025	127.88
412.249	111.88
412.472	113.88
412.695	110.88
412.919	107.88
413.142	115.88
413.365	120.88
413.589	110.88
413.812	114.88
414.035	119.88
414.258	118.88
414.482	113.88
414.705	87.88
414.928	135.88
415.151	119.88
415.374	122.88
415.597	116.88
415.821	120.88
416.044	107.88
416.267	114.88
416.49	120.88
416.713	116.88
416.936	121.88
417.159	105.88
417.382	113.88
417.605	123.88
417.828	128.88
418.051	122.88
418.274	108.88
418.497	120.88
418.72	127.88
418.943	117.88
419.166	125.88
419.389	129.88
419.611	125.88
419.834	118.88
420.057	123.88
420.28	135.88
420.503	136.88
420.726	132.88
420.948	120.88
421.171	129.88
421.394	128.88
421.617	135.88
421.839	137.88
422.062	126.88
422.285	128.88
422.507	133.88
422.73	127.88
422.953	111.88
423.175	119.88
423.398	132.88
423.621	131.88
423.843	137.88
424.066	133.88
424.288	131.88
424.511	134.88
424.733	133.88
424.956	135.88
425.178	133.88
425.401	137.88
425.623	121.88
425.846	117.88
426.068	121.88
426.291	123.88
426.513	121.88
426.735	123.88
426.958	116.88
427.18	132.88
427.402	133.88
427.625	128.88
427.847	115.88
428.069	115.88
428.292	122.88
428.514	126.88
428.736	121.88
428.958	130.88
429.181	127.88
429.403	105.88
429.625	118.88
429.847	124.88
430.069	123.88
430.292	132.88
430.514	137.88
430.736	115.88
430.958	113.88
431.18	127.88
431.402	120.88
431.624	113.88
431.846	108.88
432.068	106.88
432.29	100.88
432.512	111.88
432.734	111.88
432.956	124.88
433.178	142.88
433.4	118.88
433.622	125.88
433.844	114.88
434.066	121.88
434.287	117.88
434.509	95.88
434.731	95.88
434.953	94.88
435.175	115.88
435.397	123.88
435.618	103.88
435.84	108.88
436.062	110.88
436.284	114.88
436.505	116.88
436.727	115.88
436.949	124.88
437.17	108.88
437.392	125.88
437.614	112.88
437.835	118.88
438.057	108.88
438.278	102.88
438.5	109.88
438.721	127.88
438.943	129.88
439.165	119.88
439.386	121.88
439.608	128.88
439.829	142.88
440.05	127.88
440.272	131.88
440.493	146.88
440.715	147.88
440.936	132.88
441.158	146.88
441.379	145.88
441.6	147.88
441.822	145.88
442.043	142.88
442.264	128.88
442.486	128.88
442.707	126.88
442.928	132.88
443.149	149.88
443.371	127.88
443.592	131.88
443.813	121.88
444.034	127.88
444.255	131.88
444.476	131.88
444.698	132.88
444.919	141.88
445.14	259.88
445.361	177.88
445.582	142.88
445.803	135.88
446.024	118.88
446.245	151.88
446.466	125.88
446.687	134.88
446.908	135.88
447.129	142.88
447.35	144.88
447.571	156.88
447.792	149.88
448.013	128.88
448.234	135.88
448.455	128.88
448.675	132.88
448.896	137.88
449.117	129.88
449.338	122.88
449.559	136.88
449.779	123.88
450	121.88
450.221	125.88
450.442	123.88
450.662	125.88
450.883	127.88
451.104	133.88
451.324	133.88
451.545	131.88
451.766	129.88
451.986	117.88
452.207	114.88
452.428	135.88
452.648	139.88
452.869	111.88
453.089	123.88
453.31	112.88
453.53	107.88
453.751	95.88
453.971	111.88
454.192	99.88
454.412	105.88
454.633	102.88
454.853	115.88
455.073	103.88
455.294	108.88
455.514	135.88
455.734	99.88
455.955	125.88
456.175	105.88
456.395	95.88
456.616	108.88
456.836	101.88
457.056	111.88
457.276	101.88
457.497	92.88
457.717	95.88
457.937	98.88
458.157	107.88
458.377	112.88
458.598	95.88
458.818	84.88
459.038	80.88
459.258	71.88
459.478	70.88
459.698	94.88
459.918	108.88
460.138	98.88
460.358	115.88
460.578	115.88
460.798	108.88
461.018	125.88
461.238	100.88
461.458	116.88
461.678	111.88
461.898	102.88
462.118	108.88
462.338	104.88
462.558	118.88
462.777	98.88
462.997	108.88
463.217	121.88
463.437	99.88
463.657	98.88
463.876	106.88
464.096	98.88
464.316	103.88
464.536	116.88
464.755	109.88
464.975	113.88
465.195	119.88
465.414	126.88
465.634	118.88
465.854	128.88
466.073	115.88
466.293	111.88
466.512	112.88
466.732	116.88
466.951	132.88
467.171	115.88
467.391	129.88
467.61	118.88
467.829	126.88
468.049	121.88
468.268	119.88
468.488	121.88
468.707	111.88
468.927	125.88
469.146	123.88
469.365	132.88
469.585	132.88
469.804	124.88
470.023	134.88
470.243	123.88
470.462	125.88
470.681	123.88
470.901	124.88
471.12	131.88
471.339	135.88
471.558	132.88
471.777	133.88
471.997	128.88
472.216	123.88
472.435	113.88
472.654	96.88
472.873	111.88
473.092	109.88
473.311	115.88
473.53	121.88
473.749	122.88
473.968	121.88
474.187	103.88
474.406	119.88
474.625	124.88
474.844	123.88
475.063	129.88
475.282	111.88
475.501	117.88
475.72	113.88
475.939	117.88
476.158	118.88
476.377	121.88
476.596	110.88
476.814	113.88
477.033	109.88
477.252	109.88
477.471	117.88
477.69	127.88
477.908	138.88
478.127	131.88
478.346	135.88
478.564	134.88
478.783	133.88
479.002	125.88
479.22	140.88
479.439	128.88
479.658	111.88
479.876	108.88
480.095	96.88
480.313	122.88
480.532	119.88
480.751	102.88
480.969	103.88
481.188	87.88
481.406	80.88
481.624	88.88
481.843	83.88
482.061	95.88
482.28	99.88
482.498	112.88
482.717	108.88
482.935	129.88
483.153	148.88
483.372	141.88
483.59	141.88
483.808	141.88
484.027	140.88
484.245	142.88
484.463	144.88
484.681	151.88
484.9	147.88
485.118	122.88
485.336	126.88
485.554	116.88
485.772	88.88
485.99	100.88
486.209	104.88
486.427	93.88
486.645	127.88
486.863	127.88
487.081	128.88
487.299	164.88
487.517	120.88
487.735	164.88
487.953	179.88
488.171	173.88
488.389	169.88
488.607	167.88
488.825	146.88
489.043	127.88
489.261	139.88
489.479	142.88
489.696	141.88
489.914	132.88
490.132	132.88
490.35	135.88
490.568	156.88
490.786	165.88
491.003	175.88
491.221	172.88
491.439	165.88
491.657	172.88
491.874	198.88
492.092	198.88
492.31	232.88
492.527	208.88
492.745	187.88
492.963	182.88
493.18	174.88
493.398	182.88
493.615	171.88
493.833	169.88
494.05	162.88
494.268	165.88
494.485	159.88
494.703	165.88
494.92	180.88
495.138	157.88
495.355	176.88
495.573	176.88
495.79	157.88
496.008	168.88
496.225	158.88
496.442	169.88
496.66	152.88
496.877	158.88
497.094	146.88
497.312	156.88
497.529	154.88
497.746	140.88
497.963	138.88
498.181	117.88
498.398	120.88
498.615	111.88
498.832	116.88
499.049	119.88
499.267	120.88
499.484	124.88
499.701	127.88
499.918	131.88
500.135	124.88
500.352	137.88
500.569	119.88
500.786	158.88
501.003	133.88
501.22	132.88
501.437	134.88
501.654	126.88
501.871	137.88
502.088	120.88
502.305	125.88
502.522	117.88
502.739	131.88
502.956	126.88
503.172	122.88
503.389	119.88
503.606	121.88
503.823	103.88
504.04	111.88
504.256	102.88
504.473	122.88
504.69	123.88
504.907	115.88
505.123	114.88
505.34	119.88
505.557	104.88
505.773	115.88
505.99	122.88
506.207	115.88
506.423	97.88
506.64	111.88
506.856	123.88
507.073	120.88
507.289	120.88
507.506	113.88
507.722	99.88
507.939	110.88
508.155	113.88
508.372	101.88
508.588	95.88
508.805	87.88
509.021	101.88
509.238	107.88
509.454	107.88
509.67	114.88
509.887	89.88
510.103	92.88
510.319	90.88
510.536	88.88
510.752	80.88
510.968	86.88
511.184	80.88
511.401	68.88
511.617	88.88
511.833	92.88
512.049	86.88
512.265	77.88
512.481	86.88
512.698	100.88
512.914	97.88
513.13	89.88
513.346	89.88
513.562	86.88
513.778	97.88
513.994	84.88
514.21	95.88
514.426	77.88
514.642	91.88
514.858	79.88
515.074	94.88
515.29	88.88
515.506	81.88
515.721	78.88
515.937	91.88
516.153	84.88
516.369	79.88
516.585	66.88
516.801	87.88
517.016	80.88
517.232	82.88
517.448	89.88
517.664	90.88
517.879	74.88
518.095	83.88
518.311	83.88
518.527	84.88
518.742	91.88
518.958	91.88
519.173	109.88
519.389	111.88
519.605	117.88
519.82	94.88
520.036	102.88
520.251	94.88
520.467	99.88
520.682	90.88
520.898	99.88
521.113	85.88
521.329	76.88
521.544	89.88
521.76	88.88
521.975	81.88
522.19	88.88
522.406	93.88
522.621	77.88
522.836	112.88
523.052	113.88
523.267	110.88
523.482	99.88
523.698	104.88
523.913	112.88
524.128	109.88
524.343	120.88
524.559	119.88
524.774	101.88
524.989	121.88
525.204	121.88
525.419	102.88
525.634	100.88
525.849	104.88
526.064	95.88
526.28	97.88
526.495	89.88
526.71	92.88
526.925	71.88
527.14	78.88
527.355	64.88
527.57	63.88
527.785	86.88
527.999	80.88
528.214	102.88
528.429	99.88
528.644	112.88
528.859	125.88
529.074	154.88
529.289	171.88
529.503	159.88
529.718	123.88
529.933	114.88
530.148	100.88
530.363	78.88
530.577	81.88
530.792	86.88
531.007	76.88
531.221	84.88
531.436	80.88
531.651	84.88
531.865	79.88
532.08	77.88
532.295	64.88
532.509	84.88
532.724	79.88
532.938	106.88
533.153	96.88
533.367	115.88
533.582	121.88
533.796	111.88
534.011	115.88
534.225	97.88
534.44	81.88
534.654	90.88
534.868	83.88
535.083	95.88
535.297	91.88
535.511	92.88
535.726	101.88
535.94	89.88
536.154	95.88
536.369	79.88
536.583	81.88
536.797	84.88
537.011	79.88
537.225	85.88
537.44	87.88
537.654	84.88
537.868	91.88
538.082	93.88
538.296	94.88
538.51	109.88
538.724	111.88
538.938	115.88
539.153	125.88
539.367	121.88
539.581	103.88
539.795	98.88
540.009	98.88
540.222	88.88
540.436	96.88
540.65	117.88
540.864	114.88
541.078	126.88
541.292	140.88
541.506	152.88
541.72	149.88
541.934	192.88
542.147	198.88
542.361	193.88
542.575	166.88
542.789	135.88
543.002	135.88
543.216	132.88
543.43	109.88
543.644	134.88
543.857	140.88
544.071	137.88
544.285	157.88
544.498	156.88
544.712	167.88
544.925	140.88
545.139	149.88
545.352	155.88
545.566	155.88
545.779	160.88
545.993	145.88
546.206	163.88
546.42	159.88
546.633	151.88
546.847	155.88
547.06	171.88
547.274	167.88
547.487	160.88
547.7	159.88
547.914	163.88
548.127	157.88
548.34	148.88
548.554	157.88
548.767	136.88
548.98	146.88
549.193	154.88
549.407	150.88
549.62	149.88
549.833	148.88
550.046	132.88
550.259	130.88
550.473	127.88
550.686	129.88
550.899	152.88
551.112	147.88
551.325	123.88
551.538	125.88
551.751	116.88
551.964	118.88
552.177	131.88
552.39	128.88
552.603	150.88
552.816	161.88
553.029	128.88
553.242	142.88
553.455	159.88
553.667	147.88
553.88	160.88
554.093	149.88
554.306	158.88
554.519	132.88
554.732	136.88
554.944	143.88
555.157	139.88
555.37	131.88
555.583	136.88
555.795	134.88
556.008	134.88
556.221	118.88
556.433	144.88
556.646	127.88
556.859	131.88
557.071	141.88
557.284	123.88
557.496	133.88
557.709	117.88
557.921	129.88
558.134	130.88
558.346	143.88
558.559	125.88
558.771	136.88
558.984	118.88
559.196	119.88
559.409	118.88
559.621	131.88
559.833	119.88
560.046	129.88
560.258	114.88
560.47	113.88
560.683	135.88
560.895	125.88
561.107	127.88
561.32	139.88
561.532	127.88
561.744	123.88
561.956	137.88
562.168	127.88
562.381	119.88
562.593	134.88
562.805	123.88
563.017	111.88
563.229	129.88
563.441	121.88
563.653	110.88
563.865	117.88
564.077	116.88
564.289	112.88
564.501	111.88
564.713	126.88
564.925	116.88
565.137	120.88
565.349	110.88
565.561	117.88
565.773	117.88
565.985	109.88
566.197	127.88
566.408	125.88
566.62	107.88
566.832	126.88
567.044	123.88
567.255	99.88
567.467	107.88
567.679	115.88
567.891	97.88
568.102	91.88
568.314	94.88
568.526	93.88
568.737	86.88
568.949	80.88
569.161	86.88
569.372	103.88
569.584	86.88
569.795	86.88
570.007	78.88
570.218	93.88
570.43	88.88
570.641	99.88
570.853	87.88
571.064	96.88
571.276	90.88
571.487	104.88
571.698	105.88
571.91	107.88
572.121	102.88
572.333	108.88
572.544	96.88
572.755	84.88
572.966	89.88
573.178	97.88
573.389	66.88
573.6	77.88
573.811	73.88
574.023	63.88
574.234	85.88
574.445	85.88
574.656	86.88
574.867	98.88
575.078	87.88
575.289	99.88
575.501	94.88
575.712	105.88
575.923	93.88
576.134	88.88
576.345	86.88
576.556	83.88
576.767	94.88
576.978	91.88
577.188	109.88
577.399	89.88
577.61	77.88
577.821	88.88
578.032	88.88
578.243	83.88
578.454	81.88
578.665	85.88
578.875	81.88
579.086	81.88
579.297	97.88
579.508	92.88
579.718	94.88
579.929	82.88
580.14	67.88
580.35	83.88
580.561	84.88
580.772	89.88
580.982	92.88
581.193	84.88
581.403	89.88
581.614	94.88
581.825	82.88
582.035	76.88
582.246	81.88
582.456	84.88
582.667	93.88
582.877	94.88
583.087	93.88
583.298	87.88
583.508	79.88
583.719	90.88
583.929	92.88
584.139	90.88
584.35	91.88
584.56	87.88
584.77	83.88
584.981	75.88
585.191	78.88
585.401	91.88
585.611	85.88
585.821	79.88
586.032	80.88
586.242	67.88
586.452	84.88
586.662	78.88
586.872	69.88
587.082	89.88
587.292	95.88
587.502	88.88
587.713	83.88
587.923	84.88
588.133	77.88
588.343	79.88
588.553	76.88
588.762	100.88
588.972	89.88
589.182	75.88
589.392	73.88
589.602	91.88
589.812	95.88
590.022	70.88
590.232	83.88
590.441	81.88
590.651	70.88
590.861	78.88
591.071	87.88
591.281	86.88
591.49	85.88
591.7	87.88
591.91	80.88
592.119	72.88
592.329	100.88
592.539	90.88
592.748	89.88
592.958	80.88
593.167	88.88
593.377	84.88
593.587	87.88
593.796	79.88
594.006	84.88
594.215	88.88
594.424	96.88
594.634	90.88
594.843	96.88
595.053	91.88
595.262	107.88
595.472	101.88
595.681	89.88
595.89	81.88
596.1	83.88
596.309	78.88
596.518	95.88
596.727	100.88
596.937	92.88
597.146	82.88
597.355	87.88
597.564	86.88
597.774	85.88
597.983	76.88
598.192	73.88
598.401	95.88
598.61	80.88
598.819	100.88
599.028	87.88
599.237	93.88
599.446	87.88
599.655	89.88
599.864	92.88
600.073	75.88
600.282	82.88
600.491	88.88
600.7	96.88
600.909	84.88
601.118	99.88
601.327	99.88
601.536	89.88
601.745	98.88
601.953	95.88
602.162	108.88
602.371	110.88
602.58	97.88
602.789	104.88
602.997	102.88
603.206	104.88
603.415	110.88
603.623	98.88
603.832	110.88
604.041	107.88
604.249	100.88
604.458	107.88
604.666	95.88
604.875	97.88
605.084	90.88
605.292	102.88
605.501	100.88
605.709	102.88
605.918	112.88
606.126	119.88
606.334	120.88
606.543	103.88
606.751	109.88
606.96	97.88
607.168	114.88
607.376	101.88
607.585	95.88
607.793	99.88
608.001	104.88
608.21	96.88
608.418	118.88
608.626	107.88
608.834	100.88
609.043	119.88
609.251	109.88
609.459	99.88
609.667	112.88
609.875	105.88
610.083	105.88
610.291	117.88
610.499	109.88
610.707	98.88
610.916	108.88
611.124	113.88
611.332	115.88
611.54	117.88
611.748	108.88
611.955	111.88
612.163	101.88
612.371	115.88
612.579	117.88
612.787	104.88
612.995	91.88
613.203	120.88
613.411	119.88
613.618	111.88
613.826	95.88
614.034	101.88
614.242	124.88
614.449	118.88
614.657	119.88
614.865	98.88
615.072	104.88
615.28	108.88
615.488	112.88
615.695	105.88
615.903	107.88
616.111	100.88
616.318	106.88
616.526	116.88
616.733	108.88
616.941	96.88
617.148	113.88
617.356	107.88
617.563	103.88
617.771	104.88
617.978	97.88
618.185	112.88
618.393	101.88
618.6	95.88
618.807	118.88
619.015	104.88
619.222	117.88
619.429	107.88
619.637	97.88
619.844	101.88
620.051	97.88
620.258	98.88
620.466	111.88
620.673	101.88
620.88	99.88
621.087	108.88
621.294	108.88
621.501	86.88
621.708	106.88
621.915	97.88
622.122	101.88
622.329	108.88
622.536	96.88
622.743	111.88
622.95	99.88
623.157	101.88
623.364	112.88
623.571	100.88
623.778	87.88
623.985	112.88
624.192	95.88
624.399	83.88
624.606	100.88
624.812	118.88
625.019	95.88
625.226	100.88
625.433	99.88
625.639	87.88
625.846	103.88
626.053	93.88
626.259	101.88
626.466	96.88
626.673	84.88
626.879	95.88
627.086	79.88
627.293	80.88
627.499	91.88
627.706	98.88
627.912	107.88
628.119	105.88
628.325	100.88
628.532	107.88
628.738	99.88
628.945	93.88
629.151	88.88
629.357	95.88
629.564	99.88
629.77	102.88
629.976	96.88
630.183	101.88
630.389	109.88
630.595	100.88
630.802	98.88
631.008	72.88
631.214	95.88
631.42	86.88
631.627	93.88
631.833	89.88
632.039	95.88
632.245	105.88
632.451	114.88
632.657	92.88
632.863	93.88
633.069	100.88
633.275	95.88
633.481	100.88
633.688	73.88
633.893	95.88
634.099	89.88
634.305	84.88
634.511	107.88
634.717	92.88
634.923	87.88
635.129	104.88
635.335	101.88
635.541	83.88
635.747	92.88
635.952	97.88
636.158	92.88
636.364	87.88
636.57	96.88
636.775	104.88
636.981	102.88
637.187	91.88
637.392	81.88
637.598	88.88
637.804	91.88
638.009	94.88
638.215	112.88
638.421	80.88
638.626	89.88
638.832	88.88
639.037	93.88
639.243	100.88
639.448	87.88
639.654	94.88
639.859	102.88
640.065	89.88
640.27	115.88
640.475	83.88
640.681	99.88
640.886	114.88
641.091	93.88
641.297	94.88
641.502	82.88
641.707	93.88
641.913	87.88
642.118	93.88
642.323	98.88
642.528	100.88
642.733	89.88
642.939	112.88
643.144	93.88
643.349	93.88
643.554	95.88
643.759	101.88
643.964	90.88
644.169	107.88
644.374	93.88
644.579	88.88
644.784	94.88
644.989	103.88
645.194	85.88
645.399	100.88
645.604	89.88
645.809	94.88
646.014	80.88
646.219	98.88
646.423	96.88
646.628	91.88
646.833	90.88
647.038	85.88
647.243	78.88
647.447	97.88
647.652	114.88
647.857	97.88
648.062	100.88
648.266	100.88
648.471	94.88
648.676	95.88
648.88	83.88
649.085	84.88
649.289	91.88
649.494	107.88
649.698	107.88
649.903	98.88
650.107	86.88
650.312	103.88
650.516	83.88
650.721	100.88
650.925	102.88
651.13	65.88
651.334	82.88
651.539	86.88
651.743	96.88
651.947	95.88
652.152	92.88
652.356	98.88
652.56	87.88
652.764	94.88
652.969	83.88
653.173	92.88
653.377	92.88
653.581	84.88
653.785	86.88
653.99	83.88
654.194	91.88
654.398	78.88
654.602	82.88
654.806	82.88
655.01	87.88
655.214	90.88
655.418	80.88
655.622	69.88
655.826	85.88
656.03	82.88
656.234	87.88
656.438	99.88
656.642	86.88
656.846	89.88
657.049	78.88
657.253	75.88
657.457	80.88
657.661	80.88
657.865	88.88
658.068	84.88
658.272	75.88
658.476	72.88
658.68	85.88
658.883	88.88
659.087	77.88
659.291	83.88
659.494	80.88
659.698	95.88
659.901	76.88
660.105	91.88
660.309	97.88
660.512	95.88
660.716	76.88
660.919	89.88
661.123	61.88
661.326	88.88
661.53	95.88
661.733	83.88
661.936	78.88
662.14	81.88
662.343	80.88
662.546	84.88
662.75	86.88
662.953	71.88
663.156	71.88
663.36	77.88
663.563	79.88
663.766	69.88
663.969	78.88
664.173	72.88
664.376	91.88
664.579	84.88
664.782	85.88
664.985	72.88
665.188	76.88
665.391	73.88
665.594	81.88
665.797	75.88
666	76.88
666.203	89.88
666.406	85.88
666.609	58.88
666.812	83.88
667.015	85.88
667.218	78.88
667.421	81.88
667.624	91.88
667.827	76.88
668.03	74.88
668.232	76.88
668.435	76.88
668.638	69.88
668.841	92.88
669.043	73.88
669.246	71.88
669.449	70.88
669.651	84.88
669.854	71.88
670.057	81.88
670.259	77.88
670.462	81.88
670.665	72.88
670.867	73.88
671.07	80.88
671.272	81.88
671.475	75.88
671.677	73.88
671.88	84.88
672.082	63.88
672.284	72.88
672.487	84.88
672.689	85.88
672.892	71.88
