Data from Location4.07152019.Energy5.Lamp.07192019.3%Agarose_HRD10591_16-21-32-926.txt Node
Date: Fri Jul 19 16:21:32 EDT 2019
User: cochatt
Spectrometer: HR+D1059
Trigger mode: 1
Integration Time (sec): 1.000000E-1
Scans to average: 1
Electric dark correction enabled: true
Nonlinearity correction enabled: false
Boxcar width: 0
XAxis mode: Wavelengths
Number of Pixels in Spectrum: 2048
>>>>>Begin Spectral Data<<<<<
223.165	-18.62
223.4	-18.62
223.635	-18.62
223.869	-15.62
224.104	-14.62
224.338	-11.62
224.573	-27.62
224.808	8.38
225.042	-8.62
225.277	-13.62
225.511	-8.62
225.746	9.38
225.98	7.38
226.215	8.38
226.449	13.38
226.683	4.38
226.918	37.38
227.152	30.38
227.387	34.38
227.621	28.38
227.856	36.38
228.09	37.38
228.324	43.38
228.559	56.38
228.793	64.38
229.027	58.38
229.262	59.38
229.496	59.38
229.73	50.38
229.964	65.38
230.199	75.38
230.433	69.38
230.667	75.38
230.901	71.38
231.136	85.38
231.37	83.38
231.604	74.38
231.838	82.38
232.072	65.38
232.306	74.38
232.541	73.38
232.775	84.38
233.009	65.38
233.243	70.38
233.477	82.38
233.711	84.38
233.945	66.38
234.179	92.38
234.413	85.38
234.647	84.38
234.881	85.38
235.115	71.38
235.349	85.38
235.583	81.38
235.817	84.38
236.051	82.38
236.285	93.38
236.519	75.38
236.753	74.38
236.987	68.38
237.221	73.38
237.455	73.38
237.689	79.38
237.922	68.38
238.156	73.38
238.39	84.38
238.624	63.38
238.858	75.38
239.091	64.38
239.325	66.38
239.559	92.38
239.793	92.38
240.027	85.38
240.26	70.38
240.494	73.38
240.728	83.38
240.961	61.38
241.195	78.38
241.429	73.38
241.662	71.38
241.896	76.38
242.13	84.38
242.363	80.38
242.597	70.38
242.83	92.38
243.064	76.38
243.298	84.38
243.531	74.38
243.765	78.38
243.998	84.38
244.232	73.38
244.465	76.38
244.699	82.38
244.932	74.38
245.166	73.38
245.399	79.38
245.633	88.38
245.866	81.38
246.099	88.38
246.333	75.38
246.566	79.38
246.8	72.38
247.033	83.38
247.266	63.38
247.5	87.38
247.733	65.38
247.966	83.38
248.2	81.38
248.433	89.38
248.666	87.38
248.899	83.38
249.133	84.38
249.366	87.38
249.599	89.38
249.832	75.38
250.066	71.38
250.299	83.38
250.532	84.38
250.765	79.38
250.998	74.38
251.231	90.38
251.465	74.38
251.698	82.38
251.931	63.38
252.164	82.38
252.397	79.38
252.63	79.38
252.863	80.38
253.096	80.38
253.329	93.38
253.562	76.38
253.795	70.38
254.028	80.38
254.261	77.38
254.494	82.38
254.727	79.38
254.96	95.38
255.193	71.38
255.426	77.38
255.659	76.38
255.892	84.38
256.124	80.38
256.357	76.38
256.59	75.38
256.823	88.38
257.056	77.38
257.289	93.38
257.521	82.38
257.754	75.38
257.987	82.38
258.22	87.38
258.452	83.38
258.685	76.38
258.918	79.38
259.151	83.38
259.383	74.38
259.616	74.38
259.849	84.38
260.081	87.38
260.314	82.38
260.547	86.38
260.779	88.38
261.012	78.38
261.244	82.38
261.477	86.38
261.71	75.38
261.942	69.38
262.175	89.38
262.407	85.38
262.64	88.38
262.872	88.38
263.105	82.38
263.337	87.38
263.57	88.38
263.802	83.38
264.035	68.38
264.267	85.38
264.499	78.38
264.732	78.38
264.964	85.38
265.197	75.38
265.429	93.38
265.661	77.38
265.894	86.38
266.126	89.38
266.358	83.38
266.591	74.38
266.823	99.38
267.055	71.38
267.287	78.38
267.52	91.38
267.752	79.38
267.984	80.38
268.216	75.38
268.448	75.38
268.681	66.38
268.913	75.38
269.145	74.38
269.377	71.38
269.609	84.38
269.841	81.38
270.073	72.38
270.306	77.38
270.538	86.38
270.77	79.38
271.002	79.38
271.234	61.38
271.466	80.38
271.698	75.38
271.93	99.38
272.162	85.38
272.394	80.38
272.626	81.38
272.858	77.38
273.09	97.38
273.322	74.38
273.553	80.38
273.785	75.38
274.017	71.38
274.249	80.38
274.481	87.38
274.713	91.38
274.945	80.38
275.176	74.38
275.408	76.38
275.64	90.38
275.872	81.38
276.104	88.38
276.335	106.38
276.567	90.38
276.799	72.38
277.031	83.38
277.262	87.38
277.494	85.38
277.726	70.38
277.957	82.38
278.189	74.38
278.421	84.38
278.652	71.38
278.884	76.38
279.115	91.38
279.347	78.38
279.579	90.38
279.81	87.38
280.042	92.38
280.273	82.38
280.505	66.38
280.736	86.38
280.968	79.38
281.199	78.38
281.431	90.38
281.662	79.38
281.894	87.38
282.125	85.38
282.356	85.38
282.588	81.38
282.819	88.38
283.051	79.38
283.282	76.38
283.513	85.38
283.745	85.38
283.976	73.38
284.207	81.38
284.439	86.38
284.67	84.38
284.901	81.38
285.132	89.38
285.364	98.38
285.595	97.38
285.826	82.38
286.057	89.38
286.288	82.38
286.52	85.38
286.751	77.38
286.982	77.38
287.213	74.38
287.444	89.38
287.675	72.38
287.906	93.38
288.138	65.38
288.369	93.38
288.6	68.38
288.831	81.38
289.062	81.38
289.293	90.38
289.524	93.38
289.755	85.38
289.986	80.38
290.217	75.38
290.448	89.38
290.679	87.38
290.91	90.38
291.141	85.38
291.371	87.38
291.602	81.38
291.833	88.38
292.064	72.38
292.295	86.38
292.526	74.38
292.757	80.38
292.987	87.38
293.218	82.38
293.449	92.38
293.68	97.38
293.91	83.38
294.141	90.38
294.372	79.38
294.603	87.38
294.833	88.38
295.064	81.38
295.295	78.38
295.525	88.38
295.756	91.38
295.987	81.38
296.217	93.38
296.448	89.38
296.679	82.38
296.909	81.38
297.14	79.38
297.37	91.38
297.601	78.38
297.831	66.38
298.062	93.38
298.292	105.38
298.523	84.38
298.753	93.38
298.984	79.38
299.214	89.38
299.445	77.38
299.675	83.38
299.905	78.38
300.136	84.38
300.366	72.38
300.597	87.38
300.827	81.38
301.057	79.38
301.288	82.38
301.518	85.38
301.748	80.38
301.979	77.38
302.209	90.38
302.439	89.38
302.669	91.38
302.9	82.38
303.13	93.38
303.36	88.38
303.59	86.38
303.82	81.38
304.051	81.38
304.281	77.38
304.511	71.38
304.741	78.38
304.971	75.38
305.201	88.38
305.431	88.38
305.661	68.38
305.891	67.38
306.121	93.38
306.352	82.38
306.582	89.38
306.812	86.38
307.042	81.38
307.272	80.38
307.502	91.38
307.731	79.38
307.961	79.38
308.191	92.38
308.421	82.38
308.651	90.38
308.881	74.38
309.111	86.38
309.341	88.38
309.571	75.38
309.8	88.38
310.03	82.38
310.26	77.38
310.49	90.38
310.72	80.38
310.949	81.38
311.179	89.38
311.409	74.38
311.639	74.38
311.868	88.38
312.098	92.38
312.328	84.38
312.557	88.38
312.787	92.38
313.017	81.38
313.246	85.38
313.476	77.38
313.706	77.38
313.935	70.38
314.165	77.38
314.394	87.38
314.624	78.38
314.853	103.38
315.083	85.38
315.312	90.38
315.542	85.38
315.771	84.38
316.001	89.38
316.23	88.38
316.46	76.38
316.689	86.38
316.919	83.38
317.148	87.38
317.377	100.38
317.607	96.38
317.836	84.38
318.065	81.38
318.295	68.38
318.524	85.38
318.753	69.38
318.983	87.38
319.212	90.38
319.441	72.38
319.67	94.38
319.9	80.38
320.129	89.38
320.358	77.38
320.587	77.38
320.816	94.38
321.046	79.38
321.275	76.38
321.504	78.38
321.733	90.38
321.962	80.38
322.191	105.38
322.42	79.38
322.649	88.38
322.878	81.38
323.108	96.38
323.337	76.38
323.566	89.38
323.795	89.38
324.024	84.38
324.253	99.38
324.482	84.38
324.71	88.38
324.939	84.38
325.168	84.38
325.397	66.38
325.626	83.38
325.855	96.38
326.084	80.38
326.313	73.38
326.542	85.38
326.77	91.38
326.999	86.38
327.228	95.38
327.457	89.38
327.686	75.38
327.914	90.38
328.143	76.38
328.372	90.38
328.6	74.38
328.829	86.38
329.058	98.38
329.287	87.38
329.515	84.38
329.744	83.38
329.972	87.38
330.201	85.38
330.43	94.38
330.658	74.38
330.887	84.38
331.115	81.38
331.344	84.38
331.572	89.38
331.801	91.38
332.03	77.38
332.258	73.38
332.486	81.38
332.715	74.38
332.943	75.38
333.172	75.38
333.4	76.38
333.629	81.38
333.857	92.38
334.085	69.38
334.314	68.38
334.542	93.38
334.771	77.38
334.999	74.38
335.227	84.38
335.455	86.38
335.684	93.38
335.912	80.38
336.14	81.38
336.369	84.38
336.597	92.38
336.825	81.38
337.053	85.38
337.281	69.38
337.51	70.38
337.738	82.38
337.966	90.38
338.194	97.38
338.422	76.38
338.65	98.38
338.878	91.38
339.106	70.38
339.334	83.38
339.562	83.38
339.79	93.38
340.018	77.38
340.246	73.38
340.474	91.38
340.702	83.38
340.93	95.38
341.158	79.38
341.386	74.38
341.614	76.38
341.842	84.38
342.07	98.38
342.298	102.38
342.526	83.38
342.754	86.38
342.981	83.38
343.209	83.38
343.437	80.38
343.665	84.38
343.893	85.38
344.12	88.38
344.348	89.38
344.576	87.38
344.804	97.38
345.031	91.38
345.259	98.38
345.487	97.38
345.714	92.38
345.942	74.38
346.17	84.38
346.397	77.38
346.625	84.38
346.853	83.38
347.08	77.38
347.308	91.38
347.535	89.38
347.763	64.38
347.99	89.38
348.218	86.38
348.445	84.38
348.673	83.38
348.9	82.38
349.128	64.38
349.355	70.38
349.583	81.38
349.81	76.38
350.037	88.38
350.265	85.38
350.492	87.38
350.72	77.38
350.947	86.38
351.174	87.38
351.402	81.38
351.629	89.38
351.856	88.38
352.083	86.38
352.311	88.38
352.538	96.38
352.765	85.38
352.992	67.38
353.22	85.38
353.447	77.38
353.674	90.38
353.901	82.38
354.128	83.38
354.355	93.38
354.583	84.38
354.81	75.38
355.037	82.38
355.264	88.38
355.491	76.38
355.718	83.38
355.945	92.38
356.172	86.38
356.399	90.38
356.626	84.38
356.853	86.38
357.08	90.38
357.307	79.38
357.534	79.38
357.761	87.38
357.988	90.38
358.215	88.38
358.441	88.38
358.668	95.38
358.895	88.38
359.122	85.38
359.349	84.38
359.576	78.38
359.802	84.38
360.029	84.38
360.256	90.38
360.483	83.38
360.709	92.38
360.936	77.38
361.163	83.38
361.39	88.38
361.616	73.38
361.843	69.38
362.07	84.38
362.296	85.38
362.523	85.38
362.749	73.38
362.976	66.38
363.203	83.38
363.429	79.38
363.656	83.38
363.882	87.38
364.109	65.38
364.335	83.38
364.562	84.38
364.788	80.38
365.015	81.38
365.241	87.38
365.468	88.38
365.694	89.38
365.92	89.38
366.147	91.38
366.373	81.38
366.599	86.38
366.826	88.38
367.052	83.38
367.278	81.38
367.505	87.38
367.731	90.38
367.957	76.38
368.184	96.38
368.41	93.38
368.636	91.38
368.862	82.38
369.089	88.38
369.315	85.38
369.541	91.38
369.767	81.38
369.993	98.38
370.219	86.38
370.445	86.38
370.672	89.38
370.898	96.38
371.124	94.38
371.35	87.38
371.576	105.38
371.802	87.38
372.028	98.38
372.254	92.38
372.48	84.38
372.706	89.38
372.932	96.38
373.158	105.38
373.384	100.38
373.61	77.38
373.835	83.38
374.061	86.38
374.287	91.38
374.513	91.38
374.739	78.38
374.965	81.38
375.191	87.38
375.416	87.38
375.642	94.38
375.868	85.38
376.094	76.38
376.319	76.38
376.545	84.38
376.771	86.38
376.997	112.38
377.222	92.38
377.448	97.38
377.674	94.38
377.899	95.38
378.125	99.38
378.35	92.38
378.576	89.38
378.802	97.38
379.027	85.38
379.253	89.38
379.478	95.38
379.704	105.38
379.929	101.38
380.155	97.38
380.38	92.38
380.606	100.38
380.831	100.38
381.057	86.38
381.282	101.38
381.507	90.38
381.733	99.38
381.958	91.38
382.184	109.38
382.409	91.38
382.634	97.38
382.86	105.38
383.085	113.38
383.31	104.38
383.535	93.38
383.761	108.38
383.986	93.38
384.211	97.38
384.436	106.38
384.662	98.38
384.887	97.38
385.112	100.38
385.337	91.38
385.562	97.38
385.787	84.38
386.013	103.38
386.238	101.38
386.463	106.38
386.688	93.38
386.913	94.38
387.138	81.38
387.363	99.38
387.588	97.38
387.813	103.38
388.038	92.38
388.263	88.38
388.488	98.38
388.713	96.38
388.938	96.38
389.163	97.38
389.387	95.38
389.612	100.38
389.837	97.38
390.062	96.38
390.287	105.38
390.512	95.38
390.736	98.38
390.961	103.38
391.186	93.38
391.411	90.38
391.636	96.38
391.86	113.38
392.085	97.38
392.31	104.38
392.534	97.38
392.759	112.38
392.984	88.38
393.208	95.38
393.433	107.38
393.658	96.38
393.882	103.38
394.107	97.38
394.331	105.38
394.556	94.38
394.78	109.38
395.005	108.38
395.229	97.38
395.454	101.38
395.678	97.38
395.903	95.38
396.127	100.38
396.352	119.38
396.576	114.38
396.801	112.38
397.025	96.38
397.249	111.38
397.474	105.38
397.698	118.38
397.922	127.38
398.147	116.38
398.371	98.38
398.595	113.38
398.82	96.38
399.044	102.38
399.268	99.38
399.492	111.38
399.717	102.38
399.941	111.38
400.165	114.38
400.389	99.38
400.613	100.38
400.837	113.38
401.062	100.38
401.286	100.38
401.51	101.38
401.734	111.38
401.958	111.38
402.182	88.38
402.406	105.38
402.63	115.38
402.854	103.38
403.078	113.38
403.302	106.38
403.526	109.38
403.75	117.38
403.974	110.38
404.198	122.38
404.422	116.38
404.645	103.38
404.869	96.38
405.093	107.38
405.317	109.38
405.541	122.38
405.765	111.38
405.988	102.38
406.212	96.38
406.436	113.38
406.66	103.38
406.883	119.38
407.107	121.38
407.331	113.38
407.555	120.38
407.778	115.38
408.002	119.38
408.226	124.38
408.449	120.38
408.673	107.38
408.896	123.38
409.12	121.38
409.344	117.38
409.567	123.38
409.791	124.38
410.014	116.38
410.238	119.38
410.461	116.38
410.685	119.38
410.908	125.38
411.132	106.38
411.355	120.38
411.578	120.38
411.802	114.38
412.025	115.38
412.249	113.38
412.472	112.38
412.695	109.38
412.919	121.38
413.142	108.38
413.365	128.38
413.589	116.38
413.812	117.38
414.035	121.38
414.258	116.38
414.482	127.38
414.705	123.38
414.928	110.38
415.151	112.38
415.374	120.38
415.597	121.38
415.821	133.38
416.044	129.38
416.267	122.38
416.49	129.38
416.713	123.38
416.936	112.38
417.159	108.38
417.382	119.38
417.605	121.38
417.828	130.38
418.051	119.38
418.274	135.38
418.497	127.38
418.72	118.38
418.943	124.38
419.166	121.38
419.389	131.38
419.611	114.38
419.834	127.38
420.057	132.38
420.28	131.38
420.503	115.38
420.726	113.38
420.948	136.38
421.171	139.38
421.394	127.38
421.617	135.38
421.839	133.38
422.062	121.38
422.285	121.38
422.507	121.38
422.73	128.38
422.953	119.38
423.175	127.38
423.398	120.38
423.621	125.38
423.843	119.38
424.066	137.38
424.288	143.38
424.511	144.38
424.733	131.38
424.956	129.38
425.178	133.38
425.401	129.38
425.623	132.38
425.846	123.38
426.068	130.38
426.291	134.38
426.513	118.38
426.735	118.38
426.958	125.38
427.18	135.38
427.402	125.38
427.625	118.38
427.847	120.38
428.069	120.38
428.292	134.38
428.514	117.38
428.736	131.38
428.958	125.38
429.181	112.38
429.403	128.38
429.625	137.38
429.847	133.38
430.069	116.38
430.292	119.38
430.514	113.38
430.736	125.38
430.958	121.38
431.18	129.38
431.402	116.38
431.624	115.38
431.846	92.38
432.068	104.38
432.29	102.38
432.512	113.38
432.734	117.38
432.956	129.38
433.178	127.38
433.4	131.38
433.622	123.38
433.844	134.38
434.066	125.38
434.287	104.38
434.509	89.38
434.731	96.38
434.953	115.38
435.175	117.38
435.397	128.38
435.618	107.38
435.84	117.38
436.062	116.38
436.284	119.38
436.505	131.38
436.727	120.38
436.949	117.38
437.17	125.38
437.392	121.38
437.614	121.38
437.835	115.38
438.057	119.38
438.278	101.38
438.5	109.38
438.721	131.38
438.943	145.38
439.165	122.38
439.386	138.38
439.608	152.38
439.829	132.38
440.05	121.38
440.272	147.38
440.493	124.38
440.715	144.38
440.936	134.38
441.158	136.38
441.379	154.38
441.6	139.38
441.822	153.38
442.043	142.38
442.264	131.38
442.486	128.38
442.707	151.38
442.928	132.38
443.149	141.38
443.371	138.38
443.592	150.38
443.813	142.38
444.034	142.38
444.255	130.38
444.476	121.38
444.698	140.38
444.919	148.38
445.14	258.38
445.361	195.38
445.582	149.38
445.803	141.38
446.024	137.38
446.245	153.38
446.466	175.38
446.687	139.38
446.908	148.38
447.129	152.38
447.35	157.38
447.571	137.38
447.792	127.38
448.013	139.38
448.234	147.38
448.455	133.38
448.675	136.38
448.896	129.38
449.117	139.38
449.338	138.38
449.559	140.38
449.779	148.38
450	135.38
450.221	140.38
450.442	125.38
450.662	125.38
450.883	137.38
451.104	132.38
451.324	127.38
451.545	108.38
451.766	136.38
451.986	118.38
452.207	124.38
452.428	122.38
452.648	131.38
452.869	123.38
453.089	108.38
453.31	117.38
453.53	107.38
453.751	111.38
453.971	104.38
454.192	108.38
454.412	107.38
454.633	120.38
454.853	129.38
455.073	130.38
455.294	128.38
455.514	124.38
455.734	121.38
455.955	107.38
456.175	101.38
456.395	118.38
456.616	119.38
456.836	101.38
457.056	105.38
457.276	115.38
457.497	97.38
457.717	123.38
457.937	107.38
458.157	108.38
458.377	98.38
458.598	101.38
458.818	98.38
459.038	81.38
459.258	90.38
459.478	84.38
459.698	92.38
459.918	99.38
460.138	116.38
460.358	121.38
460.578	109.38
460.798	121.38
461.018	117.38
461.238	104.38
461.458	108.38
461.678	106.38
461.898	115.38
462.118	117.38
462.338	119.38
462.558	110.38
462.777	121.38
462.997	117.38
463.217	113.38
463.437	99.38
463.657	114.38
463.876	96.38
464.096	111.38
464.316	109.38
464.536	92.38
464.755	115.38
464.975	114.38
465.195	124.38
465.414	119.38
465.634	111.38
465.854	105.38
466.073	117.38
466.293	120.38
466.512	124.38
466.732	119.38
466.951	118.38
467.171	127.38
467.391	137.38
467.61	134.38
467.829	139.38
468.049	152.38
468.268	123.38
468.488	142.38
468.707	123.38
468.927	143.38
469.146	122.38
469.365	136.38
469.585	145.38
469.804	140.38
470.023	137.38
470.243	135.38
470.462	136.38
470.681	139.38
470.901	139.38
471.12	135.38
471.339	132.38
471.558	138.38
471.777	138.38
471.997	119.38
472.216	133.38
472.435	131.38
472.654	117.38
472.873	109.38
473.092	127.38
473.311	125.38
473.53	128.38
473.749	133.38
473.968	127.38
474.187	139.38
474.406	122.38
474.625	121.38
474.844	129.38
475.063	122.38
475.282	120.38
475.501	123.38
475.72	122.38
475.939	123.38
476.158	125.38
476.377	119.38
476.596	126.38
476.814	115.38
477.033	82.38
477.252	114.38
477.471	130.38
477.69	123.38
477.908	142.38
478.127	150.38
478.346	128.38
478.564	125.38
478.783	131.38
479.002	140.38
479.22	135.38
479.439	114.38
479.658	122.38
479.876	117.38
480.095	117.38
480.313	120.38
480.532	106.38
480.751	115.38
480.969	104.38
481.188	96.38
481.406	91.38
481.624	85.38
481.843	88.38
482.061	112.38
482.28	104.38
482.498	111.38
482.717	111.38
482.935	117.38
483.153	122.38
483.372	138.38
483.59	140.38
483.808	137.38
484.027	145.38
484.245	133.38
484.463	143.38
484.681	168.38
484.9	161.38
485.118	137.38
485.336	124.38
485.554	121.38
485.772	88.38
485.99	104.38
486.209	100.38
486.427	123.38
486.645	128.38
486.863	131.38
487.081	141.38
487.299	124.38
487.517	148.38
487.735	161.38
487.953	183.38
488.171	163.38
488.389	157.38
488.607	161.38
488.825	144.38
489.043	117.38
489.261	130.38
489.479	128.38
489.696	141.38
489.914	139.38
490.132	142.38
490.35	162.38
490.568	155.38
490.786	147.38
491.003	168.38
491.221	167.38
491.439	196.38
491.657	187.38
491.874	189.38
492.092	215.38
492.31	241.38
492.527	241.38
492.745	209.38
492.963	179.38
493.18	174.38
493.398	181.38
493.615	163.38
493.833	175.38
494.05	171.38
494.268	161.38
494.485	172.38
494.703	152.38
494.92	175.38
495.138	175.38
495.355	153.38
495.573	164.38
495.79	147.38
496.008	147.38
496.225	159.38
496.442	148.38
496.66	154.38
496.877	167.38
497.094	148.38
497.312	162.38
497.529	161.38
497.746	127.38
497.963	136.38
498.181	124.38
498.398	119.38
498.615	117.38
498.832	117.38
499.049	115.38
499.267	123.38
499.484	119.38
499.701	127.38
499.918	129.38
500.135	136.38
500.352	136.38
500.569	138.38
500.786	139.38
501.003	133.38
501.22	138.38
501.437	137.38
501.654	133.38
501.871	128.38
502.088	118.38
502.305	123.38
502.522	110.38
502.739	113.38
502.956	126.38
503.172	127.38
503.389	129.38
503.606	119.38
503.823	120.38
504.04	121.38
504.256	124.38
504.473	123.38
504.69	105.38
504.907	125.38
505.123	117.38
505.34	111.38
505.557	118.38
505.773	123.38
505.99	119.38
506.207	124.38
506.423	103.38
506.64	131.38
506.856	97.38
507.073	101.38
507.289	114.38
507.506	111.38
507.722	125.38
507.939	135.38
508.155	123.38
508.372	112.38
508.588	114.38
508.805	108.38
509.021	111.38
509.238	97.38
509.454	86.38
509.67	103.38
509.887	92.38
510.103	92.38
510.319	77.38
510.536	80.38
510.752	89.38
510.968	111.38
511.184	82.38
511.401	85.38
511.617	87.38
511.833	92.38
512.049	86.38
512.265	106.38
512.481	100.38
512.698	98.38
512.914	104.38
513.13	97.38
513.346	92.38
513.562	83.38
513.778	84.38
513.994	100.38
514.21	88.38
514.426	74.38
514.642	84.38
514.858	86.38
515.074	87.38
515.29	101.38
515.506	90.38
515.721	92.38
515.937	87.38
516.153	92.38
516.369	97.38
516.585	82.38
516.801	90.38
517.016	100.38
517.232	91.38
517.448	90.38
517.664	79.38
517.879	102.38
518.095	99.38
518.311	87.38
518.527	96.38
518.742	88.38
518.958	89.38
519.173	112.38
519.389	94.38
519.605	114.38
519.82	105.38
520.036	104.38
520.251	116.38
520.467	106.38
520.682	91.38
520.898	102.38
521.113	99.38
521.329	94.38
521.544	81.38
521.76	83.38
521.975	94.38
522.19	106.38
522.406	84.38
522.621	83.38
522.836	104.38
523.052	110.38
523.267	90.38
523.482	89.38
523.698	125.38
523.913	122.38
524.128	114.38
524.343	113.38
524.559	113.38
524.774	114.38
524.989	119.38
525.204	124.38
525.419	108.38
525.634	109.38
525.849	125.38
526.064	114.38
526.28	97.38
526.495	93.38
526.71	111.38
526.925	77.38
527.14	79.38
527.355	98.38
527.57	88.38
527.785	91.38
527.999	90.38
528.214	95.38
528.429	104.38
528.644	125.38
528.859	145.38
529.074	146.38
529.289	170.38
529.503	160.38
529.718	131.38
529.933	129.38
530.148	87.38
530.363	101.38
530.577	105.38
530.792	77.38
531.007	74.38
531.221	87.38
531.436	97.38
531.651	97.38
531.865	86.38
532.08	104.38
532.295	95.38
532.509	82.38
532.724	78.38
532.938	85.38
533.153	102.38
533.367	106.38
533.582	121.38
533.796	140.38
534.011	120.38
534.225	100.38
534.44	81.38
534.654	86.38
534.868	97.38
535.083	107.38
535.297	93.38
535.511	94.38
535.726	95.38
535.94	92.38
536.154	93.38
536.369	88.38
536.583	74.38
536.797	89.38
537.011	85.38
537.225	93.38
537.44	100.38
537.654	86.38
537.868	89.38
538.082	99.38
538.296	93.38
538.51	106.38
538.724	113.38
538.938	119.38
539.153	105.38
539.367	116.38
539.581	112.38
539.795	106.38
540.009	85.38
540.222	101.38
540.436	104.38
540.65	108.38
540.864	123.38
541.078	153.38
541.292	141.38
541.506	153.38
541.72	183.38
541.934	189.38
542.147	199.38
542.361	188.38
542.575	153.38
542.789	134.38
543.002	119.38
543.216	116.38
543.43	125.38
543.644	123.38
543.857	158.38
544.071	155.38
544.285	169.38
544.498	143.38
544.712	154.38
544.925	158.38
545.139	153.38
545.352	152.38
545.566	155.38
545.779	137.38
545.993	159.38
546.206	165.38
546.42	152.38
546.633	171.38
546.847	159.38
547.06	163.38
547.274	165.38
547.487	164.38
547.7	168.38
547.914	146.38
548.127	157.38
548.34	166.38
548.554	153.38
548.767	151.38
548.98	163.38
549.193	157.38
549.407	147.38
549.62	146.38
549.833	137.38
550.046	160.38
550.259	147.38
550.473	130.38
550.686	145.38
550.899	139.38
551.112	154.38
551.325	124.38
551.538	141.38
551.751	122.38
551.964	135.38
552.177	129.38
552.39	138.38
552.603	147.38
552.816	148.38
553.029	162.38
553.242	162.38
553.455	171.38
553.667	153.38
553.88	146.38
554.093	154.38
554.306	146.38
554.519	156.38
554.732	160.38
554.944	133.38
555.157	128.38
555.37	150.38
555.583	131.38
555.795	139.38
556.008	133.38
556.221	123.38
556.433	118.38
556.646	127.38
556.859	128.38
557.071	130.38
557.284	136.38
557.496	127.38
557.709	152.38
557.921	145.38
558.134	122.38
558.346	147.38
558.559	135.38
558.771	124.38
558.984	131.38
559.196	142.38
559.409	131.38
559.621	141.38
559.833	119.38
560.046	115.38
560.258	137.38
560.47	124.38
560.683	136.38
560.895	141.38
561.107	126.38
561.32	125.38
561.532	129.38
561.744	131.38
561.956	133.38
562.168	147.38
562.381	118.38
562.593	122.38
562.805	116.38
563.017	131.38
563.229	104.38
563.441	127.38
563.653	131.38
563.865	131.38
564.077	113.38
564.289	118.38
564.501	120.38
564.713	106.38
564.925	93.38
565.137	105.38
565.349	132.38
565.561	117.38
565.773	122.38
565.985	117.38
566.197	122.38
566.408	120.38
566.62	118.38
566.832	119.38
567.044	115.38
567.255	118.38
567.467	109.38
567.679	119.38
567.891	111.38
568.102	106.38
568.314	97.38
568.526	96.38
568.737	91.38
568.949	97.38
569.161	91.38
569.372	94.38
569.584	66.38
569.795	92.38
570.007	96.38
570.218	75.38
570.43	85.38
570.641	92.38
570.853	83.38
571.064	88.38
571.276	91.38
571.487	111.38
571.698	106.38
571.91	100.38
572.121	81.38
572.333	92.38
572.544	98.38
572.755	93.38
572.966	91.38
573.178	96.38
573.389	84.38
573.6	73.38
573.811	84.38
574.023	91.38
574.234	81.38
574.445	90.38
574.656	80.38
574.867	85.38
575.078	88.38
575.289	103.38
575.501	85.38
575.712	86.38
575.923	92.38
576.134	92.38
576.345	102.38
576.556	105.38
576.767	96.38
576.978	103.38
577.188	100.38
577.399	96.38
577.61	88.38
577.821	84.38
578.032	86.38
578.243	101.38
578.454	98.38
578.665	95.38
578.875	89.38
579.086	81.38
579.297	82.38
579.508	75.38
579.718	77.38
579.929	81.38
580.14	101.38
580.35	97.38
580.561	91.38
580.772	99.38
580.982	79.38
581.193	97.38
581.403	86.38
581.614	94.38
581.825	87.38
582.035	89.38
582.246	84.38
582.456	104.38
582.667	91.38
582.877	84.38
583.087	92.38
583.298	86.38
583.508	83.38
583.719	99.38
583.929	78.38
584.139	72.38
584.35	74.38
584.56	89.38
584.77	77.38
584.981	85.38
585.191	93.38
585.401	82.38
585.611	74.38
585.821	88.38
586.032	89.38
586.242	91.38
586.452	86.38
586.662	73.38
586.872	83.38
587.082	77.38
587.292	76.38
587.502	77.38
587.713	78.38
587.923	71.38
588.133	88.38
588.343	99.38
588.553	78.38
588.762	90.38
588.972	80.38
589.182	80.38
589.392	70.38
589.602	70.38
589.812	70.38
590.022	86.38
590.232	73.38
590.441	99.38
590.651	83.38
590.861	78.38
591.071	77.38
591.281	94.38
591.49	78.38
591.7	85.38
591.91	78.38
592.119	85.38
592.329	73.38
592.539	82.38
592.748	81.38
592.958	95.38
593.167	74.38
593.377	89.38
593.587	89.38
593.796	70.38
594.006	72.38
594.215	95.38
594.424	88.38
594.634	86.38
594.843	77.38
595.053	99.38
595.262	85.38
595.472	92.38
595.681	81.38
595.89	93.38
596.1	84.38
596.309	87.38
596.518	101.38
596.727	84.38
596.937	95.38
597.146	88.38
597.355	95.38
597.564	95.38
597.774	102.38
597.983	92.38
598.192	84.38
598.401	75.38
598.61	86.38
598.819	89.38
599.028	97.38
599.237	106.38
599.446	83.38
599.655	80.38
599.864	105.38
600.073	87.38
600.282	94.38
600.491	97.38
600.7	103.38
600.909	82.38
601.118	95.38
601.327	92.38
601.536	113.38
601.745	88.38
601.953	99.38
602.162	105.38
602.371	91.38
602.58	107.38
602.789	114.38
602.997	106.38
603.206	101.38
603.415	111.38
603.623	109.38
603.832	99.38
604.041	104.38
604.249	102.38
604.458	96.38
604.666	93.38
604.875	100.38
605.084	103.38
605.292	96.38
605.501	102.38
605.709	123.38
605.918	129.38
606.126	110.38
606.334	111.38
606.543	110.38
606.751	104.38
606.96	105.38
607.168	109.38
607.376	112.38
607.585	103.38
607.793	116.38
608.001	115.38
608.21	87.38
608.418	103.38
608.626	104.38
608.834	111.38
609.043	112.38
609.251	100.38
609.459	111.38
609.667	123.38
609.875	130.38
610.083	115.38
610.291	121.38
610.499	107.38
610.707	116.38
610.916	119.38
611.124	112.38
611.332	108.38
611.54	115.38
611.748	123.38
611.955	117.38
612.163	112.38
612.371	105.38
612.579	117.38
612.787	115.38
612.995	107.38
613.203	104.38
613.411	105.38
613.618	122.38
613.826	120.38
614.034	103.38
614.242	113.38
614.449	123.38
614.657	122.38
614.865	116.38
615.072	112.38
615.28	126.38
615.488	92.38
615.695	107.38
615.903	101.38
616.111	105.38
616.318	113.38
616.526	104.38
616.733	117.38
616.941	111.38
617.148	124.38
617.356	113.38
617.563	113.38
617.771	105.38
617.978	116.38
618.185	113.38
618.393	105.38
618.6	103.38
618.807	106.38
619.015	107.38
619.222	109.38
619.429	98.38
619.637	97.38
619.844	103.38
620.051	99.38
620.258	99.38
620.466	100.38
620.673	114.38
620.88	117.38
621.087	114.38
621.294	105.38
621.501	105.38
621.708	114.38
621.915	97.38
622.122	115.38
622.329	102.38
622.536	95.38
622.743	115.38
622.95	114.38
623.157	109.38
623.364	107.38
623.571	109.38
623.778	95.38
623.985	103.38
624.192	94.38
624.399	96.38
624.606	108.38
624.812	111.38
625.019	100.38
625.226	101.38
625.433	102.38
625.639	97.38
625.846	91.38
626.053	81.38
626.259	71.38
626.466	102.38
626.673	93.38
626.879	104.38
627.086	91.38
627.293	97.38
627.499	100.38
627.706	85.38
627.912	90.38
628.119	101.38
628.325	101.38
628.532	100.38
628.738	96.38
628.945	104.38
629.151	93.38
629.357	95.38
629.564	108.38
629.77	94.38
629.976	108.38
630.183	101.38
630.389	90.38
630.595	106.38
630.802	89.38
631.008	104.38
631.214	109.38
631.42	107.38
631.627	105.38
631.833	93.38
632.039	92.38
632.245	108.38
632.451	114.38
632.657	106.38
632.863	90.38
633.069	97.38
633.275	105.38
633.481	92.38
633.688	120.38
633.893	87.38
634.099	100.38
634.305	81.38
634.511	95.38
634.717	112.38
634.923	103.38
635.129	106.38
635.335	94.38
635.541	106.38
635.747	83.38
635.952	109.38
636.158	106.38
636.364	104.38
636.57	104.38
636.775	101.38
636.981	84.38
637.187	95.38
637.392	99.38
637.598	97.38
637.804	104.38
638.009	93.38
638.215	113.38
638.421	88.38
638.626	95.38
638.832	89.38
639.037	105.38
639.243	87.38
639.448	96.38
639.654	109.38
639.859	106.38
640.065	91.38
640.27	96.38
640.475	96.38
640.681	102.38
640.886	105.38
641.091	105.38
641.297	113.38
641.502	100.38
641.707	104.38
641.913	104.38
642.118	98.38
642.323	120.38
642.528	105.38
642.733	107.38
642.939	101.38
643.144	93.38
643.349	97.38
643.554	91.38
643.759	92.38
643.964	93.38
644.169	99.38
644.374	104.38
644.579	112.38
644.784	108.38
644.989	92.38
645.194	106.38
645.399	101.38
645.604	88.38
645.809	102.38
646.014	104.38
646.219	102.38
646.423	86.38
646.628	99.38
646.833	89.38
647.038	92.38
647.243	87.38
647.447	94.38
647.652	99.38
647.857	100.38
648.062	103.38
648.266	101.38
648.471	95.38
648.676	103.38
648.88	104.38
649.085	96.38
649.289	100.38
649.494	92.38
649.698	96.38
649.903	113.38
650.107	108.38
650.312	106.38
650.516	105.38
650.721	100.38
650.925	95.38
651.13	101.38
651.334	87.38
651.539	101.38
651.743	90.38
651.947	87.38
652.152	91.38
652.356	92.38
652.56	99.38
652.764	98.38
652.969	86.38
653.173	97.38
653.377	93.38
653.581	91.38
653.785	86.38
653.99	94.38
654.194	119.38
654.398	86.38
654.602	99.38
654.806	98.38
655.01	81.38
655.214	83.38
655.418	92.38
655.622	101.38
655.826	87.38
656.03	99.38
656.234	89.38
656.438	101.38
656.642	100.38
656.846	102.38
657.049	93.38
657.253	94.38
657.457	86.38
657.661	86.38
657.865	77.38
658.068	99.38
658.272	103.38
658.476	101.38
658.68	80.38
658.883	75.38
659.087	82.38
659.291	86.38
659.494	80.38
659.698	68.38
659.901	79.38
660.105	93.38
660.309	84.38
660.512	91.38
660.716	86.38
660.919	83.38
661.123	77.38
661.326	67.38
661.53	85.38
661.733	81.38
661.936	80.38
662.14	85.38
662.343	95.38
662.546	67.38
662.75	73.38
662.953	91.38
663.156	87.38
663.36	86.38
663.563	74.38
663.766	75.38
663.969	86.38
664.173	86.38
664.376	86.38
664.579	84.38
664.782	76.38
664.985	86.38
665.188	78.38
665.391	80.38
665.594	102.38
665.797	74.38
666	83.38
666.203	82.38
666.406	83.38
666.609	85.38
666.812	89.38
667.015	77.38
667.218	63.38
667.421	95.38
667.624	87.38
667.827	99.38
668.03	91.38
668.232	75.38
668.435	82.38
668.638	70.38
668.841	68.38
669.043	96.38
669.246	76.38
669.449	78.38
669.651	82.38
669.854	83.38
670.057	80.38
670.259	79.38
670.462	78.38
670.665	70.38
670.867	78.38
671.07	69.38
671.272	73.38
671.475	81.38
671.677	90.38
671.88	83.38
672.082	77.38
672.284	80.38
672.487	74.38
672.689	100.38
672.892	79.38
