Data from Location4.07152019.Energy5.Lamp.07192019.3%Agarose_HRD10591_16-19-55-926.txt Node
Date: Fri Jul 19 16:19:55 EDT 2019
User: cochatt
Spectrometer: HR+D1059
Trigger mode: 1
Integration Time (sec): 1.000000E-1
Scans to average: 1
Electric dark correction enabled: true
Nonlinearity correction enabled: false
Boxcar width: 0
XAxis mode: Wavelengths
Number of Pixels in Spectrum: 2048
>>>>>Begin Spectral Data<<<<<
223.165	-24.94
223.4	-24.94
223.635	-24.94
223.869	-14.94
224.104	-31.94
224.338	0.06
224.573	-17.94
224.808	-5.94
225.042	-6.94
225.277	-8.94
225.511	1.06
225.746	10.06
225.98	4.06
226.215	-4.94
226.449	19.06
226.683	22.06
226.918	21.06
227.152	39.06
227.387	36.06
227.621	33.06
227.856	48.06
228.09	54.06
228.324	40.06
228.559	62.06
228.793	53.06
229.027	45.06
229.262	66.06
229.496	68.06
229.73	63.06
229.964	59.06
230.199	68.06
230.433	71.06
230.667	70.06
230.901	66.06
231.136	66.06
231.37	79.06
231.604	81.06
231.838	77.06
232.072	78.06
232.306	84.06
232.541	72.06
232.775	82.06
233.009	71.06
233.243	76.06
233.477	78.06
233.711	81.06
233.945	77.06
234.179	88.06
234.413	79.06
234.647	82.06
234.881	76.06
235.115	88.06
235.349	74.06
235.583	90.06
235.817	77.06
236.051	69.06
236.285	61.06
236.519	67.06
236.753	69.06
236.987	79.06
237.221	78.06
237.455	74.06
237.689	92.06
237.922	84.06
238.156	74.06
238.39	70.06
238.624	83.06
238.858	71.06
239.091	71.06
239.325	83.06
239.559	74.06
239.793	73.06
240.027	80.06
240.26	74.06
240.494	73.06
240.728	76.06
240.961	64.06
241.195	80.06
241.429	83.06
241.662	76.06
241.896	87.06
242.13	73.06
242.363	68.06
242.597	77.06
242.83	82.06
243.064	64.06
243.298	87.06
243.531	67.06
243.765	78.06
243.998	83.06
244.232	63.06
244.465	66.06
244.699	82.06
244.932	74.06
245.166	73.06
245.399	78.06
245.633	78.06
245.866	90.06
246.099	72.06
246.333	72.06
246.566	72.06
246.8	61.06
247.033	86.06
247.266	73.06
247.5	76.06
247.733	86.06
247.966	81.06
248.2	80.06
248.433	52.06
248.666	54.06
248.899	70.06
249.133	82.06
249.366	75.06
249.599	68.06
249.832	76.06
250.066	83.06
250.299	58.06
250.532	71.06
250.765	84.06
250.998	63.06
251.231	95.06
251.465	70.06
251.698	91.06
251.931	89.06
252.164	77.06
252.397	87.06
252.63	77.06
252.863	77.06
253.096	79.06
253.329	89.06
253.562	69.06
253.795	74.06
254.028	72.06
254.261	84.06
254.494	79.06
254.727	74.06
254.96	62.06
255.193	79.06
255.426	78.06
255.659	69.06
255.892	83.06
256.124	84.06
256.357	64.06
256.59	74.06
256.823	90.06
257.056	86.06
257.289	90.06
257.521	73.06
257.754	69.06
257.987	81.06
258.22	90.06
258.452	82.06
258.685	87.06
258.918	79.06
259.151	72.06
259.383	87.06
259.616	77.06
259.849	66.06
260.081	95.06
260.314	78.06
260.547	76.06
260.779	86.06
261.012	74.06
261.244	72.06
261.477	74.06
261.71	78.06
261.942	77.06
262.175	94.06
262.407	69.06
262.64	90.06
262.872	76.06
263.105	85.06
263.337	80.06
263.57	79.06
263.802	77.06
264.035	80.06
264.267	73.06
264.499	81.06
264.732	91.06
264.964	84.06
265.197	72.06
265.429	78.06
265.661	79.06
265.894	83.06
266.126	94.06
266.358	70.06
266.591	65.06
266.823	81.06
267.055	81.06
267.287	81.06
267.52	77.06
267.752	77.06
267.984	75.06
268.216	76.06
268.448	82.06
268.681	77.06
268.913	86.06
269.145	76.06
269.377	82.06
269.609	77.06
269.841	91.06
270.073	83.06
270.306	69.06
270.538	80.06
270.77	77.06
271.002	80.06
271.234	87.06
271.466	81.06
271.698	91.06
271.93	83.06
272.162	80.06
272.394	81.06
272.626	84.06
272.858	76.06
273.09	87.06
273.322	77.06
273.553	80.06
273.785	83.06
274.017	93.06
274.249	79.06
274.481	76.06
274.713	82.06
274.945	80.06
275.176	66.06
275.408	59.06
275.64	85.06
275.872	88.06
276.104	67.06
276.335	81.06
276.567	80.06
276.799	77.06
277.031	64.06
277.262	80.06
277.494	85.06
277.726	80.06
277.957	77.06
278.189	85.06
278.421	69.06
278.652	74.06
278.884	73.06
279.115	80.06
279.347	72.06
279.579	84.06
279.81	74.06
280.042	88.06
280.273	78.06
280.505	81.06
280.736	94.06
280.968	74.06
281.199	79.06
281.431	92.06
281.662	74.06
281.894	94.06
282.125	83.06
282.356	78.06
282.588	90.06
282.819	85.06
283.051	74.06
283.282	80.06
283.513	78.06
283.745	80.06
283.976	103.06
284.207	94.06
284.439	65.06
284.67	87.06
284.901	79.06
285.132	97.06
285.364	98.06
285.595	68.06
285.826	74.06
286.057	79.06
286.288	79.06
286.52	85.06
286.751	78.06
286.982	74.06
287.213	73.06
287.444	77.06
287.675	74.06
287.906	76.06
288.138	79.06
288.369	90.06
288.6	88.06
288.831	82.06
289.062	81.06
289.293	76.06
289.524	92.06
289.755	74.06
289.986	78.06
290.217	88.06
290.448	89.06
290.679	88.06
290.91	74.06
291.141	68.06
291.371	71.06
291.602	79.06
291.833	71.06
292.064	97.06
292.295	79.06
292.526	84.06
292.757	79.06
292.987	80.06
293.218	74.06
293.449	99.06
293.68	72.06
293.91	72.06
294.141	84.06
294.372	91.06
294.603	92.06
294.833	71.06
295.064	85.06
295.295	89.06
295.525	98.06
295.756	87.06
295.987	92.06
296.217	80.06
296.448	78.06
296.679	86.06
296.909	70.06
297.14	75.06
297.37	83.06
297.601	86.06
297.831	97.06
298.062	84.06
298.292	100.06
298.523	83.06
298.753	74.06
298.984	73.06
299.214	86.06
299.445	82.06
299.675	87.06
299.905	80.06
300.136	66.06
300.366	80.06
300.597	71.06
300.827	78.06
301.057	68.06
301.288	82.06
301.518	67.06
301.748	81.06
301.979	86.06
302.209	78.06
302.439	84.06
302.669	90.06
302.9	93.06
303.13	93.06
303.36	85.06
303.59	77.06
303.82	92.06
304.051	86.06
304.281	77.06
304.511	68.06
304.741	87.06
304.971	75.06
305.201	82.06
305.431	81.06
305.661	100.06
305.891	87.06
306.121	87.06
306.352	94.06
306.582	85.06
306.812	86.06
307.042	78.06
307.272	77.06
307.502	69.06
307.731	80.06
307.961	85.06
308.191	87.06
308.421	85.06
308.651	82.06
308.881	90.06
309.111	77.06
309.341	70.06
309.571	80.06
309.8	78.06
310.03	73.06
310.26	74.06
310.49	82.06
310.72	74.06
310.949	79.06
311.179	64.06
311.409	65.06
311.639	73.06
311.868	85.06
312.098	88.06
312.328	80.06
312.557	88.06
312.787	90.06
313.017	90.06
313.246	92.06
313.476	87.06
313.706	82.06
313.935	87.06
314.165	85.06
314.394	78.06
314.624	78.06
314.853	77.06
315.083	87.06
315.312	72.06
315.542	72.06
315.771	93.06
316.001	82.06
316.23	84.06
316.46	84.06
316.689	104.06
316.919	79.06
317.148	84.06
317.377	82.06
317.607	85.06
317.836	88.06
318.065	87.06
318.295	82.06
318.524	96.06
318.753	77.06
318.983	82.06
319.212	73.06
319.441	73.06
319.67	65.06
319.9	59.06
320.129	88.06
320.358	87.06
320.587	87.06
320.816	79.06
321.046	72.06
321.275	77.06
321.504	110.06
321.733	87.06
321.962	87.06
322.191	76.06
322.42	84.06
322.649	81.06
322.878	74.06
323.108	73.06
323.337	77.06
323.566	72.06
323.795	78.06
324.024	80.06
324.253	79.06
324.482	81.06
324.71	95.06
324.939	83.06
325.168	76.06
325.397	94.06
325.626	88.06
325.855	83.06
326.084	96.06
326.313	82.06
326.542	76.06
326.77	90.06
326.999	73.06
327.228	84.06
327.457	105.06
327.686	85.06
327.914	87.06
328.143	91.06
328.372	92.06
328.6	71.06
328.829	70.06
329.058	80.06
329.287	86.06
329.515	93.06
329.744	87.06
329.972	89.06
330.201	80.06
330.43	77.06
330.658	86.06
330.887	74.06
331.115	89.06
331.344	84.06
331.572	82.06
331.801	84.06
332.03	92.06
332.258	87.06
332.486	74.06
332.715	85.06
332.943	85.06
333.172	98.06
333.4	87.06
333.629	79.06
333.857	77.06
334.085	89.06
334.314	78.06
334.542	75.06
334.771	90.06
334.999	94.06
335.227	60.06
335.455	84.06
335.684	68.06
335.912	59.06
336.14	80.06
336.369	74.06
336.597	94.06
336.825	75.06
337.053	93.06
337.281	79.06
337.51	88.06
337.738	88.06
337.966	91.06
338.194	91.06
338.422	84.06
338.65	81.06
338.878	92.06
339.106	88.06
339.334	98.06
339.562	71.06
339.79	71.06
340.018	90.06
340.246	85.06
340.474	73.06
340.702	85.06
340.93	96.06
341.158	70.06
341.386	90.06
341.614	90.06
341.842	68.06
342.07	91.06
342.298	76.06
342.526	89.06
342.754	71.06
342.981	75.06
343.209	82.06
343.437	89.06
343.665	80.06
343.893	81.06
344.12	64.06
344.348	80.06
344.576	73.06
344.804	77.06
345.031	87.06
345.259	75.06
345.487	82.06
345.714	76.06
345.942	67.06
346.17	79.06
346.397	82.06
346.625	95.06
346.853	78.06
347.08	79.06
347.308	92.06
347.535	80.06
347.763	101.06
347.99	90.06
348.218	66.06
348.445	87.06
348.673	92.06
348.9	80.06
349.128	85.06
349.355	81.06
349.583	96.06
349.81	81.06
350.037	80.06
350.265	72.06
350.492	77.06
350.72	85.06
350.947	80.06
351.174	93.06
351.402	67.06
351.629	89.06
351.856	83.06
352.083	78.06
352.311	86.06
352.538	83.06
352.765	74.06
352.992	80.06
353.22	78.06
353.447	96.06
353.674	83.06
353.901	81.06
354.128	82.06
354.355	80.06
354.583	87.06
354.81	87.06
355.037	83.06
355.264	88.06
355.491	81.06
355.718	70.06
355.945	83.06
356.172	79.06
356.399	68.06
356.626	73.06
356.853	73.06
357.08	85.06
357.307	89.06
357.534	84.06
357.761	82.06
357.988	73.06
358.215	85.06
358.441	74.06
358.668	80.06
358.895	80.06
359.122	88.06
359.349	81.06
359.576	79.06
359.802	80.06
360.029	80.06
360.256	88.06
360.483	75.06
360.709	71.06
360.936	89.06
361.163	66.06
361.39	78.06
361.616	82.06
361.843	71.06
362.07	70.06
362.296	81.06
362.523	72.06
362.749	87.06
362.976	85.06
363.203	88.06
363.429	73.06
363.656	88.06
363.882	82.06
364.109	81.06
364.335	81.06
364.562	82.06
364.788	88.06
365.015	77.06
365.241	66.06
365.468	81.06
365.694	80.06
365.92	77.06
366.147	81.06
366.373	78.06
366.599	78.06
366.826	79.06
367.052	74.06
367.278	94.06
367.505	71.06
367.731	77.06
367.957	88.06
368.184	92.06
368.41	88.06
368.636	89.06
368.862	99.06
369.089	82.06
369.315	79.06
369.541	75.06
369.767	91.06
369.993	90.06
370.219	83.06
370.445	83.06
370.672	92.06
370.898	81.06
371.124	86.06
371.35	84.06
371.576	97.06
371.802	86.06
372.028	81.06
372.254	77.06
372.48	97.06
372.706	91.06
372.932	99.06
373.158	81.06
373.384	95.06
373.61	79.06
373.835	88.06
374.061	95.06
374.287	90.06
374.513	90.06
374.739	96.06
374.965	81.06
375.191	87.06
375.416	88.06
375.642	96.06
375.868	91.06
376.094	81.06
376.319	94.06
376.545	93.06
376.771	86.06
376.997	84.06
377.222	96.06
377.448	81.06
377.674	88.06
377.899	72.06
378.125	99.06
378.35	97.06
378.576	89.06
378.802	87.06
379.027	85.06
379.253	88.06
379.478	96.06
379.704	108.06
379.929	82.06
380.155	78.06
380.38	81.06
380.606	83.06
380.831	89.06
381.057	83.06
381.282	95.06
381.507	77.06
381.733	97.06
381.958	92.06
382.184	93.06
382.409	80.06
382.634	80.06
382.86	92.06
383.085	89.06
383.31	98.06
383.535	94.06
383.761	103.06
383.986	107.06
384.211	85.06
384.436	101.06
384.662	96.06
384.887	100.06
385.112	94.06
385.337	88.06
385.562	96.06
385.787	86.06
386.013	92.06
386.238	90.06
386.463	93.06
386.688	84.06
386.913	90.06
387.138	89.06
387.363	100.06
387.588	106.06
387.813	101.06
388.038	91.06
388.263	88.06
388.488	93.06
388.713	83.06
388.938	86.06
389.163	98.06
389.387	103.06
389.612	82.06
389.837	94.06
390.062	100.06
390.287	100.06
390.512	92.06
390.736	101.06
390.961	108.06
391.186	104.06
391.411	98.06
391.636	106.06
391.86	105.06
392.085	92.06
392.31	106.06
392.534	92.06
392.759	89.06
392.984	84.06
393.208	96.06
393.433	92.06
393.658	90.06
393.882	120.06
394.107	99.06
394.331	102.06
394.556	104.06
394.78	112.06
395.005	96.06
395.229	104.06
395.454	86.06
395.678	96.06
395.903	95.06
396.127	108.06
396.352	104.06
396.576	94.06
396.801	90.06
397.025	97.06
397.249	111.06
397.474	101.06
397.698	98.06
397.922	97.06
398.147	82.06
398.371	97.06
398.595	95.06
398.82	99.06
399.044	112.06
399.268	112.06
399.492	104.06
399.717	119.06
399.941	113.06
400.165	90.06
400.389	99.06
400.613	99.06
400.837	103.06
401.062	107.06
401.286	114.06
401.51	100.06
401.734	118.06
401.958	105.06
402.182	109.06
402.406	97.06
402.63	97.06
402.854	105.06
403.078	105.06
403.302	109.06
403.526	114.06
403.75	97.06
403.974	106.06
404.198	120.06
404.422	116.06
404.645	111.06
404.869	107.06
405.093	109.06
405.317	111.06
405.541	116.06
405.765	112.06
405.988	106.06
406.212	112.06
406.436	109.06
406.66	114.06
406.883	106.06
407.107	98.06
407.331	113.06
407.555	116.06
407.778	114.06
408.002	119.06
408.226	128.06
408.449	119.06
408.673	116.06
408.896	118.06
409.12	106.06
409.344	115.06
409.567	111.06
409.791	110.06
410.014	112.06
410.238	102.06
410.461	100.06
410.685	121.06
410.908	117.06
411.132	113.06
411.355	110.06
411.578	123.06
411.802	112.06
412.025	104.06
412.249	118.06
412.472	107.06
412.695	114.06
412.919	110.06
413.142	119.06
413.365	102.06
413.589	127.06
413.812	118.06
414.035	108.06
414.258	117.06
414.482	117.06
414.705	120.06
414.928	102.06
415.151	108.06
415.374	119.06
415.597	94.06
415.821	126.06
416.044	97.06
416.267	128.06
416.49	132.06
416.713	118.06
416.936	114.06
417.159	112.06
417.382	115.06
417.605	101.06
417.828	131.06
418.051	122.06
418.274	139.06
418.497	123.06
418.72	122.06
418.943	131.06
419.166	120.06
419.389	133.06
419.611	121.06
419.834	114.06
420.057	130.06
420.28	130.06
420.503	134.06
420.726	125.06
420.948	120.06
421.171	126.06
421.394	128.06
421.617	129.06
421.839	147.06
422.062	140.06
422.285	137.06
422.507	124.06
422.73	118.06
422.953	132.06
423.175	112.06
423.398	119.06
423.621	132.06
423.843	119.06
424.066	128.06
424.288	140.06
424.511	136.06
424.733	140.06
424.956	138.06
425.178	124.06
425.401	124.06
425.623	130.06
425.846	137.06
426.068	114.06
426.291	130.06
426.513	120.06
426.735	124.06
426.958	128.06
427.18	143.06
427.402	128.06
427.625	118.06
427.847	118.06
428.069	129.06
428.292	130.06
428.514	137.06
428.736	117.06
428.958	108.06
429.181	125.06
429.403	116.06
429.625	117.06
429.847	117.06
430.069	112.06
430.292	116.06
430.514	120.06
430.736	124.06
430.958	114.06
431.18	120.06
431.402	133.06
431.624	121.06
431.846	84.06
432.068	101.06
432.29	101.06
432.512	106.06
432.734	109.06
432.956	128.06
433.178	131.06
433.4	138.06
433.622	122.06
433.844	124.06
434.066	96.06
434.287	114.06
434.509	87.06
434.731	84.06
434.953	118.06
435.175	119.06
435.397	120.06
435.618	118.06
435.84	103.06
436.062	124.06
436.284	126.06
436.505	117.06
436.727	119.06
436.949	128.06
437.17	116.06
437.392	132.06
437.614	117.06
437.835	114.06
438.057	106.06
438.278	104.06
438.5	111.06
438.721	115.06
438.943	120.06
439.165	128.06
439.386	130.06
439.608	135.06
439.829	132.06
440.05	150.06
440.272	135.06
440.493	124.06
440.715	125.06
440.936	143.06
441.158	133.06
441.379	135.06
441.6	150.06
441.822	145.06
442.043	144.06
442.264	143.06
442.486	132.06
442.707	128.06
442.928	137.06
443.149	133.06
443.371	124.06
443.592	132.06
443.813	138.06
444.034	127.06
444.255	134.06
444.476	127.06
444.698	136.06
444.919	147.06
445.14	277.06
445.361	196.06
445.582	150.06
445.803	135.06
446.024	146.06
446.245	146.06
446.466	141.06
446.687	151.06
446.908	136.06
447.129	154.06
447.35	154.06
447.571	159.06
447.792	158.06
448.013	131.06
448.234	136.06
448.455	136.06
448.675	131.06
448.896	141.06
449.117	151.06
449.338	136.06
449.559	120.06
449.779	130.06
450	116.06
450.221	136.06
450.442	137.06
450.662	139.06
450.883	119.06
451.104	127.06
451.324	140.06
451.545	129.06
451.766	121.06
451.986	127.06
452.207	126.06
452.428	130.06
452.648	113.06
452.869	123.06
453.089	112.06
453.31	97.06
453.53	108.06
453.751	107.06
453.971	111.06
454.192	91.06
454.412	113.06
454.633	118.06
454.853	125.06
455.073	102.06
455.294	109.06
455.514	126.06
455.734	108.06
455.955	117.06
456.175	109.06
456.395	108.06
456.616	98.06
456.836	95.06
457.056	102.06
457.276	106.06
457.497	108.06
457.717	101.06
457.937	97.06
458.157	106.06
458.377	96.06
458.598	102.06
458.818	101.06
459.038	89.06
459.258	70.06
459.478	80.06
459.698	84.06
459.918	109.06
460.138	102.06
460.358	108.06
460.578	118.06
460.798	97.06
461.018	112.06
461.238	116.06
461.458	120.06
461.678	119.06
461.898	102.06
462.118	108.06
462.338	109.06
462.558	100.06
462.777	110.06
462.997	103.06
463.217	110.06
463.437	116.06
463.657	111.06
463.876	117.06
464.096	107.06
464.316	97.06
464.536	120.06
464.755	109.06
464.975	108.06
465.195	118.06
465.414	117.06
465.634	112.06
465.854	124.06
466.073	122.06
466.293	118.06
466.512	130.06
466.732	121.06
466.951	133.06
467.171	134.06
467.391	129.06
467.61	124.06
467.829	121.06
468.049	120.06
468.268	130.06
468.488	138.06
468.707	122.06
468.927	140.06
469.146	122.06
469.365	132.06
469.585	139.06
469.804	132.06
470.023	132.06
470.243	134.06
470.462	121.06
470.681	120.06
470.901	124.06
471.12	127.06
471.339	140.06
471.558	130.06
471.777	141.06
471.997	125.06
472.216	124.06
472.435	113.06
472.654	101.06
472.873	101.06
473.092	113.06
473.311	139.06
473.53	128.06
473.749	123.06
473.968	129.06
474.187	119.06
474.406	109.06
474.625	120.06
474.844	129.06
475.063	127.06
475.282	120.06
475.501	109.06
475.72	117.06
475.939	140.06
476.158	118.06
476.377	110.06
476.596	121.06
476.814	105.06
477.033	98.06
477.252	101.06
477.471	118.06
477.69	125.06
477.908	127.06
478.127	144.06
478.346	127.06
478.564	122.06
478.783	125.06
479.002	116.06
479.22	124.06
479.439	112.06
479.658	119.06
479.876	106.06
480.095	85.06
480.313	108.06
480.532	112.06
480.751	105.06
480.969	112.06
481.188	79.06
481.406	85.06
481.624	78.06
481.843	92.06
482.061	98.06
482.28	111.06
482.498	123.06
482.717	110.06
482.935	122.06
483.153	142.06
483.372	149.06
483.59	122.06
483.808	135.06
484.027	118.06
484.245	136.06
484.463	145.06
484.681	158.06
484.9	140.06
485.118	142.06
485.336	140.06
485.554	111.06
485.772	108.06
485.99	95.06
486.209	105.06
486.427	109.06
486.645	110.06
486.863	135.06
487.081	130.06
487.299	128.06
487.517	138.06
487.735	165.06
487.953	185.06
488.171	184.06
488.389	160.06
488.607	152.06
488.825	140.06
489.043	131.06
489.261	135.06
489.479	144.06
489.696	130.06
489.914	141.06
490.132	144.06
490.35	144.06
490.568	145.06
490.786	163.06
491.003	164.06
491.221	176.06
491.439	181.06
491.657	194.06
491.874	215.06
492.092	232.06
492.31	240.06
492.527	228.06
492.745	212.06
492.963	179.06
493.18	190.06
493.398	177.06
493.615	174.06
493.833	181.06
494.05	178.06
494.268	181.06
494.485	152.06
494.703	161.06
494.92	163.06
495.138	176.06
495.355	150.06
495.573	171.06
495.79	154.06
496.008	157.06
496.225	154.06
496.442	158.06
496.66	166.06
496.877	138.06
497.094	145.06
497.312	150.06
497.529	145.06
497.746	130.06
497.963	138.06
498.181	123.06
498.398	122.06
498.615	118.06
498.832	121.06
499.049	109.06
499.267	116.06
499.484	122.06
499.701	126.06
499.918	130.06
500.135	137.06
500.352	146.06
500.569	130.06
500.786	150.06
501.003	138.06
501.22	132.06
501.437	144.06
501.654	122.06
501.871	126.06
502.088	117.06
502.305	134.06
502.522	126.06
502.739	120.06
502.956	115.06
503.172	95.06
503.389	112.06
503.606	99.06
503.823	94.06
504.04	109.06
504.256	105.06
504.473	110.06
504.69	120.06
504.907	119.06
505.123	122.06
505.34	118.06
505.557	105.06
505.773	134.06
505.99	118.06
506.207	116.06
506.423	122.06
506.64	125.06
506.856	115.06
507.073	89.06
507.289	115.06
507.506	109.06
507.722	116.06
507.939	105.06
508.155	109.06
508.372	98.06
508.588	110.06
508.805	112.06
509.021	98.06
509.238	108.06
509.454	105.06
509.67	100.06
509.887	94.06
510.103	85.06
510.319	101.06
510.536	79.06
510.752	88.06
510.968	92.06
511.184	85.06
511.401	91.06
511.617	87.06
511.833	84.06
512.049	80.06
512.265	86.06
512.481	97.06
512.698	105.06
512.914	98.06
513.13	93.06
513.346	92.06
513.562	86.06
513.778	77.06
513.994	90.06
514.21	92.06
514.426	103.06
514.642	86.06
514.858	96.06
515.074	80.06
515.29	72.06
515.506	77.06
515.721	83.06
515.937	91.06
516.153	89.06
516.369	78.06
516.585	82.06
516.801	75.06
517.016	86.06
517.232	88.06
517.448	102.06
517.664	108.06
517.879	101.06
518.095	118.06
518.311	82.06
518.527	96.06
518.742	94.06
518.958	89.06
519.173	104.06
519.389	120.06
519.605	105.06
519.82	92.06
520.036	104.06
520.251	105.06
520.467	95.06
520.682	103.06
520.898	95.06
521.113	82.06
521.329	85.06
521.544	89.06
521.76	78.06
521.975	100.06
522.19	117.06
522.406	96.06
522.621	95.06
522.836	103.06
523.052	97.06
523.267	103.06
523.482	103.06
523.698	102.06
523.913	109.06
524.128	101.06
524.343	124.06
524.559	108.06
524.774	102.06
524.989	118.06
525.204	114.06
525.419	119.06
525.634	114.06
525.849	98.06
526.064	115.06
526.28	100.06
526.495	95.06
526.71	76.06
526.925	86.06
527.14	90.06
527.355	86.06
527.57	89.06
527.785	97.06
527.999	92.06
528.214	100.06
528.429	109.06
528.644	124.06
528.859	122.06
529.074	146.06
529.289	139.06
529.503	145.06
529.718	141.06
529.933	107.06
530.148	106.06
530.363	100.06
530.577	89.06
530.792	81.06
531.007	93.06
531.221	93.06
531.436	84.06
531.651	77.06
531.865	77.06
532.08	83.06
532.295	90.06
532.509	82.06
532.724	89.06
532.938	76.06
533.153	100.06
533.367	108.06
533.582	114.06
533.796	131.06
534.011	116.06
534.225	90.06
534.44	92.06
534.654	100.06
534.868	81.06
535.083	99.06
535.297	97.06
535.511	92.06
535.726	106.06
535.94	101.06
536.154	93.06
536.369	88.06
536.583	89.06
536.797	93.06
537.011	90.06
537.225	93.06
537.44	89.06
537.654	101.06
537.868	88.06
538.082	89.06
538.296	97.06
538.51	103.06
538.724	122.06
538.938	117.06
539.153	115.06
539.367	128.06
539.581	109.06
539.795	98.06
540.009	98.06
540.222	93.06
540.436	115.06
540.65	124.06
540.864	105.06
541.078	124.06
541.292	141.06
541.506	160.06
541.72	188.06
541.934	192.06
542.147	196.06
542.361	166.06
542.575	156.06
542.789	139.06
543.002	128.06
543.216	133.06
543.43	120.06
543.644	130.06
543.857	132.06
544.071	148.06
544.285	161.06
544.498	157.06
544.712	151.06
544.925	159.06
545.139	156.06
545.352	156.06
545.566	138.06
545.779	154.06
545.993	149.06
546.206	152.06
546.42	160.06
546.633	152.06
546.847	152.06
547.06	146.06
547.274	161.06
547.487	157.06
547.7	163.06
547.914	162.06
548.127	160.06
548.34	158.06
548.554	147.06
548.767	157.06
548.98	144.06
549.193	135.06
549.407	144.06
549.62	158.06
549.833	144.06
550.046	144.06
550.259	137.06
550.473	143.06
550.686	139.06
550.899	148.06
551.112	124.06
551.325	124.06
551.538	123.06
551.751	120.06
551.964	118.06
552.177	124.06
552.39	125.06
552.603	132.06
552.816	137.06
553.029	144.06
553.242	148.06
553.455	152.06
553.667	139.06
553.88	140.06
554.093	153.06
554.306	148.06
554.519	142.06
554.732	144.06
554.944	124.06
555.157	138.06
555.37	134.06
555.583	137.06
555.795	136.06
556.008	125.06
556.221	117.06
556.433	137.06
556.646	138.06
556.859	129.06
557.071	145.06
557.284	125.06
557.496	131.06
557.709	137.06
557.921	132.06
558.134	132.06
558.346	141.06
558.559	136.06
558.771	116.06
558.984	139.06
559.196	126.06
559.409	129.06
559.621	122.06
559.833	121.06
560.046	123.06
560.258	130.06
560.47	139.06
560.683	128.06
560.895	129.06
561.107	134.06
561.32	124.06
561.532	126.06
561.744	131.06
561.956	146.06
562.168	130.06
562.381	101.06
562.593	132.06
562.805	118.06
563.017	116.06
563.229	113.06
563.441	136.06
563.653	114.06
563.865	113.06
564.077	128.06
564.289	113.06
564.501	111.06
564.713	108.06
564.925	105.06
565.137	111.06
565.349	112.06
565.561	112.06
565.773	110.06
565.985	111.06
566.197	100.06
566.408	114.06
566.62	124.06
566.832	119.06
567.044	120.06
567.255	100.06
567.467	112.06
567.679	100.06
567.891	98.06
568.102	93.06
568.314	78.06
568.526	79.06
568.737	88.06
568.949	73.06
569.161	66.06
569.372	78.06
569.584	75.06
569.795	75.06
570.007	96.06
570.218	78.06
570.43	86.06
570.641	81.06
570.853	94.06
571.064	91.06
571.276	93.06
571.487	118.06
571.698	116.06
571.91	105.06
572.121	92.06
572.333	94.06
572.544	93.06
572.755	94.06
572.966	90.06
573.178	83.06
573.389	82.06
573.6	88.06
573.811	80.06
574.023	91.06
574.234	87.06
574.445	78.06
574.656	84.06
574.867	96.06
575.078	88.06
575.289	100.06
575.501	96.06
575.712	108.06
575.923	89.06
576.134	94.06
576.345	80.06
576.556	97.06
576.767	96.06
576.978	96.06
577.188	88.06
577.399	83.06
577.61	94.06
577.821	88.06
578.032	92.06
578.243	82.06
578.454	90.06
578.665	92.06
578.875	90.06
579.086	84.06
579.297	69.06
579.508	89.06
579.718	82.06
579.929	92.06
580.14	86.06
580.35	94.06
580.561	86.06
580.772	85.06
580.982	90.06
581.193	90.06
581.403	101.06
581.614	89.06
581.825	89.06
582.035	89.06
582.246	94.06
582.456	102.06
582.667	94.06
582.877	82.06
583.087	87.06
583.298	90.06
583.508	92.06
583.719	82.06
583.929	76.06
584.139	99.06
584.35	74.06
584.56	89.06
584.77	80.06
584.981	85.06
585.191	80.06
585.401	81.06
585.611	94.06
585.821	94.06
586.032	83.06
586.242	84.06
586.452	80.06
586.662	70.06
586.872	78.06
587.082	89.06
587.292	80.06
587.502	91.06
587.713	79.06
587.923	84.06
588.133	99.06
588.343	89.06
588.553	74.06
588.762	87.06
588.972	83.06
589.182	58.06
589.392	88.06
589.602	90.06
589.812	88.06
590.022	88.06
590.232	85.06
590.441	89.06
590.651	72.06
590.861	85.06
591.071	74.06
591.281	85.06
591.49	83.06
591.7	79.06
591.91	79.06
592.119	94.06
592.329	92.06
592.539	91.06
592.748	72.06
592.958	93.06
593.167	97.06
593.377	80.06
593.587	81.06
593.796	79.06
594.006	81.06
594.215	79.06
594.424	78.06
594.634	82.06
594.843	101.06
595.053	93.06
595.262	95.06
595.472	90.06
595.681	97.06
595.89	81.06
596.1	71.06
596.309	77.06
596.518	94.06
596.727	91.06
596.937	88.06
597.146	96.06
597.355	86.06
597.564	95.06
597.774	96.06
597.983	101.06
598.192	81.06
598.401	81.06
598.61	91.06
598.819	101.06
599.028	93.06
599.237	89.06
599.446	118.06
599.655	91.06
599.864	78.06
600.073	85.06
600.282	100.06
600.491	98.06
600.7	105.06
600.909	87.06
601.118	89.06
601.327	103.06
601.536	103.06
601.745	116.06
601.953	101.06
602.162	109.06
602.371	104.06
602.58	102.06
602.789	123.06
602.997	112.06
603.206	103.06
603.415	94.06
603.623	101.06
603.832	112.06
604.041	98.06
604.249	114.06
604.458	84.06
604.666	85.06
604.875	93.06
605.084	105.06
605.292	104.06
605.501	114.06
605.709	108.06
605.918	107.06
606.126	99.06
606.334	104.06
606.543	110.06
606.751	104.06
606.96	105.06
607.168	113.06
607.376	103.06
607.585	110.06
607.793	113.06
608.001	114.06
608.21	104.06
608.418	119.06
608.626	108.06
608.834	103.06
609.043	116.06
609.251	113.06
609.459	105.06
609.667	115.06
609.875	116.06
610.083	118.06
610.291	122.06
610.499	117.06
610.707	129.06
610.916	114.06
611.124	121.06
611.332	106.06
611.54	102.06
611.748	109.06
611.955	108.06
612.163	118.06
612.371	117.06
612.579	111.06
612.787	111.06
612.995	118.06
613.203	108.06
613.411	95.06
613.618	97.06
613.826	103.06
614.034	116.06
614.242	113.06
614.449	109.06
614.657	85.06
614.865	104.06
615.072	113.06
615.28	103.06
615.488	115.06
615.695	124.06
615.903	110.06
616.111	97.06
616.318	105.06
616.526	106.06
616.733	108.06
616.941	108.06
617.148	110.06
617.356	120.06
617.563	105.06
617.771	96.06
617.978	104.06
618.185	96.06
618.393	112.06
618.6	104.06
618.807	99.06
619.015	118.06
619.222	116.06
619.429	105.06
619.637	113.06
619.844	93.06
620.051	102.06
620.258	109.06
620.466	103.06
620.673	114.06
620.88	93.06
621.087	111.06
621.294	102.06
621.501	95.06
621.708	90.06
621.915	102.06
622.122	95.06
622.329	95.06
622.536	90.06
622.743	119.06
622.95	116.06
623.157	100.06
623.364	92.06
623.571	111.06
623.778	101.06
623.985	110.06
624.192	114.06
624.399	106.06
624.606	105.06
624.812	95.06
625.019	102.06
625.226	99.06
625.433	109.06
625.639	90.06
625.846	82.06
626.053	105.06
626.259	83.06
626.466	84.06
626.673	83.06
626.879	88.06
627.086	99.06
627.293	95.06
627.499	103.06
627.706	108.06
627.912	113.06
628.119	104.06
628.325	108.06
628.532	105.06
628.738	96.06
628.945	102.06
629.151	98.06
629.357	102.06
629.564	117.06
629.77	99.06
629.976	103.06
630.183	102.06
630.389	91.06
630.595	94.06
630.802	106.06
631.008	101.06
631.214	97.06
631.42	103.06
631.627	95.06
631.833	101.06
632.039	85.06
632.245	85.06
632.451	90.06
632.657	108.06
632.863	88.06
633.069	84.06
633.275	108.06
633.481	94.06
633.688	96.06
633.893	105.06
634.099	110.06
634.305	92.06
634.511	99.06
634.717	99.06
634.923	95.06
635.129	93.06
635.335	89.06
635.541	80.06
635.747	101.06
635.952	100.06
636.158	93.06
636.364	111.06
636.57	91.06
636.775	91.06
636.981	92.06
637.187	99.06
637.392	88.06
637.598	95.06
637.804	91.06
638.009	88.06
638.215	112.06
638.421	99.06
638.626	95.06
638.832	96.06
639.037	74.06
639.243	98.06
639.448	111.06
639.654	101.06
639.859	75.06
640.065	102.06
640.27	93.06
640.475	93.06
640.681	101.06
640.886	112.06
641.091	82.06
641.297	105.06
641.502	98.06
641.707	108.06
641.913	102.06
642.118	84.06
642.323	95.06
642.528	85.06
642.733	97.06
642.939	95.06
643.144	93.06
643.349	86.06
643.554	97.06
643.759	87.06
643.964	85.06
644.169	112.06
644.374	97.06
644.579	105.06
644.784	96.06
644.989	96.06
645.194	103.06
645.399	93.06
645.604	102.06
645.809	99.06
646.014	95.06
646.219	93.06
646.423	93.06
646.628	91.06
646.833	82.06
647.038	111.06
647.243	99.06
647.447	85.06
647.652	100.06
647.857	99.06
648.062	78.06
648.266	98.06
648.471	93.06
648.676	102.06
648.88	97.06
649.085	94.06
649.289	84.06
649.494	97.06
649.698	102.06
649.903	95.06
650.107	112.06
650.312	103.06
650.516	85.06
650.721	83.06
650.925	103.06
651.13	92.06
651.334	96.06
651.539	82.06
651.743	94.06
651.947	96.06
652.152	92.06
652.356	92.06
652.56	102.06
652.764	94.06
652.969	81.06
653.173	79.06
653.377	88.06
653.581	84.06
653.785	96.06
653.99	93.06
654.194	105.06
654.398	89.06
654.602	82.06
654.806	88.06
655.01	70.06
655.214	76.06
655.418	83.06
655.622	95.06
655.826	97.06
656.03	90.06
656.234	88.06
656.438	90.06
656.642	87.06
656.846	95.06
657.049	83.06
657.253	85.06
657.457	88.06
657.661	85.06
657.865	84.06
658.068	73.06
658.272	80.06
658.476	84.06
658.68	73.06
658.883	67.06
659.087	82.06
659.291	92.06
659.494	91.06
659.698	88.06
659.901	81.06
660.105	75.06
660.309	83.06
660.512	93.06
660.716	82.06
660.919	73.06
661.123	86.06
661.326	73.06
661.53	69.06
661.733	77.06
661.936	75.06
662.14	76.06
662.343	88.06
662.546	89.06
662.75	83.06
662.953	73.06
663.156	80.06
663.36	70.06
663.563	80.06
663.766	94.06
663.969	86.06
664.173	73.06
664.376	74.06
664.579	83.06
664.782	66.06
664.985	81.06
665.188	72.06
665.391	85.06
665.594	73.06
665.797	87.06
666	70.06
666.203	80.06
666.406	75.06
666.609	92.06
666.812	82.06
667.015	73.06
667.218	86.06
667.421	80.06
667.624	81.06
667.827	81.06
668.03	84.06
668.232	92.06
668.435	83.06
668.638	82.06
668.841	85.06
669.043	80.06
669.246	68.06
669.449	87.06
669.651	81.06
669.854	78.06
670.057	78.06
670.259	85.06
670.462	89.06
670.665	75.06
670.867	74.06
671.07	85.06
671.272	71.06
671.475	97.06
671.677	81.06
671.88	80.06
672.082	81.06
672.284	83.06
672.487	88.06
672.689	88.06
672.892	73.06
