Data from Location4.07152019.Energy5.Lamp.07192019.3%Agarose_HRD10591_16-20-15-925.txt Node
Date: Fri Jul 19 16:20:15 EDT 2019
User: cochatt
Spectrometer: HR+D1059
Trigger mode: 1
Integration Time (sec): 1.000000E-1
Scans to average: 1
Electric dark correction enabled: true
Nonlinearity correction enabled: false
Boxcar width: 0
XAxis mode: Wavelengths
Number of Pixels in Spectrum: 2048
>>>>>Begin Spectral Data<<<<<
223.165	-10.62
223.4	-10.62
223.635	-10.62
223.869	-11.62
224.104	-18.62
224.338	-15.62
224.573	-15.62
224.808	-10.62
225.042	-3.62
225.277	0.38
225.511	-11.62
225.746	4.38
225.98	6.38
226.215	8.38
226.449	12.38
226.683	7.38
226.918	18.38
227.152	40.38
227.387	38.38
227.621	34.38
227.856	49.38
228.09	46.38
228.324	59.38
228.559	56.38
228.793	75.38
229.027	71.38
229.262	69.38
229.496	50.38
229.73	77.38
229.964	71.38
230.199	78.38
230.433	74.38
230.667	82.38
230.901	70.38
231.136	77.38
231.37	75.38
231.604	77.38
231.838	93.38
232.072	94.38
232.306	98.38
232.541	81.38
232.775	88.38
233.009	84.38
233.243	78.38
233.477	73.38
233.711	67.38
233.945	88.38
234.179	88.38
234.413	78.38
234.647	76.38
234.881	78.38
235.115	70.38
235.349	88.38
235.583	73.38
235.817	69.38
236.051	70.38
236.285	73.38
236.519	78.38
236.753	78.38
236.987	68.38
237.221	69.38
237.455	78.38
237.689	66.38
237.922	87.38
238.156	84.38
238.39	88.38
238.624	67.38
238.858	75.38
239.091	86.38
239.325	73.38
239.559	72.38
239.793	69.38
240.027	82.38
240.26	64.38
240.494	79.38
240.728	74.38
240.961	80.38
241.195	90.38
241.429	85.38
241.662	71.38
241.896	73.38
242.13	73.38
242.363	83.38
242.597	79.38
242.83	77.38
243.064	77.38
243.298	82.38
243.531	72.38
243.765	66.38
243.998	64.38
244.232	66.38
244.465	65.38
244.699	74.38
244.932	86.38
245.166	86.38
245.399	74.38
245.633	76.38
245.866	77.38
246.099	83.38
246.333	75.38
246.566	76.38
246.8	72.38
247.033	69.38
247.266	81.38
247.5	72.38
247.733	73.38
247.966	86.38
248.2	80.38
248.433	86.38
248.666	77.38
248.899	85.38
249.133	83.38
249.366	81.38
249.599	73.38
249.832	76.38
250.066	86.38
250.299	71.38
250.532	77.38
250.765	92.38
250.998	89.38
251.231	75.38
251.465	85.38
251.698	77.38
251.931	83.38
252.164	79.38
252.397	74.38
252.63	66.38
252.863	73.38
253.096	73.38
253.329	87.38
253.562	92.38
253.795	73.38
254.028	94.38
254.261	87.38
254.494	91.38
254.727	91.38
254.96	83.38
255.193	78.38
255.426	84.38
255.659	86.38
255.892	69.38
256.124	81.38
256.357	75.38
256.59	88.38
256.823	77.38
257.056	80.38
257.289	78.38
257.521	74.38
257.754	98.38
257.987	91.38
258.22	72.38
258.452	80.38
258.685	77.38
258.918	75.38
259.151	85.38
259.383	82.38
259.616	70.38
259.849	71.38
260.081	100.38
260.314	84.38
260.547	89.38
260.779	73.38
261.012	79.38
261.244	80.38
261.477	73.38
261.71	84.38
261.942	75.38
262.175	93.38
262.407	79.38
262.64	77.38
262.872	78.38
263.105	85.38
263.337	85.38
263.57	91.38
263.802	75.38
264.035	97.38
264.267	85.38
264.499	88.38
264.732	83.38
264.964	77.38
265.197	90.38
265.429	82.38
265.661	83.38
265.894	67.38
266.126	83.38
266.358	82.38
266.591	76.38
266.823	62.38
267.055	69.38
267.287	71.38
267.52	84.38
267.752	89.38
267.984	86.38
268.216	107.38
268.448	93.38
268.681	84.38
268.913	66.38
269.145	80.38
269.377	78.38
269.609	76.38
269.841	73.38
270.073	89.38
270.306	90.38
270.538	77.38
270.77	83.38
271.002	68.38
271.234	83.38
271.466	89.38
271.698	90.38
271.93	76.38
272.162	92.38
272.394	90.38
272.626	87.38
272.858	84.38
273.09	88.38
273.322	81.38
273.553	96.38
273.785	103.38
274.017	85.38
274.249	78.38
274.481	79.38
274.713	100.38
274.945	66.38
275.176	85.38
275.408	85.38
275.64	84.38
275.872	68.38
276.104	93.38
276.335	85.38
276.567	87.38
276.799	88.38
277.031	85.38
277.262	82.38
277.494	87.38
277.726	82.38
277.957	91.38
278.189	78.38
278.421	91.38
278.652	88.38
278.884	96.38
279.115	82.38
279.347	70.38
279.579	87.38
279.81	75.38
280.042	90.38
280.273	85.38
280.505	85.38
280.736	74.38
280.968	77.38
281.199	76.38
281.431	87.38
281.662	86.38
281.894	78.38
282.125	82.38
282.356	85.38
282.588	84.38
282.819	71.38
283.051	78.38
283.282	76.38
283.513	84.38
283.745	99.38
283.976	84.38
284.207	101.38
284.439	82.38
284.67	88.38
284.901	83.38
285.132	84.38
285.364	84.38
285.595	88.38
285.826	86.38
286.057	81.38
286.288	94.38
286.52	75.38
286.751	82.38
286.982	75.38
287.213	80.38
287.444	82.38
287.675	92.38
287.906	72.38
288.138	90.38
288.369	89.38
288.6	87.38
288.831	82.38
289.062	88.38
289.293	88.38
289.524	88.38
289.755	83.38
289.986	85.38
290.217	81.38
290.448	85.38
290.679	87.38
290.91	89.38
291.141	88.38
291.371	86.38
291.602	78.38
291.833	77.38
292.064	79.38
292.295	76.38
292.526	99.38
292.757	98.38
292.987	87.38
293.218	96.38
293.449	87.38
293.68	87.38
293.91	89.38
294.141	84.38
294.372	84.38
294.603	87.38
294.833	85.38
295.064	82.38
295.295	86.38
295.525	98.38
295.756	81.38
295.987	82.38
296.217	85.38
296.448	93.38
296.679	90.38
296.909	94.38
297.14	83.38
297.37	66.38
297.601	73.38
297.831	87.38
298.062	77.38
298.292	82.38
298.523	86.38
298.753	77.38
298.984	93.38
299.214	88.38
299.445	86.38
299.675	77.38
299.905	85.38
300.136	84.38
300.366	99.38
300.597	87.38
300.827	83.38
301.057	89.38
301.288	91.38
301.518	91.38
301.748	80.38
301.979	77.38
302.209	77.38
302.439	88.38
302.669	85.38
302.9	73.38
303.13	77.38
303.36	86.38
303.59	84.38
303.82	82.38
304.051	83.38
304.281	88.38
304.511	94.38
304.741	90.38
304.971	93.38
305.201	94.38
305.431	90.38
305.661	84.38
305.891	78.38
306.121	75.38
306.352	93.38
306.582	84.38
306.812	90.38
307.042	82.38
307.272	90.38
307.502	76.38
307.731	96.38
307.961	91.38
308.191	87.38
308.421	82.38
308.651	91.38
308.881	94.38
309.111	88.38
309.341	83.38
309.571	66.38
309.8	86.38
310.03	81.38
310.26	73.38
310.49	91.38
310.72	84.38
310.949	77.38
311.179	94.38
311.409	82.38
311.639	81.38
311.868	83.38
312.098	78.38
312.328	73.38
312.557	84.38
312.787	77.38
313.017	84.38
313.246	84.38
313.476	75.38
313.706	84.38
313.935	94.38
314.165	92.38
314.394	86.38
314.624	81.38
314.853	72.38
315.083	105.38
315.312	84.38
315.542	79.38
315.771	82.38
316.001	83.38
316.23	77.38
316.46	80.38
316.689	76.38
316.919	92.38
317.148	91.38
317.377	88.38
317.607	69.38
317.836	80.38
318.065	88.38
318.295	86.38
318.524	85.38
318.753	86.38
318.983	86.38
319.212	84.38
319.441	86.38
319.67	82.38
319.9	68.38
320.129	80.38
320.358	82.38
320.587	87.38
320.816	70.38
321.046	84.38
321.275	87.38
321.504	70.38
321.733	79.38
321.962	88.38
322.191	91.38
322.42	80.38
322.649	72.38
322.878	66.38
323.108	93.38
323.337	95.38
323.566	88.38
323.795	84.38
324.024	101.38
324.253	87.38
324.482	86.38
324.71	84.38
324.939	85.38
325.168	77.38
325.397	73.38
325.626	78.38
325.855	73.38
326.084	90.38
326.313	96.38
326.542	86.38
326.77	74.38
326.999	89.38
327.228	90.38
327.457	81.38
327.686	85.38
327.914	78.38
328.143	99.38
328.372	91.38
328.6	106.38
328.829	75.38
329.058	84.38
329.287	82.38
329.515	74.38
329.744	88.38
329.972	82.38
330.201	90.38
330.43	85.38
330.658	66.38
330.887	80.38
331.115	74.38
331.344	89.38
331.572	91.38
331.801	96.38
332.03	78.38
332.258	100.38
332.486	84.38
332.715	83.38
332.943	78.38
333.172	76.38
333.4	84.38
333.629	75.38
333.857	81.38
334.085	93.38
334.314	94.38
334.542	64.38
334.771	88.38
334.999	92.38
335.227	80.38
335.455	79.38
335.684	77.38
335.912	85.38
336.14	91.38
336.369	84.38
336.597	89.38
336.825	79.38
337.053	82.38
337.281	82.38
337.51	93.38
337.738	88.38
337.966	89.38
338.194	80.38
338.422	82.38
338.65	83.38
338.878	92.38
339.106	85.38
339.334	75.38
339.562	91.38
339.79	99.38
340.018	84.38
340.246	88.38
340.474	79.38
340.702	74.38
340.93	78.38
341.158	88.38
341.386	68.38
341.614	88.38
341.842	77.38
342.07	90.38
342.298	91.38
342.526	54.38
342.754	93.38
342.981	91.38
343.209	81.38
343.437	77.38
343.665	82.38
343.893	83.38
344.12	81.38
344.348	72.38
344.576	88.38
344.804	87.38
345.031	98.38
345.259	104.38
345.487	89.38
345.714	85.38
345.942	99.38
346.17	80.38
346.397	82.38
346.625	91.38
346.853	84.38
347.08	92.38
347.308	88.38
347.535	90.38
347.763	94.38
347.99	84.38
348.218	75.38
348.445	81.38
348.673	69.38
348.9	93.38
349.128	69.38
349.355	85.38
349.583	78.38
349.81	79.38
350.037	84.38
350.265	75.38
350.492	83.38
350.72	79.38
350.947	78.38
351.174	98.38
351.402	91.38
351.629	73.38
351.856	82.38
352.083	75.38
352.311	84.38
352.538	74.38
352.765	78.38
352.992	81.38
353.22	89.38
353.447	79.38
353.674	87.38
353.901	93.38
354.128	80.38
354.355	87.38
354.583	88.38
354.81	90.38
355.037	88.38
355.264	80.38
355.491	77.38
355.718	87.38
355.945	87.38
356.172	90.38
356.399	88.38
356.626	78.38
356.853	91.38
357.08	84.38
357.307	90.38
357.534	77.38
357.761	86.38
357.988	82.38
358.215	91.38
358.441	75.38
358.668	88.38
358.895	71.38
359.122	90.38
359.349	84.38
359.576	89.38
359.802	70.38
360.029	76.38
360.256	89.38
360.483	99.38
360.709	90.38
360.936	93.38
361.163	81.38
361.39	89.38
361.616	86.38
361.843	85.38
362.07	73.38
362.296	77.38
362.523	78.38
362.749	69.38
362.976	76.38
363.203	79.38
363.429	88.38
363.656	91.38
363.882	81.38
364.109	82.38
364.335	95.38
364.562	83.38
364.788	101.38
365.015	95.38
365.241	96.38
365.468	89.38
365.694	104.38
365.92	94.38
366.147	91.38
366.373	95.38
366.599	94.38
366.826	93.38
367.052	86.38
367.278	85.38
367.505	88.38
367.731	96.38
367.957	102.38
368.184	88.38
368.41	89.38
368.636	76.38
368.862	86.38
369.089	95.38
369.315	89.38
369.541	68.38
369.767	73.38
369.993	94.38
370.219	97.38
370.445	84.38
370.672	92.38
370.898	84.38
371.124	85.38
371.35	80.38
371.576	87.38
371.802	107.38
372.028	95.38
372.254	94.38
372.48	99.38
372.706	102.38
372.932	102.38
373.158	85.38
373.384	102.38
373.61	93.38
373.835	87.38
374.061	93.38
374.287	102.38
374.513	99.38
374.739	98.38
374.965	71.38
375.191	94.38
375.416	97.38
375.642	88.38
375.868	93.38
376.094	98.38
376.319	89.38
376.545	101.38
376.771	94.38
376.997	86.38
377.222	96.38
377.448	99.38
377.674	107.38
377.899	85.38
378.125	90.38
378.35	110.38
378.576	99.38
378.802	91.38
379.027	83.38
379.253	89.38
379.478	89.38
379.704	79.38
379.929	92.38
380.155	96.38
380.38	98.38
380.606	91.38
380.831	90.38
381.057	99.38
381.282	93.38
381.507	84.38
381.733	82.38
381.958	91.38
382.184	98.38
382.409	98.38
382.634	95.38
382.86	92.38
383.085	109.38
383.31	97.38
383.535	103.38
383.761	104.38
383.986	79.38
384.211	100.38
384.436	94.38
384.662	93.38
384.887	103.38
385.112	97.38
385.337	100.38
385.562	106.38
385.787	98.38
386.013	96.38
386.238	99.38
386.463	84.38
386.688	103.38
386.913	85.38
387.138	93.38
387.363	109.38
387.588	107.38
387.813	89.38
388.038	100.38
388.263	101.38
388.488	89.38
388.713	102.38
388.938	100.38
389.163	107.38
389.387	90.38
389.612	108.38
389.837	101.38
390.062	100.38
390.287	97.38
390.512	110.38
390.736	110.38
390.961	84.38
391.186	108.38
391.411	112.38
391.636	93.38
391.86	105.38
392.085	106.38
392.31	106.38
392.534	98.38
392.759	115.38
392.984	105.38
393.208	108.38
393.433	86.38
393.658	113.38
393.882	105.38
394.107	89.38
394.331	112.38
394.556	110.38
394.78	111.38
395.005	112.38
395.229	108.38
395.454	100.38
395.678	101.38
395.903	118.38
396.127	100.38
396.352	99.38
396.576	115.38
396.801	107.38
397.025	109.38
397.249	107.38
397.474	112.38
397.698	97.38
397.922	112.38
398.147	114.38
398.371	84.38
398.595	109.38
398.82	105.38
399.044	96.38
399.268	118.38
399.492	106.38
399.717	103.38
399.941	112.38
400.165	104.38
400.389	116.38
400.613	113.38
400.837	107.38
401.062	116.38
401.286	112.38
401.51	106.38
401.734	107.38
401.958	121.38
402.182	106.38
402.406	116.38
402.63	115.38
402.854	110.38
403.078	100.38
403.302	99.38
403.526	113.38
403.75	88.38
403.974	119.38
404.198	129.38
404.422	110.38
404.645	113.38
404.869	125.38
405.093	114.38
405.317	125.38
405.541	102.38
405.765	118.38
405.988	109.38
406.212	123.38
406.436	118.38
406.66	112.38
406.883	117.38
407.107	104.38
407.331	109.38
407.555	123.38
407.778	125.38
408.002	113.38
408.226	115.38
408.449	123.38
408.673	116.38
408.896	107.38
409.12	124.38
409.344	122.38
409.567	109.38
409.791	104.38
410.014	118.38
410.238	127.38
410.461	118.38
410.685	119.38
410.908	112.38
411.132	119.38
411.355	124.38
411.578	120.38
411.802	127.38
412.025	131.38
412.249	131.38
412.472	129.38
412.695	114.38
412.919	93.38
413.142	111.38
413.365	118.38
413.589	124.38
413.812	125.38
414.035	118.38
414.258	116.38
414.482	127.38
414.705	124.38
414.928	129.38
415.151	122.38
415.374	116.38
415.597	116.38
415.821	116.38
416.044	123.38
416.267	120.38
416.49	121.38
416.713	111.38
416.936	123.38
417.159	139.38
417.382	108.38
417.605	119.38
417.828	120.38
418.051	118.38
418.274	123.38
418.497	140.38
418.72	122.38
418.943	121.38
419.166	124.38
419.389	117.38
419.611	140.38
419.834	132.38
420.057	133.38
420.28	151.38
420.503	139.38
420.726	118.38
420.948	120.38
421.171	121.38
421.394	152.38
421.617	140.38
421.839	139.38
422.062	142.38
422.285	126.38
422.507	127.38
422.73	133.38
422.953	128.38
423.175	128.38
423.398	130.38
423.621	137.38
423.843	137.38
424.066	125.38
424.288	137.38
424.511	140.38
424.733	137.38
424.956	141.38
425.178	149.38
425.401	134.38
425.623	130.38
425.846	115.38
426.068	125.38
426.291	127.38
426.513	115.38
426.735	132.38
426.958	127.38
427.18	140.38
427.402	143.38
427.625	126.38
427.847	136.38
428.069	115.38
428.292	128.38
428.514	126.38
428.736	123.38
428.958	116.38
429.181	128.38
429.403	118.38
429.625	121.38
429.847	134.38
430.069	122.38
430.292	123.38
430.514	116.38
430.736	133.38
430.958	138.38
431.18	124.38
431.402	110.38
431.624	101.38
431.846	113.38
432.068	91.38
432.29	103.38
432.512	118.38
432.734	105.38
432.956	128.38
433.178	120.38
433.4	124.38
433.622	130.38
433.844	130.38
434.066	125.38
434.287	119.38
434.509	87.38
434.731	90.38
434.953	116.38
435.175	128.38
435.397	128.38
435.618	124.38
435.84	110.38
436.062	102.38
436.284	132.38
436.505	124.38
436.727	134.38
436.949	135.38
437.17	128.38
437.392	122.38
437.614	121.38
437.835	107.38
438.057	112.38
438.278	110.38
438.5	119.38
438.721	134.38
438.943	138.38
439.165	118.38
439.386	141.38
439.608	147.38
439.829	137.38
440.05	142.38
440.272	154.38
440.493	137.38
440.715	146.38
440.936	149.38
441.158	147.38
441.379	147.38
441.6	130.38
441.822	151.38
442.043	138.38
442.264	134.38
442.486	141.38
442.707	145.38
442.928	141.38
443.149	151.38
443.371	141.38
443.592	144.38
443.813	139.38
444.034	146.38
444.255	124.38
444.476	133.38
444.698	134.38
444.919	161.38
445.14	288.38
445.361	193.38
445.582	146.38
445.803	136.38
446.024	134.38
446.245	143.38
446.466	136.38
446.687	141.38
446.908	153.38
447.129	161.38
447.35	149.38
447.571	149.38
447.792	135.38
448.013	123.38
448.234	126.38
448.455	160.38
448.675	140.38
448.896	144.38
449.117	140.38
449.338	132.38
449.559	139.38
449.779	125.38
450	136.38
450.221	134.38
450.442	129.38
450.662	129.38
450.883	129.38
451.104	147.38
451.324	136.38
451.545	146.38
451.766	119.38
451.986	122.38
452.207	128.38
452.428	133.38
452.648	138.38
452.869	134.38
453.089	123.38
453.31	109.38
453.53	118.38
453.751	120.38
453.971	118.38
454.192	84.38
454.412	106.38
454.633	110.38
454.853	116.38
455.073	134.38
455.294	116.38
455.514	121.38
455.734	132.38
455.955	120.38
456.175	114.38
456.395	118.38
456.616	120.38
456.836	106.38
457.056	114.38
457.276	114.38
457.497	128.38
457.717	109.38
457.937	117.38
458.157	105.38
458.377	102.38
458.598	101.38
458.818	76.38
459.038	93.38
459.258	91.38
459.478	73.38
459.698	100.38
459.918	102.38
460.138	112.38
460.358	120.38
460.578	108.38
460.798	105.38
461.018	107.38
461.238	129.38
461.458	116.38
461.678	111.38
461.898	117.38
462.118	105.38
462.338	116.38
462.558	112.38
462.777	120.38
462.997	110.38
463.217	102.38
463.437	98.38
463.657	120.38
463.876	109.38
464.096	110.38
464.316	98.38
464.536	102.38
464.755	125.38
464.975	114.38
465.195	126.38
465.414	120.38
465.634	113.38
465.854	126.38
466.073	114.38
466.293	130.38
466.512	129.38
466.732	124.38
466.951	118.38
467.171	132.38
467.391	129.38
467.61	119.38
467.829	132.38
468.049	132.38
468.268	135.38
468.488	125.38
468.707	138.38
468.927	133.38
469.146	134.38
469.365	126.38
469.585	137.38
469.804	140.38
470.023	135.38
470.243	140.38
470.462	146.38
470.681	147.38
470.901	148.38
471.12	144.38
471.339	153.38
471.558	135.38
471.777	136.38
471.997	142.38
472.216	140.38
472.435	116.38
472.654	123.38
472.873	114.38
473.092	125.38
473.311	132.38
473.53	126.38
473.749	132.38
473.968	119.38
474.187	114.38
474.406	118.38
474.625	123.38
474.844	149.38
475.063	126.38
475.282	120.38
475.501	102.38
475.72	115.38
475.939	121.38
476.158	123.38
476.377	127.38
476.596	124.38
476.814	123.38
477.033	106.38
477.252	107.38
477.471	140.38
477.69	139.38
477.908	149.38
478.127	139.38
478.346	146.38
478.564	139.38
478.783	140.38
479.002	139.38
479.22	135.38
479.439	137.38
479.658	132.38
479.876	117.38
480.095	93.38
480.313	116.38
480.532	124.38
480.751	116.38
480.969	91.38
481.188	84.38
481.406	93.38
481.624	91.38
481.843	89.38
482.061	113.38
482.28	111.38
482.498	127.38
482.717	117.38
482.935	122.38
483.153	151.38
483.372	148.38
483.59	149.38
483.808	140.38
484.027	133.38
484.245	141.38
484.463	149.38
484.681	148.38
484.9	147.38
485.118	116.38
485.336	119.38
485.554	116.38
485.772	98.38
485.99	108.38
486.209	113.38
486.427	112.38
486.645	122.38
486.863	131.38
487.081	134.38
487.299	134.38
487.517	135.38
487.735	160.38
487.953	171.38
488.171	171.38
488.389	156.38
488.607	157.38
488.825	133.38
489.043	136.38
489.261	138.38
489.479	142.38
489.696	140.38
489.914	139.38
490.132	149.38
490.35	156.38
490.568	158.38
490.786	159.38
491.003	171.38
491.221	177.38
491.439	181.38
491.657	178.38
491.874	197.38
492.092	213.38
492.31	218.38
492.527	225.38
492.745	194.38
492.963	180.38
493.18	187.38
493.398	161.38
493.615	174.38
493.833	169.38
494.05	166.38
494.268	156.38
494.485	148.38
494.703	157.38
494.92	168.38
495.138	167.38
495.355	176.38
495.573	143.38
495.79	179.38
496.008	154.38
496.225	155.38
496.442	147.38
496.66	170.38
496.877	162.38
497.094	165.38
497.312	162.38
497.529	147.38
497.746	151.38
497.963	140.38
498.181	141.38
498.398	123.38
498.615	121.38
498.832	107.38
499.049	131.38
499.267	124.38
499.484	138.38
499.701	124.38
499.918	125.38
500.135	132.38
500.352	138.38
500.569	150.38
500.786	136.38
501.003	128.38
501.22	155.38
501.437	128.38
501.654	128.38
501.871	150.38
502.088	123.38
502.305	120.38
502.522	129.38
502.739	141.38
502.956	121.38
503.172	122.38
503.389	124.38
503.606	129.38
503.823	130.38
504.04	123.38
504.256	117.38
504.473	118.38
504.69	125.38
504.907	128.38
505.123	134.38
505.34	122.38
505.557	141.38
505.773	133.38
505.99	115.38
506.207	128.38
506.423	109.38
506.64	124.38
506.856	124.38
507.073	115.38
507.289	102.38
507.506	124.38
507.722	123.38
507.939	118.38
508.155	132.38
508.372	100.38
508.588	101.38
508.805	119.38
509.021	107.38
509.238	111.38
509.454	99.38
509.67	88.38
509.887	98.38
510.103	115.38
510.319	96.38
510.536	94.38
510.752	89.38
510.968	86.38
511.184	88.38
511.401	96.38
511.617	93.38
511.833	90.38
512.049	89.38
512.265	102.38
512.481	103.38
512.698	89.38
512.914	101.38
513.13	92.38
513.346	94.38
513.562	109.38
513.778	93.38
513.994	101.38
514.21	90.38
514.426	93.38
514.642	93.38
514.858	93.38
515.074	87.38
515.29	96.38
515.506	78.38
515.721	84.38
515.937	87.38
516.153	74.38
516.369	93.38
516.585	95.38
516.801	83.38
517.016	77.38
517.232	91.38
517.448	99.38
517.664	99.38
517.879	89.38
518.095	88.38
518.311	92.38
518.527	96.38
518.742	95.38
518.958	96.38
519.173	110.38
519.389	110.38
519.605	101.38
519.82	99.38
520.036	100.38
520.251	113.38
520.467	105.38
520.682	88.38
520.898	100.38
521.113	82.38
521.329	101.38
521.544	106.38
521.76	93.38
521.975	94.38
522.19	98.38
522.406	105.38
522.621	98.38
522.836	96.38
523.052	105.38
523.267	90.38
523.482	113.38
523.698	116.38
523.913	112.38
524.128	117.38
524.343	117.38
524.559	136.38
524.774	132.38
524.989	124.38
525.204	116.38
525.419	120.38
525.634	117.38
525.849	106.38
526.064	101.38
526.28	99.38
526.495	95.38
526.71	96.38
526.925	92.38
527.14	75.38
527.355	81.38
527.57	91.38
527.785	92.38
527.999	104.38
528.214	103.38
528.429	115.38
528.644	127.38
528.859	138.38
529.074	148.38
529.289	159.38
529.503	163.38
529.718	149.38
529.933	124.38
530.148	118.38
530.363	96.38
530.577	100.38
530.792	93.38
531.007	76.38
531.221	86.38
531.436	86.38
531.651	82.38
531.865	70.38
532.08	86.38
532.295	84.38
532.509	82.38
532.724	89.38
532.938	84.38
533.153	98.38
533.367	112.38
533.582	122.38
533.796	124.38
534.011	104.38
534.225	108.38
534.44	95.38
534.654	99.38
534.868	88.38
535.083	101.38
535.297	108.38
535.511	107.38
535.726	98.38
535.94	102.38
536.154	106.38
536.369	80.38
536.583	98.38
536.797	92.38
537.011	89.38
537.225	109.38
537.44	85.38
537.654	116.38
537.868	100.38
538.082	97.38
538.296	100.38
538.51	97.38
538.724	114.38
538.938	132.38
539.153	129.38
539.367	119.38
539.581	118.38
539.795	105.38
540.009	109.38
540.222	100.38
540.436	99.38
540.65	102.38
540.864	133.38
541.078	143.38
541.292	145.38
541.506	143.38
541.72	170.38
541.934	181.38
542.147	194.38
542.361	180.38
542.575	151.38
542.789	160.38
543.002	128.38
543.216	128.38
543.43	122.38
543.644	123.38
543.857	146.38
544.071	153.38
544.285	152.38
544.498	144.38
544.712	161.38
544.925	150.38
545.139	140.38
545.352	164.38
545.566	157.38
545.779	143.38
545.993	156.38
546.206	159.38
546.42	150.38
546.633	141.38
546.847	164.38
547.06	155.38
547.274	156.38
547.487	178.38
547.7	164.38
547.914	165.38
548.127	168.38
548.34	164.38
548.554	166.38
548.767	156.38
548.98	145.38
549.193	150.38
549.407	142.38
549.62	158.38
549.833	159.38
550.046	155.38
550.259	170.38
550.473	149.38
550.686	154.38
550.899	141.38
551.112	152.38
551.325	146.38
551.538	148.38
551.751	118.38
551.964	119.38
552.177	124.38
552.39	149.38
552.603	140.38
552.816	143.38
553.029	150.38
553.242	158.38
553.455	153.38
553.667	152.38
553.88	161.38
554.093	134.38
554.306	153.38
554.519	160.38
554.732	146.38
554.944	134.38
555.157	128.38
555.37	159.38
555.583	131.38
555.795	133.38
556.008	140.38
556.221	139.38
556.433	130.38
556.646	146.38
556.859	132.38
557.071	135.38
557.284	136.38
557.496	142.38
557.709	139.38
557.921	140.38
558.134	149.38
558.346	138.38
558.559	126.38
558.771	140.38
558.984	149.38
559.196	130.38
559.409	130.38
559.621	119.38
559.833	120.38
560.046	117.38
560.258	120.38
560.47	116.38
560.683	133.38
560.895	127.38
561.107	128.38
561.32	129.38
561.532	124.38
561.744	133.38
561.956	128.38
562.168	144.38
562.381	124.38
562.593	131.38
562.805	121.38
563.017	125.38
563.229	124.38
563.441	109.38
563.653	134.38
563.865	128.38
564.077	118.38
564.289	125.38
564.501	133.38
564.713	127.38
564.925	119.38
565.137	103.38
565.349	119.38
565.561	123.38
565.773	114.38
565.985	110.38
566.197	128.38
566.408	112.38
566.62	131.38
566.832	132.38
567.044	134.38
567.255	120.38
567.467	115.38
567.679	101.38
567.891	100.38
568.102	100.38
568.314	90.38
568.526	85.38
568.737	98.38
568.949	77.38
569.161	83.38
569.372	86.38
569.584	74.38
569.795	93.38
570.007	89.38
570.218	101.38
570.43	105.38
570.641	98.38
570.853	94.38
571.064	103.38
571.276	102.38
571.487	93.38
571.698	106.38
571.91	107.38
572.121	114.38
572.333	94.38
572.544	93.38
572.755	100.38
572.966	86.38
573.178	115.38
573.389	77.38
573.6	93.38
573.811	86.38
574.023	90.38
574.234	94.38
574.445	82.38
574.656	89.38
574.867	98.38
575.078	119.38
575.289	95.38
575.501	97.38
575.712	91.38
575.923	90.38
576.134	91.38
576.345	87.38
576.556	93.38
576.767	98.38
576.978	97.38
577.188	94.38
577.399	95.38
577.61	92.38
577.821	89.38
578.032	102.38
578.243	95.38
578.454	92.38
578.665	89.38
578.875	84.38
579.086	74.38
579.297	85.38
579.508	74.38
579.718	91.38
579.929	79.38
580.14	83.38
580.35	87.38
580.561	86.38
580.772	72.38
580.982	100.38
581.193	100.38
581.403	98.38
581.614	88.38
581.825	101.38
582.035	92.38
582.246	93.38
582.456	100.38
582.667	87.38
582.877	97.38
583.087	101.38
583.298	82.38
583.508	83.38
583.719	87.38
583.929	81.38
584.139	100.38
584.35	73.38
584.56	84.38
584.77	78.38
584.981	87.38
585.191	90.38
585.401	71.38
585.611	103.38
585.821	78.38
586.032	93.38
586.242	74.38
586.452	96.38
586.662	89.38
586.872	85.38
587.082	84.38
587.292	78.38
587.502	83.38
587.713	78.38
587.923	85.38
588.133	84.38
588.343	91.38
588.553	78.38
588.762	90.38
588.972	86.38
589.182	93.38
589.392	80.38
589.602	89.38
589.812	86.38
590.022	96.38
590.232	82.38
590.441	78.38
590.651	84.38
590.861	85.38
591.071	92.38
591.281	99.38
591.49	78.38
591.7	75.38
591.91	94.38
592.119	84.38
592.329	95.38
592.539	92.38
592.748	81.38
592.958	85.38
593.167	78.38
593.377	99.38
593.587	82.38
593.796	79.38
594.006	92.38
594.215	91.38
594.424	99.38
594.634	86.38
594.843	97.38
595.053	93.38
595.262	99.38
595.472	103.38
595.681	96.38
595.89	85.38
596.1	78.38
596.309	100.38
596.518	93.38
596.727	91.38
596.937	91.38
597.146	103.38
597.355	90.38
597.564	98.38
597.774	100.38
597.983	93.38
598.192	83.38
598.401	82.38
598.61	89.38
598.819	79.38
599.028	98.38
599.237	93.38
599.446	92.38
599.655	94.38
599.864	98.38
600.073	104.38
600.282	91.38
600.491	94.38
600.7	88.38
600.909	101.38
601.118	91.38
601.327	92.38
601.536	96.38
601.745	102.38
601.953	105.38
602.162	121.38
602.371	97.38
602.58	106.38
602.789	124.38
602.997	101.38
603.206	116.38
603.415	116.38
603.623	101.38
603.832	107.38
604.041	104.38
604.249	105.38
604.458	75.38
604.666	116.38
604.875	90.38
605.084	105.38
605.292	107.38
605.501	105.38
605.709	118.38
605.918	109.38
606.126	114.38
606.334	115.38
606.543	106.38
606.751	114.38
606.96	114.38
607.168	102.38
607.376	97.38
607.585	101.38
607.793	100.38
608.001	97.38
608.21	117.38
608.418	115.38
608.626	112.38
608.834	110.38
609.043	109.38
609.251	109.38
609.459	117.38
609.667	120.38
609.875	124.38
610.083	112.38
610.291	117.38
610.499	128.38
610.707	104.38
610.916	104.38
611.124	108.38
611.332	111.38
611.54	120.38
611.748	118.38
611.955	110.38
612.163	116.38
612.371	124.38
612.579	118.38
612.787	117.38
612.995	108.38
613.203	106.38
613.411	118.38
613.618	112.38
613.826	116.38
614.034	115.38
614.242	116.38
614.449	105.38
614.657	109.38
614.865	114.38
615.072	122.38
615.28	115.38
615.488	110.38
615.695	114.38
615.903	113.38
616.111	113.38
616.318	118.38
616.526	113.38
616.733	114.38
616.941	123.38
617.148	98.38
617.356	108.38
617.563	119.38
617.771	110.38
617.978	105.38
618.185	106.38
618.393	109.38
618.6	123.38
618.807	112.38
619.015	108.38
619.222	116.38
619.429	92.38
619.637	105.38
619.844	97.38
620.051	100.38
620.258	105.38
620.466	107.38
620.673	110.38
620.88	112.38
621.087	100.38
621.294	106.38
621.501	106.38
621.708	108.38
621.915	106.38
622.122	115.38
622.329	106.38
622.536	104.38
622.743	102.38
622.95	102.38
623.157	109.38
623.364	98.38
623.571	120.38
623.778	109.38
623.985	98.38
624.192	95.38
624.399	101.38
624.606	105.38
624.812	122.38
625.019	107.38
625.226	102.38
625.433	112.38
625.639	100.38
625.846	90.38
626.053	89.38
626.259	106.38
626.466	96.38
626.673	99.38
626.879	86.38
627.086	93.38
627.293	95.38
627.499	93.38
627.706	106.38
627.912	114.38
628.119	110.38
628.325	104.38
628.532	113.38
628.738	105.38
628.945	104.38
629.151	100.38
629.357	104.38
629.564	104.38
629.77	105.38
629.976	94.38
630.183	89.38
630.389	92.38
630.595	113.38
630.802	102.38
631.008	107.38
631.214	96.38
631.42	93.38
631.627	112.38
631.833	101.38
632.039	114.38
632.245	98.38
632.451	107.38
632.657	110.38
632.863	117.38
633.069	112.38
633.275	89.38
633.481	94.38
633.688	96.38
633.893	98.38
634.099	106.38
634.305	105.38
634.511	98.38
634.717	99.38
634.923	87.38
635.129	105.38
635.335	97.38
635.541	73.38
635.747	82.38
635.952	81.38
636.158	88.38
636.364	108.38
636.57	103.38
636.775	113.38
636.981	107.38
637.187	107.38
637.392	96.38
637.598	92.38
637.804	105.38
638.009	88.38
638.215	95.38
638.421	109.38
638.626	97.38
638.832	113.38
639.037	110.38
639.243	97.38
639.448	92.38
639.654	105.38
639.859	100.38
640.065	109.38
640.27	92.38
640.475	84.38
640.681	89.38
640.886	101.38
641.091	113.38
641.297	106.38
641.502	85.38
641.707	107.38
641.913	102.38
642.118	92.38
642.323	94.38
642.528	95.38
642.733	102.38
642.939	108.38
643.144	107.38
643.349	107.38
643.554	100.38
643.759	97.38
643.964	101.38
644.169	96.38
644.374	85.38
644.579	105.38
644.784	104.38
644.989	114.38
645.194	90.38
645.399	97.38
645.604	86.38
645.809	97.38
646.014	107.38
646.219	86.38
646.423	94.38
646.628	106.38
646.833	104.38
647.038	99.38
647.243	96.38
647.447	108.38
647.652	100.38
647.857	101.38
648.062	93.38
648.266	101.38
648.471	101.38
648.676	98.38
648.88	90.38
649.085	97.38
649.289	93.38
649.494	93.38
649.698	98.38
649.903	90.38
650.107	108.38
650.312	104.38
650.516	93.38
650.721	79.38
650.925	104.38
651.13	86.38
651.334	106.38
651.539	96.38
651.743	89.38
651.947	85.38
652.152	83.38
652.356	96.38
652.56	95.38
652.764	96.38
652.969	78.38
653.173	89.38
653.377	88.38
653.581	87.38
653.785	85.38
653.99	84.38
654.194	86.38
654.398	96.38
654.602	96.38
654.806	95.38
655.01	92.38
655.214	88.38
655.418	93.38
655.622	83.38
655.826	84.38
656.03	82.38
656.234	86.38
656.438	81.38
656.642	93.38
656.846	86.38
657.049	81.38
657.253	99.38
657.457	93.38
657.661	94.38
657.865	100.38
658.068	90.38
658.272	94.38
658.476	91.38
658.68	86.38
658.883	97.38
659.087	75.38
659.291	78.38
659.494	85.38
659.698	91.38
659.901	71.38
660.105	85.38
660.309	76.38
660.512	83.38
660.716	90.38
660.919	89.38
661.123	96.38
661.326	89.38
661.53	82.38
661.733	69.38
661.936	78.38
662.14	88.38
662.343	84.38
662.546	85.38
662.75	93.38
662.953	93.38
663.156	77.38
663.36	89.38
663.563	77.38
663.766	80.38
663.969	85.38
664.173	81.38
664.376	96.38
664.579	91.38
664.782	85.38
664.985	82.38
665.188	81.38
665.391	79.38
665.594	71.38
665.797	87.38
666	79.38
666.203	84.38
666.406	71.38
666.609	82.38
666.812	89.38
667.015	76.38
667.218	78.38
667.421	78.38
667.624	85.38
667.827	77.38
668.03	74.38
668.232	92.38
668.435	81.38
668.638	80.38
668.841	96.38
669.043	85.38
669.246	93.38
669.449	85.38
669.651	84.38
669.854	81.38
670.057	74.38
670.259	87.38
670.462	93.38
670.665	74.38
670.867	76.38
671.07	82.38
671.272	85.38
671.475	88.38
671.677	81.38
671.88	90.38
672.082	77.38
672.284	76.38
672.487	84.38
672.689	85.38
672.892	81.38
