Data from Location4.07152019.Energy5.Lamp.07192019.3%Agarose_HRD10591_16-18-28-925.txt Node
Date: Fri Jul 19 16:18:28 EDT 2019
User: cochatt
Spectrometer: HR+D1059
Trigger mode: 1
Integration Time (sec): 1.000000E-1
Scans to average: 1
Electric dark correction enabled: true
Nonlinearity correction enabled: false
Boxcar width: 0
XAxis mode: Wavelengths
Number of Pixels in Spectrum: 2048
>>>>>Begin Spectral Data<<<<<
223.165	-14.62
223.4	-14.62
223.635	-14.62
223.869	-15.62
224.104	-9.62
224.338	-29.62
224.573	-26.62
224.808	-20.62
225.042	-1.62
225.277	-13.62
225.511	9.38
225.746	6.38
225.98	3.38
226.215	11.38
226.449	16.38
226.683	21.38
226.918	35.38
227.152	28.38
227.387	36.38
227.621	28.38
227.856	46.38
228.09	43.38
228.324	52.38
228.559	69.38
228.793	56.38
229.027	56.38
229.262	65.38
229.496	50.38
229.73	58.38
229.964	74.38
230.199	65.38
230.433	76.38
230.667	82.38
230.901	82.38
231.136	86.38
231.37	91.38
231.604	88.38
231.838	75.38
232.072	79.38
232.306	79.38
232.541	76.38
232.775	67.38
233.009	82.38
233.243	75.38
233.477	96.38
233.711	92.38
233.945	89.38
234.179	76.38
234.413	73.38
234.647	70.38
234.881	73.38
235.115	90.38
235.349	96.38
235.583	78.38
235.817	64.38
236.051	64.38
236.285	76.38
236.519	70.38
236.753	70.38
236.987	79.38
237.221	74.38
237.455	82.38
237.689	81.38
237.922	72.38
238.156	89.38
238.39	84.38
238.624	76.38
238.858	60.38
239.091	75.38
239.325	78.38
239.559	76.38
239.793	70.38
240.027	77.38
240.26	77.38
240.494	88.38
240.728	77.38
240.961	76.38
241.195	71.38
241.429	69.38
241.662	75.38
241.896	71.38
242.13	72.38
242.363	64.38
242.597	61.38
242.83	70.38
243.064	84.38
243.298	74.38
243.531	72.38
243.765	83.38
243.998	78.38
244.232	77.38
244.465	68.38
244.699	58.38
244.932	78.38
245.166	74.38
245.399	67.38
245.633	80.38
245.866	81.38
246.099	72.38
246.333	98.38
246.566	77.38
246.8	97.38
247.033	69.38
247.266	72.38
247.5	89.38
247.733	88.38
247.966	87.38
248.2	88.38
248.433	82.38
248.666	78.38
248.899	81.38
249.133	74.38
249.366	82.38
249.599	77.38
249.832	94.38
250.066	89.38
250.299	77.38
250.532	72.38
250.765	74.38
250.998	66.38
251.231	84.38
251.465	65.38
251.698	92.38
251.931	89.38
252.164	78.38
252.397	75.38
252.63	71.38
252.863	74.38
253.096	64.38
253.329	88.38
253.562	70.38
253.795	91.38
254.028	80.38
254.261	68.38
254.494	91.38
254.727	79.38
254.96	79.38
255.193	87.38
255.426	72.38
255.659	68.38
255.892	83.38
256.124	68.38
256.357	72.38
256.59	66.38
256.823	67.38
257.056	85.38
257.289	78.38
257.521	72.38
257.754	78.38
257.987	88.38
258.22	92.38
258.452	101.38
258.685	94.38
258.918	76.38
259.151	83.38
259.383	86.38
259.616	96.38
259.849	77.38
260.081	77.38
260.314	74.38
260.547	68.38
260.779	83.38
261.012	89.38
261.244	74.38
261.477	86.38
261.71	81.38
261.942	80.38
262.175	72.38
262.407	88.38
262.64	80.38
262.872	85.38
263.105	92.38
263.337	89.38
263.57	84.38
263.802	78.38
264.035	73.38
264.267	77.38
264.499	87.38
264.732	79.38
264.964	81.38
265.197	82.38
265.429	86.38
265.661	70.38
265.894	82.38
266.126	83.38
266.358	80.38
266.591	86.38
266.823	74.38
267.055	81.38
267.287	78.38
267.52	79.38
267.752	88.38
267.984	90.38
268.216	78.38
268.448	87.38
268.681	91.38
268.913	81.38
269.145	79.38
269.377	81.38
269.609	82.38
269.841	89.38
270.073	90.38
270.306	85.38
270.538	71.38
270.77	84.38
271.002	77.38
271.234	87.38
271.466	86.38
271.698	90.38
271.93	82.38
272.162	79.38
272.394	80.38
272.626	81.38
272.858	88.38
273.09	88.38
273.322	77.38
273.553	92.38
273.785	80.38
274.017	86.38
274.249	77.38
274.481	92.38
274.713	86.38
274.945	83.38
275.176	81.38
275.408	85.38
275.64	91.38
275.872	74.38
276.104	94.38
276.335	90.38
276.567	75.38
276.799	84.38
277.031	87.38
277.262	76.38
277.494	87.38
277.726	93.38
277.957	93.38
278.189	81.38
278.421	96.38
278.652	81.38
278.884	80.38
279.115	89.38
279.347	80.38
279.579	72.38
279.81	87.38
280.042	80.38
280.273	77.38
280.505	85.38
280.736	84.38
280.968	99.38
281.199	77.38
281.431	84.38
281.662	73.38
281.894	84.38
282.125	88.38
282.356	81.38
282.588	83.38
282.819	82.38
283.051	79.38
283.282	84.38
283.513	86.38
283.745	97.38
283.976	77.38
284.207	76.38
284.439	84.38
284.67	98.38
284.901	82.38
285.132	81.38
285.364	89.38
285.595	77.38
285.826	74.38
286.057	89.38
286.288	89.38
286.52	89.38
286.751	73.38
286.982	79.38
287.213	88.38
287.444	79.38
287.675	71.38
287.906	92.38
288.138	76.38
288.369	83.38
288.6	83.38
288.831	93.38
289.062	92.38
289.293	81.38
289.524	83.38
289.755	76.38
289.986	84.38
290.217	83.38
290.448	74.38
290.679	82.38
290.91	83.38
291.141	74.38
291.371	89.38
291.602	86.38
291.833	77.38
292.064	74.38
292.295	92.38
292.526	67.38
292.757	86.38
292.987	79.38
293.218	72.38
293.449	93.38
293.68	89.38
293.91	80.38
294.141	83.38
294.372	87.38
294.603	71.38
294.833	96.38
295.064	85.38
295.295	77.38
295.525	76.38
295.756	91.38
295.987	84.38
296.217	79.38
296.448	84.38
296.679	84.38
296.909	86.38
297.14	84.38
297.37	92.38
297.601	73.38
297.831	65.38
298.062	84.38
298.292	82.38
298.523	76.38
298.753	69.38
298.984	71.38
299.214	87.38
299.445	78.38
299.675	88.38
299.905	88.38
300.136	76.38
300.366	82.38
300.597	84.38
300.827	87.38
301.057	81.38
301.288	68.38
301.518	84.38
301.748	77.38
301.979	94.38
302.209	86.38
302.439	78.38
302.669	90.38
302.9	89.38
303.13	88.38
303.36	82.38
303.59	75.38
303.82	85.38
304.051	93.38
304.281	80.38
304.511	86.38
304.741	85.38
304.971	85.38
305.201	85.38
305.431	89.38
305.661	79.38
305.891	78.38
306.121	85.38
306.352	83.38
306.582	76.38
306.812	84.38
307.042	78.38
307.272	76.38
307.502	84.38
307.731	92.38
307.961	78.38
308.191	74.38
308.421	65.38
308.651	94.38
308.881	98.38
309.111	90.38
309.341	93.38
309.571	78.38
309.8	78.38
310.03	101.38
310.26	70.38
310.49	92.38
310.72	89.38
310.949	89.38
311.179	84.38
311.409	99.38
311.639	78.38
311.868	92.38
312.098	85.38
312.328	108.38
312.557	80.38
312.787	76.38
313.017	78.38
313.246	83.38
313.476	87.38
313.706	95.38
313.935	84.38
314.165	80.38
314.394	86.38
314.624	81.38
314.853	85.38
315.083	80.38
315.312	98.38
315.542	86.38
315.771	85.38
316.001	77.38
316.23	84.38
316.46	80.38
316.689	92.38
316.919	77.38
317.148	82.38
317.377	77.38
317.607	91.38
317.836	77.38
318.065	84.38
318.295	87.38
318.524	67.38
318.753	84.38
318.983	88.38
319.212	101.38
319.441	80.38
319.67	72.38
319.9	81.38
320.129	77.38
320.358	92.38
320.587	85.38
320.816	94.38
321.046	75.38
321.275	91.38
321.504	80.38
321.733	75.38
321.962	81.38
322.191	87.38
322.42	77.38
322.649	86.38
322.878	93.38
323.108	74.38
323.337	83.38
323.566	98.38
323.795	81.38
324.024	87.38
324.253	80.38
324.482	85.38
324.71	79.38
324.939	86.38
325.168	73.38
325.397	84.38
325.626	76.38
325.855	86.38
326.084	76.38
326.313	94.38
326.542	87.38
326.77	83.38
326.999	96.38
327.228	86.38
327.457	88.38
327.686	84.38
327.914	85.38
328.143	92.38
328.372	94.38
328.6	73.38
328.829	78.38
329.058	88.38
329.287	90.38
329.515	90.38
329.744	90.38
329.972	87.38
330.201	88.38
330.43	88.38
330.658	92.38
330.887	77.38
331.115	80.38
331.344	72.38
331.572	80.38
331.801	85.38
332.03	93.38
332.258	73.38
332.486	90.38
332.715	85.38
332.943	77.38
333.172	75.38
333.4	100.38
333.629	91.38
333.857	80.38
334.085	89.38
334.314	89.38
334.542	80.38
334.771	80.38
334.999	72.38
335.227	74.38
335.455	82.38
335.684	79.38
335.912	75.38
336.14	72.38
336.369	76.38
336.597	81.38
336.825	89.38
337.053	71.38
337.281	85.38
337.51	80.38
337.738	91.38
337.966	89.38
338.194	90.38
338.422	69.38
338.65	86.38
338.878	97.38
339.106	98.38
339.334	83.38
339.562	74.38
339.79	93.38
340.018	91.38
340.246	93.38
340.474	89.38
340.702	87.38
340.93	76.38
341.158	81.38
341.386	79.38
341.614	80.38
341.842	93.38
342.07	81.38
342.298	76.38
342.526	84.38
342.754	83.38
342.981	85.38
343.209	78.38
343.437	90.38
343.665	82.38
343.893	89.38
344.12	84.38
344.348	97.38
344.576	81.38
344.804	84.38
345.031	85.38
345.259	89.38
345.487	89.38
345.714	80.38
345.942	97.38
346.17	94.38
346.397	79.38
346.625	82.38
346.853	87.38
347.08	83.38
347.308	72.38
347.535	86.38
347.763	86.38
347.99	78.38
348.218	76.38
348.445	64.38
348.673	82.38
348.9	78.38
349.128	70.38
349.355	80.38
349.583	85.38
349.81	90.38
350.037	88.38
350.265	88.38
350.492	90.38
350.72	78.38
350.947	84.38
351.174	82.38
351.402	78.38
351.629	73.38
351.856	85.38
352.083	94.38
352.311	72.38
352.538	76.38
352.765	85.38
352.992	79.38
353.22	94.38
353.447	81.38
353.674	82.38
353.901	88.38
354.128	84.38
354.355	77.38
354.583	78.38
354.81	78.38
355.037	72.38
355.264	85.38
355.491	82.38
355.718	88.38
355.945	76.38
356.172	80.38
356.399	83.38
356.626	89.38
356.853	85.38
357.08	85.38
357.307	78.38
357.534	83.38
357.761	76.38
357.988	79.38
358.215	84.38
358.441	72.38
358.668	86.38
358.895	78.38
359.122	94.38
359.349	73.38
359.576	84.38
359.802	77.38
360.029	78.38
360.256	83.38
360.483	81.38
360.709	68.38
360.936	97.38
361.163	90.38
361.39	83.38
361.616	77.38
361.843	81.38
362.07	75.38
362.296	78.38
362.523	69.38
362.749	82.38
362.976	78.38
363.203	94.38
363.429	86.38
363.656	87.38
363.882	83.38
364.109	78.38
364.335	79.38
364.562	84.38
364.788	79.38
365.015	74.38
365.241	82.38
365.468	87.38
365.694	97.38
365.92	88.38
366.147	89.38
366.373	82.38
366.599	93.38
366.826	87.38
367.052	80.38
367.278	76.38
367.505	84.38
367.731	88.38
367.957	85.38
368.184	90.38
368.41	82.38
368.636	72.38
368.862	79.38
369.089	85.38
369.315	82.38
369.541	94.38
369.767	98.38
369.993	83.38
370.219	89.38
370.445	76.38
370.672	95.38
370.898	98.38
371.124	96.38
371.35	82.38
371.576	85.38
371.802	77.38
372.028	92.38
372.254	87.38
372.48	89.38
372.706	87.38
372.932	85.38
373.158	98.38
373.384	80.38
373.61	85.38
373.835	109.38
374.061	93.38
374.287	94.38
374.513	84.38
374.739	83.38
374.965	93.38
375.191	112.38
375.416	99.38
375.642	84.38
375.868	99.38
376.094	93.38
376.319	89.38
376.545	90.38
376.771	97.38
376.997	85.38
377.222	84.38
377.448	92.38
377.674	72.38
377.899	89.38
378.125	110.38
378.35	88.38
378.576	85.38
378.802	97.38
379.027	87.38
379.253	95.38
379.478	92.38
379.704	98.38
379.929	94.38
380.155	102.38
380.38	98.38
380.606	91.38
380.831	95.38
381.057	102.38
381.282	88.38
381.507	108.38
381.733	97.38
381.958	104.38
382.184	106.38
382.409	102.38
382.634	94.38
382.86	98.38
383.085	94.38
383.31	106.38
383.535	94.38
383.761	96.38
383.986	97.38
384.211	107.38
384.436	88.38
384.662	97.38
384.887	83.38
385.112	97.38
385.337	101.38
385.562	96.38
385.787	95.38
386.013	116.38
386.238	105.38
386.463	99.38
386.688	97.38
386.913	94.38
387.138	95.38
387.363	93.38
387.588	93.38
387.813	116.38
388.038	104.38
388.263	105.38
388.488	101.38
388.713	93.38
388.938	78.38
389.163	97.38
389.387	103.38
389.612	104.38
389.837	97.38
390.062	97.38
390.287	113.38
390.512	117.38
390.736	106.38
390.961	99.38
391.186	102.38
391.411	107.38
391.636	102.38
391.86	101.38
392.085	99.38
392.31	103.38
392.534	98.38
392.759	99.38
392.984	89.38
393.208	108.38
393.433	98.38
393.658	124.38
393.882	102.38
394.107	114.38
394.331	99.38
394.556	94.38
394.78	100.38
395.005	113.38
395.229	102.38
395.454	99.38
395.678	113.38
395.903	98.38
396.127	101.38
396.352	97.38
396.576	107.38
396.801	104.38
397.025	98.38
397.249	113.38
397.474	109.38
397.698	107.38
397.922	100.38
398.147	101.38
398.371	110.38
398.595	114.38
398.82	113.38
399.044	108.38
399.268	102.38
399.492	107.38
399.717	102.38
399.941	113.38
400.165	110.38
400.389	108.38
400.613	110.38
400.837	114.38
401.062	115.38
401.286	101.38
401.51	100.38
401.734	91.38
401.958	109.38
402.182	107.38
402.406	112.38
402.63	104.38
402.854	114.38
403.078	108.38
403.302	115.38
403.526	111.38
403.75	106.38
403.974	108.38
404.198	115.38
404.422	97.38
404.645	104.38
404.869	108.38
405.093	109.38
405.317	128.38
405.541	99.38
405.765	111.38
405.988	117.38
406.212	98.38
406.436	111.38
406.66	115.38
406.883	112.38
407.107	111.38
407.331	126.38
407.555	126.38
407.778	124.38
408.002	101.38
408.226	115.38
408.449	111.38
408.673	116.38
408.896	105.38
409.12	121.38
409.344	120.38
409.567	122.38
409.791	124.38
410.014	118.38
410.238	120.38
410.461	126.38
410.685	106.38
410.908	110.38
411.132	122.38
411.355	112.38
411.578	116.38
411.802	112.38
412.025	112.38
412.249	115.38
412.472	125.38
412.695	114.38
412.919	121.38
413.142	126.38
413.365	125.38
413.589	107.38
413.812	105.38
414.035	104.38
414.258	122.38
414.482	112.38
414.705	139.38
414.928	130.38
415.151	125.38
415.374	117.38
415.597	134.38
415.821	120.38
416.044	123.38
416.267	138.38
416.49	136.38
416.713	114.38
416.936	125.38
417.159	122.38
417.382	120.38
417.605	126.38
417.828	133.38
418.051	121.38
418.274	121.38
418.497	114.38
418.72	145.38
418.943	135.38
419.166	135.38
419.389	140.38
419.611	124.38
419.834	121.38
420.057	136.38
420.28	122.38
420.503	142.38
420.726	145.38
420.948	120.38
421.171	131.38
421.394	134.38
421.617	138.38
421.839	132.38
422.062	147.38
422.285	119.38
422.507	124.38
422.73	124.38
422.953	126.38
423.175	131.38
423.398	123.38
423.621	113.38
423.843	135.38
424.066	126.38
424.288	135.38
424.511	123.38
424.733	141.38
424.956	148.38
425.178	152.38
425.401	144.38
425.623	133.38
425.846	140.38
426.068	129.38
426.291	126.38
426.513	137.38
426.735	150.38
426.958	126.38
427.18	127.38
427.402	130.38
427.625	130.38
427.847	129.38
428.069	119.38
428.292	123.38
428.514	120.38
428.736	130.38
428.958	123.38
429.181	123.38
429.403	135.38
429.625	139.38
429.847	116.38
430.069	132.38
430.292	133.38
430.514	130.38
430.736	133.38
430.958	139.38
431.18	126.38
431.402	129.38
431.624	126.38
431.846	116.38
432.068	106.38
432.29	106.38
432.512	117.38
432.734	125.38
432.956	147.38
433.178	144.38
433.4	134.38
433.622	147.38
433.844	132.38
434.066	116.38
434.287	124.38
434.509	115.38
434.731	112.38
434.953	107.38
435.175	132.38
435.397	122.38
435.618	112.38
435.84	108.38
436.062	119.38
436.284	123.38
436.505	138.38
436.727	120.38
436.949	122.38
437.17	122.38
437.392	108.38
437.614	107.38
437.835	112.38
438.057	105.38
438.278	104.38
438.5	131.38
438.721	133.38
438.943	160.38
439.165	131.38
439.386	127.38
439.608	142.38
439.829	141.38
440.05	124.38
440.272	141.38
440.493	140.38
440.715	128.38
440.936	142.38
441.158	138.38
441.379	150.38
441.6	150.38
441.822	147.38
442.043	132.38
442.264	151.38
442.486	150.38
442.707	134.38
442.928	126.38
443.149	132.38
443.371	137.38
443.592	129.38
443.813	138.38
444.034	133.38
444.255	140.38
444.476	138.38
444.698	147.38
444.919	149.38
445.14	267.38
445.361	190.38
445.582	153.38
445.803	136.38
446.024	152.38
446.245	142.38
446.466	157.38
446.687	151.38
446.908	150.38
447.129	148.38
447.35	157.38
447.571	158.38
447.792	141.38
448.013	152.38
448.234	136.38
448.455	132.38
448.675	130.38
448.896	130.38
449.117	127.38
449.338	142.38
449.559	128.38
449.779	118.38
450	134.38
450.221	132.38
450.442	147.38
450.662	129.38
450.883	112.38
451.104	129.38
451.324	122.38
451.545	132.38
451.766	133.38
451.986	137.38
452.207	116.38
452.428	132.38
452.648	127.38
452.869	116.38
453.089	115.38
453.31	104.38
453.53	113.38
453.751	102.38
453.971	90.38
454.192	98.38
454.412	122.38
454.633	104.38
454.853	123.38
455.073	117.38
455.294	116.38
455.514	128.38
455.734	123.38
455.955	125.38
456.175	113.38
456.395	101.38
456.616	112.38
456.836	106.38
457.056	124.38
457.276	122.38
457.497	118.38
457.717	105.38
457.937	102.38
458.157	105.38
458.377	118.38
458.598	109.38
458.818	101.38
459.038	78.38
459.258	81.38
459.478	86.38
459.698	76.38
459.918	91.38
460.138	108.38
460.358	118.38
460.578	122.38
460.798	130.38
461.018	108.38
461.238	93.38
461.458	112.38
461.678	104.38
461.898	106.38
462.118	107.38
462.338	105.38
462.558	101.38
462.777	116.38
462.997	120.38
463.217	119.38
463.437	105.38
463.657	99.38
463.876	111.38
464.096	92.38
464.316	96.38
464.536	124.38
464.755	115.38
464.975	119.38
465.195	110.38
465.414	109.38
465.634	117.38
465.854	115.38
466.073	134.38
466.293	141.38
466.512	129.38
466.732	114.38
466.951	148.38
467.171	136.38
467.391	140.38
467.61	143.38
467.829	146.38
468.049	150.38
468.268	127.38
468.488	124.38
468.707	155.38
468.927	148.38
469.146	142.38
469.365	120.38
469.585	140.38
469.804	134.38
470.023	136.38
470.243	134.38
470.462	136.38
470.681	150.38
470.901	142.38
471.12	142.38
471.339	150.38
471.558	136.38
471.777	150.38
471.997	134.38
472.216	132.38
472.435	106.38
472.654	102.38
472.873	109.38
473.092	110.38
473.311	122.38
473.53	128.38
473.749	120.38
473.968	148.38
474.187	127.38
474.406	124.38
474.625	131.38
474.844	118.38
475.063	136.38
475.282	126.38
475.501	110.38
475.72	122.38
475.939	123.38
476.158	120.38
476.377	126.38
476.596	117.38
476.814	97.38
477.033	109.38
477.252	97.38
477.471	120.38
477.69	126.38
477.908	136.38
478.127	130.38
478.346	133.38
478.564	134.38
478.783	141.38
479.002	141.38
479.22	137.38
479.439	136.38
479.658	122.38
479.876	127.38
480.095	134.38
480.313	123.38
480.532	124.38
480.751	124.38
480.969	103.38
481.188	93.38
481.406	81.38
481.624	77.38
481.843	92.38
482.061	104.38
482.28	106.38
482.498	105.38
482.717	99.38
482.935	121.38
483.153	140.38
483.372	139.38
483.59	133.38
483.808	149.38
484.027	135.38
484.245	126.38
484.463	135.38
484.681	157.38
484.9	162.38
485.118	150.38
485.336	125.38
485.554	93.38
485.772	97.38
485.99	93.38
486.209	106.38
486.427	115.38
486.645	136.38
486.863	146.38
487.081	139.38
487.299	115.38
487.517	140.38
487.735	178.38
487.953	184.38
488.171	180.38
488.389	183.38
488.607	156.38
488.825	139.38
489.043	132.38
489.261	132.38
489.479	137.38
489.696	137.38
489.914	142.38
490.132	157.38
490.35	149.38
490.568	158.38
490.786	165.38
491.003	175.38
491.221	178.38
491.439	164.38
491.657	188.38
491.874	190.38
492.092	213.38
492.31	242.38
492.527	209.38
492.745	196.38
492.963	171.38
493.18	166.38
493.398	187.38
493.615	170.38
493.833	172.38
494.05	165.38
494.268	181.38
494.485	173.38
494.703	166.38
494.92	167.38
495.138	164.38
495.355	168.38
495.573	168.38
495.79	170.38
496.008	161.38
496.225	169.38
496.442	178.38
496.66	157.38
496.877	176.38
497.094	156.38
497.312	162.38
497.529	158.38
497.746	150.38
497.963	132.38
498.181	121.38
498.398	120.38
498.615	111.38
498.832	123.38
499.049	114.38
499.267	139.38
499.484	112.38
499.701	128.38
499.918	141.38
500.135	134.38
500.352	135.38
500.569	145.38
500.786	132.38
501.003	134.38
501.22	143.38
501.437	144.38
501.654	126.38
501.871	126.38
502.088	121.38
502.305	128.38
502.522	128.38
502.739	112.38
502.956	109.38
503.172	121.38
503.389	116.38
503.606	107.38
503.823	103.38
504.04	127.38
504.256	120.38
504.473	104.38
504.69	101.38
504.907	121.38
505.123	114.38
505.34	113.38
505.557	118.38
505.773	118.38
505.99	108.38
506.207	123.38
506.423	121.38
506.64	123.38
506.856	120.38
507.073	126.38
507.289	109.38
507.506	132.38
507.722	122.38
507.939	126.38
508.155	117.38
508.372	113.38
508.588	115.38
508.805	114.38
509.021	110.38
509.238	102.38
509.454	88.38
509.67	97.38
509.887	99.38
510.103	99.38
510.319	92.38
510.536	81.38
510.752	92.38
510.968	85.38
511.184	88.38
511.401	81.38
511.617	96.38
511.833	82.38
512.049	96.38
512.265	99.38
512.481	95.38
512.698	111.38
512.914	92.38
513.13	82.38
513.346	104.38
513.562	77.38
513.778	98.38
513.994	91.38
514.21	100.38
514.426	97.38
514.642	103.38
514.858	83.38
515.074	88.38
515.29	76.38
515.506	73.38
515.721	87.38
515.937	88.38
516.153	92.38
516.369	73.38
516.585	79.38
516.801	87.38
517.016	87.38
517.232	91.38
517.448	97.38
517.664	101.38
517.879	78.38
518.095	98.38
518.311	109.38
518.527	92.38
518.742	105.38
518.958	95.38
519.173	107.38
519.389	119.38
519.605	110.38
519.82	115.38
520.036	99.38
520.251	105.38
520.467	102.38
520.682	92.38
520.898	89.38
521.113	99.38
521.329	96.38
521.544	91.38
521.76	105.38
521.975	102.38
522.19	100.38
522.406	102.38
522.621	115.38
522.836	99.38
523.052	109.38
523.267	108.38
523.482	101.38
523.698	110.38
523.913	116.38
524.128	99.38
524.343	109.38
524.559	109.38
524.774	108.38
524.989	110.38
525.204	124.38
525.419	107.38
525.634	88.38
525.849	110.38
526.064	104.38
526.28	116.38
526.495	94.38
526.71	96.38
526.925	86.38
527.14	94.38
527.355	93.38
527.57	80.38
527.785	87.38
527.999	100.38
528.214	104.38
528.429	117.38
528.644	128.38
528.859	128.38
529.074	152.38
529.289	175.38
529.503	156.38
529.718	154.38
529.933	120.38
530.148	100.38
530.363	87.38
530.577	76.38
530.792	83.38
531.007	74.38
531.221	84.38
531.436	90.38
531.651	75.38
531.865	79.38
532.08	81.38
532.295	89.38
532.509	69.38
532.724	87.38
532.938	84.38
533.153	92.38
533.367	116.38
533.582	121.38
533.796	120.38
534.011	128.38
534.225	101.38
534.44	88.38
534.654	83.38
534.868	97.38
535.083	104.38
535.297	98.38
535.511	106.38
535.726	106.38
535.94	104.38
536.154	103.38
536.369	93.38
536.583	94.38
536.797	76.38
537.011	87.38
537.225	94.38
537.44	103.38
537.654	78.38
537.868	98.38
538.082	88.38
538.296	99.38
538.51	106.38
538.724	115.38
538.938	115.38
539.153	122.38
539.367	123.38
539.581	110.38
539.795	121.38
540.009	94.38
540.222	105.38
540.436	116.38
540.65	118.38
540.864	116.38
541.078	126.38
541.292	121.38
541.506	153.38
541.72	156.38
541.934	185.38
542.147	194.38
542.361	173.38
542.575	150.38
542.789	138.38
543.002	119.38
543.216	132.38
543.43	121.38
543.644	143.38
543.857	133.38
544.071	142.38
544.285	144.38
544.498	158.38
544.712	152.38
544.925	141.38
545.139	151.38
545.352	148.38
545.566	155.38
545.779	157.38
545.993	156.38
546.206	155.38
546.42	165.38
546.633	166.38
546.847	165.38
547.06	164.38
547.274	171.38
547.487	169.38
547.7	176.38
547.914	168.38
548.127	160.38
548.34	141.38
548.554	155.38
548.767	148.38
548.98	140.38
549.193	160.38
549.407	154.38
549.62	143.38
549.833	156.38
550.046	143.38
550.259	137.38
550.473	143.38
550.686	132.38
550.899	145.38
551.112	158.38
551.325	140.38
551.538	134.38
551.751	129.38
551.964	100.38
552.177	128.38
552.39	138.38
552.603	143.38
552.816	148.38
553.029	143.38
553.242	165.38
553.455	151.38
553.667	154.38
553.88	141.38
554.093	138.38
554.306	142.38
554.519	139.38
554.732	148.38
554.944	131.38
555.157	152.38
555.37	143.38
555.583	149.38
555.795	126.38
556.008	140.38
556.221	143.38
556.433	148.38
556.646	130.38
556.859	128.38
557.071	134.38
557.284	133.38
557.496	131.38
557.709	128.38
557.921	137.38
558.134	148.38
558.346	128.38
558.559	144.38
558.771	130.38
558.984	145.38
559.196	134.38
559.409	134.38
559.621	123.38
559.833	121.38
560.046	137.38
560.258	124.38
560.47	118.38
560.683	127.38
560.895	125.38
561.107	117.38
561.32	141.38
561.532	125.38
561.744	117.38
561.956	132.38
562.168	114.38
562.381	129.38
562.593	127.38
562.805	121.38
563.017	115.38
563.229	123.38
563.441	106.38
563.653	115.38
563.865	120.38
564.077	120.38
564.289	124.38
564.501	120.38
564.713	130.38
564.925	118.38
565.137	133.38
565.349	126.38
565.561	113.38
565.773	116.38
565.985	108.38
566.197	124.38
566.408	127.38
566.62	108.38
566.832	114.38
567.044	120.38
567.255	122.38
567.467	118.38
567.679	112.38
567.891	102.38
568.102	109.38
568.314	99.38
568.526	91.38
568.737	82.38
568.949	78.38
569.161	81.38
569.372	82.38
569.584	89.38
569.795	93.38
570.007	84.38
570.218	82.38
570.43	97.38
570.641	92.38
570.853	94.38
571.064	84.38
571.276	95.38
571.487	111.38
571.698	96.38
571.91	106.38
572.121	90.38
572.333	105.38
572.544	92.38
572.755	86.38
572.966	97.38
573.178	88.38
573.389	80.38
573.6	87.38
573.811	92.38
574.023	80.38
574.234	87.38
574.445	93.38
574.656	81.38
574.867	114.38
575.078	94.38
575.289	98.38
575.501	85.38
575.712	95.38
575.923	99.38
576.134	100.38
576.345	102.38
576.556	96.38
576.767	102.38
576.978	102.38
577.188	93.38
577.399	90.38
577.61	102.38
577.821	92.38
578.032	103.38
578.243	88.38
578.454	92.38
578.665	98.38
578.875	76.38
579.086	87.38
579.297	83.38
579.508	85.38
579.718	80.38
579.929	81.38
580.14	84.38
580.35	84.38
580.561	77.38
580.772	93.38
580.982	90.38
581.193	91.38
581.403	84.38
581.614	76.38
581.825	89.38
582.035	84.38
582.246	90.38
582.456	88.38
582.667	91.38
582.877	90.38
583.087	89.38
583.298	107.38
583.508	86.38
583.719	77.38
583.929	89.38
584.139	85.38
584.35	88.38
584.56	87.38
584.77	90.38
584.981	92.38
585.191	79.38
585.401	85.38
585.611	80.38
585.821	100.38
586.032	73.38
586.242	83.38
586.452	84.38
586.662	84.38
586.872	92.38
587.082	78.38
587.292	79.38
587.502	88.38
587.713	83.38
587.923	92.38
588.133	85.38
588.343	78.38
588.553	84.38
588.762	92.38
588.972	90.38
589.182	90.38
589.392	82.38
589.602	86.38
589.812	90.38
590.022	78.38
590.232	92.38
590.441	86.38
590.651	81.38
590.861	81.38
591.071	86.38
591.281	83.38
591.49	84.38
591.7	94.38
591.91	87.38
592.119	92.38
592.329	93.38
592.539	90.38
592.748	88.38
592.958	83.38
593.167	84.38
593.377	86.38
593.587	76.38
593.796	89.38
594.006	83.38
594.215	94.38
594.424	83.38
594.634	92.38
594.843	99.38
595.053	94.38
595.262	85.38
595.472	91.38
595.681	86.38
595.89	96.38
596.1	82.38
596.309	77.38
596.518	93.38
596.727	91.38
596.937	94.38
597.146	93.38
597.355	99.38
597.564	96.38
597.774	97.38
597.983	82.38
598.192	74.38
598.401	77.38
598.61	97.38
598.819	91.38
599.028	88.38
599.237	92.38
599.446	94.38
599.655	97.38
599.864	75.38
600.073	93.38
600.282	101.38
600.491	91.38
600.7	94.38
600.909	87.38
601.118	96.38
601.327	105.38
601.536	105.38
601.745	113.38
601.953	97.38
602.162	94.38
602.371	102.38
602.58	92.38
602.789	102.38
602.997	104.38
603.206	117.38
603.415	100.38
603.623	97.38
603.832	111.38
604.041	101.38
604.249	82.38
604.458	102.38
604.666	82.38
604.875	91.38
605.084	93.38
605.292	106.38
605.501	114.38
605.709	117.38
605.918	115.38
606.126	105.38
606.334	108.38
606.543	107.38
606.751	106.38
606.96	107.38
607.168	97.38
607.376	99.38
607.585	114.38
607.793	109.38
608.001	94.38
608.21	110.38
608.418	114.38
608.626	128.38
608.834	117.38
609.043	112.38
609.251	109.38
609.459	116.38
609.667	118.38
609.875	110.38
610.083	97.38
610.291	104.38
610.499	126.38
610.707	100.38
610.916	102.38
611.124	109.38
611.332	110.38
611.54	105.38
611.748	110.38
611.955	118.38
612.163	109.38
612.371	109.38
612.579	121.38
612.787	116.38
612.995	116.38
613.203	118.38
613.411	100.38
613.618	115.38
613.826	115.38
614.034	104.38
614.242	105.38
614.449	121.38
614.657	113.38
614.865	108.38
615.072	119.38
615.28	115.38
615.488	102.38
615.695	112.38
615.903	118.38
616.111	114.38
616.318	108.38
616.526	109.38
616.733	112.38
616.941	111.38
617.148	100.38
617.356	103.38
617.563	113.38
617.771	99.38
617.978	105.38
618.185	87.38
618.393	88.38
618.6	100.38
618.807	109.38
619.015	114.38
619.222	99.38
619.429	102.38
619.637	106.38
619.844	92.38
620.051	107.38
620.258	108.38
620.466	90.38
620.673	120.38
620.88	95.38
621.087	95.38
621.294	105.38
621.501	102.38
621.708	104.38
621.915	98.38
622.122	105.38
622.329	99.38
622.536	108.38
622.743	124.38
622.95	109.38
623.157	102.38
623.364	92.38
623.571	96.38
623.778	90.38
623.985	126.38
624.192	95.38
624.399	105.38
624.606	105.38
624.812	113.38
625.019	113.38
625.226	106.38
625.433	99.38
625.639	99.38
625.846	109.38
626.053	92.38
626.259	95.38
626.466	92.38
626.673	87.38
626.879	104.38
627.086	98.38
627.293	89.38
627.499	108.38
627.706	102.38
627.912	99.38
628.119	90.38
628.325	118.38
628.532	102.38
628.738	103.38
628.945	104.38
629.151	101.38
629.357	107.38
629.564	96.38
629.77	97.38
629.976	108.38
630.183	108.38
630.389	88.38
630.595	86.38
630.802	100.38
631.008	94.38
631.214	94.38
631.42	92.38
631.627	103.38
631.833	100.38
632.039	109.38
632.245	106.38
632.451	100.38
632.657	97.38
632.863	113.38
633.069	98.38
633.275	96.38
633.481	105.38
633.688	98.38
633.893	101.38
634.099	102.38
634.305	94.38
634.511	105.38
634.717	96.38
634.923	90.38
635.129	98.38
635.335	102.38
635.541	96.38
635.747	93.38
635.952	109.38
636.158	107.38
636.364	101.38
636.57	96.38
636.775	106.38
636.981	108.38
637.187	96.38
637.392	99.38
637.598	96.38
637.804	82.38
638.009	101.38
638.215	106.38
638.421	101.38
638.626	96.38
638.832	88.38
639.037	97.38
639.243	100.38
639.448	102.38
639.654	109.38
639.859	94.38
640.065	104.38
640.27	124.38
640.475	109.38
640.681	101.38
640.886	99.38
641.091	98.38
641.297	91.38
641.502	91.38
641.707	92.38
641.913	122.38
642.118	103.38
642.323	101.38
642.528	95.38
642.733	108.38
642.939	104.38
643.144	102.38
643.349	99.38
643.554	103.38
643.759	99.38
643.964	96.38
644.169	89.38
644.374	96.38
644.579	103.38
644.784	98.38
644.989	104.38
645.194	113.38
645.399	105.38
645.604	107.38
645.809	94.38
646.014	92.38
646.219	104.38
646.423	97.38
646.628	98.38
646.833	87.38
647.038	94.38
647.243	99.38
647.447	102.38
647.652	93.38
647.857	100.38
648.062	103.38
648.266	107.38
648.471	106.38
648.676	95.38
648.88	94.38
649.085	98.38
649.289	107.38
649.494	92.38
649.698	106.38
649.903	104.38
650.107	109.38
650.312	109.38
650.516	96.38
650.721	89.38
650.925	78.38
651.13	82.38
651.334	95.38
651.539	99.38
651.743	100.38
651.947	91.38
652.152	96.38
652.356	112.38
652.56	89.38
652.764	88.38
652.969	103.38
653.173	108.38
653.377	82.38
653.581	85.38
653.785	83.38
653.99	93.38
654.194	91.38
654.398	96.38
654.602	77.38
654.806	83.38
655.01	97.38
655.214	96.38
655.418	97.38
655.622	96.38
655.826	91.38
656.03	85.38
656.234	91.38
656.438	96.38
656.642	102.38
656.846	91.38
657.049	83.38
657.253	91.38
657.457	80.38
657.661	96.38
657.865	105.38
658.068	90.38
658.272	77.38
658.476	97.38
658.68	78.38
658.883	72.38
659.087	96.38
659.291	81.38
659.494	88.38
659.698	65.38
659.901	75.38
660.105	82.38
660.309	89.38
660.512	100.38
660.716	75.38
660.919	86.38
661.123	77.38
661.326	80.38
661.53	84.38
661.733	82.38
661.936	88.38
662.14	87.38
662.343	75.38
662.546	68.38
662.75	77.38
662.953	81.38
663.156	79.38
663.36	88.38
663.563	75.38
663.766	95.38
663.969	84.38
664.173	86.38
664.376	76.38
664.579	79.38
664.782	91.38
664.985	90.38
665.188	85.38
665.391	62.38
665.594	87.38
665.797	77.38
666	70.38
666.203	84.38
666.406	82.38
666.609	93.38
666.812	90.38
667.015	75.38
667.218	91.38
667.421	80.38
667.624	84.38
667.827	84.38
668.03	86.38
668.232	90.38
668.435	74.38
668.638	87.38
668.841	83.38
669.043	86.38
669.246	78.38
669.449	83.38
669.651	84.38
669.854	82.38
670.057	78.38
670.259	86.38
670.462	92.38
670.665	77.38
670.867	84.38
671.07	93.38
671.272	89.38
671.475	71.38
671.677	80.38
671.88	85.38
672.082	77.38
672.284	92.38
672.487	85.38
672.689	82.38
672.892	74.38
