Data from Location4.07152019.Energy5.Lamp.07192019.3%Agarose_HRD10591_16-21-18-927.txt Node
Date: Fri Jul 19 16:21:18 EDT 2019
User: cochatt
Spectrometer: HR+D1059
Trigger mode: 1
Integration Time (sec): 1.000000E-1
Scans to average: 1
Electric dark correction enabled: true
Nonlinearity correction enabled: false
Boxcar width: 0
XAxis mode: Wavelengths
Number of Pixels in Spectrum: 2048
>>>>>Begin Spectral Data<<<<<
223.165	-4.94
223.4	-4.94
223.635	-4.94
223.869	-25.94
224.104	-12.94
224.338	-23.94
224.573	-14.94
224.808	-12.94
225.042	-5.94
225.277	-7.94
225.511	-1.94
225.746	-2.94
225.98	1.06
226.215	12.06
226.449	16.06
226.683	18.06
226.918	32.06
227.152	35.06
227.387	51.06
227.621	33.06
227.856	45.06
228.09	64.06
228.324	39.06
228.559	61.06
228.793	53.06
229.027	67.06
229.262	68.06
229.496	70.06
229.73	56.06
229.964	84.06
230.199	76.06
230.433	72.06
230.667	84.06
230.901	71.06
231.136	69.06
231.37	75.06
231.604	76.06
231.838	77.06
232.072	84.06
232.306	82.06
232.541	90.06
232.775	74.06
233.009	91.06
233.243	87.06
233.477	90.06
233.711	80.06
233.945	77.06
234.179	92.06
234.413	90.06
234.647	87.06
234.881	76.06
235.115	87.06
235.349	77.06
235.583	95.06
235.817	72.06
236.051	77.06
236.285	75.06
236.519	85.06
236.753	77.06
236.987	84.06
237.221	71.06
237.455	83.06
237.689	95.06
237.922	53.06
238.156	81.06
238.39	74.06
238.624	72.06
238.858	76.06
239.091	64.06
239.325	76.06
239.559	74.06
239.793	76.06
240.027	87.06
240.26	80.06
240.494	61.06
240.728	60.06
240.961	80.06
241.195	105.06
241.429	81.06
241.662	76.06
241.896	80.06
242.13	78.06
242.363	71.06
242.597	68.06
242.83	84.06
243.064	73.06
243.298	79.06
243.531	75.06
243.765	78.06
243.998	84.06
244.232	79.06
244.465	69.06
244.699	63.06
244.932	72.06
245.166	81.06
245.399	93.06
245.633	72.06
245.866	83.06
246.099	73.06
246.333	77.06
246.566	82.06
246.8	87.06
247.033	77.06
247.266	63.06
247.5	78.06
247.733	82.06
247.966	93.06
248.2	88.06
248.433	68.06
248.666	83.06
248.899	81.06
249.133	79.06
249.366	88.06
249.599	85.06
249.832	82.06
250.066	80.06
250.299	78.06
250.532	68.06
250.765	88.06
250.998	77.06
251.231	73.06
251.465	91.06
251.698	83.06
251.931	77.06
252.164	88.06
252.397	77.06
252.63	72.06
252.863	77.06
253.096	76.06
253.329	100.06
253.562	83.06
253.795	81.06
254.028	63.06
254.261	76.06
254.494	74.06
254.727	90.06
254.96	94.06
255.193	81.06
255.426	78.06
255.659	71.06
255.892	84.06
256.124	85.06
256.357	75.06
256.59	72.06
256.823	83.06
257.056	85.06
257.289	72.06
257.521	78.06
257.754	67.06
257.987	76.06
258.22	75.06
258.452	79.06
258.685	77.06
258.918	81.06
259.151	83.06
259.383	83.06
259.616	87.06
259.849	84.06
260.081	102.06
260.314	82.06
260.547	84.06
260.779	77.06
261.012	77.06
261.244	75.06
261.477	86.06
261.71	80.06
261.942	75.06
262.175	79.06
262.407	82.06
262.64	95.06
262.872	89.06
263.105	86.06
263.337	72.06
263.57	83.06
263.802	76.06
264.035	85.06
264.267	77.06
264.499	85.06
264.732	80.06
264.964	89.06
265.197	85.06
265.429	73.06
265.661	77.06
265.894	72.06
266.126	83.06
266.358	76.06
266.591	82.06
266.823	80.06
267.055	79.06
267.287	76.06
267.52	91.06
267.752	84.06
267.984	79.06
268.216	93.06
268.448	66.06
268.681	57.06
268.913	91.06
269.145	72.06
269.377	87.06
269.609	92.06
269.841	73.06
270.073	73.06
270.306	73.06
270.538	92.06
270.77	82.06
271.002	88.06
271.234	92.06
271.466	86.06
271.698	85.06
271.93	96.06
272.162	97.06
272.394	81.06
272.626	73.06
272.858	82.06
273.09	91.06
273.322	67.06
273.553	87.06
273.785	76.06
274.017	73.06
274.249	83.06
274.481	71.06
274.713	83.06
274.945	79.06
275.176	83.06
275.408	85.06
275.64	85.06
275.872	69.06
276.104	81.06
276.335	85.06
276.567	81.06
276.799	90.06
277.031	78.06
277.262	87.06
277.494	100.06
277.726	79.06
277.957	68.06
278.189	81.06
278.421	92.06
278.652	91.06
278.884	67.06
279.115	72.06
279.347	74.06
279.579	96.06
279.81	88.06
280.042	87.06
280.273	77.06
280.505	77.06
280.736	78.06
280.968	92.06
281.199	94.06
281.431	85.06
281.662	79.06
281.894	79.06
282.125	85.06
282.356	79.06
282.588	87.06
282.819	93.06
283.051	88.06
283.282	103.06
283.513	90.06
283.745	79.06
283.976	85.06
284.207	85.06
284.439	86.06
284.67	83.06
284.901	87.06
285.132	91.06
285.364	92.06
285.595	99.06
285.826	83.06
286.057	80.06
286.288	87.06
286.52	85.06
286.751	88.06
286.982	91.06
287.213	83.06
287.444	88.06
287.675	77.06
287.906	89.06
288.138	81.06
288.369	88.06
288.6	78.06
288.831	80.06
289.062	83.06
289.293	102.06
289.524	99.06
289.755	88.06
289.986	85.06
290.217	87.06
290.448	97.06
290.679	82.06
290.91	84.06
291.141	98.06
291.371	88.06
291.602	84.06
291.833	82.06
292.064	83.06
292.295	81.06
292.526	84.06
292.757	88.06
292.987	89.06
293.218	82.06
293.449	85.06
293.68	77.06
293.91	74.06
294.141	93.06
294.372	72.06
294.603	85.06
294.833	88.06
295.064	84.06
295.295	84.06
295.525	85.06
295.756	76.06
295.987	77.06
296.217	76.06
296.448	86.06
296.679	74.06
296.909	100.06
297.14	89.06
297.37	82.06
297.601	88.06
297.831	77.06
298.062	100.06
298.292	72.06
298.523	92.06
298.753	96.06
298.984	82.06
299.214	83.06
299.445	96.06
299.675	79.06
299.905	70.06
300.136	86.06
300.366	85.06
300.597	93.06
300.827	92.06
301.057	93.06
301.288	84.06
301.518	88.06
301.748	80.06
301.979	102.06
302.209	82.06
302.439	84.06
302.669	87.06
302.9	76.06
303.13	83.06
303.36	84.06
303.59	80.06
303.82	78.06
304.051	94.06
304.281	81.06
304.511	89.06
304.741	76.06
304.971	77.06
305.201	85.06
305.431	81.06
305.661	86.06
305.891	82.06
306.121	91.06
306.352	100.06
306.582	75.06
306.812	77.06
307.042	79.06
307.272	80.06
307.502	79.06
307.731	83.06
307.961	95.06
308.191	87.06
308.421	83.06
308.651	100.06
308.881	93.06
309.111	90.06
309.341	84.06
309.571	90.06
309.8	91.06
310.03	86.06
310.26	68.06
310.49	82.06
310.72	79.06
310.949	91.06
311.179	94.06
311.409	89.06
311.639	82.06
311.868	98.06
312.098	78.06
312.328	81.06
312.557	84.06
312.787	105.06
313.017	98.06
313.246	90.06
313.476	91.06
313.706	77.06
313.935	75.06
314.165	91.06
314.394	88.06
314.624	99.06
314.853	89.06
315.083	77.06
315.312	76.06
315.542	74.06
315.771	84.06
316.001	90.06
316.23	76.06
316.46	77.06
316.689	99.06
316.919	77.06
317.148	95.06
317.377	88.06
317.607	81.06
317.836	89.06
318.065	96.06
318.295	63.06
318.524	90.06
318.753	93.06
318.983	79.06
319.212	78.06
319.441	96.06
319.67	85.06
319.9	80.06
320.129	84.06
320.358	80.06
320.587	74.06
320.816	81.06
321.046	91.06
321.275	106.06
321.504	77.06
321.733	87.06
321.962	89.06
322.191	76.06
322.42	69.06
322.649	84.06
322.878	87.06
323.108	85.06
323.337	87.06
323.566	76.06
323.795	86.06
324.024	95.06
324.253	84.06
324.482	91.06
324.71	85.06
324.939	75.06
325.168	87.06
325.397	88.06
325.626	95.06
325.855	83.06
326.084	87.06
326.313	88.06
326.542	85.06
326.77	80.06
326.999	86.06
327.228	87.06
327.457	75.06
327.686	68.06
327.914	98.06
328.143	83.06
328.372	80.06
328.6	86.06
328.829	98.06
329.058	93.06
329.287	86.06
329.515	80.06
329.744	76.06
329.972	99.06
330.201	89.06
330.43	81.06
330.658	86.06
330.887	83.06
331.115	76.06
331.344	82.06
331.572	83.06
331.801	82.06
332.03	76.06
332.258	87.06
332.486	77.06
332.715	89.06
332.943	89.06
333.172	80.06
333.4	82.06
333.629	87.06
333.857	77.06
334.085	66.06
334.314	92.06
334.542	86.06
334.771	77.06
334.999	76.06
335.227	71.06
335.455	82.06
335.684	96.06
335.912	85.06
336.14	74.06
336.369	78.06
336.597	82.06
336.825	75.06
337.053	66.06
337.281	77.06
337.51	96.06
337.738	91.06
337.966	81.06
338.194	80.06
338.422	88.06
338.65	73.06
338.878	97.06
339.106	74.06
339.334	79.06
339.562	72.06
339.79	76.06
340.018	83.06
340.246	94.06
340.474	88.06
340.702	70.06
340.93	78.06
341.158	97.06
341.386	88.06
341.614	86.06
341.842	87.06
342.07	83.06
342.298	92.06
342.526	80.06
342.754	80.06
342.981	75.06
343.209	96.06
343.437	75.06
343.665	89.06
343.893	85.06
344.12	83.06
344.348	93.06
344.576	94.06
344.804	89.06
345.031	91.06
345.259	94.06
345.487	84.06
345.714	76.06
345.942	77.06
346.17	88.06
346.397	83.06
346.625	88.06
346.853	90.06
347.08	70.06
347.308	99.06
347.535	81.06
347.763	81.06
347.99	91.06
348.218	81.06
348.445	84.06
348.673	76.06
348.9	90.06
349.128	87.06
349.355	82.06
349.583	74.06
349.81	61.06
350.037	75.06
350.265	83.06
350.492	85.06
350.72	87.06
350.947	75.06
351.174	99.06
351.402	84.06
351.629	74.06
351.856	73.06
352.083	74.06
352.311	80.06
352.538	81.06
352.765	86.06
352.992	90.06
353.22	80.06
353.447	81.06
353.674	75.06
353.901	79.06
354.128	71.06
354.355	74.06
354.583	87.06
354.81	77.06
355.037	74.06
355.264	94.06
355.491	93.06
355.718	89.06
355.945	90.06
356.172	74.06
356.399	80.06
356.626	76.06
356.853	79.06
357.08	83.06
357.307	90.06
357.534	81.06
357.761	68.06
357.988	95.06
358.215	87.06
358.441	76.06
358.668	81.06
358.895	82.06
359.122	86.06
359.349	78.06
359.576	74.06
359.802	97.06
360.029	99.06
360.256	87.06
360.483	87.06
360.709	92.06
360.936	97.06
361.163	92.06
361.39	89.06
361.616	93.06
361.843	89.06
362.07	95.06
362.296	81.06
362.523	76.06
362.749	73.06
362.976	82.06
363.203	92.06
363.429	74.06
363.656	73.06
363.882	92.06
364.109	92.06
364.335	94.06
364.562	89.06
364.788	84.06
365.015	77.06
365.241	83.06
365.468	86.06
365.694	95.06
365.92	79.06
366.147	80.06
366.373	82.06
366.599	90.06
366.826	96.06
367.052	85.06
367.278	85.06
367.505	89.06
367.731	107.06
367.957	92.06
368.184	89.06
368.41	83.06
368.636	86.06
368.862	97.06
369.089	96.06
369.315	84.06
369.541	87.06
369.767	83.06
369.993	83.06
370.219	107.06
370.445	86.06
370.672	102.06
370.898	93.06
371.124	101.06
371.35	89.06
371.576	92.06
371.802	94.06
372.028	75.06
372.254	92.06
372.48	81.06
372.706	77.06
372.932	93.06
373.158	75.06
373.384	96.06
373.61	92.06
373.835	91.06
374.061	82.06
374.287	74.06
374.513	77.06
374.739	84.06
374.965	80.06
375.191	84.06
375.416	92.06
375.642	83.06
375.868	102.06
376.094	93.06
376.319	89.06
376.545	93.06
376.771	86.06
376.997	87.06
377.222	85.06
377.448	97.06
377.674	107.06
377.899	99.06
378.125	95.06
378.35	112.06
378.576	90.06
378.802	85.06
379.027	85.06
379.253	90.06
379.478	91.06
379.704	93.06
379.929	102.06
380.155	98.06
380.38	105.06
380.606	91.06
380.831	88.06
381.057	102.06
381.282	91.06
381.507	92.06
381.733	88.06
381.958	100.06
382.184	100.06
382.409	97.06
382.634	94.06
382.86	102.06
383.085	104.06
383.31	100.06
383.535	102.06
383.761	92.06
383.986	103.06
384.211	88.06
384.436	102.06
384.662	97.06
384.887	97.06
385.112	91.06
385.337	101.06
385.562	98.06
385.787	97.06
386.013	99.06
386.238	88.06
386.463	102.06
386.688	103.06
386.913	85.06
387.138	88.06
387.363	92.06
387.588	113.06
387.813	100.06
388.038	92.06
388.263	96.06
388.488	86.06
388.713	100.06
388.938	104.06
389.163	87.06
389.387	119.06
389.612	90.06
389.837	98.06
390.062	82.06
390.287	101.06
390.512	96.06
390.736	93.06
390.961	115.06
391.186	113.06
391.411	98.06
391.636	107.06
391.86	108.06
392.085	106.06
392.31	113.06
392.534	99.06
392.759	102.06
392.984	93.06
393.208	101.06
393.433	90.06
393.658	104.06
393.882	98.06
394.107	91.06
394.331	95.06
394.556	116.06
394.78	92.06
395.005	102.06
395.229	106.06
395.454	96.06
395.678	98.06
395.903	98.06
396.127	104.06
396.352	111.06
396.576	118.06
396.801	110.06
397.025	111.06
397.249	105.06
397.474	92.06
397.698	99.06
397.922	120.06
398.147	98.06
398.371	100.06
398.595	97.06
398.82	133.06
399.044	114.06
399.268	114.06
399.492	108.06
399.717	104.06
399.941	121.06
400.165	113.06
400.389	116.06
400.613	106.06
400.837	100.06
401.062	111.06
401.286	103.06
401.51	114.06
401.734	113.06
401.958	119.06
402.182	100.06
402.406	103.06
402.63	112.06
402.854	101.06
403.078	124.06
403.302	121.06
403.526	99.06
403.75	106.06
403.974	114.06
404.198	116.06
404.422	124.06
404.645	113.06
404.869	115.06
405.093	117.06
405.317	106.06
405.541	123.06
405.765	119.06
405.988	120.06
406.212	109.06
406.436	105.06
406.66	135.06
406.883	122.06
407.107	105.06
407.331	113.06
407.555	114.06
407.778	121.06
408.002	116.06
408.226	99.06
408.449	104.06
408.673	124.06
408.896	108.06
409.12	125.06
409.344	104.06
409.567	119.06
409.791	116.06
410.014	109.06
410.238	120.06
410.461	119.06
410.685	123.06
410.908	121.06
411.132	131.06
411.355	107.06
411.578	113.06
411.802	118.06
412.025	117.06
412.249	124.06
412.472	98.06
412.695	108.06
412.919	130.06
413.142	113.06
413.365	117.06
413.589	114.06
413.812	111.06
414.035	107.06
414.258	111.06
414.482	116.06
414.705	119.06
414.928	109.06
415.151	122.06
415.374	123.06
415.597	120.06
415.821	134.06
416.044	123.06
416.267	116.06
416.49	121.06
416.713	125.06
416.936	124.06
417.159	120.06
417.382	116.06
417.605	107.06
417.828	120.06
418.051	123.06
418.274	134.06
418.497	136.06
418.72	127.06
418.943	146.06
419.166	133.06
419.389	127.06
419.611	131.06
419.834	142.06
420.057	136.06
420.28	118.06
420.503	123.06
420.726	135.06
420.948	131.06
421.171	127.06
421.394	127.06
421.617	135.06
421.839	141.06
422.062	118.06
422.285	132.06
422.507	118.06
422.73	133.06
422.953	118.06
423.175	115.06
423.398	116.06
423.621	135.06
423.843	131.06
424.066	119.06
424.288	149.06
424.511	134.06
424.733	155.06
424.956	146.06
425.178	135.06
425.401	139.06
425.623	126.06
425.846	128.06
426.068	140.06
426.291	125.06
426.513	126.06
426.735	127.06
426.958	146.06
427.18	135.06
427.402	129.06
427.625	131.06
427.847	124.06
428.069	123.06
428.292	131.06
428.514	126.06
428.736	140.06
428.958	131.06
429.181	119.06
429.403	116.06
429.625	131.06
429.847	131.06
430.069	128.06
430.292	113.06
430.514	124.06
430.736	125.06
430.958	129.06
431.18	132.06
431.402	134.06
431.624	117.06
431.846	122.06
432.068	85.06
432.29	113.06
432.512	109.06
432.734	123.06
432.956	125.06
433.178	147.06
433.4	142.06
433.622	139.06
433.844	125.06
434.066	120.06
434.287	114.06
434.509	91.06
434.731	88.06
434.953	121.06
435.175	126.06
435.397	136.06
435.618	124.06
435.84	119.06
436.062	112.06
436.284	134.06
436.505	131.06
436.727	120.06
436.949	133.06
437.17	133.06
437.392	130.06
437.614	106.06
437.835	107.06
438.057	107.06
438.278	125.06
438.5	121.06
438.721	130.06
438.943	125.06
439.165	142.06
439.386	129.06
439.608	142.06
439.829	136.06
440.05	145.06
440.272	138.06
440.493	137.06
440.715	149.06
440.936	137.06
441.158	134.06
441.379	143.06
441.6	142.06
441.822	144.06
442.043	146.06
442.264	140.06
442.486	127.06
442.707	125.06
442.928	134.06
443.149	133.06
443.371	159.06
443.592	133.06
443.813	145.06
444.034	150.06
444.255	149.06
444.476	145.06
444.698	124.06
444.919	157.06
445.14	248.06
445.361	196.06
445.582	136.06
445.803	148.06
446.024	131.06
446.245	138.06
446.466	155.06
446.687	146.06
446.908	149.06
447.129	151.06
447.35	133.06
447.571	148.06
447.792	131.06
448.013	145.06
448.234	142.06
448.455	149.06
448.675	138.06
448.896	143.06
449.117	135.06
449.338	119.06
449.559	131.06
449.779	120.06
450	133.06
450.221	129.06
450.442	141.06
450.662	124.06
450.883	127.06
451.104	143.06
451.324	126.06
451.545	123.06
451.766	127.06
451.986	112.06
452.207	135.06
452.428	129.06
452.648	129.06
452.869	136.06
453.089	119.06
453.31	119.06
453.53	109.06
453.751	102.06
453.971	103.06
454.192	97.06
454.412	109.06
454.633	117.06
454.853	124.06
455.073	120.06
455.294	136.06
455.514	121.06
455.734	126.06
455.955	121.06
456.175	109.06
456.395	117.06
456.616	124.06
456.836	120.06
457.056	98.06
457.276	117.06
457.497	115.06
457.717	99.06
457.937	122.06
458.157	103.06
458.377	115.06
458.598	104.06
458.818	83.06
459.038	86.06
459.258	95.06
459.478	79.06
459.698	101.06
459.918	86.06
460.138	112.06
460.358	104.06
460.578	113.06
460.798	104.06
461.018	127.06
461.238	119.06
461.458	119.06
461.678	115.06
461.898	111.06
462.118	112.06
462.338	107.06
462.558	123.06
462.777	110.06
462.997	121.06
463.217	120.06
463.437	109.06
463.657	105.06
463.876	106.06
464.096	100.06
464.316	116.06
464.536	103.06
464.755	115.06
464.975	115.06
465.195	114.06
465.414	119.06
465.634	117.06
465.854	119.06
466.073	115.06
466.293	116.06
466.512	122.06
466.732	119.06
466.951	135.06
467.171	123.06
467.391	143.06
467.61	129.06
467.829	138.06
468.049	138.06
468.268	149.06
468.488	143.06
468.707	129.06
468.927	150.06
469.146	135.06
469.365	137.06
469.585	121.06
469.804	157.06
470.023	151.06
470.243	137.06
470.462	138.06
470.681	147.06
470.901	129.06
471.12	134.06
471.339	141.06
471.558	141.06
471.777	135.06
471.997	131.06
472.216	130.06
472.435	135.06
472.654	113.06
472.873	116.06
473.092	118.06
473.311	123.06
473.53	123.06
473.749	142.06
473.968	131.06
474.187	126.06
474.406	109.06
474.625	120.06
474.844	123.06
475.063	129.06
475.282	119.06
475.501	118.06
475.72	117.06
475.939	109.06
476.158	127.06
476.377	127.06
476.596	118.06
476.814	125.06
477.033	107.06
477.252	107.06
477.471	114.06
477.69	132.06
477.908	129.06
478.127	123.06
478.346	146.06
478.564	140.06
478.783	128.06
479.002	132.06
479.22	119.06
479.439	144.06
479.658	118.06
479.876	117.06
480.095	107.06
480.313	97.06
480.532	117.06
480.751	108.06
480.969	88.06
481.188	98.06
481.406	93.06
481.624	89.06
481.843	79.06
482.061	104.06
482.28	104.06
482.498	112.06
482.717	114.06
482.935	103.06
483.153	152.06
483.372	138.06
483.59	147.06
483.808	151.06
484.027	122.06
484.245	153.06
484.463	141.06
484.681	156.06
484.9	138.06
485.118	139.06
485.336	123.06
485.554	115.06
485.772	104.06
485.99	104.06
486.209	119.06
486.427	122.06
486.645	120.06
486.863	129.06
487.081	150.06
487.299	130.06
487.517	142.06
487.735	162.06
487.953	195.06
488.171	199.06
488.389	177.06
488.607	165.06
488.825	135.06
489.043	133.06
489.261	140.06
489.479	123.06
489.696	134.06
489.914	134.06
490.132	146.06
490.35	160.06
490.568	166.06
490.786	163.06
491.003	172.06
491.221	180.06
491.439	166.06
491.657	182.06
491.874	185.06
492.092	211.06
492.31	220.06
492.527	214.06
492.745	203.06
492.963	186.06
493.18	176.06
493.398	179.06
493.615	170.06
493.833	184.06
494.05	167.06
494.268	168.06
494.485	175.06
494.703	171.06
494.92	164.06
495.138	163.06
495.355	162.06
495.573	175.06
495.79	160.06
496.008	187.06
496.225	163.06
496.442	152.06
496.66	167.06
496.877	148.06
497.094	181.06
497.312	162.06
497.529	157.06
497.746	145.06
497.963	129.06
498.181	124.06
498.398	133.06
498.615	127.06
498.832	120.06
499.049	115.06
499.267	128.06
499.484	111.06
499.701	122.06
499.918	129.06
500.135	145.06
500.352	124.06
500.569	124.06
500.786	152.06
501.003	148.06
501.22	138.06
501.437	132.06
501.654	110.06
501.871	126.06
502.088	117.06
502.305	142.06
502.522	141.06
502.739	127.06
502.956	133.06
503.172	127.06
503.389	124.06
503.606	111.06
503.823	122.06
504.04	112.06
504.256	129.06
504.473	121.06
504.69	121.06
504.907	132.06
505.123	120.06
505.34	122.06
505.557	140.06
505.773	129.06
505.99	123.06
506.207	117.06
506.423	122.06
506.64	126.06
506.856	118.06
507.073	125.06
507.289	115.06
507.506	122.06
507.722	124.06
507.939	119.06
508.155	119.06
508.372	105.06
508.588	110.06
508.805	112.06
509.021	118.06
509.238	119.06
509.454	93.06
509.67	103.06
509.887	103.06
510.103	95.06
510.319	94.06
510.536	96.06
510.752	83.06
510.968	79.06
511.184	91.06
511.401	91.06
511.617	101.06
511.833	101.06
512.049	89.06
512.265	94.06
512.481	95.06
512.698	85.06
512.914	101.06
513.13	98.06
513.346	104.06
513.562	83.06
513.778	97.06
513.994	90.06
514.21	90.06
514.426	91.06
514.642	92.06
514.858	76.06
515.074	94.06
515.29	96.06
515.506	87.06
515.721	86.06
515.937	92.06
516.153	84.06
516.369	77.06
516.585	90.06
516.801	94.06
517.016	76.06
517.232	100.06
517.448	91.06
517.664	99.06
517.879	87.06
518.095	99.06
518.311	104.06
518.527	90.06
518.742	104.06
518.958	86.06
519.173	99.06
519.389	111.06
519.605	113.06
519.82	100.06
520.036	109.06
520.251	105.06
520.467	90.06
520.682	92.06
520.898	89.06
521.113	90.06
521.329	102.06
521.544	89.06
521.76	77.06
521.975	97.06
522.19	91.06
522.406	93.06
522.621	109.06
522.836	106.06
523.052	105.06
523.267	105.06
523.482	114.06
523.698	111.06
523.913	113.06
524.128	125.06
524.343	121.06
524.559	120.06
524.774	130.06
524.989	125.06
525.204	122.06
525.419	112.06
525.634	84.06
525.849	107.06
526.064	101.06
526.28	120.06
526.495	95.06
526.71	94.06
526.925	87.06
527.14	73.06
527.355	91.06
527.57	89.06
527.785	93.06
527.999	105.06
528.214	88.06
528.429	100.06
528.644	125.06
528.859	153.06
529.074	138.06
529.289	144.06
529.503	156.06
529.718	131.06
529.933	116.06
530.148	103.06
530.363	108.06
530.577	77.06
530.792	83.06
531.007	85.06
531.221	84.06
531.436	81.06
531.651	89.06
531.865	68.06
532.08	89.06
532.295	84.06
532.509	91.06
532.724	79.06
532.938	96.06
533.153	97.06
533.367	102.06
533.582	137.06
533.796	117.06
534.011	109.06
534.225	94.06
534.44	91.06
534.654	88.06
534.868	95.06
535.083	108.06
535.297	99.06
535.511	96.06
535.726	94.06
535.94	101.06
536.154	85.06
536.369	89.06
536.583	103.06
536.797	77.06
537.011	75.06
537.225	101.06
537.44	98.06
537.654	104.06
537.868	98.06
538.082	81.06
538.296	100.06
538.51	91.06
538.724	105.06
538.938	109.06
539.153	98.06
539.367	114.06
539.581	105.06
539.795	106.06
540.009	91.06
540.222	105.06
540.436	91.06
540.65	113.06
540.864	119.06
541.078	131.06
541.292	135.06
541.506	150.06
541.72	142.06
541.934	181.06
542.147	193.06
542.361	167.06
542.575	160.06
542.789	125.06
543.002	127.06
543.216	135.06
543.43	125.06
543.644	131.06
543.857	139.06
544.071	158.06
544.285	155.06
544.498	162.06
544.712	148.06
544.925	155.06
545.139	152.06
545.352	157.06
545.566	133.06
545.779	148.06
545.993	154.06
546.206	163.06
546.42	171.06
546.633	158.06
546.847	165.06
547.06	160.06
547.274	164.06
547.487	171.06
547.7	168.06
547.914	145.06
548.127	159.06
548.34	155.06
548.554	165.06
548.767	149.06
548.98	169.06
549.193	154.06
549.407	148.06
549.62	156.06
549.833	163.06
550.046	151.06
550.259	149.06
550.473	146.06
550.686	149.06
550.899	153.06
551.112	142.06
551.325	141.06
551.538	131.06
551.751	120.06
551.964	119.06
552.177	131.06
552.39	131.06
552.603	153.06
552.816	151.06
553.029	151.06
553.242	165.06
553.455	164.06
553.667	148.06
553.88	152.06
554.093	147.06
554.306	130.06
554.519	143.06
554.732	130.06
554.944	160.06
555.157	140.06
555.37	125.06
555.583	123.06
555.795	132.06
556.008	123.06
556.221	130.06
556.433	125.06
556.646	131.06
556.859	151.06
557.071	129.06
557.284	141.06
557.496	146.06
557.709	138.06
557.921	147.06
558.134	127.06
558.346	133.06
558.559	137.06
558.771	140.06
558.984	116.06
559.196	147.06
559.409	128.06
559.621	115.06
559.833	123.06
560.046	114.06
560.258	127.06
560.47	137.06
560.683	124.06
560.895	136.06
561.107	142.06
561.32	129.06
561.532	126.06
561.744	128.06
561.956	128.06
562.168	116.06
562.381	129.06
562.593	127.06
562.805	128.06
563.017	120.06
563.229	130.06
563.441	127.06
563.653	119.06
563.865	111.06
564.077	118.06
564.289	123.06
564.501	112.06
564.713	121.06
564.925	130.06
565.137	113.06
565.349	104.06
565.561	111.06
565.773	107.06
565.985	123.06
566.197	116.06
566.408	115.06
566.62	115.06
566.832	129.06
567.044	124.06
567.255	108.06
567.467	119.06
567.679	113.06
567.891	101.06
568.102	118.06
568.314	84.06
568.526	92.06
568.737	92.06
568.949	79.06
569.161	85.06
569.372	97.06
569.584	84.06
569.795	78.06
570.007	91.06
570.218	92.06
570.43	93.06
570.641	89.06
570.853	90.06
571.064	92.06
571.276	115.06
571.487	104.06
571.698	110.06
571.91	103.06
572.121	100.06
572.333	100.06
572.544	101.06
572.755	92.06
572.966	102.06
573.178	98.06
573.389	82.06
573.6	85.06
573.811	87.06
574.023	76.06
574.234	83.06
574.445	80.06
574.656	92.06
574.867	101.06
575.078	100.06
575.289	91.06
575.501	90.06
575.712	85.06
575.923	86.06
576.134	99.06
576.345	87.06
576.556	108.06
576.767	87.06
576.978	102.06
577.188	99.06
577.399	98.06
577.61	106.06
577.821	96.06
578.032	101.06
578.243	97.06
578.454	90.06
578.665	92.06
578.875	101.06
579.086	85.06
579.297	90.06
579.508	82.06
579.718	87.06
579.929	84.06
580.14	77.06
580.35	100.06
580.561	106.06
580.772	92.06
580.982	100.06
581.193	112.06
581.403	93.06
581.614	107.06
581.825	83.06
582.035	93.06
582.246	82.06
582.456	85.06
582.667	89.06
582.877	94.06
583.087	101.06
583.298	100.06
583.508	97.06
583.719	85.06
583.929	88.06
584.139	85.06
584.35	81.06
584.56	87.06
584.77	101.06
584.981	88.06
585.191	96.06
585.401	80.06
585.611	81.06
585.821	89.06
586.032	89.06
586.242	91.06
586.452	91.06
586.662	94.06
586.872	87.06
587.082	91.06
587.292	85.06
587.502	88.06
587.713	90.06
587.923	85.06
588.133	97.06
588.343	76.06
588.553	79.06
588.762	89.06
588.972	87.06
589.182	87.06
589.392	78.06
589.602	83.06
589.812	95.06
590.022	84.06
590.232	71.06
590.441	76.06
590.651	85.06
590.861	86.06
591.071	74.06
591.281	77.06
591.49	87.06
591.7	84.06
591.91	81.06
592.119	76.06
592.329	89.06
592.539	87.06
592.748	95.06
592.958	97.06
593.167	73.06
593.377	90.06
593.587	87.06
593.796	91.06
594.006	76.06
594.215	94.06
594.424	93.06
594.634	92.06
594.843	91.06
595.053	90.06
595.262	84.06
595.472	93.06
595.681	89.06
595.89	102.06
596.1	88.06
596.309	90.06
596.518	92.06
596.727	96.06
596.937	88.06
597.146	92.06
597.355	98.06
597.564	91.06
597.774	97.06
597.983	86.06
598.192	86.06
598.401	86.06
598.61	75.06
598.819	89.06
599.028	90.06
599.237	97.06
599.446	83.06
599.655	88.06
599.864	99.06
600.073	99.06
600.282	100.06
600.491	98.06
600.7	90.06
600.909	93.06
601.118	98.06
601.327	96.06
601.536	88.06
601.745	100.06
601.953	115.06
602.162	121.06
602.371	99.06
602.58	95.06
602.789	96.06
602.997	100.06
603.206	99.06
603.415	107.06
603.623	116.06
603.832	107.06
604.041	115.06
604.249	98.06
604.458	96.06
604.666	94.06
604.875	91.06
605.084	107.06
605.292	97.06
605.501	106.06
605.709	111.06
605.918	110.06
606.126	125.06
606.334	119.06
606.543	105.06
606.751	117.06
606.96	108.06
607.168	102.06
607.376	105.06
607.585	116.06
607.793	106.06
608.001	113.06
608.21	113.06
608.418	112.06
608.626	108.06
608.834	113.06
609.043	129.06
609.251	121.06
609.459	100.06
609.667	115.06
609.875	102.06
610.083	115.06
610.291	119.06
610.499	118.06
610.707	104.06
610.916	110.06
611.124	123.06
611.332	118.06
611.54	117.06
611.748	122.06
611.955	100.06
612.163	121.06
612.371	107.06
612.579	104.06
612.787	113.06
612.995	103.06
613.203	112.06
613.411	111.06
613.618	93.06
613.826	111.06
614.034	117.06
614.242	117.06
614.449	112.06
614.657	119.06
614.865	106.06
615.072	106.06
615.28	107.06
615.488	106.06
615.695	108.06
615.903	105.06
616.111	120.06
616.318	130.06
616.526	115.06
616.733	108.06
616.941	108.06
617.148	97.06
617.356	108.06
617.563	113.06
617.771	117.06
617.978	99.06
618.185	119.06
618.393	107.06
618.6	118.06
618.807	117.06
619.015	112.06
619.222	101.06
619.429	99.06
619.637	88.06
619.844	104.06
620.051	101.06
620.258	109.06
620.466	88.06
620.673	98.06
620.88	116.06
621.087	110.06
621.294	120.06
621.501	88.06
621.708	98.06
621.915	99.06
622.122	96.06
622.329	110.06
622.536	124.06
622.743	111.06
622.95	108.06
623.157	101.06
623.364	117.06
623.571	111.06
623.778	98.06
623.985	103.06
624.192	107.06
624.399	108.06
624.606	107.06
624.812	111.06
625.019	98.06
625.226	91.06
625.433	113.06
625.639	96.06
625.846	104.06
626.053	106.06
626.259	97.06
626.466	119.06
626.673	101.06
626.879	107.06
627.086	97.06
627.293	91.06
627.499	105.06
627.706	119.06
627.912	100.06
628.119	118.06
628.325	105.06
628.532	108.06
628.738	109.06
628.945	114.06
629.151	95.06
629.357	103.06
629.564	107.06
629.77	87.06
629.976	103.06
630.183	88.06
630.389	97.06
630.595	104.06
630.802	107.06
631.008	103.06
631.214	106.06
631.42	103.06
631.627	123.06
631.833	109.06
632.039	95.06
632.245	90.06
632.451	99.06
632.657	81.06
632.863	102.06
633.069	101.06
633.275	106.06
633.481	87.06
633.688	113.06
633.893	106.06
634.099	121.06
634.305	107.06
634.511	108.06
634.717	106.06
634.923	96.06
635.129	92.06
635.335	110.06
635.541	103.06
635.747	99.06
635.952	104.06
636.158	117.06
636.364	95.06
636.57	107.06
636.775	114.06
636.981	111.06
637.187	97.06
637.392	109.06
637.598	102.06
637.804	96.06
638.009	90.06
638.215	93.06
638.421	102.06
638.626	93.06
638.832	100.06
639.037	110.06
639.243	95.06
639.448	91.06
639.654	98.06
639.859	98.06
640.065	92.06
640.27	94.06
640.475	98.06
640.681	106.06
640.886	104.06
641.091	113.06
641.297	98.06
641.502	112.06
641.707	91.06
641.913	95.06
642.118	93.06
642.323	102.06
642.528	91.06
642.733	91.06
642.939	102.06
643.144	111.06
643.349	104.06
643.554	101.06
643.759	108.06
643.964	82.06
644.169	97.06
644.374	85.06
644.579	106.06
644.784	98.06
644.989	103.06
645.194	98.06
645.399	96.06
645.604	104.06
645.809	103.06
646.014	89.06
646.219	112.06
646.423	95.06
646.628	100.06
646.833	98.06
647.038	100.06
647.243	105.06
647.447	102.06
647.652	98.06
647.857	102.06
648.062	100.06
648.266	88.06
648.471	88.06
648.676	98.06
648.88	91.06
649.085	98.06
649.289	87.06
649.494	98.06
649.698	96.06
649.903	97.06
650.107	95.06
650.312	98.06
650.516	120.06
650.721	96.06
650.925	105.06
651.13	90.06
651.334	95.06
651.539	100.06
651.743	84.06
651.947	98.06
652.152	87.06
652.356	90.06
652.56	88.06
652.764	82.06
652.969	85.06
653.173	93.06
653.377	100.06
653.581	82.06
653.785	102.06
653.99	111.06
654.194	98.06
654.398	100.06
654.602	91.06
654.806	79.06
655.01	88.06
655.214	99.06
655.418	103.06
655.622	101.06
655.826	95.06
656.03	89.06
656.234	87.06
656.438	91.06
656.642	106.06
656.846	80.06
657.049	89.06
657.253	87.06
657.457	93.06
657.661	112.06
657.865	80.06
658.068	92.06
658.272	79.06
658.476	83.06
658.68	102.06
658.883	91.06
659.087	77.06
659.291	88.06
659.494	94.06
659.698	82.06
659.901	104.06
660.105	89.06
660.309	85.06
660.512	89.06
660.716	91.06
660.919	98.06
661.123	88.06
661.326	87.06
661.53	72.06
661.733	76.06
661.936	92.06
662.14	79.06
662.343	87.06
662.546	92.06
662.75	84.06
662.953	87.06
663.156	78.06
663.36	95.06
663.563	104.06
663.766	74.06
663.969	87.06
664.173	83.06
664.376	65.06
664.579	81.06
664.782	84.06
664.985	91.06
665.188	81.06
665.391	89.06
665.594	87.06
665.797	78.06
666	97.06
666.203	76.06
666.406	80.06
666.609	83.06
666.812	88.06
667.015	86.06
667.218	106.06
667.421	86.06
667.624	86.06
667.827	84.06
668.03	82.06
668.232	86.06
668.435	86.06
668.638	86.06
668.841	82.06
669.043	86.06
669.246	75.06
669.449	84.06
669.651	93.06
669.854	77.06
670.057	83.06
670.259	77.06
670.462	71.06
670.665	78.06
670.867	84.06
671.07	92.06
671.272	98.06
671.475	98.06
671.677	97.06
671.88	87.06
672.082	77.06
672.284	73.06
672.487	76.06
672.689	80.06
672.892	75.06
