Data from Location4.07152019.Energy5.Lamp.07192019.3%Agarose_HRD10591_16-20-05-925.txt Node
Date: Fri Jul 19 16:20:05 EDT 2019
User: cochatt
Spectrometer: HR+D1059
Trigger mode: 1
Integration Time (sec): 1.000000E-1
Scans to average: 1
Electric dark correction enabled: true
Nonlinearity correction enabled: false
Boxcar width: 0
XAxis mode: Wavelengths
Number of Pixels in Spectrum: 2048
>>>>>Begin Spectral Data<<<<<
223.165	-8.12
223.4	-8.12
223.635	-8.12
223.869	-7.12
224.104	-7.12
224.338	-20.12
224.573	-18.12
224.808	-5.12
225.042	-12.12
225.277	-5.12
225.511	10.88
225.746	8.88
225.98	-7.12
226.215	11.88
226.449	10.88
226.683	-0.12
226.918	24.88
227.152	22.88
227.387	30.88
227.621	20.88
227.856	40.88
228.09	26.88
228.324	46.88
228.559	44.88
228.793	61.88
229.027	53.88
229.262	58.88
229.496	53.88
229.73	75.88
229.964	64.88
230.199	58.88
230.433	75.88
230.667	84.88
230.901	72.88
231.136	77.88
231.37	74.88
231.604	85.88
231.838	86.88
232.072	78.88
232.306	68.88
232.541	86.88
232.775	80.88
233.009	74.88
233.243	99.88
233.477	77.88
233.711	74.88
233.945	93.88
234.179	66.88
234.413	73.88
234.647	79.88
234.881	75.88
235.115	82.88
235.349	78.88
235.583	83.88
235.817	88.88
236.051	72.88
236.285	79.88
236.519	72.88
236.753	67.88
236.987	81.88
237.221	83.88
237.455	71.88
237.689	69.88
237.922	68.88
238.156	64.88
238.39	86.88
238.624	69.88
238.858	80.88
239.091	64.88
239.325	91.88
239.559	83.88
239.793	95.88
240.027	63.88
240.26	63.88
240.494	66.88
240.728	61.88
240.961	66.88
241.195	99.88
241.429	81.88
241.662	69.88
241.896	65.88
242.13	82.88
242.363	63.88
242.597	68.88
242.83	71.88
243.064	62.88
243.298	70.88
243.531	77.88
243.765	61.88
243.998	80.88
244.232	81.88
244.465	71.88
244.699	79.88
244.932	76.88
245.166	84.88
245.399	76.88
245.633	72.88
245.866	72.88
246.099	75.88
246.333	75.88
246.566	99.88
246.8	82.88
247.033	62.88
247.266	79.88
247.5	71.88
247.733	74.88
247.966	88.88
248.2	64.88
248.433	69.88
248.666	62.88
248.899	69.88
249.133	78.88
249.366	75.88
249.599	71.88
249.832	72.88
250.066	68.88
250.299	88.88
250.532	78.88
250.765	82.88
250.998	60.88
251.231	73.88
251.465	81.88
251.698	73.88
251.931	84.88
252.164	79.88
252.397	68.88
252.63	65.88
252.863	65.88
253.096	76.88
253.329	85.88
253.562	71.88
253.795	69.88
254.028	83.88
254.261	76.88
254.494	77.88
254.727	71.88
254.96	71.88
255.193	84.88
255.426	76.88
255.659	71.88
255.892	84.88
256.124	62.88
256.357	64.88
256.59	78.88
256.823	64.88
257.056	79.88
257.289	81.88
257.521	74.88
257.754	77.88
257.987	84.88
258.22	76.88
258.452	75.88
258.685	71.88
258.918	80.88
259.151	62.88
259.383	79.88
259.616	70.88
259.849	66.88
260.081	76.88
260.314	74.88
260.547	78.88
260.779	75.88
261.012	86.88
261.244	60.88
261.477	85.88
261.71	72.88
261.942	72.88
262.175	75.88
262.407	79.88
262.64	69.88
262.872	72.88
263.105	85.88
263.337	76.88
263.57	70.88
263.802	72.88
264.035	61.88
264.267	80.88
264.499	78.88
264.732	81.88
264.964	84.88
265.197	73.88
265.429	69.88
265.661	73.88
265.894	83.88
266.126	60.88
266.358	83.88
266.591	79.88
266.823	82.88
267.055	85.88
267.287	60.88
267.52	62.88
267.752	86.88
267.984	73.88
268.216	69.88
268.448	90.88
268.681	86.88
268.913	80.88
269.145	67.88
269.377	70.88
269.609	81.88
269.841	70.88
270.073	81.88
270.306	79.88
270.538	77.88
270.77	85.88
271.002	76.88
271.234	78.88
271.466	86.88
271.698	68.88
271.93	90.88
272.162	84.88
272.394	85.88
272.626	72.88
272.858	81.88
273.09	81.88
273.322	87.88
273.553	77.88
273.785	66.88
274.017	86.88
274.249	79.88
274.481	77.88
274.713	70.88
274.945	76.88
275.176	64.88
275.408	67.88
275.64	87.88
275.872	77.88
276.104	76.88
276.335	77.88
276.567	72.88
276.799	71.88
277.031	72.88
277.262	79.88
277.494	84.88
277.726	86.88
277.957	76.88
278.189	94.88
278.421	75.88
278.652	70.88
278.884	64.88
279.115	80.88
279.347	72.88
279.579	64.88
279.81	76.88
280.042	84.88
280.273	73.88
280.505	89.88
280.736	78.88
280.968	78.88
281.199	95.88
281.431	73.88
281.662	77.88
281.894	54.88
282.125	86.88
282.356	81.88
282.588	87.88
282.819	72.88
283.051	78.88
283.282	68.88
283.513	66.88
283.745	81.88
283.976	82.88
284.207	87.88
284.439	76.88
284.67	72.88
284.901	85.88
285.132	79.88
285.364	79.88
285.595	86.88
285.826	66.88
286.057	71.88
286.288	70.88
286.52	95.88
286.751	84.88
286.982	81.88
287.213	62.88
287.444	74.88
287.675	87.88
287.906	69.88
288.138	81.88
288.369	79.88
288.6	76.88
288.831	86.88
289.062	79.88
289.293	82.88
289.524	72.88
289.755	79.88
289.986	83.88
290.217	79.88
290.448	71.88
290.679	81.88
290.91	89.88
291.141	65.88
291.371	74.88
291.602	90.88
291.833	72.88
292.064	79.88
292.295	84.88
292.526	70.88
292.757	89.88
292.987	94.88
293.218	73.88
293.449	71.88
293.68	85.88
293.91	69.88
294.141	85.88
294.372	92.88
294.603	92.88
294.833	82.88
295.064	82.88
295.295	84.88
295.525	70.88
295.756	72.88
295.987	84.88
296.217	83.88
296.448	75.88
296.679	84.88
296.909	90.88
297.14	87.88
297.37	77.88
297.601	83.88
297.831	79.88
298.062	67.88
298.292	75.88
298.523	78.88
298.753	96.88
298.984	71.88
299.214	71.88
299.445	85.88
299.675	74.88
299.905	70.88
300.136	89.88
300.366	81.88
300.597	86.88
300.827	83.88
301.057	80.88
301.288	78.88
301.518	76.88
301.748	78.88
301.979	77.88
302.209	70.88
302.439	74.88
302.669	92.88
302.9	86.88
303.13	87.88
303.36	77.88
303.59	83.88
303.82	79.88
304.051	80.88
304.281	84.88
304.511	76.88
304.741	87.88
304.971	93.88
305.201	79.88
305.431	77.88
305.661	72.88
305.891	86.88
306.121	80.88
306.352	82.88
306.582	77.88
306.812	75.88
307.042	79.88
307.272	82.88
307.502	73.88
307.731	88.88
307.961	86.88
308.191	68.88
308.421	83.88
308.651	79.88
308.881	81.88
309.111	90.88
309.341	73.88
309.571	90.88
309.8	74.88
310.03	64.88
310.26	81.88
310.49	81.88
310.72	81.88
310.949	85.88
311.179	67.88
311.409	80.88
311.639	82.88
311.868	92.88
312.098	80.88
312.328	79.88
312.557	81.88
312.787	86.88
313.017	85.88
313.246	92.88
313.476	77.88
313.706	91.88
313.935	77.88
314.165	80.88
314.394	79.88
314.624	93.88
314.853	79.88
315.083	82.88
315.312	78.88
315.542	91.88
315.771	83.88
316.001	77.88
316.23	81.88
316.46	77.88
316.689	81.88
316.919	71.88
317.148	77.88
317.377	95.88
317.607	90.88
317.836	89.88
318.065	75.88
318.295	102.88
318.524	90.88
318.753	79.88
318.983	90.88
319.212	83.88
319.441	75.88
319.67	82.88
319.9	67.88
320.129	82.88
320.358	72.88
320.587	70.88
320.816	82.88
321.046	75.88
321.275	87.88
321.504	82.88
321.733	80.88
321.962	76.88
322.191	86.88
322.42	87.88
322.649	80.88
322.878	84.88
323.108	71.88
323.337	79.88
323.566	87.88
323.795	69.88
324.024	84.88
324.253	85.88
324.482	86.88
324.71	92.88
324.939	71.88
325.168	70.88
325.397	86.88
325.626	95.88
325.855	71.88
326.084	83.88
326.313	87.88
326.542	76.88
326.77	86.88
326.999	82.88
327.228	84.88
327.457	68.88
327.686	78.88
327.914	72.88
328.143	81.88
328.372	90.88
328.6	84.88
328.829	80.88
329.058	80.88
329.287	80.88
329.515	89.88
329.744	63.88
329.972	82.88
330.201	85.88
330.43	70.88
330.658	82.88
330.887	81.88
331.115	84.88
331.344	75.88
331.572	87.88
331.801	56.88
332.03	85.88
332.258	74.88
332.486	84.88
332.715	70.88
332.943	79.88
333.172	74.88
333.4	81.88
333.629	77.88
333.857	93.88
334.085	93.88
334.314	69.88
334.542	80.88
334.771	80.88
334.999	80.88
335.227	74.88
335.455	75.88
335.684	87.88
335.912	80.88
336.14	70.88
336.369	80.88
336.597	87.88
336.825	89.88
337.053	80.88
337.281	80.88
337.51	85.88
337.738	73.88
337.966	59.88
338.194	75.88
338.422	67.88
338.65	75.88
338.878	70.88
339.106	77.88
339.334	81.88
339.562	78.88
339.79	78.88
340.018	83.88
340.246	77.88
340.474	76.88
340.702	81.88
340.93	83.88
341.158	77.88
341.386	56.88
341.614	79.88
341.842	87.88
342.07	68.88
342.298	84.88
342.526	91.88
342.754	81.88
342.981	81.88
343.209	69.88
343.437	78.88
343.665	72.88
343.893	86.88
344.12	80.88
344.348	83.88
344.576	58.88
344.804	75.88
345.031	67.88
345.259	70.88
345.487	69.88
345.714	75.88
345.942	74.88
346.17	81.88
346.397	79.88
346.625	82.88
346.853	74.88
347.08	77.88
347.308	82.88
347.535	89.88
347.763	78.88
347.99	78.88
348.218	91.88
348.445	78.88
348.673	72.88
348.9	82.88
349.128	85.88
349.355	65.88
349.583	80.88
349.81	76.88
350.037	67.88
350.265	95.88
350.492	75.88
350.72	92.88
350.947	96.88
351.174	80.88
351.402	74.88
351.629	93.88
351.856	82.88
352.083	71.88
352.311	87.88
352.538	72.88
352.765	91.88
352.992	73.88
353.22	65.88
353.447	63.88
353.674	78.88
353.901	71.88
354.128	87.88
354.355	74.88
354.583	75.88
354.81	82.88
355.037	80.88
355.264	94.88
355.491	83.88
355.718	93.88
355.945	82.88
356.172	67.88
356.399	69.88
356.626	80.88
356.853	73.88
357.08	88.88
357.307	69.88
357.534	66.88
357.761	89.88
357.988	83.88
358.215	86.88
358.441	80.88
358.668	81.88
358.895	78.88
359.122	63.88
359.349	79.88
359.576	86.88
359.802	99.88
360.029	90.88
360.256	93.88
360.483	69.88
360.709	71.88
360.936	89.88
361.163	80.88
361.39	78.88
361.616	85.88
361.843	78.88
362.07	79.88
362.296	66.88
362.523	71.88
362.749	71.88
362.976	81.88
363.203	81.88
363.429	87.88
363.656	95.88
363.882	89.88
364.109	87.88
364.335	90.88
364.562	76.88
364.788	78.88
365.015	83.88
365.241	76.88
365.468	84.88
365.694	85.88
365.92	74.88
366.147	77.88
366.373	87.88
366.599	100.88
366.826	66.88
367.052	85.88
367.278	81.88
367.505	78.88
367.731	83.88
367.957	76.88
368.184	84.88
368.41	80.88
368.636	80.88
368.862	85.88
369.089	74.88
369.315	70.88
369.541	80.88
369.767	85.88
369.993	80.88
370.219	99.88
370.445	69.88
370.672	79.88
370.898	85.88
371.124	83.88
371.35	82.88
371.576	84.88
371.802	84.88
372.028	96.88
372.254	92.88
372.48	101.88
372.706	82.88
372.932	87.88
373.158	78.88
373.384	84.88
373.61	92.88
373.835	92.88
374.061	91.88
374.287	96.88
374.513	93.88
374.739	73.88
374.965	83.88
375.191	84.88
375.416	70.88
375.642	92.88
375.868	82.88
376.094	91.88
376.319	92.88
376.545	83.88
376.771	91.88
376.997	87.88
377.222	80.88
377.448	80.88
377.674	82.88
377.899	82.88
378.125	87.88
378.35	91.88
378.576	81.88
378.802	84.88
379.027	96.88
379.253	74.88
379.478	97.88
379.704	83.88
379.929	84.88
380.155	97.88
380.38	93.88
380.606	87.88
380.831	114.88
381.057	85.88
381.282	97.88
381.507	80.88
381.733	89.88
381.958	97.88
382.184	99.88
382.409	91.88
382.634	95.88
382.86	86.88
383.085	95.88
383.31	92.88
383.535	91.88
383.761	87.88
383.986	88.88
384.211	87.88
384.436	80.88
384.662	85.88
384.887	83.88
385.112	86.88
385.337	89.88
385.562	90.88
385.787	99.88
386.013	102.88
386.238	100.88
386.463	90.88
386.688	95.88
386.913	97.88
387.138	96.88
387.363	86.88
387.588	89.88
387.813	90.88
388.038	86.88
388.263	112.88
388.488	80.88
388.713	89.88
388.938	92.88
389.163	95.88
389.387	104.88
389.612	107.88
389.837	92.88
390.062	95.88
390.287	92.88
390.512	88.88
390.736	95.88
390.961	86.88
391.186	99.88
391.411	85.88
391.636	107.88
391.86	97.88
392.085	110.88
392.31	92.88
392.534	92.88
392.759	96.88
392.984	89.88
393.208	94.88
393.433	84.88
393.658	99.88
393.882	103.88
394.107	102.88
394.331	111.88
394.556	88.88
394.78	100.88
395.005	103.88
395.229	107.88
395.454	112.88
395.678	97.88
395.903	101.88
396.127	101.88
396.352	100.88
396.576	116.88
396.801	108.88
397.025	109.88
397.249	102.88
397.474	115.88
397.698	91.88
397.922	112.88
398.147	102.88
398.371	103.88
398.595	106.88
398.82	85.88
399.044	79.88
399.268	99.88
399.492	103.88
399.717	97.88
399.941	110.88
400.165	91.88
400.389	95.88
400.613	103.88
400.837	110.88
401.062	84.88
401.286	99.88
401.51	107.88
401.734	111.88
401.958	106.88
402.182	109.88
402.406	110.88
402.63	106.88
402.854	106.88
403.078	103.88
403.302	94.88
403.526	112.88
403.75	98.88
403.974	126.88
404.198	112.88
404.422	120.88
404.645	96.88
404.869	102.88
405.093	103.88
405.317	118.88
405.541	104.88
405.765	111.88
405.988	106.88
406.212	126.88
406.436	103.88
406.66	116.88
406.883	117.88
407.107	108.88
407.331	114.88
407.555	108.88
407.778	103.88
408.002	112.88
408.226	116.88
408.449	113.88
408.673	101.88
408.896	114.88
409.12	118.88
409.344	111.88
409.567	103.88
409.791	119.88
410.014	123.88
410.238	108.88
410.461	118.88
410.685	122.88
410.908	118.88
411.132	135.88
411.355	123.88
411.578	119.88
411.802	108.88
412.025	109.88
412.249	101.88
412.472	112.88
412.695	99.88
412.919	121.88
413.142	112.88
413.365	115.88
413.589	125.88
413.812	114.88
414.035	126.88
414.258	107.88
414.482	109.88
414.705	104.88
414.928	133.88
415.151	116.88
415.374	114.88
415.597	130.88
415.821	124.88
416.044	118.88
416.267	116.88
416.49	124.88
416.713	120.88
416.936	117.88
417.159	111.88
417.382	131.88
417.605	119.88
417.828	123.88
418.051	116.88
418.274	109.88
418.497	113.88
418.72	121.88
418.943	127.88
419.166	125.88
419.389	137.88
419.611	120.88
419.834	117.88
420.057	134.88
420.28	130.88
420.503	118.88
420.726	124.88
420.948	131.88
421.171	119.88
421.394	129.88
421.617	132.88
421.839	142.88
422.062	122.88
422.285	127.88
422.507	98.88
422.73	118.88
422.953	139.88
423.175	125.88
423.398	132.88
423.621	124.88
423.843	115.88
424.066	115.88
424.288	126.88
424.511	124.88
424.733	133.88
424.956	135.88
425.178	125.88
425.401	120.88
425.623	126.88
425.846	138.88
426.068	122.88
426.291	123.88
426.513	130.88
426.735	126.88
426.958	120.88
427.18	136.88
427.402	128.88
427.625	133.88
427.847	110.88
428.069	116.88
428.292	123.88
428.514	127.88
428.736	113.88
428.958	114.88
429.181	131.88
429.403	119.88
429.625	115.88
429.847	129.88
430.069	116.88
430.292	119.88
430.514	118.88
430.736	134.88
430.958	119.88
431.18	125.88
431.402	120.88
431.624	109.88
431.846	118.88
432.068	103.88
432.29	94.88
432.512	108.88
432.734	125.88
432.956	114.88
433.178	149.88
433.4	124.88
433.622	129.88
433.844	128.88
434.066	111.88
434.287	103.88
434.509	106.88
434.731	102.88
434.953	109.88
435.175	98.88
435.397	109.88
435.618	117.88
435.84	112.88
436.062	124.88
436.284	113.88
436.505	113.88
436.727	124.88
436.949	129.88
437.17	118.88
437.392	123.88
437.614	110.88
437.835	104.88
438.057	101.88
438.278	100.88
438.5	108.88
438.721	128.88
438.943	103.88
439.165	113.88
439.386	112.88
439.608	131.88
439.829	133.88
440.05	130.88
440.272	126.88
440.493	132.88
440.715	144.88
440.936	128.88
441.158	131.88
441.379	140.88
441.6	135.88
441.822	135.88
442.043	135.88
442.264	130.88
442.486	137.88
442.707	142.88
442.928	128.88
443.149	132.88
443.371	133.88
443.592	131.88
443.813	130.88
444.034	119.88
444.255	139.88
444.476	142.88
444.698	136.88
444.919	123.88
445.14	272.88
445.361	165.88
445.582	142.88
445.803	128.88
446.024	147.88
446.245	154.88
446.466	148.88
446.687	150.88
446.908	135.88
447.129	147.88
447.35	124.88
447.571	145.88
447.792	129.88
448.013	134.88
448.234	141.88
448.455	134.88
448.675	130.88
448.896	120.88
449.117	121.88
449.338	131.88
449.559	131.88
449.779	136.88
450	131.88
450.221	133.88
450.442	130.88
450.662	117.88
450.883	123.88
451.104	117.88
451.324	127.88
451.545	116.88
451.766	138.88
451.986	110.88
452.207	116.88
452.428	130.88
452.648	129.88
452.869	119.88
453.089	101.88
453.31	106.88
453.53	116.88
453.751	111.88
453.971	107.88
454.192	106.88
454.412	103.88
454.633	105.88
454.853	118.88
455.073	116.88
455.294	123.88
455.514	111.88
455.734	114.88
455.955	115.88
456.175	109.88
456.395	112.88
456.616	114.88
456.836	110.88
457.056	99.88
457.276	102.88
457.497	102.88
457.717	110.88
457.937	88.88
458.157	109.88
458.377	106.88
458.598	91.88
458.818	88.88
459.038	91.88
459.258	80.88
459.478	97.88
459.698	95.88
459.918	98.88
460.138	97.88
460.358	110.88
460.578	108.88
460.798	103.88
461.018	116.88
461.238	122.88
461.458	116.88
461.678	112.88
461.898	112.88
462.118	100.88
462.338	86.88
462.558	92.88
462.777	110.88
462.997	99.88
463.217	99.88
463.437	115.88
463.657	99.88
463.876	115.88
464.096	100.88
464.316	107.88
464.536	110.88
464.755	114.88
464.975	122.88
465.195	117.88
465.414	119.88
465.634	111.88
465.854	110.88
466.073	106.88
466.293	121.88
466.512	139.88
466.732	120.88
466.951	126.88
467.171	108.88
467.391	140.88
467.61	125.88
467.829	133.88
468.049	132.88
468.268	111.88
468.488	122.88
468.707	128.88
468.927	112.88
469.146	131.88
469.365	117.88
469.585	116.88
469.804	132.88
470.023	120.88
470.243	125.88
470.462	138.88
470.681	149.88
470.901	148.88
471.12	129.88
471.339	128.88
471.558	130.88
471.777	135.88
471.997	132.88
472.216	116.88
472.435	123.88
472.654	103.88
472.873	109.88
473.092	102.88
473.311	112.88
473.53	110.88
473.749	103.88
473.968	115.88
474.187	114.88
474.406	117.88
474.625	124.88
474.844	135.88
475.063	123.88
475.282	114.88
475.501	113.88
475.72	123.88
475.939	117.88
476.158	128.88
476.377	110.88
476.596	123.88
476.814	110.88
477.033	93.88
477.252	97.88
477.471	108.88
477.69	120.88
477.908	132.88
478.127	127.88
478.346	114.88
478.564	140.88
478.783	133.88
479.002	143.88
479.22	135.88
479.439	125.88
479.658	133.88
479.876	98.88
480.095	96.88
480.313	115.88
480.532	103.88
480.751	104.88
480.969	99.88
481.188	83.88
481.406	86.88
481.624	85.88
481.843	99.88
482.061	85.88
482.28	106.88
482.498	112.88
482.717	115.88
482.935	115.88
483.153	117.88
483.372	146.88
483.59	149.88
483.808	131.88
484.027	128.88
484.245	118.88
484.463	141.88
484.681	152.88
484.9	136.88
485.118	126.88
485.336	117.88
485.554	98.88
485.772	93.88
485.99	92.88
486.209	103.88
486.427	117.88
486.645	111.88
486.863	124.88
487.081	125.88
487.299	126.88
487.517	126.88
487.735	155.88
487.953	160.88
488.171	171.88
488.389	159.88
488.607	164.88
488.825	146.88
489.043	121.88
489.261	119.88
489.479	125.88
489.696	146.88
489.914	125.88
490.132	136.88
490.35	150.88
490.568	149.88
490.786	159.88
491.003	166.88
491.221	179.88
491.439	176.88
491.657	186.88
491.874	208.88
492.092	211.88
492.31	230.88
492.527	228.88
492.745	202.88
492.963	187.88
493.18	171.88
493.398	171.88
493.615	166.88
493.833	155.88
494.05	166.88
494.268	148.88
494.485	178.88
494.703	177.88
494.92	171.88
495.138	163.88
495.355	164.88
495.573	162.88
495.79	159.88
496.008	170.88
496.225	152.88
496.442	161.88
496.66	170.88
496.877	152.88
497.094	174.88
497.312	163.88
497.529	148.88
497.746	150.88
497.963	125.88
498.181	129.88
498.398	111.88
498.615	142.88
498.832	124.88
499.049	115.88
499.267	113.88
499.484	111.88
499.701	123.88
499.918	137.88
500.135	126.88
500.352	127.88
500.569	127.88
500.786	120.88
501.003	147.88
501.22	138.88
501.437	130.88
501.654	135.88
501.871	116.88
502.088	111.88
502.305	143.88
502.522	125.88
502.739	127.88
502.956	124.88
503.172	119.88
503.389	127.88
503.606	110.88
503.823	112.88
504.04	108.88
504.256	124.88
504.473	118.88
504.69	118.88
504.907	127.88
505.123	108.88
505.34	121.88
505.557	125.88
505.773	131.88
505.99	121.88
506.207	115.88
506.423	120.88
506.64	116.88
506.856	112.88
507.073	122.88
507.289	96.88
507.506	126.88
507.722	104.88
507.939	113.88
508.155	108.88
508.372	116.88
508.588	108.88
508.805	104.88
509.021	98.88
509.238	101.88
509.454	106.88
509.67	80.88
509.887	93.88
510.103	86.88
510.319	95.88
510.536	101.88
510.752	87.88
510.968	75.88
511.184	80.88
511.401	86.88
511.617	73.88
511.833	83.88
512.049	86.88
512.265	91.88
512.481	74.88
512.698	93.88
512.914	110.88
513.13	92.88
513.346	99.88
513.562	91.88
513.778	89.88
513.994	90.88
514.21	83.88
514.426	88.88
514.642	89.88
514.858	93.88
515.074	93.88
515.29	93.88
515.506	93.88
515.721	85.88
515.937	95.88
516.153	82.88
516.369	79.88
516.585	82.88
516.801	82.88
517.016	86.88
517.232	80.88
517.448	89.88
517.664	90.88
517.879	96.88
518.095	100.88
518.311	89.88
518.527	106.88
518.742	83.88
518.958	97.88
519.173	108.88
519.389	101.88
519.605	106.88
519.82	95.88
520.036	115.88
520.251	115.88
520.467	103.88
520.682	98.88
520.898	83.88
521.113	80.88
521.329	88.88
521.544	86.88
521.76	81.88
521.975	68.88
522.19	81.88
522.406	92.88
522.621	93.88
522.836	83.88
523.052	81.88
523.267	98.88
523.482	95.88
523.698	116.88
523.913	110.88
524.128	114.88
524.343	107.88
524.559	114.88
524.774	110.88
524.989	109.88
525.204	104.88
525.419	111.88
525.634	102.88
525.849	98.88
526.064	113.88
526.28	106.88
526.495	91.88
526.71	85.88
526.925	84.88
527.14	74.88
527.355	76.88
527.57	79.88
527.785	88.88
527.999	88.88
528.214	101.88
528.429	106.88
528.644	125.88
528.859	117.88
529.074	126.88
529.289	150.88
529.503	157.88
529.718	133.88
529.933	95.88
530.148	105.88
530.363	94.88
530.577	83.88
530.792	82.88
531.007	84.88
531.221	80.88
531.436	71.88
531.651	76.88
531.865	75.88
532.08	71.88
532.295	82.88
532.509	85.88
532.724	103.88
532.938	93.88
533.153	94.88
533.367	99.88
533.582	110.88
533.796	126.88
534.011	117.88
534.225	85.88
534.44	90.88
534.654	103.88
534.868	97.88
535.083	79.88
535.297	103.88
535.511	101.88
535.726	93.88
535.94	108.88
536.154	109.88
536.369	98.88
536.583	81.88
536.797	83.88
537.011	80.88
537.225	90.88
537.44	81.88
537.654	91.88
537.868	93.88
538.082	78.88
538.296	78.88
538.51	95.88
538.724	96.88
538.938	112.88
539.153	120.88
539.367	117.88
539.581	111.88
539.795	87.88
540.009	97.88
540.222	92.88
540.436	94.88
540.65	115.88
540.864	139.88
541.078	135.88
541.292	144.88
541.506	140.88
541.72	167.88
541.934	186.88
542.147	182.88
542.361	174.88
542.575	151.88
542.789	162.88
543.002	135.88
543.216	110.88
543.43	137.88
543.644	144.88
543.857	148.88
544.071	147.88
544.285	158.88
544.498	144.88
544.712	162.88
544.925	154.88
545.139	155.88
545.352	145.88
545.566	151.88
545.779	163.88
545.993	157.88
546.206	173.88
546.42	155.88
546.633	174.88
546.847	143.88
547.06	148.88
547.274	160.88
547.487	154.88
547.7	167.88
547.914	162.88
548.127	152.88
548.34	133.88
548.554	151.88
548.767	131.88
548.98	152.88
549.193	136.88
549.407	150.88
549.62	142.88
549.833	139.88
550.046	149.88
550.259	140.88
550.473	139.88
550.686	138.88
550.899	138.88
551.112	132.88
551.325	134.88
551.538	131.88
551.751	129.88
551.964	101.88
552.177	133.88
552.39	137.88
552.603	132.88
552.816	150.88
553.029	146.88
553.242	148.88
553.455	142.88
553.667	150.88
553.88	139.88
554.093	159.88
554.306	139.88
554.519	154.88
554.732	148.88
554.944	143.88
555.157	155.88
555.37	133.88
555.583	147.88
555.795	134.88
556.008	130.88
556.221	117.88
556.433	132.88
556.646	130.88
556.859	119.88
557.071	127.88
557.284	139.88
557.496	150.88
557.709	138.88
557.921	129.88
558.134	138.88
558.346	120.88
558.559	127.88
558.771	116.88
558.984	116.88
559.196	117.88
559.409	127.88
559.621	136.88
559.833	112.88
560.046	122.88
560.258	120.88
560.47	142.88
560.683	111.88
560.895	121.88
561.107	123.88
561.32	114.88
561.532	133.88
561.744	122.88
561.956	135.88
562.168	113.88
562.381	114.88
562.593	117.88
562.805	126.88
563.017	115.88
563.229	115.88
563.441	114.88
563.653	111.88
563.865	120.88
564.077	123.88
564.289	116.88
564.501	109.88
564.713	126.88
564.925	109.88
565.137	113.88
565.349	117.88
565.561	123.88
565.773	114.88
565.985	112.88
566.197	124.88
566.408	131.88
566.62	108.88
566.832	96.88
567.044	107.88
567.255	110.88
567.467	110.88
567.679	102.88
567.891	101.88
568.102	99.88
568.314	94.88
568.526	100.88
568.737	94.88
568.949	94.88
569.161	83.88
569.372	73.88
569.584	68.88
569.795	88.88
570.007	86.88
570.218	79.88
570.43	92.88
570.641	71.88
570.853	83.88
571.064	108.88
571.276	104.88
571.487	106.88
571.698	88.88
571.91	99.88
572.121	98.88
572.333	91.88
572.544	93.88
572.755	97.88
572.966	92.88
573.178	85.88
573.389	90.88
573.6	72.88
573.811	78.88
574.023	85.88
574.234	97.88
574.445	99.88
574.656	77.88
574.867	87.88
575.078	83.88
575.289	92.88
575.501	84.88
575.712	85.88
575.923	91.88
576.134	86.88
576.345	76.88
576.556	90.88
576.767	90.88
576.978	88.88
577.188	86.88
577.399	83.88
577.61	86.88
577.821	107.88
578.032	80.88
578.243	78.88
578.454	77.88
578.665	90.88
578.875	94.88
579.086	80.88
579.297	82.88
579.508	91.88
579.718	70.88
579.929	85.88
580.14	76.88
580.35	70.88
580.561	80.88
580.772	87.88
580.982	87.88
581.193	96.88
581.403	78.88
581.614	94.88
581.825	96.88
582.035	79.88
582.246	95.88
582.456	93.88
582.667	92.88
582.877	95.88
583.087	79.88
583.298	89.88
583.508	71.88
583.719	90.88
583.929	106.88
584.139	85.88
584.35	91.88
584.56	84.88
584.77	85.88
584.981	97.88
585.191	89.88
585.401	96.88
585.611	95.88
585.821	89.88
586.032	82.88
586.242	73.88
586.452	73.88
586.662	67.88
586.872	90.88
587.082	83.88
587.292	93.88
587.502	81.88
587.713	89.88
587.923	83.88
588.133	90.88
588.343	77.88
588.553	92.88
588.762	87.88
588.972	87.88
589.182	87.88
589.392	86.88
589.602	80.88
589.812	71.88
590.022	81.88
590.232	90.88
590.441	82.88
590.651	77.88
590.861	79.88
591.071	84.88
591.281	66.88
591.49	86.88
591.7	94.88
591.91	86.88
592.119	82.88
592.329	76.88
592.539	73.88
592.748	97.88
592.958	78.88
593.167	68.88
593.377	86.88
593.587	90.88
593.796	80.88
594.006	93.88
594.215	82.88
594.424	95.88
594.634	82.88
594.843	103.88
595.053	106.88
595.262	82.88
595.472	85.88
595.681	90.88
595.89	93.88
596.1	85.88
596.309	100.88
596.518	86.88
596.727	87.88
596.937	90.88
597.146	104.88
597.355	87.88
597.564	90.88
597.774	87.88
597.983	75.88
598.192	97.88
598.401	86.88
598.61	86.88
598.819	100.88
599.028	87.88
599.237	82.88
599.446	83.88
599.655	91.88
599.864	85.88
600.073	87.88
600.282	107.88
600.491	94.88
600.7	85.88
600.909	90.88
601.118	100.88
601.327	106.88
601.536	102.88
601.745	85.88
601.953	99.88
602.162	93.88
602.371	103.88
602.58	107.88
602.789	104.88
602.997	97.88
603.206	103.88
603.415	99.88
603.623	101.88
603.832	98.88
604.041	115.88
604.249	91.88
604.458	86.88
604.666	108.88
604.875	104.88
605.084	98.88
605.292	96.88
605.501	111.88
605.709	108.88
605.918	104.88
606.126	101.88
606.334	103.88
606.543	92.88
606.751	92.88
606.96	114.88
607.168	110.88
607.376	113.88
607.585	106.88
607.793	101.88
608.001	98.88
608.21	106.88
608.418	118.88
608.626	115.88
608.834	112.88
609.043	109.88
609.251	88.88
609.459	106.88
609.667	114.88
609.875	94.88
610.083	117.88
610.291	101.88
610.499	103.88
610.707	113.88
610.916	115.88
611.124	107.88
611.332	100.88
611.54	113.88
611.748	112.88
611.955	122.88
612.163	116.88
612.371	112.88
612.579	116.88
612.787	121.88
612.995	113.88
613.203	113.88
613.411	99.88
613.618	115.88
613.826	99.88
614.034	98.88
614.242	91.88
614.449	106.88
614.657	114.88
614.865	97.88
615.072	108.88
615.28	100.88
615.488	110.88
615.695	114.88
615.903	117.88
616.111	103.88
616.318	111.88
616.526	111.88
616.733	103.88
616.941	113.88
617.148	98.88
617.356	98.88
617.563	112.88
617.771	101.88
617.978	99.88
618.185	97.88
618.393	113.88
618.6	114.88
618.807	110.88
619.015	99.88
619.222	111.88
619.429	100.88
619.637	96.88
619.844	98.88
620.051	93.88
620.258	101.88
620.466	98.88
620.673	106.88
620.88	96.88
621.087	107.88
621.294	87.88
621.501	107.88
621.708	103.88
621.915	84.88
622.122	103.88
622.329	109.88
622.536	119.88
622.743	109.88
622.95	107.88
623.157	100.88
623.364	120.88
623.571	96.88
623.778	102.88
623.985	112.88
624.192	102.88
624.399	109.88
624.606	109.88
624.812	101.88
625.019	104.88
625.226	106.88
625.433	95.88
625.639	96.88
625.846	90.88
626.053	96.88
626.259	87.88
626.466	96.88
626.673	103.88
626.879	104.88
627.086	85.88
627.293	102.88
627.499	104.88
627.706	103.88
627.912	96.88
628.119	109.88
628.325	100.88
628.532	115.88
628.738	108.88
628.945	107.88
629.151	112.88
629.357	102.88
629.564	95.88
629.77	99.88
629.976	88.88
630.183	89.88
630.389	106.88
630.595	112.88
630.802	101.88
631.008	95.88
631.214	93.88
631.42	108.88
631.627	95.88
631.833	87.88
632.039	98.88
632.245	88.88
632.451	107.88
632.657	115.88
632.863	95.88
633.069	106.88
633.275	91.88
633.481	102.88
633.688	99.88
633.893	97.88
634.099	103.88
634.305	99.88
634.511	107.88
634.717	87.88
634.923	91.88
635.129	85.88
635.335	78.88
635.541	82.88
635.747	92.88
635.952	95.88
636.158	96.88
636.364	108.88
636.57	93.88
636.775	92.88
636.981	81.88
637.187	97.88
637.392	98.88
637.598	91.88
637.804	91.88
638.009	97.88
638.215	99.88
638.421	98.88
638.626	114.88
638.832	99.88
639.037	84.88
639.243	93.88
639.448	110.88
639.654	90.88
639.859	87.88
640.065	92.88
640.27	98.88
640.475	99.88
640.681	90.88
640.886	89.88
641.091	82.88
641.297	91.88
641.502	89.88
641.707	100.88
641.913	94.88
642.118	91.88
642.323	113.88
642.528	99.88
642.733	102.88
642.939	106.88
643.144	90.88
643.349	87.88
643.554	95.88
643.759	83.88
643.964	83.88
644.169	108.88
644.374	89.88
644.579	91.88
644.784	87.88
644.989	89.88
645.194	98.88
645.399	100.88
645.604	95.88
645.809	99.88
646.014	107.88
646.219	88.88
646.423	90.88
646.628	91.88
646.833	92.88
647.038	91.88
647.243	118.88
647.447	95.88
647.652	85.88
647.857	89.88
648.062	91.88
648.266	86.88
648.471	93.88
648.676	84.88
648.88	93.88
649.085	94.88
649.289	108.88
649.494	110.88
649.698	101.88
649.903	99.88
650.107	88.88
650.312	97.88
650.516	79.88
650.721	77.88
650.925	88.88
651.13	86.88
651.334	81.88
651.539	88.88
651.743	91.88
651.947	84.88
652.152	86.88
652.356	82.88
652.56	71.88
652.764	95.88
652.969	75.88
653.173	97.88
653.377	80.88
653.581	86.88
653.785	84.88
653.99	96.88
654.194	85.88
654.398	75.88
654.602	89.88
654.806	90.88
655.01	93.88
655.214	81.88
655.418	83.88
655.622	91.88
655.826	90.88
656.03	85.88
656.234	81.88
656.438	84.88
656.642	79.88
656.846	93.88
657.049	96.88
657.253	78.88
657.457	87.88
657.661	80.88
657.865	69.88
658.068	82.88
658.272	77.88
658.476	83.88
658.68	67.88
658.883	88.88
659.087	93.88
659.291	87.88
659.494	83.88
659.698	89.88
659.901	73.88
660.105	78.88
660.309	77.88
660.512	73.88
660.716	67.88
660.919	79.88
661.123	91.88
661.326	75.88
661.53	82.88
661.733	62.88
661.936	80.88
662.14	72.88
662.343	65.88
662.546	79.88
662.75	71.88
662.953	77.88
663.156	74.88
663.36	81.88
663.563	77.88
663.766	69.88
663.969	82.88
664.173	83.88
664.376	76.88
664.579	64.88
664.782	71.88
664.985	79.88
665.188	70.88
665.391	64.88
665.594	76.88
665.797	76.88
666	65.88
666.203	69.88
666.406	81.88
666.609	90.88
666.812	69.88
667.015	74.88
667.218	74.88
667.421	69.88
667.624	83.88
667.827	78.88
668.03	79.88
668.232	89.88
668.435	68.88
668.638	78.88
668.841	64.88
669.043	76.88
669.246	86.88
669.449	79.88
669.651	69.88
669.854	72.88
670.057	64.88
670.259	83.88
670.462	83.88
670.665	73.88
670.867	84.88
671.07	70.88
671.272	87.88
671.475	77.88
671.677	67.88
671.88	57.88
672.082	63.88
672.284	72.88
672.487	73.88
672.689	74.88
672.892	71.88
