Data from Location4.07152019.Energy5.Lamp.07192019.3%Agarose_HRD10591_16-18-35-925.txt Node
Date: Fri Jul 19 16:18:35 EDT 2019
User: cochatt
Spectrometer: HR+D1059
Trigger mode: 1
Integration Time (sec): 1.000000E-1
Scans to average: 1
Electric dark correction enabled: true
Nonlinearity correction enabled: false
Boxcar width: 0
XAxis mode: Wavelengths
Number of Pixels in Spectrum: 2048
>>>>>Begin Spectral Data<<<<<
223.165	-14.31
223.4	-14.31
223.635	-14.31
223.869	-20.31
224.104	-15.31
224.338	-8.31
224.573	-18.31
224.808	-26.31
225.042	-2.31
225.277	3.69
225.511	-22.31
225.746	12.69
225.98	11.69
226.215	8.69
226.449	14.69
226.683	31.69
226.918	22.69
227.152	21.69
227.387	29.69
227.621	44.69
227.856	50.69
228.09	41.69
228.324	36.69
228.559	48.69
228.793	54.69
229.027	65.69
229.262	57.69
229.496	71.69
229.73	54.69
229.964	68.69
230.199	81.69
230.433	72.69
230.667	85.69
230.901	88.69
231.136	78.69
231.37	87.69
231.604	74.69
231.838	85.69
232.072	87.69
232.306	80.69
232.541	79.69
232.775	77.69
233.009	90.69
233.243	77.69
233.477	75.69
233.711	82.69
233.945	78.69
234.179	70.69
234.413	70.69
234.647	81.69
234.881	85.69
235.115	87.69
235.349	83.69
235.583	76.69
235.817	80.69
236.051	79.69
236.285	80.69
236.519	82.69
236.753	70.69
236.987	65.69
237.221	73.69
237.455	76.69
237.689	75.69
237.922	82.69
238.156	70.69
238.39	61.69
238.624	68.69
238.858	85.69
239.091	73.69
239.325	76.69
239.559	65.69
239.793	76.69
240.027	78.69
240.26	80.69
240.494	73.69
240.728	84.69
240.961	70.69
241.195	75.69
241.429	76.69
241.662	84.69
241.896	75.69
242.13	65.69
242.363	68.69
242.597	65.69
242.83	76.69
243.064	70.69
243.298	81.69
243.531	72.69
243.765	75.69
243.998	76.69
244.232	70.69
244.465	96.69
244.699	81.69
244.932	73.69
245.166	70.69
245.399	69.69
245.633	59.69
245.866	69.69
246.099	74.69
246.333	71.69
246.566	73.69
246.8	74.69
247.033	82.69
247.266	54.69
247.5	74.69
247.733	91.69
247.966	88.69
248.2	79.69
248.433	76.69
248.666	61.69
248.899	70.69
249.133	82.69
249.366	80.69
249.599	68.69
249.832	82.69
250.066	93.69
250.299	57.69
250.532	87.69
250.765	71.69
250.998	86.69
251.231	82.69
251.465	69.69
251.698	71.69
251.931	94.69
252.164	85.69
252.397	83.69
252.63	80.69
252.863	75.69
253.096	74.69
253.329	83.69
253.562	75.69
253.795	74.69
254.028	70.69
254.261	64.69
254.494	69.69
254.727	72.69
254.96	77.69
255.193	74.69
255.426	84.69
255.659	75.69
255.892	79.69
256.124	71.69
256.357	82.69
256.59	80.69
256.823	89.69
257.056	73.69
257.289	75.69
257.521	79.69
257.754	83.69
257.987	97.69
258.22	79.69
258.452	77.69
258.685	75.69
258.918	70.69
259.151	72.69
259.383	73.69
259.616	65.69
259.849	86.69
260.081	81.69
260.314	102.69
260.547	74.69
260.779	77.69
261.012	79.69
261.244	80.69
261.477	83.69
261.71	70.69
261.942	70.69
262.175	74.69
262.407	76.69
262.64	68.69
262.872	96.69
263.105	85.69
263.337	93.69
263.57	80.69
263.802	67.69
264.035	82.69
264.267	81.69
264.499	89.69
264.732	94.69
264.964	65.69
265.197	96.69
265.429	75.69
265.661	93.69
265.894	83.69
266.126	94.69
266.358	83.69
266.591	85.69
266.823	71.69
267.055	68.69
267.287	83.69
267.52	73.69
267.752	68.69
267.984	83.69
268.216	91.69
268.448	78.69
268.681	62.69
268.913	77.69
269.145	86.69
269.377	85.69
269.609	72.69
269.841	82.69
270.073	79.69
270.306	74.69
270.538	77.69
270.77	88.69
271.002	78.69
271.234	77.69
271.466	74.69
271.698	74.69
271.93	67.69
272.162	90.69
272.394	77.69
272.626	73.69
272.858	74.69
273.09	87.69
273.322	89.69
273.553	68.69
273.785	72.69
274.017	80.69
274.249	78.69
274.481	90.69
274.713	86.69
274.945	88.69
275.176	82.69
275.408	84.69
275.64	75.69
275.872	84.69
276.104	76.69
276.335	102.69
276.567	85.69
276.799	74.69
277.031	77.69
277.262	81.69
277.494	89.69
277.726	74.69
277.957	88.69
278.189	74.69
278.421	81.69
278.652	79.69
278.884	93.69
279.115	86.69
279.347	90.69
279.579	80.69
279.81	88.69
280.042	82.69
280.273	80.69
280.505	86.69
280.736	77.69
280.968	97.69
281.199	99.69
281.431	81.69
281.662	93.69
281.894	87.69
282.125	78.69
282.356	78.69
282.588	90.69
282.819	71.69
283.051	88.69
283.282	78.69
283.513	86.69
283.745	81.69
283.976	76.69
284.207	88.69
284.439	87.69
284.67	81.69
284.901	95.69
285.132	91.69
285.364	74.69
285.595	82.69
285.826	88.69
286.057	96.69
286.288	80.69
286.52	98.69
286.751	80.69
286.982	78.69
287.213	87.69
287.444	75.69
287.675	73.69
287.906	95.69
288.138	76.69
288.369	74.69
288.6	79.69
288.831	103.69
289.062	94.69
289.293	89.69
289.524	87.69
289.755	80.69
289.986	80.69
290.217	84.69
290.448	94.69
290.679	89.69
290.91	76.69
291.141	82.69
291.371	77.69
291.602	77.69
291.833	91.69
292.064	78.69
292.295	75.69
292.526	87.69
292.757	87.69
292.987	72.69
293.218	82.69
293.449	88.69
293.68	79.69
293.91	81.69
294.141	91.69
294.372	79.69
294.603	83.69
294.833	88.69
295.064	98.69
295.295	84.69
295.525	79.69
295.756	77.69
295.987	98.69
296.217	75.69
296.448	83.69
296.679	78.69
296.909	87.69
297.14	103.69
297.37	93.69
297.601	89.69
297.831	62.69
298.062	71.69
298.292	87.69
298.523	81.69
298.753	74.69
298.984	82.69
299.214	81.69
299.445	81.69
299.675	75.69
299.905	73.69
300.136	81.69
300.366	101.69
300.597	76.69
300.827	78.69
301.057	88.69
301.288	86.69
301.518	78.69
301.748	98.69
301.979	66.69
302.209	74.69
302.439	84.69
302.669	81.69
302.9	83.69
303.13	95.69
303.36	78.69
303.59	93.69
303.82	85.69
304.051	90.69
304.281	87.69
304.511	70.69
304.741	72.69
304.971	78.69
305.201	88.69
305.431	72.69
305.661	82.69
305.891	85.69
306.121	83.69
306.352	75.69
306.582	75.69
306.812	77.69
307.042	82.69
307.272	74.69
307.502	79.69
307.731	75.69
307.961	77.69
308.191	79.69
308.421	88.69
308.651	89.69
308.881	82.69
309.111	75.69
309.341	74.69
309.571	85.69
309.8	98.69
310.03	75.69
310.26	61.69
310.49	77.69
310.72	83.69
310.949	91.69
311.179	82.69
311.409	69.69
311.639	77.69
311.868	72.69
312.098	86.69
312.328	84.69
312.557	89.69
312.787	81.69
313.017	70.69
313.246	89.69
313.476	89.69
313.706	87.69
313.935	84.69
314.165	78.69
314.394	82.69
314.624	83.69
314.853	86.69
315.083	89.69
315.312	73.69
315.542	73.69
315.771	85.69
316.001	72.69
316.23	78.69
316.46	68.69
316.689	79.69
316.919	82.69
317.148	86.69
317.377	73.69
317.607	82.69
317.836	102.69
318.065	84.69
318.295	88.69
318.524	85.69
318.753	90.69
318.983	71.69
319.212	74.69
319.441	74.69
319.67	86.69
319.9	79.69
320.129	83.69
320.358	81.69
320.587	87.69
320.816	80.69
321.046	87.69
321.275	88.69
321.504	73.69
321.733	75.69
321.962	92.69
322.191	88.69
322.42	70.69
322.649	83.69
322.878	94.69
323.108	84.69
323.337	93.69
323.566	89.69
323.795	87.69
324.024	82.69
324.253	100.69
324.482	72.69
324.71	89.69
324.939	101.69
325.168	102.69
325.397	88.69
325.626	77.69
325.855	73.69
326.084	76.69
326.313	80.69
326.542	81.69
326.77	88.69
326.999	95.69
327.228	81.69
327.457	81.69
327.686	82.69
327.914	86.69
328.143	93.69
328.372	95.69
328.6	87.69
328.829	84.69
329.058	99.69
329.287	80.69
329.515	65.69
329.744	73.69
329.972	91.69
330.201	87.69
330.43	59.69
330.658	72.69
330.887	87.69
331.115	90.69
331.344	89.69
331.572	92.69
331.801	81.69
332.03	80.69
332.258	96.69
332.486	83.69
332.715	64.69
332.943	75.69
333.172	90.69
333.4	83.69
333.629	82.69
333.857	92.69
334.085	71.69
334.314	82.69
334.542	85.69
334.771	82.69
334.999	69.69
335.227	70.69
335.455	84.69
335.684	82.69
335.912	70.69
336.14	79.69
336.369	71.69
336.597	94.69
336.825	80.69
337.053	82.69
337.281	80.69
337.51	78.69
337.738	77.69
337.966	75.69
338.194	81.69
338.422	87.69
338.65	71.69
338.878	70.69
339.106	96.69
339.334	85.69
339.562	80.69
339.79	78.69
340.018	90.69
340.246	85.69
340.474	73.69
340.702	85.69
340.93	96.69
341.158	85.69
341.386	78.69
341.614	69.69
341.842	94.69
342.07	75.69
342.298	92.69
342.526	65.69
342.754	92.69
342.981	72.69
343.209	80.69
343.437	75.69
343.665	79.69
343.893	77.69
344.12	89.69
344.348	82.69
344.576	90.69
344.804	73.69
345.031	82.69
345.259	89.69
345.487	86.69
345.714	78.69
345.942	83.69
346.17	88.69
346.397	90.69
346.625	85.69
346.853	76.69
347.08	89.69
347.308	101.69
347.535	88.69
347.763	79.69
347.99	79.69
348.218	106.69
348.445	100.69
348.673	86.69
348.9	87.69
349.128	75.69
349.355	72.69
349.583	85.69
349.81	88.69
350.037	85.69
350.265	78.69
350.492	76.69
350.72	92.69
350.947	88.69
351.174	75.69
351.402	76.69
351.629	83.69
351.856	85.69
352.083	83.69
352.311	76.69
352.538	89.69
352.765	89.69
352.992	77.69
353.22	86.69
353.447	84.69
353.674	86.69
353.901	89.69
354.128	94.69
354.355	103.69
354.583	77.69
354.81	81.69
355.037	75.69
355.264	76.69
355.491	77.69
355.718	75.69
355.945	81.69
356.172	81.69
356.399	72.69
356.626	76.69
356.853	100.69
357.08	97.69
357.307	81.69
357.534	75.69
357.761	95.69
357.988	89.69
358.215	93.69
358.441	78.69
358.668	83.69
358.895	90.69
359.122	75.69
359.349	78.69
359.576	83.69
359.802	84.69
360.029	86.69
360.256	86.69
360.483	61.69
360.709	75.69
360.936	72.69
361.163	87.69
361.39	62.69
361.616	74.69
361.843	85.69
362.07	93.69
362.296	88.69
362.523	69.69
362.749	74.69
362.976	96.69
363.203	91.69
363.429	78.69
363.656	83.69
363.882	76.69
364.109	100.69
364.335	82.69
364.562	93.69
364.788	86.69
365.015	85.69
365.241	85.69
365.468	95.69
365.694	100.69
365.92	102.69
366.147	88.69
366.373	88.69
366.599	87.69
366.826	80.69
367.052	88.69
367.278	89.69
367.505	80.69
367.731	83.69
367.957	98.69
368.184	85.69
368.41	91.69
368.636	82.69
368.862	103.69
369.089	87.69
369.315	74.69
369.541	86.69
369.767	98.69
369.993	91.69
370.219	78.69
370.445	94.69
370.672	87.69
370.898	83.69
371.124	87.69
371.35	98.69
371.576	91.69
371.802	99.69
372.028	85.69
372.254	81.69
372.48	81.69
372.706	76.69
372.932	87.69
373.158	88.69
373.384	97.69
373.61	81.69
373.835	89.69
374.061	85.69
374.287	97.69
374.513	99.69
374.739	105.69
374.965	102.69
375.191	96.69
375.416	85.69
375.642	84.69
375.868	86.69
376.094	89.69
376.319	101.69
376.545	90.69
376.771	83.69
376.997	102.69
377.222	100.69
377.448	98.69
377.674	95.69
377.899	86.69
378.125	90.69
378.35	90.69
378.576	89.69
378.802	111.69
379.027	67.69
379.253	104.69
379.478	105.69
379.704	101.69
379.929	103.69
380.155	88.69
380.38	89.69
380.606	97.69
380.831	87.69
381.057	90.69
381.282	95.69
381.507	100.69
381.733	82.69
381.958	87.69
382.184	97.69
382.409	89.69
382.634	86.69
382.86	88.69
383.085	93.69
383.31	107.69
383.535	97.69
383.761	88.69
383.986	99.69
384.211	102.69
384.436	93.69
384.662	93.69
384.887	103.69
385.112	96.69
385.337	94.69
385.562	99.69
385.787	94.69
386.013	102.69
386.238	107.69
386.463	81.69
386.688	101.69
386.913	106.69
387.138	101.69
387.363	101.69
387.588	94.69
387.813	98.69
388.038	98.69
388.263	104.69
388.488	107.69
388.713	102.69
388.938	109.69
389.163	98.69
389.387	105.69
389.612	95.69
389.837	90.69
390.062	109.69
390.287	110.69
390.512	111.69
390.736	96.69
390.961	83.69
391.186	104.69
391.411	98.69
391.636	102.69
391.86	97.69
392.085	97.69
392.31	95.69
392.534	81.69
392.759	95.69
392.984	109.69
393.208	99.69
393.433	106.69
393.658	112.69
393.882	90.69
394.107	98.69
394.331	107.69
394.556	98.69
394.78	98.69
395.005	93.69
395.229	102.69
395.454	98.69
395.678	95.69
395.903	118.69
396.127	82.69
396.352	105.69
396.576	102.69
396.801	109.69
397.025	125.69
397.249	110.69
397.474	92.69
397.698	93.69
397.922	106.69
398.147	98.69
398.371	107.69
398.595	98.69
398.82	107.69
399.044	107.69
399.268	121.69
399.492	103.69
399.717	104.69
399.941	94.69
400.165	101.69
400.389	97.69
400.613	100.69
400.837	107.69
401.062	110.69
401.286	101.69
401.51	99.69
401.734	115.69
401.958	108.69
402.182	96.69
402.406	113.69
402.63	113.69
402.854	114.69
403.078	105.69
403.302	111.69
403.526	111.69
403.75	118.69
403.974	101.69
404.198	115.69
404.422	102.69
404.645	123.69
404.869	109.69
405.093	109.69
405.317	107.69
405.541	118.69
405.765	119.69
405.988	119.69
406.212	108.69
406.436	100.69
406.66	112.69
406.883	105.69
407.107	122.69
407.331	111.69
407.555	121.69
407.778	128.69
408.002	131.69
408.226	120.69
408.449	113.69
408.673	122.69
408.896	96.69
409.12	118.69
409.344	117.69
409.567	114.69
409.791	129.69
410.014	125.69
410.238	108.69
410.461	130.69
410.685	130.69
410.908	118.69
411.132	110.69
411.355	122.69
411.578	116.69
411.802	120.69
412.025	131.69
412.249	121.69
412.472	128.69
412.695	119.69
412.919	119.69
413.142	127.69
413.365	122.69
413.589	97.69
413.812	120.69
414.035	122.69
414.258	126.69
414.482	123.69
414.705	119.69
414.928	106.69
415.151	114.69
415.374	133.69
415.597	128.69
415.821	123.69
416.044	115.69
416.267	125.69
416.49	125.69
416.713	118.69
416.936	130.69
417.159	140.69
417.382	118.69
417.605	115.69
417.828	130.69
418.051	128.69
418.274	126.69
418.497	141.69
418.72	136.69
418.943	129.69
419.166	126.69
419.389	128.69
419.611	136.69
419.834	155.69
420.057	127.69
420.28	146.69
420.503	139.69
420.726	140.69
420.948	133.69
421.171	129.69
421.394	135.69
421.617	138.69
421.839	134.69
422.062	150.69
422.285	146.69
422.507	131.69
422.73	128.69
422.953	131.69
423.175	124.69
423.398	125.69
423.621	125.69
423.843	130.69
424.066	130.69
424.288	129.69
424.511	129.69
424.733	135.69
424.956	151.69
425.178	137.69
425.401	126.69
425.623	123.69
425.846	130.69
426.068	117.69
426.291	116.69
426.513	141.69
426.735	118.69
426.958	125.69
427.18	121.69
427.402	122.69
427.625	128.69
427.847	107.69
428.069	121.69
428.292	134.69
428.514	125.69
428.736	131.69
428.958	118.69
429.181	119.69
429.403	131.69
429.625	138.69
429.847	132.69
430.069	119.69
430.292	138.69
430.514	112.69
430.736	128.69
430.958	123.69
431.18	122.69
431.402	109.69
431.624	104.69
431.846	115.69
432.068	110.69
432.29	104.69
432.512	97.69
432.734	123.69
432.956	119.69
433.178	129.69
433.4	131.69
433.622	124.69
433.844	122.69
434.066	116.69
434.287	104.69
434.509	99.69
434.731	91.69
434.953	115.69
435.175	121.69
435.397	119.69
435.618	114.69
435.84	107.69
436.062	120.69
436.284	139.69
436.505	122.69
436.727	129.69
436.949	120.69
437.17	135.69
437.392	126.69
437.614	122.69
437.835	119.69
438.057	112.69
438.278	102.69
438.5	109.69
438.721	133.69
438.943	131.69
439.165	133.69
439.386	126.69
439.608	135.69
439.829	141.69
440.05	149.69
440.272	154.69
440.493	147.69
440.715	137.69
440.936	133.69
441.158	137.69
441.379	146.69
441.6	134.69
441.822	149.69
442.043	136.69
442.264	135.69
442.486	129.69
442.707	119.69
442.928	138.69
443.149	128.69
443.371	144.69
443.592	134.69
443.813	136.69
444.034	116.69
444.255	120.69
444.476	126.69
444.698	141.69
444.919	139.69
445.14	256.69
445.361	189.69
445.582	146.69
445.803	131.69
446.024	130.69
446.245	139.69
446.466	139.69
446.687	143.69
446.908	153.69
447.129	164.69
447.35	153.69
447.571	145.69
447.792	144.69
448.013	145.69
448.234	139.69
448.455	146.69
448.675	150.69
448.896	132.69
449.117	130.69
449.338	154.69
449.559	138.69
449.779	130.69
450	137.69
450.221	135.69
450.442	146.69
450.662	132.69
450.883	123.69
451.104	134.69
451.324	124.69
451.545	129.69
451.766	131.69
451.986	125.69
452.207	120.69
452.428	129.69
452.648	113.69
452.869	113.69
453.089	121.69
453.31	103.69
453.53	101.69
453.751	106.69
453.971	109.69
454.192	97.69
454.412	113.69
454.633	119.69
454.853	120.69
455.073	132.69
455.294	127.69
455.514	129.69
455.734	118.69
455.955	115.69
456.175	110.69
456.395	115.69
456.616	103.69
456.836	117.69
457.056	115.69
457.276	103.69
457.497	102.69
457.717	104.69
457.937	114.69
458.157	104.69
458.377	111.69
458.598	99.69
458.818	104.69
459.038	83.69
459.258	79.69
459.478	96.69
459.698	82.69
459.918	91.69
460.138	113.69
460.358	114.69
460.578	125.69
460.798	109.69
461.018	107.69
461.238	105.69
461.458	113.69
461.678	116.69
461.898	127.69
462.118	113.69
462.338	123.69
462.558	102.69
462.777	105.69
462.997	104.69
463.217	104.69
463.437	91.69
463.657	99.69
463.876	103.69
464.096	104.69
464.316	109.69
464.536	119.69
464.755	119.69
464.975	106.69
465.195	124.69
465.414	110.69
465.634	111.69
465.854	109.69
466.073	101.69
466.293	121.69
466.512	136.69
466.732	126.69
466.951	146.69
467.171	138.69
467.391	133.69
467.61	137.69
467.829	127.69
468.049	120.69
468.268	144.69
468.488	142.69
468.707	122.69
468.927	129.69
469.146	137.69
469.365	127.69
469.585	147.69
469.804	124.69
470.023	135.69
470.243	159.69
470.462	144.69
470.681	142.69
470.901	144.69
471.12	133.69
471.339	141.69
471.558	137.69
471.777	142.69
471.997	127.69
472.216	129.69
472.435	119.69
472.654	104.69
472.873	109.69
473.092	111.69
473.311	126.69
473.53	125.69
473.749	123.69
473.968	125.69
474.187	156.69
474.406	107.69
474.625	135.69
474.844	125.69
475.063	113.69
475.282	112.69
475.501	111.69
475.72	112.69
475.939	124.69
476.158	118.69
476.377	128.69
476.596	103.69
476.814	118.69
477.033	104.69
477.252	102.69
477.471	112.69
477.69	129.69
477.908	140.69
478.127	137.69
478.346	126.69
478.564	127.69
478.783	123.69
479.002	127.69
479.22	137.69
479.439	136.69
479.658	113.69
479.876	115.69
480.095	114.69
480.313	103.69
480.532	114.69
480.751	106.69
480.969	79.69
481.188	95.69
481.406	88.69
481.624	89.69
481.843	94.69
482.061	109.69
482.28	105.69
482.498	107.69
482.717	113.69
482.935	118.69
483.153	135.69
483.372	155.69
483.59	140.69
483.808	138.69
484.027	123.69
484.245	127.69
484.463	148.69
484.681	146.69
484.9	141.69
485.118	135.69
485.336	133.69
485.554	99.69
485.772	104.69
485.99	104.69
486.209	107.69
486.427	113.69
486.645	136.69
486.863	126.69
487.081	124.69
487.299	131.69
487.517	142.69
487.735	152.69
487.953	184.69
488.171	183.69
488.389	166.69
488.607	173.69
488.825	140.69
489.043	135.69
489.261	134.69
489.479	143.69
489.696	135.69
489.914	138.69
490.132	143.69
490.35	139.69
490.568	161.69
490.786	164.69
491.003	159.69
491.221	165.69
491.439	162.69
491.657	186.69
491.874	208.69
492.092	214.69
492.31	249.69
492.527	234.69
492.745	211.69
492.963	195.69
493.18	183.69
493.398	181.69
493.615	176.69
493.833	176.69
494.05	174.69
494.268	159.69
494.485	161.69
494.703	176.69
494.92	156.69
495.138	165.69
495.355	175.69
495.573	166.69
495.79	167.69
496.008	162.69
496.225	161.69
496.442	156.69
496.66	175.69
496.877	153.69
497.094	164.69
497.312	147.69
497.529	163.69
497.746	136.69
497.963	123.69
498.181	131.69
498.398	136.69
498.615	118.69
498.832	127.69
499.049	110.69
499.267	110.69
499.484	112.69
499.701	140.69
499.918	120.69
500.135	141.69
500.352	147.69
500.569	135.69
500.786	142.69
501.003	151.69
501.22	134.69
501.437	134.69
501.654	138.69
501.871	113.69
502.088	124.69
502.305	133.69
502.522	138.69
502.739	137.69
502.956	128.69
503.172	130.69
503.389	120.69
503.606	117.69
503.823	129.69
504.04	110.69
504.256	123.69
504.473	116.69
504.69	118.69
504.907	123.69
505.123	118.69
505.34	118.69
505.557	121.69
505.773	109.69
505.99	123.69
506.207	111.69
506.423	125.69
506.64	123.69
506.856	113.69
507.073	104.69
507.289	117.69
507.506	110.69
507.722	114.69
507.939	110.69
508.155	106.69
508.372	120.69
508.588	109.69
508.805	102.69
509.021	106.69
509.238	86.69
509.454	105.69
509.67	107.69
509.887	102.69
510.103	108.69
510.319	93.69
510.536	101.69
510.752	86.69
510.968	87.69
511.184	69.69
511.401	81.69
511.617	83.69
511.833	95.69
512.049	85.69
512.265	103.69
512.481	110.69
512.698	92.69
512.914	94.69
513.13	96.69
513.346	90.69
513.562	76.69
513.778	102.69
513.994	100.69
514.21	87.69
514.426	92.69
514.642	91.69
514.858	81.69
515.074	94.69
515.29	99.69
515.506	92.69
515.721	77.69
515.937	90.69
516.153	81.69
516.369	81.69
516.585	99.69
516.801	93.69
517.016	91.69
517.232	83.69
517.448	89.69
517.664	99.69
517.879	99.69
518.095	90.69
518.311	89.69
518.527	103.69
518.742	104.69
518.958	92.69
519.173	113.69
519.389	117.69
519.605	110.69
519.82	95.69
520.036	115.69
520.251	96.69
520.467	100.69
520.682	98.69
520.898	100.69
521.113	79.69
521.329	79.69
521.544	89.69
521.76	98.69
521.975	102.69
522.19	98.69
522.406	110.69
522.621	97.69
522.836	86.69
523.052	117.69
523.267	97.69
523.482	111.69
523.698	101.69
523.913	115.69
524.128	112.69
524.343	114.69
524.559	105.69
524.774	123.69
524.989	124.69
525.204	125.69
525.419	105.69
525.634	129.69
525.849	104.69
526.064	77.69
526.28	107.69
526.495	84.69
526.71	89.69
526.925	95.69
527.14	87.69
527.355	79.69
527.57	83.69
527.785	89.69
527.999	85.69
528.214	98.69
528.429	112.69
528.644	125.69
528.859	122.69
529.074	133.69
529.289	165.69
529.503	150.69
529.718	131.69
529.933	117.69
530.148	105.69
530.363	95.69
530.577	91.69
530.792	78.69
531.007	82.69
531.221	87.69
531.436	104.69
531.651	98.69
531.865	76.69
532.08	89.69
532.295	82.69
532.509	86.69
532.724	84.69
532.938	93.69
533.153	90.69
533.367	116.69
533.582	118.69
533.796	110.69
534.011	111.69
534.225	81.69
534.44	109.69
534.654	98.69
534.868	97.69
535.083	88.69
535.297	106.69
535.511	109.69
535.726	112.69
535.94	102.69
536.154	103.69
536.369	89.69
536.583	75.69
536.797	84.69
537.011	87.69
537.225	85.69
537.44	104.69
537.654	86.69
537.868	92.69
538.082	87.69
538.296	98.69
538.51	75.69
538.724	110.69
538.938	117.69
539.153	121.69
539.367	121.69
539.581	110.69
539.795	89.69
540.009	87.69
540.222	85.69
540.436	117.69
540.65	119.69
540.864	111.69
541.078	128.69
541.292	145.69
541.506	158.69
541.72	181.69
541.934	171.69
542.147	204.69
542.361	169.69
542.575	161.69
542.789	147.69
543.002	144.69
543.216	136.69
543.43	133.69
543.644	135.69
543.857	144.69
544.071	156.69
544.285	169.69
544.498	154.69
544.712	150.69
544.925	140.69
545.139	157.69
545.352	146.69
545.566	168.69
545.779	147.69
545.993	154.69
546.206	169.69
546.42	174.69
546.633	177.69
546.847	158.69
547.06	157.69
547.274	162.69
547.487	157.69
547.7	169.69
547.914	175.69
548.127	151.69
548.34	157.69
548.554	167.69
548.767	166.69
548.98	154.69
549.193	146.69
549.407	154.69
549.62	164.69
549.833	156.69
550.046	149.69
550.259	145.69
550.473	158.69
550.686	149.69
550.899	166.69
551.112	148.69
551.325	147.69
551.538	142.69
551.751	130.69
551.964	119.69
552.177	125.69
552.39	127.69
552.603	149.69
552.816	140.69
553.029	150.69
553.242	154.69
553.455	158.69
553.667	160.69
553.88	157.69
554.093	153.69
554.306	136.69
554.519	149.69
554.732	150.69
554.944	138.69
555.157	142.69
555.37	142.69
555.583	129.69
555.795	137.69
556.008	123.69
556.221	129.69
556.433	147.69
556.646	142.69
556.859	114.69
557.071	140.69
557.284	144.69
557.496	131.69
557.709	142.69
557.921	128.69
558.134	137.69
558.346	145.69
558.559	122.69
558.771	126.69
558.984	117.69
559.196	113.69
559.409	130.69
559.621	121.69
559.833	133.69
560.046	106.69
560.258	122.69
560.47	129.69
560.683	125.69
560.895	120.69
561.107	117.69
561.32	147.69
561.532	138.69
561.744	155.69
561.956	141.69
562.168	130.69
562.381	131.69
562.593	132.69
562.805	140.69
563.017	117.69
563.229	132.69
563.441	117.69
563.653	129.69
563.865	125.69
564.077	118.69
564.289	122.69
564.501	112.69
564.713	125.69
564.925	110.69
565.137	107.69
565.349	114.69
565.561	105.69
565.773	129.69
565.985	102.69
566.197	125.69
566.408	125.69
566.62	122.69
566.832	112.69
567.044	100.69
567.255	97.69
567.467	120.69
567.679	101.69
567.891	96.69
568.102	112.69
568.314	103.69
568.526	92.69
568.737	87.69
568.949	83.69
569.161	77.69
569.372	88.69
569.584	73.69
569.795	79.69
570.007	87.69
570.218	83.69
570.43	95.69
570.641	84.69
570.853	86.69
571.064	110.69
571.276	91.69
571.487	111.69
571.698	102.69
571.91	111.69
572.121	104.69
572.333	98.69
572.544	94.69
572.755	90.69
572.966	71.69
573.178	80.69
573.389	78.69
573.6	77.69
573.811	94.69
574.023	98.69
574.234	83.69
574.445	87.69
574.656	89.69
574.867	86.69
575.078	90.69
575.289	88.69
575.501	103.69
575.712	86.69
575.923	97.69
576.134	87.69
576.345	94.69
576.556	89.69
576.767	104.69
576.978	91.69
577.188	80.69
577.399	91.69
577.61	100.69
577.821	94.69
578.032	83.69
578.243	87.69
578.454	102.69
578.665	81.69
578.875	96.69
579.086	77.69
579.297	80.69
579.508	87.69
579.718	85.69
579.929	93.69
580.14	87.69
580.35	85.69
580.561	79.69
580.772	99.69
580.982	88.69
581.193	95.69
581.403	77.69
581.614	101.69
581.825	80.69
582.035	88.69
582.246	109.69
582.456	95.69
582.667	95.69
582.877	87.69
583.087	85.69
583.298	90.69
583.508	89.69
583.719	71.69
583.929	73.69
584.139	85.69
584.35	77.69
584.56	86.69
584.77	91.69
584.981	82.69
585.191	95.69
585.401	103.69
585.611	85.69
585.821	88.69
586.032	93.69
586.242	86.69
586.452	84.69
586.662	87.69
586.872	75.69
587.082	86.69
587.292	76.69
587.502	86.69
587.713	87.69
587.923	81.69
588.133	79.69
588.343	93.69
588.553	78.69
588.762	87.69
588.972	88.69
589.182	81.69
589.392	86.69
589.602	76.69
589.812	87.69
590.022	92.69
590.232	90.69
590.441	87.69
590.651	86.69
590.861	75.69
591.071	84.69
591.281	88.69
591.49	80.69
591.7	87.69
591.91	76.69
592.119	73.69
592.329	85.69
592.539	101.69
592.748	87.69
592.958	94.69
593.167	78.69
593.377	69.69
593.587	94.69
593.796	87.69
594.006	70.69
594.215	79.69
594.424	81.69
594.634	113.69
594.843	100.69
595.053	93.69
595.262	95.69
595.472	87.69
595.681	81.69
595.89	88.69
596.1	83.69
596.309	102.69
596.518	103.69
596.727	75.69
596.937	78.69
597.146	91.69
597.355	102.69
597.564	81.69
597.774	91.69
597.983	88.69
598.192	89.69
598.401	88.69
598.61	91.69
598.819	85.69
599.028	89.69
599.237	97.69
599.446	89.69
599.655	112.69
599.864	92.69
600.073	101.69
600.282	109.69
600.491	89.69
600.7	85.69
600.909	79.69
601.118	105.69
601.327	92.69
601.536	100.69
601.745	109.69
601.953	106.69
602.162	90.69
602.371	113.69
602.58	102.69
602.789	106.69
602.997	95.69
603.206	97.69
603.415	104.69
603.623	104.69
603.832	116.69
604.041	93.69
604.249	92.69
604.458	93.69
604.666	114.69
604.875	102.69
605.084	105.69
605.292	103.69
605.501	114.69
605.709	111.69
605.918	110.69
606.126	116.69
606.334	101.69
606.543	103.69
606.751	113.69
606.96	103.69
607.168	96.69
607.376	113.69
607.585	112.69
607.793	111.69
608.001	109.69
608.21	96.69
608.418	125.69
608.626	103.69
608.834	113.69
609.043	113.69
609.251	124.69
609.459	124.69
609.667	131.69
609.875	106.69
610.083	117.69
610.291	109.69
610.499	116.69
610.707	113.69
610.916	106.69
611.124	109.69
611.332	113.69
611.54	107.69
611.748	104.69
611.955	122.69
612.163	121.69
612.371	104.69
612.579	129.69
612.787	109.69
612.995	104.69
613.203	120.69
613.411	109.69
613.618	95.69
613.826	113.69
614.034	98.69
614.242	110.69
614.449	110.69
614.657	107.69
614.865	105.69
615.072	112.69
615.28	111.69
615.488	114.69
615.695	117.69
615.903	105.69
616.111	114.69
616.318	118.69
616.526	111.69
616.733	112.69
616.941	96.69
617.148	101.69
617.356	113.69
617.563	111.69
617.771	85.69
617.978	93.69
618.185	102.69
618.393	100.69
618.6	113.69
618.807	96.69
619.015	123.69
619.222	102.69
619.429	104.69
619.637	85.69
619.844	110.69
620.051	86.69
620.258	112.69
620.466	112.69
620.673	102.69
620.88	95.69
621.087	112.69
621.294	97.69
621.501	101.69
621.708	101.69
621.915	99.69
622.122	118.69
622.329	109.69
622.536	96.69
622.743	98.69
622.95	93.69
623.157	90.69
623.364	104.69
623.571	109.69
623.778	114.69
623.985	109.69
624.192	114.69
624.399	91.69
624.606	89.69
624.812	95.69
625.019	111.69
625.226	109.69
625.433	108.69
625.639	93.69
625.846	97.69
626.053	94.69
626.259	105.69
626.466	92.69
626.673	99.69
626.879	97.69
627.086	95.69
627.293	109.69
627.499	94.69
627.706	121.69
627.912	98.69
628.119	96.69
628.325	103.69
628.532	100.69
628.738	103.69
628.945	97.69
629.151	94.69
629.357	86.69
629.564	103.69
629.77	97.69
629.976	100.69
630.183	96.69
630.389	92.69
630.595	93.69
630.802	92.69
631.008	93.69
631.214	100.69
631.42	96.69
631.627	114.69
631.833	115.69
632.039	102.69
632.245	111.69
632.451	102.69
632.657	88.69
632.863	94.69
633.069	100.69
633.275	104.69
633.481	107.69
633.688	96.69
633.893	102.69
634.099	101.69
634.305	90.69
634.511	111.69
634.717	79.69
634.923	109.69
635.129	88.69
635.335	96.69
635.541	94.69
635.747	97.69
635.952	86.69
636.158	91.69
636.364	102.69
636.57	113.69
636.775	97.69
636.981	106.69
637.187	101.69
637.392	89.69
637.598	103.69
637.804	102.69
638.009	107.69
638.215	112.69
638.421	93.69
638.626	101.69
638.832	111.69
639.037	92.69
639.243	96.69
639.448	96.69
639.654	95.69
639.859	88.69
640.065	94.69
640.27	99.69
640.475	102.69
640.681	96.69
640.886	95.69
641.091	114.69
641.297	97.69
641.502	121.69
641.707	120.69
641.913	99.69
642.118	88.69
642.323	94.69
642.528	87.69
642.733	96.69
642.939	101.69
643.144	111.69
643.349	90.69
643.554	97.69
643.759	101.69
643.964	86.69
644.169	103.69
644.374	94.69
644.579	81.69
644.784	91.69
644.989	100.69
645.194	103.69
645.399	101.69
645.604	89.69
645.809	101.69
646.014	101.69
646.219	83.69
646.423	105.69
646.628	80.69
646.833	95.69
647.038	89.69
647.243	94.69
647.447	91.69
647.652	101.69
647.857	106.69
648.062	86.69
648.266	104.69
648.471	99.69
648.676	95.69
648.88	101.69
649.085	92.69
649.289	95.69
649.494	91.69
649.698	92.69
649.903	90.69
650.107	87.69
650.312	82.69
650.516	92.69
650.721	97.69
650.925	98.69
651.13	97.69
651.334	92.69
651.539	95.69
651.743	86.69
651.947	92.69
652.152	96.69
652.356	90.69
652.56	81.69
652.764	95.69
652.969	99.69
653.173	97.69
653.377	97.69
653.581	86.69
653.785	89.69
653.99	88.69
654.194	84.69
654.398	80.69
654.602	91.69
654.806	93.69
655.01	87.69
655.214	82.69
655.418	82.69
655.622	83.69
655.826	93.69
656.03	84.69
656.234	87.69
656.438	86.69
656.642	100.69
656.846	83.69
657.049	90.69
657.253	78.69
657.457	80.69
657.661	98.69
657.865	81.69
658.068	83.69
658.272	85.69
658.476	99.69
658.68	77.69
658.883	73.69
659.087	96.69
659.291	94.69
659.494	66.69
659.698	84.69
659.901	70.69
660.105	92.69
660.309	75.69
660.512	78.69
660.716	94.69
660.919	91.69
661.123	83.69
661.326	82.69
661.53	63.69
661.733	100.69
661.936	69.69
662.14	90.69
662.343	88.69
662.546	76.69
662.75	76.69
662.953	78.69
663.156	84.69
663.36	75.69
663.563	68.69
663.766	71.69
663.969	90.69
664.173	73.69
664.376	76.69
664.579	78.69
664.782	66.69
664.985	79.69
665.188	66.69
665.391	83.69
665.594	91.69
665.797	84.69
666	78.69
666.203	82.69
666.406	91.69
666.609	67.69
666.812	79.69
667.015	89.69
667.218	84.69
667.421	81.69
667.624	83.69
667.827	94.69
668.03	71.69
668.232	90.69
668.435	76.69
668.638	89.69
668.841	82.69
669.043	80.69
669.246	61.69
669.449	87.69
669.651	78.69
669.854	71.69
670.057	61.69
670.259	85.69
670.462	78.69
670.665	76.69
670.867	67.69
671.07	76.69
671.272	79.69
671.475	74.69
671.677	78.69
671.88	89.69
672.082	83.69
672.284	89.69
672.487	85.69
672.689	85.69
672.892	75.69
