Data from Location4.07152019.Energy5.Lamp.07192019.3%Agarose_HRD10591_16-18-42-925.txt Node
Date: Fri Jul 19 16:18:42 EDT 2019
User: cochatt
Spectrometer: HR+D1059
Trigger mode: 1
Integration Time (sec): 1.000000E-1
Scans to average: 1
Electric dark correction enabled: true
Nonlinearity correction enabled: false
Boxcar width: 0
XAxis mode: Wavelengths
Number of Pixels in Spectrum: 2048
>>>>>Begin Spectral Data<<<<<
223.165	1.88
223.4	1.88
223.635	1.88
223.869	-2.12
224.104	-24.12
224.338	-31.12
224.573	-19.12
224.808	-4.12
225.042	-6.12
225.277	13.88
225.511	-8.12
225.746	-1.12
225.98	-7.12
226.215	17.88
226.449	9.88
226.683	20.88
226.918	13.88
227.152	24.88
227.387	43.88
227.621	41.88
227.856	41.88
228.09	54.88
228.324	46.88
228.559	65.88
228.793	52.88
229.027	67.88
229.262	57.88
229.496	61.88
229.73	57.88
229.964	68.88
230.199	65.88
230.433	86.88
230.667	79.88
230.901	77.88
231.136	74.88
231.37	80.88
231.604	83.88
231.838	89.88
232.072	70.88
232.306	79.88
232.541	78.88
232.775	85.88
233.009	85.88
233.243	72.88
233.477	89.88
233.711	78.88
233.945	61.88
234.179	81.88
234.413	73.88
234.647	75.88
234.881	78.88
235.115	64.88
235.349	78.88
235.583	92.88
235.817	79.88
236.051	78.88
236.285	79.88
236.519	83.88
236.753	79.88
236.987	73.88
237.221	86.88
237.455	81.88
237.689	77.88
237.922	79.88
238.156	74.88
238.39	79.88
238.624	71.88
238.858	86.88
239.091	62.88
239.325	76.88
239.559	61.88
239.793	79.88
240.027	87.88
240.26	66.88
240.494	92.88
240.728	73.88
240.961	73.88
241.195	87.88
241.429	82.88
241.662	61.88
241.896	71.88
242.13	79.88
242.363	70.88
242.597	65.88
242.83	81.88
243.064	66.88
243.298	86.88
243.531	83.88
243.765	87.88
243.998	71.88
244.232	97.88
244.465	90.88
244.699	79.88
244.932	73.88
245.166	74.88
245.399	65.88
245.633	73.88
245.866	79.88
246.099	74.88
246.333	74.88
246.566	88.88
246.8	79.88
247.033	73.88
247.266	87.88
247.5	80.88
247.733	79.88
247.966	63.88
248.2	78.88
248.433	87.88
248.666	80.88
248.899	78.88
249.133	71.88
249.366	83.88
249.599	83.88
249.832	88.88
250.066	98.88
250.299	72.88
250.532	85.88
250.765	73.88
250.998	71.88
251.231	83.88
251.465	81.88
251.698	80.88
251.931	68.88
252.164	73.88
252.397	84.88
252.63	82.88
252.863	76.88
253.096	83.88
253.329	91.88
253.562	86.88
253.795	82.88
254.028	84.88
254.261	90.88
254.494	93.88
254.727	78.88
254.96	76.88
255.193	74.88
255.426	85.88
255.659	88.88
255.892	78.88
256.124	72.88
256.357	81.88
256.59	71.88
256.823	85.88
257.056	89.88
257.289	75.88
257.521	83.88
257.754	78.88
257.987	85.88
258.22	76.88
258.452	78.88
258.685	80.88
258.918	76.88
259.151	80.88
259.383	85.88
259.616	81.88
259.849	67.88
260.081	80.88
260.314	58.88
260.547	82.88
260.779	75.88
261.012	83.88
261.244	73.88
261.477	82.88
261.71	83.88
261.942	76.88
262.175	76.88
262.407	93.88
262.64	83.88
262.872	83.88
263.105	86.88
263.337	80.88
263.57	72.88
263.802	81.88
264.035	72.88
264.267	84.88
264.499	69.88
264.732	89.88
264.964	83.88
265.197	84.88
265.429	76.88
265.661	81.88
265.894	86.88
266.126	67.88
266.358	85.88
266.591	85.88
266.823	79.88
267.055	81.88
267.287	75.88
267.52	70.88
267.752	77.88
267.984	79.88
268.216	88.88
268.448	94.88
268.681	79.88
268.913	95.88
269.145	84.88
269.377	86.88
269.609	77.88
269.841	83.88
270.073	75.88
270.306	77.88
270.538	77.88
270.77	79.88
271.002	84.88
271.234	92.88
271.466	94.88
271.698	86.88
271.93	90.88
272.162	89.88
272.394	89.88
272.626	75.88
272.858	78.88
273.09	83.88
273.322	102.88
273.553	82.88
273.785	83.88
274.017	63.88
274.249	86.88
274.481	78.88
274.713	74.88
274.945	69.88
275.176	73.88
275.408	76.88
275.64	92.88
275.872	81.88
276.104	85.88
276.335	89.88
276.567	85.88
276.799	97.88
277.031	76.88
277.262	76.88
277.494	89.88
277.726	86.88
277.957	86.88
278.189	94.88
278.421	78.88
278.652	90.88
278.884	90.88
279.115	82.88
279.347	82.88
279.579	81.88
279.81	73.88
280.042	83.88
280.273	77.88
280.505	91.88
280.736	87.88
280.968	99.88
281.199	86.88
281.431	76.88
281.662	87.88
281.894	79.88
282.125	98.88
282.356	108.88
282.588	75.88
282.819	85.88
283.051	89.88
283.282	98.88
283.513	93.88
283.745	84.88
283.976	91.88
284.207	82.88
284.439	91.88
284.67	105.88
284.901	84.88
285.132	74.88
285.364	89.88
285.595	86.88
285.826	89.88
286.057	83.88
286.288	84.88
286.52	79.88
286.751	69.88
286.982	79.88
287.213	82.88
287.444	88.88
287.675	84.88
287.906	86.88
288.138	85.88
288.369	79.88
288.6	74.88
288.831	82.88
289.062	83.88
289.293	95.88
289.524	95.88
289.755	82.88
289.986	78.88
290.217	79.88
290.448	93.88
290.679	92.88
290.91	81.88
291.141	78.88
291.371	73.88
291.602	83.88
291.833	80.88
292.064	93.88
292.295	81.88
292.526	89.88
292.757	77.88
292.987	81.88
293.218	88.88
293.449	73.88
293.68	85.88
293.91	82.88
294.141	83.88
294.372	82.88
294.603	90.88
294.833	90.88
295.064	91.88
295.295	82.88
295.525	86.88
295.756	101.88
295.987	76.88
296.217	78.88
296.448	81.88
296.679	84.88
296.909	78.88
297.14	70.88
297.37	91.88
297.601	84.88
297.831	89.88
298.062	100.88
298.292	93.88
298.523	97.88
298.753	83.88
298.984	78.88
299.214	77.88
299.445	78.88
299.675	93.88
299.905	77.88
300.136	87.88
300.366	71.88
300.597	68.88
300.827	94.88
301.057	105.88
301.288	86.88
301.518	83.88
301.748	87.88
301.979	88.88
302.209	83.88
302.439	84.88
302.669	85.88
302.9	72.88
303.13	76.88
303.36	80.88
303.59	82.88
303.82	71.88
304.051	70.88
304.281	71.88
304.511	83.88
304.741	92.88
304.971	79.88
305.201	94.88
305.431	96.88
305.661	90.88
305.891	88.88
306.121	90.88
306.352	85.88
306.582	87.88
306.812	70.88
307.042	82.88
307.272	85.88
307.502	77.88
307.731	86.88
307.961	75.88
308.191	87.88
308.421	92.88
308.651	87.88
308.881	86.88
309.111	82.88
309.341	81.88
309.571	102.88
309.8	100.88
310.03	87.88
310.26	77.88
310.49	76.88
310.72	76.88
310.949	82.88
311.179	89.88
311.409	86.88
311.639	93.88
311.868	81.88
312.098	85.88
312.328	81.88
312.557	84.88
312.787	70.88
313.017	97.88
313.246	86.88
313.476	84.88
313.706	93.88
313.935	80.88
314.165	102.88
314.394	85.88
314.624	85.88
314.853	83.88
315.083	78.88
315.312	78.88
315.542	84.88
315.771	88.88
316.001	92.88
316.23	84.88
316.46	87.88
316.689	87.88
316.919	81.88
317.148	85.88
317.377	83.88
317.607	89.88
317.836	84.88
318.065	86.88
318.295	83.88
318.524	79.88
318.753	91.88
318.983	81.88
319.212	87.88
319.441	91.88
319.67	83.88
319.9	95.88
320.129	81.88
320.358	86.88
320.587	100.88
320.816	92.88
321.046	110.88
321.275	92.88
321.504	90.88
321.733	74.88
321.962	85.88
322.191	79.88
322.42	96.88
322.649	81.88
322.878	78.88
323.108	92.88
323.337	99.88
323.566	84.88
323.795	93.88
324.024	96.88
324.253	81.88
324.482	70.88
324.71	73.88
324.939	86.88
325.168	85.88
325.397	92.88
325.626	88.88
325.855	84.88
326.084	87.88
326.313	81.88
326.542	93.88
326.77	86.88
326.999	93.88
327.228	79.88
327.457	86.88
327.686	83.88
327.914	102.88
328.143	99.88
328.372	86.88
328.6	88.88
328.829	86.88
329.058	83.88
329.287	97.88
329.515	91.88
329.744	91.88
329.972	88.88
330.201	84.88
330.43	77.88
330.658	77.88
330.887	76.88
331.115	83.88
331.344	88.88
331.572	94.88
331.801	89.88
332.03	88.88
332.258	78.88
332.486	77.88
332.715	73.88
332.943	74.88
333.172	75.88
333.4	95.88
333.629	90.88
333.857	87.88
334.085	80.88
334.314	76.88
334.542	87.88
334.771	82.88
334.999	89.88
335.227	88.88
335.455	87.88
335.684	85.88
335.912	87.88
336.14	91.88
336.369	92.88
336.597	99.88
336.825	85.88
337.053	79.88
337.281	89.88
337.51	100.88
337.738	79.88
337.966	89.88
338.194	76.88
338.422	82.88
338.65	78.88
338.878	86.88
339.106	80.88
339.334	107.88
339.562	99.88
339.79	78.88
340.018	81.88
340.246	77.88
340.474	74.88
340.702	93.88
340.93	90.88
341.158	78.88
341.386	74.88
341.614	91.88
341.842	94.88
342.07	93.88
342.298	81.88
342.526	89.88
342.754	77.88
342.981	91.88
343.209	88.88
343.437	82.88
343.665	73.88
343.893	94.88
344.12	91.88
344.348	82.88
344.576	83.88
344.804	85.88
345.031	77.88
345.259	79.88
345.487	89.88
345.714	84.88
345.942	98.88
346.17	100.88
346.397	86.88
346.625	89.88
346.853	90.88
347.08	91.88
347.308	93.88
347.535	77.88
347.763	79.88
347.99	89.88
348.218	89.88
348.445	88.88
348.673	72.88
348.9	84.88
349.128	82.88
349.355	85.88
349.583	97.88
349.81	94.88
350.037	71.88
350.265	83.88
350.492	81.88
350.72	74.88
350.947	90.88
351.174	77.88
351.402	72.88
351.629	86.88
351.856	83.88
352.083	93.88
352.311	82.88
352.538	82.88
352.765	98.88
352.992	77.88
353.22	84.88
353.447	73.88
353.674	87.88
353.901	91.88
354.128	90.88
354.355	86.88
354.583	91.88
354.81	84.88
355.037	77.88
355.264	87.88
355.491	85.88
355.718	87.88
355.945	86.88
356.172	83.88
356.399	74.88
356.626	94.88
356.853	83.88
357.08	83.88
357.307	85.88
357.534	77.88
357.761	83.88
357.988	76.88
358.215	91.88
358.441	86.88
358.668	85.88
358.895	87.88
359.122	88.88
359.349	92.88
359.576	87.88
359.802	70.88
360.029	86.88
360.256	90.88
360.483	66.88
360.709	86.88
360.936	102.88
361.163	92.88
361.39	87.88
361.616	81.88
361.843	81.88
362.07	93.88
362.296	86.88
362.523	80.88
362.749	84.88
362.976	108.88
363.203	77.88
363.429	88.88
363.656	72.88
363.882	96.88
364.109	93.88
364.335	87.88
364.562	86.88
364.788	89.88
365.015	90.88
365.241	89.88
365.468	83.88
365.694	67.88
365.92	84.88
366.147	97.88
366.373	84.88
366.599	91.88
366.826	85.88
367.052	84.88
367.278	84.88
367.505	70.88
367.731	87.88
367.957	94.88
368.184	107.88
368.41	94.88
368.636	90.88
368.862	96.88
369.089	89.88
369.315	90.88
369.541	81.88
369.767	81.88
369.993	97.88
370.219	101.88
370.445	92.88
370.672	79.88
370.898	106.88
371.124	99.88
371.35	99.88
371.576	93.88
371.802	95.88
372.028	100.88
372.254	93.88
372.48	95.88
372.706	106.88
372.932	87.88
373.158	99.88
373.384	89.88
373.61	78.88
373.835	85.88
374.061	75.88
374.287	93.88
374.513	86.88
374.739	85.88
374.965	85.88
375.191	94.88
375.416	79.88
375.642	95.88
375.868	100.88
376.094	96.88
376.319	94.88
376.545	108.88
376.771	102.88
376.997	93.88
377.222	86.88
377.448	78.88
377.674	97.88
377.899	93.88
378.125	98.88
378.35	100.88
378.576	100.88
378.802	100.88
379.027	82.88
379.253	106.88
379.478	104.88
379.704	95.88
379.929	103.88
380.155	95.88
380.38	108.88
380.606	91.88
380.831	93.88
381.057	104.88
381.282	98.88
381.507	95.88
381.733	104.88
381.958	101.88
382.184	98.88
382.409	92.88
382.634	91.88
382.86	103.88
383.085	90.88
383.31	92.88
383.535	109.88
383.761	108.88
383.986	98.88
384.211	75.88
384.436	90.88
384.662	92.88
384.887	92.88
385.112	118.88
385.337	94.88
385.562	98.88
385.787	102.88
386.013	110.88
386.238	105.88
386.463	93.88
386.688	95.88
386.913	100.88
387.138	107.88
387.363	122.88
387.588	98.88
387.813	91.88
388.038	111.88
388.263	109.88
388.488	115.88
388.713	110.88
388.938	110.88
389.163	106.88
389.387	106.88
389.612	102.88
389.837	107.88
390.062	100.88
390.287	102.88
390.512	74.88
390.736	105.88
390.961	110.88
391.186	112.88
391.411	107.88
391.636	121.88
391.86	98.88
392.085	92.88
392.31	92.88
392.534	105.88
392.759	90.88
392.984	95.88
393.208	103.88
393.433	100.88
393.658	93.88
393.882	99.88
394.107	118.88
394.331	97.88
394.556	110.88
394.78	100.88
395.005	93.88
395.229	106.88
395.454	105.88
395.678	106.88
395.903	116.88
396.127	88.88
396.352	108.88
396.576	110.88
396.801	104.88
397.025	109.88
397.249	105.88
397.474	127.88
397.698	115.88
397.922	104.88
398.147	108.88
398.371	117.88
398.595	107.88
398.82	98.88
399.044	124.88
399.268	110.88
399.492	121.88
399.717	119.88
399.941	104.88
400.165	94.88
400.389	113.88
400.613	94.88
400.837	121.88
401.062	108.88
401.286	120.88
401.51	124.88
401.734	108.88
401.958	115.88
402.182	126.88
402.406	114.88
402.63	106.88
402.854	108.88
403.078	122.88
403.302	105.88
403.526	106.88
403.75	122.88
403.974	125.88
404.198	129.88
404.422	114.88
404.645	100.88
404.869	108.88
405.093	107.88
405.317	124.88
405.541	123.88
405.765	126.88
405.988	121.88
406.212	115.88
406.436	117.88
406.66	115.88
406.883	117.88
407.107	127.88
407.331	124.88
407.555	108.88
407.778	119.88
408.002	126.88
408.226	118.88
408.449	119.88
408.673	130.88
408.896	116.88
409.12	115.88
409.344	108.88
409.567	107.88
409.791	107.88
410.014	134.88
410.238	109.88
410.461	107.88
410.685	123.88
410.908	125.88
411.132	122.88
411.355	109.88
411.578	116.88
411.802	125.88
412.025	124.88
412.249	109.88
412.472	127.88
412.695	119.88
412.919	140.88
413.142	124.88
413.365	137.88
413.589	126.88
413.812	139.88
414.035	112.88
414.258	120.88
414.482	142.88
414.705	121.88
414.928	133.88
415.151	105.88
415.374	125.88
415.597	117.88
415.821	123.88
416.044	134.88
416.267	146.88
416.49	113.88
416.713	123.88
416.936	131.88
417.159	124.88
417.382	121.88
417.605	118.88
417.828	125.88
418.051	125.88
418.274	126.88
418.497	123.88
418.72	129.88
418.943	122.88
419.166	131.88
419.389	131.88
419.611	158.88
419.834	132.88
420.057	123.88
420.28	133.88
420.503	139.88
420.726	137.88
420.948	128.88
421.171	128.88
421.394	132.88
421.617	127.88
421.839	139.88
422.062	144.88
422.285	125.88
422.507	140.88
422.73	113.88
422.953	129.88
423.175	122.88
423.398	141.88
423.621	123.88
423.843	130.88
424.066	148.88
424.288	123.88
424.511	149.88
424.733	126.88
424.956	130.88
425.178	131.88
425.401	123.88
425.623	127.88
425.846	132.88
426.068	137.88
426.291	130.88
426.513	131.88
426.735	135.88
426.958	134.88
427.18	118.88
427.402	123.88
427.625	132.88
427.847	117.88
428.069	133.88
428.292	139.88
428.514	139.88
428.736	137.88
428.958	127.88
429.181	116.88
429.403	125.88
429.625	129.88
429.847	133.88
430.069	129.88
430.292	134.88
430.514	140.88
430.736	126.88
430.958	118.88
431.18	117.88
431.402	117.88
431.624	131.88
431.846	110.88
432.068	97.88
432.29	98.88
432.512	114.88
432.734	122.88
432.956	126.88
433.178	130.88
433.4	141.88
433.622	152.88
433.844	131.88
434.066	121.88
434.287	94.88
434.509	117.88
434.731	93.88
434.953	117.88
435.175	123.88
435.397	138.88
435.618	129.88
435.84	111.88
436.062	116.88
436.284	133.88
436.505	132.88
436.727	129.88
436.949	126.88
437.17	139.88
437.392	118.88
437.614	132.88
437.835	100.88
438.057	121.88
438.278	105.88
438.5	127.88
438.721	121.88
438.943	140.88
439.165	130.88
439.386	137.88
439.608	131.88
439.829	151.88
440.05	158.88
440.272	135.88
440.493	146.88
440.715	145.88
440.936	150.88
441.158	132.88
441.379	143.88
441.6	159.88
441.822	145.88
442.043	149.88
442.264	140.88
442.486	134.88
442.707	140.88
442.928	149.88
443.149	138.88
443.371	141.88
443.592	132.88
443.813	147.88
444.034	149.88
444.255	131.88
444.476	139.88
444.698	127.88
444.919	147.88
445.14	266.88
445.361	209.88
445.582	161.88
445.803	131.88
446.024	156.88
446.245	155.88
446.466	174.88
446.687	153.88
446.908	152.88
447.129	153.88
447.35	152.88
447.571	155.88
447.792	150.88
448.013	140.88
448.234	131.88
448.455	141.88
448.675	152.88
448.896	144.88
449.117	147.88
449.338	142.88
449.559	135.88
449.779	135.88
450	140.88
450.221	146.88
450.442	139.88
450.662	142.88
450.883	136.88
451.104	137.88
451.324	123.88
451.545	123.88
451.766	128.88
451.986	125.88
452.207	133.88
452.428	121.88
452.648	123.88
452.869	123.88
453.089	131.88
453.31	104.88
453.53	119.88
453.751	107.88
453.971	118.88
454.192	108.88
454.412	103.88
454.633	123.88
454.853	135.88
455.073	115.88
455.294	135.88
455.514	130.88
455.734	127.88
455.955	108.88
456.175	145.88
456.395	133.88
456.616	107.88
456.836	103.88
457.056	124.88
457.276	117.88
457.497	105.88
457.717	109.88
457.937	105.88
458.157	107.88
458.377	102.88
458.598	102.88
458.818	100.88
459.038	95.88
459.258	82.88
459.478	104.88
459.698	80.88
459.918	101.88
460.138	116.88
460.358	120.88
460.578	121.88
460.798	118.88
461.018	129.88
461.238	117.88
461.458	121.88
461.678	121.88
461.898	118.88
462.118	123.88
462.338	101.88
462.558	102.88
462.777	107.88
462.997	124.88
463.217	115.88
463.437	116.88
463.657	115.88
463.876	105.88
464.096	117.88
464.316	113.88
464.536	104.88
464.755	108.88
464.975	113.88
465.195	118.88
465.414	110.88
465.634	119.88
465.854	107.88
466.073	122.88
466.293	120.88
466.512	138.88
466.732	128.88
466.951	133.88
467.171	143.88
467.391	125.88
467.61	142.88
467.829	139.88
468.049	132.88
468.268	138.88
468.488	149.88
468.707	149.88
468.927	127.88
469.146	138.88
469.365	137.88
469.585	135.88
469.804	145.88
470.023	142.88
470.243	148.88
470.462	139.88
470.681	147.88
470.901	141.88
471.12	139.88
471.339	138.88
471.558	138.88
471.777	155.88
471.997	136.88
472.216	133.88
472.435	115.88
472.654	108.88
472.873	120.88
473.092	121.88
473.311	118.88
473.53	127.88
473.749	125.88
473.968	135.88
474.187	128.88
474.406	118.88
474.625	124.88
474.844	139.88
475.063	125.88
475.282	135.88
475.501	119.88
475.72	115.88
475.939	131.88
476.158	122.88
476.377	131.88
476.596	100.88
476.814	116.88
477.033	113.88
477.252	105.88
477.471	112.88
477.69	131.88
477.908	145.88
478.127	140.88
478.346	147.88
478.564	149.88
478.783	138.88
479.002	137.88
479.22	137.88
479.439	125.88
479.658	122.88
479.876	124.88
480.095	109.88
480.313	129.88
480.532	121.88
480.751	118.88
480.969	106.88
481.188	92.88
481.406	95.88
481.624	94.88
481.843	94.88
482.061	100.88
482.28	122.88
482.498	123.88
482.717	122.88
482.935	117.88
483.153	144.88
483.372	158.88
483.59	158.88
483.808	136.88
484.027	136.88
484.245	135.88
484.463	143.88
484.681	138.88
484.9	169.88
485.118	149.88
485.336	126.88
485.554	103.88
485.772	109.88
485.99	107.88
486.209	102.88
486.427	117.88
486.645	135.88
486.863	149.88
487.081	143.88
487.299	129.88
487.517	137.88
487.735	164.88
487.953	191.88
488.171	176.88
488.389	168.88
488.607	166.88
488.825	149.88
489.043	144.88
489.261	124.88
489.479	144.88
489.696	147.88
489.914	134.88
490.132	133.88
490.35	137.88
490.568	167.88
490.786	182.88
491.003	173.88
491.221	172.88
491.439	181.88
491.657	186.88
491.874	191.88
492.092	212.88
492.31	233.88
492.527	215.88
492.745	202.88
492.963	190.88
493.18	186.88
493.398	171.88
493.615	186.88
493.833	187.88
494.05	161.88
494.268	172.88
494.485	174.88
494.703	173.88
494.92	171.88
495.138	161.88
495.355	162.88
495.573	183.88
495.79	182.88
496.008	170.88
496.225	157.88
496.442	168.88
496.66	164.88
496.877	164.88
497.094	157.88
497.312	171.88
497.529	172.88
497.746	159.88
497.963	143.88
498.181	125.88
498.398	123.88
498.615	119.88
498.832	122.88
499.049	121.88
499.267	132.88
499.484	117.88
499.701	140.88
499.918	135.88
500.135	133.88
500.352	137.88
500.569	143.88
500.786	142.88
501.003	148.88
501.22	137.88
501.437	134.88
501.654	128.88
501.871	115.88
502.088	133.88
502.305	130.88
502.522	134.88
502.739	126.88
502.956	118.88
503.172	119.88
503.389	117.88
503.606	121.88
503.823	115.88
504.04	132.88
504.256	110.88
504.473	128.88
504.69	119.88
504.907	131.88
505.123	115.88
505.34	121.88
505.557	146.88
505.773	125.88
505.99	118.88
506.207	128.88
506.423	105.88
506.64	132.88
506.856	109.88
507.073	110.88
507.289	129.88
507.506	127.88
507.722	125.88
507.939	133.88
508.155	115.88
508.372	113.88
508.588	113.88
508.805	120.88
509.021	102.88
509.238	110.88
509.454	90.88
509.67	102.88
509.887	101.88
510.103	89.88
510.319	109.88
510.536	101.88
510.752	78.88
510.968	98.88
511.184	94.88
511.401	88.88
511.617	102.88
511.833	106.88
512.049	92.88
512.265	98.88
512.481	94.88
512.698	86.88
512.914	94.88
513.13	93.88
513.346	90.88
513.562	89.88
513.778	91.88
513.994	91.88
514.21	96.88
514.426	85.88
514.642	108.88
514.858	108.88
515.074	88.88
515.29	111.88
515.506	82.88
515.721	93.88
515.937	86.88
516.153	83.88
516.369	76.88
516.585	101.88
516.801	80.88
517.016	94.88
517.232	85.88
517.448	95.88
517.664	94.88
517.879	84.88
518.095	97.88
518.311	90.88
518.527	90.88
518.742	107.88
518.958	103.88
519.173	102.88
519.389	102.88
519.605	108.88
519.82	120.88
520.036	114.88
520.251	104.88
520.467	108.88
520.682	97.88
520.898	103.88
521.113	86.88
521.329	97.88
521.544	106.88
521.76	101.88
521.975	89.88
522.19	100.88
522.406	98.88
522.621	108.88
522.836	110.88
523.052	114.88
523.267	116.88
523.482	104.88
523.698	114.88
523.913	129.88
524.128	104.88
524.343	115.88
524.559	125.88
524.774	120.88
524.989	122.88
525.204	117.88
525.419	122.88
525.634	91.88
525.849	99.88
526.064	101.88
526.28	98.88
526.495	107.88
526.71	97.88
526.925	80.88
527.14	77.88
527.355	89.88
527.57	78.88
527.785	83.88
527.999	86.88
528.214	100.88
528.429	129.88
528.644	125.88
528.859	130.88
529.074	161.88
529.289	165.88
529.503	157.88
529.718	149.88
529.933	119.88
530.148	119.88
530.363	85.88
530.577	92.88
530.792	83.88
531.007	79.88
531.221	65.88
531.436	80.88
531.651	76.88
531.865	79.88
532.08	97.88
532.295	79.88
532.509	100.88
532.724	82.88
532.938	82.88
533.153	104.88
533.367	105.88
533.582	125.88
533.796	125.88
534.011	109.88
534.225	103.88
534.44	90.88
534.654	107.88
534.868	104.88
535.083	104.88
535.297	102.88
535.511	106.88
535.726	107.88
535.94	103.88
536.154	94.88
536.369	91.88
536.583	86.88
536.797	77.88
537.011	81.88
537.225	90.88
537.44	93.88
537.654	91.88
537.868	87.88
538.082	95.88
538.296	104.88
538.51	118.88
538.724	115.88
538.938	116.88
539.153	135.88
539.367	117.88
539.581	122.88
539.795	114.88
540.009	114.88
540.222	94.88
540.436	96.88
540.65	123.88
540.864	111.88
541.078	148.88
541.292	135.88
541.506	143.88
541.72	150.88
541.934	174.88
542.147	208.88
542.361	189.88
542.575	169.88
542.789	151.88
543.002	141.88
543.216	138.88
543.43	132.88
543.644	122.88
543.857	143.88
544.071	157.88
544.285	167.88
544.498	148.88
544.712	178.88
544.925	157.88
545.139	165.88
545.352	170.88
545.566	161.88
545.779	158.88
545.993	168.88
546.206	178.88
546.42	169.88
546.633	162.88
546.847	171.88
547.06	166.88
547.274	167.88
547.487	175.88
547.7	177.88
547.914	173.88
548.127	155.88
548.34	155.88
548.554	157.88
548.767	151.88
548.98	157.88
549.193	168.88
549.407	147.88
549.62	143.88
549.833	149.88
550.046	147.88
550.259	149.88
550.473	138.88
550.686	151.88
550.899	169.88
551.112	158.88
551.325	137.88
551.538	141.88
551.751	129.88
551.964	113.88
552.177	125.88
552.39	151.88
552.603	151.88
552.816	146.88
553.029	162.88
553.242	173.88
553.455	183.88
553.667	167.88
553.88	163.88
554.093	142.88
554.306	139.88
554.519	148.88
554.732	154.88
554.944	145.88
555.157	161.88
555.37	162.88
555.583	151.88
555.795	158.88
556.008	143.88
556.221	135.88
556.433	143.88
556.646	140.88
556.859	124.88
557.071	132.88
557.284	136.88
557.496	133.88
557.709	149.88
557.921	145.88
558.134	127.88
558.346	136.88
558.559	138.88
558.771	134.88
558.984	152.88
559.196	131.88
559.409	131.88
559.621	131.88
559.833	129.88
560.046	129.88
560.258	136.88
560.47	129.88
560.683	137.88
560.895	122.88
561.107	133.88
561.32	134.88
561.532	139.88
561.744	141.88
561.956	140.88
562.168	126.88
562.381	124.88
562.593	114.88
562.805	123.88
563.017	117.88
563.229	118.88
563.441	118.88
563.653	124.88
563.865	118.88
564.077	132.88
564.289	127.88
564.501	123.88
564.713	119.88
564.925	108.88
565.137	123.88
565.349	105.88
565.561	108.88
565.773	120.88
565.985	118.88
566.197	127.88
566.408	124.88
566.62	110.88
566.832	125.88
567.044	137.88
567.255	120.88
567.467	113.88
567.679	132.88
567.891	107.88
568.102	102.88
568.314	102.88
568.526	87.88
568.737	79.88
568.949	90.88
569.161	78.88
569.372	91.88
569.584	80.88
569.795	84.88
570.007	87.88
570.218	79.88
570.43	82.88
570.641	94.88
570.853	102.88
571.064	108.88
571.276	85.88
571.487	107.88
571.698	91.88
571.91	111.88
572.121	103.88
572.333	114.88
572.544	99.88
572.755	97.88
572.966	95.88
573.178	89.88
573.389	87.88
573.6	79.88
573.811	80.88
574.023	92.88
574.234	87.88
574.445	95.88
574.656	87.88
574.867	94.88
575.078	91.88
575.289	108.88
575.501	102.88
575.712	109.88
575.923	91.88
576.134	94.88
576.345	88.88
576.556	106.88
576.767	100.88
576.978	96.88
577.188	100.88
577.399	103.88
577.61	86.88
577.821	102.88
578.032	85.88
578.243	95.88
578.454	103.88
578.665	95.88
578.875	85.88
579.086	94.88
579.297	91.88
579.508	92.88
579.718	92.88
579.929	82.88
580.14	86.88
580.35	89.88
580.561	77.88
580.772	94.88
580.982	93.88
581.193	88.88
581.403	91.88
581.614	98.88
581.825	90.88
582.035	84.88
582.246	91.88
582.456	97.88
582.667	89.88
582.877	96.88
583.087	92.88
583.298	90.88
583.508	92.88
583.719	71.88
583.929	92.88
584.139	93.88
584.35	85.88
584.56	82.88
584.77	86.88
584.981	89.88
585.191	101.88
585.401	91.88
585.611	83.88
585.821	92.88
586.032	83.88
586.242	101.88
586.452	87.88
586.662	107.88
586.872	90.88
587.082	85.88
587.292	91.88
587.502	87.88
587.713	86.88
587.923	83.88
588.133	87.88
588.343	93.88
588.553	94.88
588.762	85.88
588.972	97.88
589.182	83.88
589.392	78.88
589.602	74.88
589.812	92.88
590.022	78.88
590.232	98.88
590.441	77.88
590.651	94.88
590.861	96.88
591.071	93.88
591.281	79.88
591.49	91.88
591.7	84.88
591.91	73.88
592.119	87.88
592.329	86.88
592.539	91.88
592.748	93.88
592.958	103.88
593.167	94.88
593.377	89.88
593.587	90.88
593.796	91.88
594.006	78.88
594.215	74.88
594.424	81.88
594.634	80.88
594.843	83.88
595.053	84.88
595.262	94.88
595.472	94.88
595.681	84.88
595.89	98.88
596.1	89.88
596.309	81.88
596.518	90.88
596.727	95.88
596.937	98.88
597.146	106.88
597.355	105.88
597.564	95.88
597.774	95.88
597.983	79.88
598.192	72.88
598.401	93.88
598.61	90.88
598.819	97.88
599.028	91.88
599.237	94.88
599.446	92.88
599.655	102.88
599.864	103.88
600.073	82.88
600.282	103.88
600.491	90.88
600.7	99.88
600.909	94.88
601.118	93.88
601.327	103.88
601.536	105.88
601.745	102.88
601.953	102.88
602.162	114.88
602.371	113.88
602.58	103.88
602.789	117.88
602.997	107.88
603.206	97.88
603.415	116.88
603.623	99.88
603.832	102.88
604.041	113.88
604.249	117.88
604.458	97.88
604.666	104.88
604.875	102.88
605.084	105.88
605.292	103.88
605.501	118.88
605.709	114.88
605.918	109.88
606.126	106.88
606.334	107.88
606.543	113.88
606.751	110.88
606.96	116.88
607.168	125.88
607.376	107.88
607.585	104.88
607.793	129.88
608.001	102.88
608.21	125.88
608.418	102.88
608.626	101.88
608.834	120.88
609.043	114.88
609.251	115.88
609.459	116.88
609.667	110.88
609.875	110.88
610.083	127.88
610.291	110.88
610.499	108.88
610.707	113.88
610.916	114.88
611.124	115.88
611.332	114.88
611.54	114.88
611.748	104.88
611.955	121.88
612.163	104.88
612.371	109.88
612.579	117.88
612.787	117.88
612.995	106.88
613.203	117.88
613.411	99.88
613.618	96.88
613.826	110.88
614.034	109.88
614.242	123.88
614.449	117.88
614.657	102.88
614.865	123.88
615.072	118.88
615.28	104.88
615.488	110.88
615.695	122.88
615.903	123.88
616.111	119.88
616.318	120.88
616.526	114.88
616.733	117.88
616.941	110.88
617.148	111.88
617.356	107.88
617.563	93.88
617.771	113.88
617.978	104.88
618.185	107.88
618.393	115.88
618.6	110.88
618.807	113.88
619.015	110.88
619.222	112.88
619.429	111.88
619.637	106.88
619.844	108.88
620.051	92.88
620.258	103.88
620.466	116.88
620.673	106.88
620.88	120.88
621.087	108.88
621.294	104.88
621.501	110.88
621.708	109.88
621.915	103.88
622.122	107.88
622.329	114.88
622.536	100.88
622.743	113.88
622.95	101.88
623.157	117.88
623.364	98.88
623.571	97.88
623.778	105.88
623.985	109.88
624.192	110.88
624.399	95.88
624.606	107.88
624.812	101.88
625.019	108.88
625.226	100.88
625.433	110.88
625.639	117.88
625.846	101.88
626.053	89.88
626.259	93.88
626.466	95.88
626.673	90.88
626.879	78.88
627.086	102.88
627.293	113.88
627.499	107.88
627.706	99.88
627.912	111.88
628.119	102.88
628.325	114.88
628.532	97.88
628.738	94.88
628.945	101.88
629.151	110.88
629.357	99.88
629.564	99.88
629.77	97.88
629.976	102.88
630.183	97.88
630.389	112.88
630.595	108.88
630.802	100.88
631.008	96.88
631.214	99.88
631.42	93.88
631.627	120.88
631.833	107.88
632.039	100.88
632.245	115.88
632.451	105.88
632.657	101.88
632.863	100.88
633.069	105.88
633.275	103.88
633.481	94.88
633.688	93.88
633.893	100.88
634.099	105.88
634.305	101.88
634.511	102.88
634.717	100.88
634.923	89.88
635.129	99.88
635.335	86.88
635.541	96.88
635.747	96.88
635.952	100.88
636.158	104.88
636.364	100.88
636.57	99.88
636.775	111.88
636.981	109.88
637.187	96.88
637.392	102.88
637.598	98.88
637.804	104.88
638.009	106.88
638.215	112.88
638.421	106.88
638.626	101.88
638.832	109.88
639.037	106.88
639.243	102.88
639.448	107.88
639.654	104.88
639.859	103.88
640.065	96.88
640.27	102.88
640.475	103.88
640.681	100.88
640.886	91.88
641.091	100.88
641.297	99.88
641.502	103.88
641.707	98.88
641.913	102.88
642.118	89.88
642.323	95.88
642.528	101.88
642.733	105.88
642.939	92.88
643.144	97.88
643.349	99.88
643.554	110.88
643.759	105.88
643.964	89.88
644.169	92.88
644.374	113.88
644.579	90.88
644.784	93.88
644.989	90.88
645.194	96.88
645.399	91.88
645.604	99.88
645.809	107.88
646.014	101.88
646.219	94.88
646.423	119.88
646.628	107.88
646.833	94.88
647.038	101.88
647.243	98.88
647.447	93.88
647.652	95.88
647.857	96.88
648.062	108.88
648.266	106.88
648.471	98.88
648.676	102.88
648.88	80.88
649.085	85.88
649.289	90.88
649.494	88.88
649.698	89.88
649.903	89.88
650.107	110.88
650.312	91.88
650.516	107.88
650.721	98.88
650.925	92.88
651.13	98.88
651.334	86.88
651.539	97.88
651.743	97.88
651.947	98.88
652.152	94.88
652.356	108.88
652.56	105.88
652.764	97.88
652.969	81.88
653.173	88.88
653.377	90.88
653.581	104.88
653.785	108.88
653.99	89.88
654.194	89.88
654.398	72.88
654.602	88.88
654.806	105.88
655.01	88.88
655.214	104.88
655.418	79.88
655.622	87.88
655.826	98.88
656.03	83.88
656.234	91.88
656.438	93.88
656.642	85.88
656.846	86.88
657.049	91.88
657.253	83.88
657.457	93.88
657.661	89.88
657.865	99.88
658.068	99.88
658.272	92.88
658.476	84.88
658.68	88.88
658.883	86.88
659.087	94.88
659.291	90.88
659.494	86.88
659.698	92.88
659.901	86.88
660.105	84.88
660.309	72.88
660.512	93.88
660.716	83.88
660.919	80.88
661.123	62.88
661.326	75.88
661.53	95.88
661.733	84.88
661.936	81.88
662.14	71.88
662.343	89.88
662.546	78.88
662.75	87.88
662.953	60.88
663.156	79.88
663.36	78.88
663.563	83.88
663.766	89.88
663.969	87.88
664.173	89.88
664.376	84.88
664.579	78.88
664.782	71.88
664.985	79.88
665.188	80.88
665.391	82.88
665.594	85.88
665.797	74.88
666	74.88
666.203	81.88
666.406	89.88
666.609	88.88
666.812	79.88
667.015	94.88
667.218	78.88
667.421	80.88
667.624	81.88
667.827	88.88
668.03	84.88
668.232	95.88
668.435	94.88
668.638	89.88
668.841	91.88
669.043	86.88
669.246	74.88
669.449	59.88
669.651	77.88
669.854	77.88
670.057	93.88
670.259	66.88
670.462	88.88
670.665	85.88
670.867	79.88
671.07	90.88
671.272	87.88
671.475	87.88
671.677	97.88
671.88	76.88
672.082	89.88
672.284	90.88
672.487	105.88
672.689	77.88
672.892	73.88
