Data from Location4.07152019.Energy5.Lamp.07192019.3%Agarose_HRD10591_16-20-09-925.txt Node
Date: Fri Jul 19 16:20:09 EDT 2019
User: cochatt
Spectrometer: HR+D1059
Trigger mode: 1
Integration Time (sec): 1.000000E-1
Scans to average: 1
Electric dark correction enabled: true
Nonlinearity correction enabled: false
Boxcar width: 0
XAxis mode: Wavelengths
Number of Pixels in Spectrum: 2048
>>>>>Begin Spectral Data<<<<<
223.165	-15.31
223.4	-15.31
223.635	-15.31
223.869	-18.31
224.104	-12.31
224.338	-9.31
224.573	-24.31
224.808	-23.31
225.042	-13.31
225.277	-6.31
225.511	4.69
225.746	12.69
225.98	7.69
226.215	2.69
226.449	25.69
226.683	17.69
226.918	30.69
227.152	20.69
227.387	35.69
227.621	46.69
227.856	44.69
228.09	34.69
228.324	41.69
228.559	55.69
228.793	48.69
229.027	51.69
229.262	51.69
229.496	71.69
229.73	66.69
229.964	73.69
230.199	75.69
230.433	65.69
230.667	81.69
230.901	70.69
231.136	81.69
231.37	77.69
231.604	66.69
231.838	84.69
232.072	79.69
232.306	69.69
232.541	71.69
232.775	60.69
233.009	73.69
233.243	81.69
233.477	74.69
233.711	81.69
233.945	80.69
234.179	78.69
234.413	91.69
234.647	56.69
234.881	78.69
235.115	76.69
235.349	86.69
235.583	92.69
235.817	79.69
236.051	71.69
236.285	77.69
236.519	73.69
236.753	83.69
236.987	66.69
237.221	65.69
237.455	79.69
237.689	77.69
237.922	85.69
238.156	74.69
238.39	53.69
238.624	65.69
238.858	56.69
239.091	71.69
239.325	81.69
239.559	81.69
239.793	65.69
240.027	82.69
240.26	73.69
240.494	58.69
240.728	81.69
240.961	74.69
241.195	62.69
241.429	81.69
241.662	75.69
241.896	69.69
242.13	87.69
242.363	76.69
242.597	88.69
242.83	69.69
243.064	86.69
243.298	75.69
243.531	90.69
243.765	73.69
243.998	67.69
244.232	62.69
244.465	78.69
244.699	85.69
244.932	65.69
245.166	86.69
245.399	70.69
245.633	65.69
245.866	70.69
246.099	67.69
246.333	75.69
246.566	73.69
246.8	82.69
247.033	83.69
247.266	88.69
247.5	69.69
247.733	78.69
247.966	88.69
248.2	74.69
248.433	81.69
248.666	75.69
248.899	84.69
249.133	81.69
249.366	81.69
249.599	84.69
249.832	92.69
250.066	84.69
250.299	76.69
250.532	79.69
250.765	72.69
250.998	78.69
251.231	74.69
251.465	82.69
251.698	73.69
251.931	80.69
252.164	94.69
252.397	74.69
252.63	76.69
252.863	67.69
253.096	67.69
253.329	81.69
253.562	80.69
253.795	79.69
254.028	83.69
254.261	72.69
254.494	69.69
254.727	60.69
254.96	75.69
255.193	65.69
255.426	79.69
255.659	72.69
255.892	84.69
256.124	70.69
256.357	83.69
256.59	88.69
256.823	74.69
257.056	93.69
257.289	82.69
257.521	76.69
257.754	72.69
257.987	76.69
258.22	84.69
258.452	70.69
258.685	90.69
258.918	62.69
259.151	74.69
259.383	79.69
259.616	83.69
259.849	79.69
260.081	72.69
260.314	79.69
260.547	85.69
260.779	77.69
261.012	82.69
261.244	86.69
261.477	85.69
261.71	90.69
261.942	94.69
262.175	72.69
262.407	72.69
262.64	68.69
262.872	93.69
263.105	81.69
263.337	82.69
263.57	78.69
263.802	67.69
264.035	89.69
264.267	74.69
264.499	60.69
264.732	71.69
264.964	78.69
265.197	71.69
265.429	87.69
265.661	69.69
265.894	70.69
266.126	73.69
266.358	97.69
266.591	78.69
266.823	70.69
267.055	84.69
267.287	79.69
267.52	80.69
267.752	90.69
267.984	93.69
268.216	73.69
268.448	65.69
268.681	70.69
268.913	85.69
269.145	79.69
269.377	79.69
269.609	71.69
269.841	97.69
270.073	80.69
270.306	63.69
270.538	80.69
270.77	68.69
271.002	64.69
271.234	101.69
271.466	91.69
271.698	73.69
271.93	77.69
272.162	79.69
272.394	87.69
272.626	66.69
272.858	81.69
273.09	87.69
273.322	69.69
273.553	74.69
273.785	80.69
274.017	78.69
274.249	77.69
274.481	79.69
274.713	94.69
274.945	80.69
275.176	80.69
275.408	89.69
275.64	84.69
275.872	87.69
276.104	93.69
276.335	84.69
276.567	92.69
276.799	79.69
277.031	87.69
277.262	81.69
277.494	73.69
277.726	89.69
277.957	73.69
278.189	75.69
278.421	73.69
278.652	77.69
278.884	70.69
279.115	76.69
279.347	88.69
279.579	79.69
279.81	86.69
280.042	97.69
280.273	79.69
280.505	78.69
280.736	90.69
280.968	83.69
281.199	84.69
281.431	73.69
281.662	96.69
281.894	81.69
282.125	74.69
282.356	71.69
282.588	85.69
282.819	80.69
283.051	88.69
283.282	84.69
283.513	67.69
283.745	86.69
283.976	78.69
284.207	79.69
284.439	71.69
284.67	91.69
284.901	76.69
285.132	77.69
285.364	78.69
285.595	84.69
285.826	92.69
286.057	80.69
286.288	89.69
286.52	90.69
286.751	79.69
286.982	81.69
287.213	81.69
287.444	78.69
287.675	91.69
287.906	81.69
288.138	70.69
288.369	76.69
288.6	70.69
288.831	76.69
289.062	74.69
289.293	75.69
289.524	76.69
289.755	79.69
289.986	81.69
290.217	73.69
290.448	72.69
290.679	92.69
290.91	65.69
291.141	97.69
291.371	82.69
291.602	87.69
291.833	87.69
292.064	77.69
292.295	73.69
292.526	88.69
292.757	84.69
292.987	89.69
293.218	80.69
293.449	84.69
293.68	71.69
293.91	76.69
294.141	86.69
294.372	87.69
294.603	87.69
294.833	82.69
295.064	75.69
295.295	88.69
295.525	82.69
295.756	81.69
295.987	64.69
296.217	92.69
296.448	83.69
296.679	84.69
296.909	79.69
297.14	96.69
297.37	81.69
297.601	80.69
297.831	81.69
298.062	74.69
298.292	78.69
298.523	74.69
298.753	62.69
298.984	73.69
299.214	86.69
299.445	78.69
299.675	84.69
299.905	80.69
300.136	96.69
300.366	92.69
300.597	87.69
300.827	86.69
301.057	84.69
301.288	84.69
301.518	77.69
301.748	82.69
301.979	80.69
302.209	99.69
302.439	74.69
302.669	85.69
302.9	85.69
303.13	78.69
303.36	76.69
303.59	86.69
303.82	70.69
304.051	81.69
304.281	90.69
304.511	80.69
304.741	92.69
304.971	83.69
305.201	103.69
305.431	77.69
305.661	82.69
305.891	89.69
306.121	98.69
306.352	81.69
306.582	85.69
306.812	89.69
307.042	90.69
307.272	79.69
307.502	77.69
307.731	88.69
307.961	86.69
308.191	99.69
308.421	76.69
308.651	84.69
308.881	88.69
309.111	82.69
309.341	83.69
309.571	101.69
309.8	78.69
310.03	85.69
310.26	74.69
310.49	80.69
310.72	85.69
310.949	64.69
311.179	75.69
311.409	87.69
311.639	81.69
311.868	72.69
312.098	74.69
312.328	87.69
312.557	80.69
312.787	84.69
313.017	79.69
313.246	89.69
313.476	82.69
313.706	79.69
313.935	70.69
314.165	68.69
314.394	83.69
314.624	89.69
314.853	83.69
315.083	80.69
315.312	67.69
315.542	90.69
315.771	92.69
316.001	79.69
316.23	86.69
316.46	69.69
316.689	91.69
316.919	86.69
317.148	93.69
317.377	87.69
317.607	87.69
317.836	82.69
318.065	85.69
318.295	89.69
318.524	82.69
318.753	89.69
318.983	75.69
319.212	71.69
319.441	82.69
319.67	85.69
319.9	82.69
320.129	68.69
320.358	77.69
320.587	90.69
320.816	77.69
321.046	93.69
321.275	84.69
321.504	90.69
321.733	87.69
321.962	91.69
322.191	82.69
322.42	74.69
322.649	85.69
322.878	86.69
323.108	75.69
323.337	83.69
323.566	81.69
323.795	94.69
324.024	74.69
324.253	82.69
324.482	77.69
324.71	93.69
324.939	74.69
325.168	64.69
325.397	82.69
325.626	86.69
325.855	93.69
326.084	84.69
326.313	73.69
326.542	70.69
326.77	85.69
326.999	92.69
327.228	99.69
327.457	80.69
327.686	80.69
327.914	96.69
328.143	77.69
328.372	92.69
328.6	90.69
328.829	83.69
329.058	76.69
329.287	78.69
329.515	79.69
329.744	76.69
329.972	78.69
330.201	87.69
330.43	73.69
330.658	81.69
330.887	81.69
331.115	79.69
331.344	91.69
331.572	74.69
331.801	91.69
332.03	85.69
332.258	81.69
332.486	86.69
332.715	77.69
332.943	78.69
333.172	75.69
333.4	72.69
333.629	89.69
333.857	89.69
334.085	78.69
334.314	74.69
334.542	84.69
334.771	81.69
334.999	97.69
335.227	77.69
335.455	73.69
335.684	76.69
335.912	89.69
336.14	88.69
336.369	87.69
336.597	73.69
336.825	60.69
337.053	89.69
337.281	78.69
337.51	80.69
337.738	77.69
337.966	83.69
338.194	93.69
338.422	88.69
338.65	86.69
338.878	76.69
339.106	77.69
339.334	100.69
339.562	78.69
339.79	75.69
340.018	92.69
340.246	70.69
340.474	80.69
340.702	86.69
340.93	70.69
341.158	84.69
341.386	88.69
341.614	79.69
341.842	95.69
342.07	76.69
342.298	71.69
342.526	92.69
342.754	72.69
342.981	78.69
343.209	81.69
343.437	82.69
343.665	86.69
343.893	66.69
344.12	76.69
344.348	89.69
344.576	87.69
344.804	71.69
345.031	86.69
345.259	82.69
345.487	86.69
345.714	79.69
345.942	82.69
346.17	84.69
346.397	88.69
346.625	90.69
346.853	91.69
347.08	87.69
347.308	74.69
347.535	76.69
347.763	77.69
347.99	77.69
348.218	73.69
348.445	68.69
348.673	80.69
348.9	88.69
349.128	77.69
349.355	83.69
349.583	93.69
349.81	95.69
350.037	92.69
350.265	81.69
350.492	85.69
350.72	78.69
350.947	74.69
351.174	92.69
351.402	73.69
351.629	72.69
351.856	72.69
352.083	87.69
352.311	84.69
352.538	69.69
352.765	77.69
352.992	76.69
353.22	85.69
353.447	76.69
353.674	72.69
353.901	76.69
354.128	90.69
354.355	77.69
354.583	70.69
354.81	76.69
355.037	81.69
355.264	92.69
355.491	101.69
355.718	95.69
355.945	82.69
356.172	83.69
356.399	81.69
356.626	81.69
356.853	73.69
357.08	81.69
357.307	87.69
357.534	77.69
357.761	77.69
357.988	89.69
358.215	89.69
358.441	86.69
358.668	94.69
358.895	70.69
359.122	69.69
359.349	82.69
359.576	75.69
359.802	83.69
360.029	81.69
360.256	72.69
360.483	85.69
360.709	81.69
360.936	83.69
361.163	78.69
361.39	85.69
361.616	78.69
361.843	70.69
362.07	88.69
362.296	81.69
362.523	79.69
362.749	81.69
362.976	84.69
363.203	83.69
363.429	68.69
363.656	78.69
363.882	84.69
364.109	82.69
364.335	71.69
364.562	76.69
364.788	71.69
365.015	80.69
365.241	84.69
365.468	79.69
365.694	73.69
365.92	66.69
366.147	84.69
366.373	65.69
366.599	78.69
366.826	73.69
367.052	85.69
367.278	90.69
367.505	84.69
367.731	83.69
367.957	84.69
368.184	76.69
368.41	88.69
368.636	79.69
368.862	93.69
369.089	77.69
369.315	88.69
369.541	87.69
369.767	89.69
369.993	92.69
370.219	70.69
370.445	84.69
370.672	89.69
370.898	104.69
371.124	87.69
371.35	96.69
371.576	90.69
371.802	81.69
372.028	84.69
372.254	93.69
372.48	90.69
372.706	89.69
372.932	79.69
373.158	77.69
373.384	88.69
373.61	96.69
373.835	84.69
374.061	80.69
374.287	90.69
374.513	87.69
374.739	80.69
374.965	87.69
375.191	86.69
375.416	93.69
375.642	89.69
375.868	101.69
376.094	86.69
376.319	100.69
376.545	79.69
376.771	77.69
376.997	92.69
377.222	80.69
377.448	87.69
377.674	82.69
377.899	88.69
378.125	98.69
378.35	94.69
378.576	87.69
378.802	90.69
379.027	96.69
379.253	78.69
379.478	89.69
379.704	80.69
379.929	89.69
380.155	94.69
380.38	85.69
380.606	90.69
380.831	91.69
381.057	99.69
381.282	100.69
381.507	65.69
381.733	100.69
381.958	84.69
382.184	85.69
382.409	86.69
382.634	92.69
382.86	86.69
383.085	92.69
383.31	103.69
383.535	100.69
383.761	87.69
383.986	97.69
384.211	92.69
384.436	92.69
384.662	93.69
384.887	101.69
385.112	79.69
385.337	83.69
385.562	90.69
385.787	85.69
386.013	87.69
386.238	97.69
386.463	105.69
386.688	90.69
386.913	88.69
387.138	92.69
387.363	103.69
387.588	97.69
387.813	97.69
388.038	88.69
388.263	97.69
388.488	94.69
388.713	95.69
388.938	92.69
389.163	97.69
389.387	90.69
389.612	95.69
389.837	103.69
390.062	92.69
390.287	97.69
390.512	89.69
390.736	102.69
390.961	96.69
391.186	101.69
391.411	82.69
391.636	91.69
391.86	110.69
392.085	101.69
392.31	111.69
392.534	101.69
392.759	84.69
392.984	93.69
393.208	101.69
393.433	92.69
393.658	103.69
393.882	83.69
394.107	92.69
394.331	111.69
394.556	102.69
394.78	89.69
395.005	107.69
395.229	101.69
395.454	90.69
395.678	98.69
395.903	98.69
396.127	92.69
396.352	90.69
396.576	105.69
396.801	103.69
397.025	100.69
397.249	97.69
397.474	104.69
397.698	95.69
397.922	100.69
398.147	98.69
398.371	111.69
398.595	111.69
398.82	109.69
399.044	104.69
399.268	105.69
399.492	102.69
399.717	115.69
399.941	105.69
400.165	88.69
400.389	95.69
400.613	92.69
400.837	108.69
401.062	114.69
401.286	118.69
401.51	118.69
401.734	102.69
401.958	102.69
402.182	94.69
402.406	112.69
402.63	98.69
402.854	116.69
403.078	118.69
403.302	95.69
403.526	120.69
403.75	103.69
403.974	97.69
404.198	106.69
404.422	85.69
404.645	113.69
404.869	112.69
405.093	112.69
405.317	117.69
405.541	96.69
405.765	97.69
405.988	111.69
406.212	109.69
406.436	105.69
406.66	119.69
406.883	88.69
407.107	103.69
407.331	105.69
407.555	112.69
407.778	124.69
408.002	116.69
408.226	87.69
408.449	108.69
408.673	102.69
408.896	108.69
409.12	117.69
409.344	117.69
409.567	119.69
409.791	108.69
410.014	122.69
410.238	113.69
410.461	110.69
410.685	115.69
410.908	104.69
411.132	124.69
411.355	108.69
411.578	118.69
411.802	120.69
412.025	117.69
412.249	113.69
412.472	111.69
412.695	109.69
412.919	117.69
413.142	114.69
413.365	127.69
413.589	122.69
413.812	110.69
414.035	110.69
414.258	113.69
414.482	115.69
414.705	124.69
414.928	120.69
415.151	120.69
415.374	117.69
415.597	111.69
415.821	125.69
416.044	122.69
416.267	117.69
416.49	114.69
416.713	118.69
416.936	121.69
417.159	114.69
417.382	124.69
417.605	118.69
417.828	109.69
418.051	128.69
418.274	142.69
418.497	139.69
418.72	125.69
418.943	123.69
419.166	117.69
419.389	123.69
419.611	132.69
419.834	122.69
420.057	124.69
420.28	122.69
420.503	116.69
420.726	124.69
420.948	128.69
421.171	124.69
421.394	133.69
421.617	127.69
421.839	133.69
422.062	131.69
422.285	126.69
422.507	132.69
422.73	128.69
422.953	108.69
423.175	124.69
423.398	126.69
423.621	113.69
423.843	129.69
424.066	114.69
424.288	129.69
424.511	146.69
424.733	142.69
424.956	140.69
425.178	127.69
425.401	137.69
425.623	118.69
425.846	121.69
426.068	102.69
426.291	114.69
426.513	132.69
426.735	127.69
426.958	124.69
427.18	125.69
427.402	116.69
427.625	128.69
427.847	120.69
428.069	116.69
428.292	132.69
428.514	127.69
428.736	128.69
428.958	115.69
429.181	120.69
429.403	120.69
429.625	110.69
429.847	122.69
430.069	109.69
430.292	110.69
430.514	117.69
430.736	110.69
430.958	137.69
431.18	101.69
431.402	120.69
431.624	108.69
431.846	106.69
432.068	96.69
432.29	98.69
432.512	98.69
432.734	130.69
432.956	121.69
433.178	149.69
433.4	136.69
433.622	127.69
433.844	125.69
434.066	111.69
434.287	106.69
434.509	93.69
434.731	94.69
434.953	114.69
435.175	120.69
435.397	133.69
435.618	105.69
435.84	105.69
436.062	112.69
436.284	127.69
436.505	130.69
436.727	120.69
436.949	123.69
437.17	123.69
437.392	122.69
437.614	121.69
437.835	111.69
438.057	111.69
438.278	110.69
438.5	120.69
438.721	118.69
438.943	135.69
439.165	128.69
439.386	132.69
439.608	119.69
439.829	133.69
440.05	136.69
440.272	136.69
440.493	151.69
440.715	146.69
440.936	133.69
441.158	129.69
441.379	130.69
441.6	137.69
441.822	138.69
442.043	142.69
442.264	145.69
442.486	119.69
442.707	133.69
442.928	130.69
443.149	132.69
443.371	131.69
443.592	122.69
443.813	130.69
444.034	121.69
444.255	133.69
444.476	127.69
444.698	141.69
444.919	130.69
445.14	247.69
445.361	191.69
445.582	143.69
445.803	127.69
446.024	143.69
446.245	146.69
446.466	149.69
446.687	147.69
446.908	145.69
447.129	149.69
447.35	148.69
447.571	149.69
447.792	147.69
448.013	133.69
448.234	144.69
448.455	138.69
448.675	129.69
448.896	135.69
449.117	129.69
449.338	129.69
449.559	141.69
449.779	129.69
450	126.69
450.221	124.69
450.442	128.69
450.662	108.69
450.883	130.69
451.104	130.69
451.324	125.69
451.545	118.69
451.766	131.69
451.986	124.69
452.207	126.69
452.428	117.69
452.648	122.69
452.869	126.69
453.089	129.69
453.31	115.69
453.53	118.69
453.751	111.69
453.971	110.69
454.192	94.69
454.412	103.69
454.633	116.69
454.853	105.69
455.073	126.69
455.294	114.69
455.514	120.69
455.734	120.69
455.955	103.69
456.175	124.69
456.395	112.69
456.616	115.69
456.836	111.69
457.056	100.69
457.276	108.69
457.497	103.69
457.717	104.69
457.937	99.69
458.157	118.69
458.377	109.69
458.598	87.69
458.818	74.69
459.038	87.69
459.258	91.69
459.478	99.69
459.698	84.69
459.918	112.69
460.138	96.69
460.358	110.69
460.578	124.69
460.798	127.69
461.018	115.69
461.238	114.69
461.458	110.69
461.678	109.69
461.898	119.69
462.118	114.69
462.338	100.69
462.558	93.69
462.777	114.69
462.997	113.69
463.217	103.69
463.437	108.69
463.657	110.69
463.876	106.69
464.096	103.69
464.316	98.69
464.536	106.69
464.755	111.69
464.975	114.69
465.195	116.69
465.414	105.69
465.634	112.69
465.854	112.69
466.073	112.69
466.293	124.69
466.512	124.69
466.732	123.69
466.951	126.69
467.171	116.69
467.391	119.69
467.61	127.69
467.829	128.69
468.049	130.69
468.268	142.69
468.488	124.69
468.707	132.69
468.927	154.69
469.146	133.69
469.365	126.69
469.585	124.69
469.804	130.69
470.023	138.69
470.243	130.69
470.462	133.69
470.681	134.69
470.901	142.69
471.12	125.69
471.339	144.69
471.558	139.69
471.777	125.69
471.997	119.69
472.216	122.69
472.435	119.69
472.654	104.69
472.873	112.69
473.092	115.69
473.311	113.69
473.53	116.69
473.749	114.69
473.968	122.69
474.187	110.69
474.406	124.69
474.625	114.69
474.844	120.69
475.063	128.69
475.282	128.69
475.501	122.69
475.72	112.69
475.939	112.69
476.158	122.69
476.377	127.69
476.596	117.69
476.814	104.69
477.033	105.69
477.252	103.69
477.471	127.69
477.69	136.69
477.908	124.69
478.127	140.69
478.346	136.69
478.564	126.69
478.783	119.69
479.002	133.69
479.22	132.69
479.439	126.69
479.658	121.69
479.876	116.69
480.095	113.69
480.313	106.69
480.532	113.69
480.751	112.69
480.969	88.69
481.188	86.69
481.406	78.69
481.624	99.69
481.843	73.69
482.061	108.69
482.28	116.69
482.498	105.69
482.717	95.69
482.935	115.69
483.153	130.69
483.372	146.69
483.59	141.69
483.808	122.69
484.027	136.69
484.245	123.69
484.463	130.69
484.681	167.69
484.9	138.69
485.118	129.69
485.336	121.69
485.554	100.69
485.772	96.69
485.99	93.69
486.209	104.69
486.427	112.69
486.645	126.69
486.863	130.69
487.081	135.69
487.299	130.69
487.517	134.69
487.735	169.69
487.953	186.69
488.171	172.69
488.389	177.69
488.607	146.69
488.825	123.69
489.043	132.69
489.261	136.69
489.479	132.69
489.696	113.69
489.914	134.69
490.132	145.69
490.35	141.69
490.568	150.69
490.786	168.69
491.003	161.69
491.221	170.69
491.439	188.69
491.657	191.69
491.874	194.69
492.092	228.69
492.31	232.69
492.527	214.69
492.745	201.69
492.963	190.69
493.18	178.69
493.398	186.69
493.615	182.69
493.833	147.69
494.05	182.69
494.268	177.69
494.485	167.69
494.703	152.69
494.92	174.69
495.138	172.69
495.355	153.69
495.573	160.69
495.79	148.69
496.008	163.69
496.225	156.69
496.442	161.69
496.66	154.69
496.877	163.69
497.094	158.69
497.312	154.69
497.529	162.69
497.746	157.69
497.963	142.69
498.181	124.69
498.398	118.69
498.615	124.69
498.832	118.69
499.049	121.69
499.267	132.69
499.484	119.69
499.701	108.69
499.918	137.69
500.135	128.69
500.352	130.69
500.569	138.69
500.786	160.69
501.003	134.69
501.22	139.69
501.437	144.69
501.654	120.69
501.871	121.69
502.088	118.69
502.305	128.69
502.522	115.69
502.739	116.69
502.956	138.69
503.172	126.69
503.389	124.69
503.606	122.69
503.823	110.69
504.04	121.69
504.256	109.69
504.473	104.69
504.69	114.69
504.907	124.69
505.123	116.69
505.34	114.69
505.557	112.69
505.773	116.69
505.99	121.69
506.207	120.69
506.423	121.69
506.64	124.69
506.856	113.69
507.073	125.69
507.289	116.69
507.506	104.69
507.722	117.69
507.939	110.69
508.155	119.69
508.372	100.69
508.588	104.69
508.805	106.69
509.021	111.69
509.238	97.69
509.454	108.69
509.67	96.69
509.887	92.69
510.103	89.69
510.319	85.69
510.536	80.69
510.752	81.69
510.968	75.69
511.184	90.69
511.401	90.69
511.617	87.69
511.833	74.69
512.049	79.69
512.265	109.69
512.481	78.69
512.698	93.69
512.914	90.69
513.13	106.69
513.346	82.69
513.562	96.69
513.778	89.69
513.994	98.69
514.21	83.69
514.426	93.69
514.642	93.69
514.858	91.69
515.074	92.69
515.29	87.69
515.506	81.69
515.721	91.69
515.937	75.69
516.153	74.69
516.369	73.69
516.585	94.69
516.801	101.69
517.016	87.69
517.232	65.69
517.448	79.69
517.664	99.69
517.879	84.69
518.095	85.69
518.311	97.69
518.527	86.69
518.742	98.69
518.958	108.69
519.173	104.69
519.389	109.69
519.605	102.69
519.82	110.69
520.036	103.69
520.251	84.69
520.467	101.69
520.682	96.69
520.898	94.69
521.113	81.69
521.329	91.69
521.544	94.69
521.76	85.69
521.975	90.69
522.19	88.69
522.406	93.69
522.621	84.69
522.836	95.69
523.052	103.69
523.267	109.69
523.482	105.69
523.698	99.69
523.913	112.69
524.128	100.69
524.343	117.69
524.559	130.69
524.774	128.69
524.989	106.69
525.204	119.69
525.419	103.69
525.634	100.69
525.849	103.69
526.064	116.69
526.28	95.69
526.495	78.69
526.71	79.69
526.925	85.69
527.14	85.69
527.355	72.69
527.57	80.69
527.785	86.69
527.999	99.69
528.214	97.69
528.429	110.69
528.644	116.69
528.859	119.69
529.074	147.69
529.289	134.69
529.503	163.69
529.718	132.69
529.933	127.69
530.148	98.69
530.363	97.69
530.577	79.69
530.792	92.69
531.007	69.69
531.221	72.69
531.436	74.69
531.651	79.69
531.865	81.69
532.08	94.69
532.295	87.69
532.509	75.69
532.724	84.69
532.938	92.69
533.153	92.69
533.367	110.69
533.582	105.69
533.796	123.69
534.011	96.69
534.225	116.69
534.44	78.69
534.654	100.69
534.868	98.69
535.083	95.69
535.297	98.69
535.511	88.69
535.726	112.69
535.94	104.69
536.154	108.69
536.369	94.69
536.583	80.69
536.797	81.69
537.011	85.69
537.225	86.69
537.44	82.69
537.654	89.69
537.868	84.69
538.082	90.69
538.296	107.69
538.51	119.69
538.724	106.69
538.938	107.69
539.153	123.69
539.367	120.69
539.581	112.69
539.795	108.69
540.009	112.69
540.222	97.69
540.436	102.69
540.65	101.69
540.864	129.69
541.078	131.69
541.292	136.69
541.506	145.69
541.72	171.69
541.934	164.69
542.147	201.69
542.361	186.69
542.575	159.69
542.789	135.69
543.002	119.69
543.216	108.69
543.43	122.69
543.644	118.69
543.857	137.69
544.071	156.69
544.285	145.69
544.498	138.69
544.712	146.69
544.925	152.69
545.139	153.69
545.352	161.69
545.566	151.69
545.779	164.69
545.993	148.69
546.206	147.69
546.42	154.69
546.633	164.69
546.847	147.69
547.06	169.69
547.274	167.69
547.487	164.69
547.7	181.69
547.914	148.69
548.127	146.69
548.34	166.69
548.554	150.69
548.767	152.69
548.98	147.69
549.193	143.69
549.407	150.69
549.62	155.69
549.833	160.69
550.046	143.69
550.259	144.69
550.473	138.69
550.686	124.69
550.899	146.69
551.112	143.69
551.325	133.69
551.538	134.69
551.751	117.69
551.964	110.69
552.177	119.69
552.39	134.69
552.603	140.69
552.816	135.69
553.029	159.69
553.242	134.69
553.455	140.69
553.667	156.69
553.88	156.69
554.093	149.69
554.306	139.69
554.519	138.69
554.732	156.69
554.944	140.69
555.157	147.69
555.37	144.69
555.583	130.69
555.795	146.69
556.008	137.69
556.221	122.69
556.433	125.69
556.646	124.69
556.859	125.69
557.071	135.69
557.284	137.69
557.496	129.69
557.709	130.69
557.921	137.69
558.134	142.69
558.346	141.69
558.559	133.69
558.771	138.69
558.984	115.69
559.196	120.69
559.409	124.69
559.621	123.69
559.833	121.69
560.046	140.69
560.258	138.69
560.47	132.69
560.683	133.69
560.895	110.69
561.107	146.69
561.32	124.69
561.532	112.69
561.744	123.69
561.956	124.69
562.168	121.69
562.381	144.69
562.593	132.69
562.805	119.69
563.017	125.69
563.229	124.69
563.441	121.69
563.653	118.69
563.865	121.69
564.077	114.69
564.289	117.69
564.501	119.69
564.713	118.69
564.925	114.69
565.137	113.69
565.349	124.69
565.561	114.69
565.773	99.69
565.985	124.69
566.197	121.69
566.408	122.69
566.62	129.69
566.832	111.69
567.044	125.69
567.255	115.69
567.467	106.69
567.679	111.69
567.891	92.69
568.102	100.69
568.314	89.69
568.526	100.69
568.737	85.69
568.949	79.69
569.161	81.69
569.372	89.69
569.584	79.69
569.795	83.69
570.007	72.69
570.218	88.69
570.43	86.69
570.641	84.69
570.853	96.69
571.064	113.69
571.276	102.69
571.487	102.69
571.698	120.69
571.91	121.69
572.121	98.69
572.333	97.69
572.544	95.69
572.755	88.69
572.966	94.69
573.178	80.69
573.389	83.69
573.6	76.69
573.811	77.69
574.023	87.69
574.234	75.69
574.445	78.69
574.656	85.69
574.867	94.69
575.078	100.69
575.289	100.69
575.501	83.69
575.712	90.69
575.923	87.69
576.134	89.69
576.345	87.69
576.556	84.69
576.767	75.69
576.978	92.69
577.188	98.69
577.399	77.69
577.61	94.69
577.821	82.69
578.032	88.69
578.243	108.69
578.454	89.69
578.665	72.69
578.875	85.69
579.086	81.69
579.297	86.69
579.508	95.69
579.718	85.69
579.929	82.69
580.14	85.69
580.35	85.69
580.561	84.69
580.772	89.69
580.982	92.69
581.193	91.69
581.403	109.69
581.614	106.69
581.825	98.69
582.035	96.69
582.246	91.69
582.456	81.69
582.667	84.69
582.877	95.69
583.087	84.69
583.298	84.69
583.508	89.69
583.719	85.69
583.929	65.69
584.139	91.69
584.35	80.69
584.56	79.69
584.77	87.69
584.981	94.69
585.191	90.69
585.401	85.69
585.611	91.69
585.821	93.69
586.032	83.69
586.242	80.69
586.452	95.69
586.662	95.69
586.872	84.69
587.082	94.69
587.292	92.69
587.502	79.69
587.713	83.69
587.923	79.69
588.133	71.69
588.343	88.69
588.553	84.69
588.762	74.69
588.972	93.69
589.182	82.69
589.392	71.69
589.602	88.69
589.812	87.69
590.022	92.69
590.232	83.69
590.441	83.69
590.651	89.69
590.861	89.69
591.071	90.69
591.281	87.69
591.49	72.69
591.7	92.69
591.91	88.69
592.119	74.69
592.329	82.69
592.539	86.69
592.748	86.69
592.958	97.69
593.167	89.69
593.377	92.69
593.587	93.69
593.796	85.69
594.006	80.69
594.215	100.69
594.424	88.69
594.634	91.69
594.843	85.69
595.053	86.69
595.262	90.69
595.472	84.69
595.681	80.69
595.89	85.69
596.1	80.69
596.309	85.69
596.518	83.69
596.727	97.69
596.937	101.69
597.146	92.69
597.355	92.69
597.564	95.69
597.774	95.69
597.983	93.69
598.192	89.69
598.401	77.69
598.61	88.69
598.819	88.69
599.028	96.69
599.237	85.69
599.446	100.69
599.655	97.69
599.864	102.69
600.073	80.69
600.282	95.69
600.491	99.69
600.7	77.69
600.909	81.69
601.118	79.69
601.327	88.69
601.536	102.69
601.745	111.69
601.953	108.69
602.162	110.69
602.371	120.69
602.58	101.69
602.789	98.69
602.997	92.69
603.206	103.69
603.415	102.69
603.623	116.69
603.832	90.69
604.041	86.69
604.249	102.69
604.458	96.69
604.666	81.69
604.875	96.69
605.084	104.69
605.292	104.69
605.501	116.69
605.709	115.69
605.918	117.69
606.126	121.69
606.334	97.69
606.543	119.69
606.751	110.69
606.96	109.69
607.168	112.69
607.376	110.69
607.585	97.69
607.793	101.69
608.001	109.69
608.21	113.69
608.418	102.69
608.626	100.69
608.834	118.69
609.043	108.69
609.251	95.69
609.459	108.69
609.667	108.69
609.875	120.69
610.083	123.69
610.291	113.69
610.499	118.69
610.707	111.69
610.916	110.69
611.124	106.69
611.332	120.69
611.54	103.69
611.748	110.69
611.955	91.69
612.163	113.69
612.371	112.69
612.579	106.69
612.787	118.69
612.995	103.69
613.203	107.69
613.411	112.69
613.618	98.69
613.826	106.69
614.034	102.69
614.242	110.69
614.449	118.69
614.657	112.69
614.865	107.69
615.072	105.69
615.28	105.69
615.488	111.69
615.695	108.69
615.903	113.69
616.111	102.69
616.318	114.69
616.526	113.69
616.733	117.69
616.941	115.69
617.148	109.69
617.356	123.69
617.563	102.69
617.771	114.69
617.978	88.69
618.185	118.69
618.393	97.69
618.6	94.69
618.807	95.69
619.015	104.69
619.222	116.69
619.429	110.69
619.637	104.69
619.844	90.69
620.051	112.69
620.258	102.69
620.466	121.69
620.673	112.69
620.88	112.69
621.087	116.69
621.294	112.69
621.501	102.69
621.708	92.69
621.915	109.69
622.122	100.69
622.329	110.69
622.536	114.69
622.743	116.69
622.95	120.69
623.157	116.69
623.364	112.69
623.571	116.69
623.778	105.69
623.985	116.69
624.192	109.69
624.399	103.69
624.606	76.69
624.812	110.69
625.019	102.69
625.226	96.69
625.433	109.69
625.639	97.69
625.846	86.69
626.053	97.69
626.259	96.69
626.466	99.69
626.673	88.69
626.879	85.69
627.086	109.69
627.293	90.69
627.499	108.69
627.706	93.69
627.912	104.69
628.119	109.69
628.325	108.69
628.532	93.69
628.738	90.69
628.945	86.69
629.151	106.69
629.357	99.69
629.564	113.69
629.77	87.69
629.976	87.69
630.183	94.69
630.389	92.69
630.595	99.69
630.802	95.69
631.008	107.69
631.214	114.69
631.42	113.69
631.627	102.69
631.833	100.69
632.039	95.69
632.245	103.69
632.451	95.69
632.657	109.69
632.863	108.69
633.069	97.69
633.275	96.69
633.481	80.69
633.688	94.69
633.893	108.69
634.099	102.69
634.305	108.69
634.511	84.69
634.717	95.69
634.923	96.69
635.129	82.69
635.335	102.69
635.541	90.69
635.747	99.69
635.952	95.69
636.158	111.69
636.364	112.69
636.57	93.69
636.775	88.69
636.981	95.69
637.187	94.69
637.392	86.69
637.598	96.69
637.804	94.69
638.009	100.69
638.215	112.69
638.421	82.69
638.626	94.69
638.832	93.69
639.037	90.69
639.243	96.69
639.448	91.69
639.654	85.69
639.859	104.69
640.065	88.69
640.27	100.69
640.475	102.69
640.681	105.69
640.886	94.69
641.091	97.69
641.297	97.69
641.502	97.69
641.707	99.69
641.913	81.69
642.118	102.69
642.323	91.69
642.528	98.69
642.733	100.69
642.939	97.69
643.144	93.69
643.349	86.69
643.554	90.69
643.759	99.69
643.964	92.69
644.169	97.69
644.374	95.69
644.579	94.69
644.784	92.69
644.989	82.69
645.194	98.69
645.399	90.69
645.604	97.69
645.809	96.69
646.014	97.69
646.219	91.69
646.423	97.69
646.628	99.69
646.833	97.69
647.038	94.69
647.243	104.69
647.447	105.69
647.652	103.69
647.857	97.69
648.062	113.69
648.266	93.69
648.471	93.69
648.676	97.69
648.88	92.69
649.085	109.69
649.289	87.69
649.494	84.69
649.698	92.69
649.903	82.69
650.107	76.69
650.312	87.69
650.516	90.69
650.721	89.69
650.925	93.69
651.13	98.69
651.334	85.69
651.539	107.69
651.743	90.69
651.947	80.69
652.152	92.69
652.356	93.69
652.56	99.69
652.764	89.69
652.969	87.69
653.173	94.69
653.377	108.69
653.581	104.69
653.785	98.69
653.99	102.69
654.194	83.69
654.398	79.69
654.602	82.69
654.806	94.69
655.01	88.69
655.214	92.69
655.418	92.69
655.622	93.69
655.826	80.69
656.03	77.69
656.234	88.69
656.438	77.69
656.642	86.69
656.846	80.69
657.049	83.69
657.253	82.69
657.457	100.69
657.661	74.69
657.865	96.69
658.068	75.69
658.272	80.69
658.476	87.69
658.68	86.69
658.883	75.69
659.087	78.69
659.291	89.69
659.494	82.69
659.698	81.69
659.901	87.69
660.105	94.69
660.309	84.69
660.512	81.69
660.716	82.69
660.919	90.69
661.123	71.69
661.326	75.69
661.53	83.69
661.733	95.69
661.936	70.69
662.14	74.69
662.343	69.69
662.546	74.69
662.75	87.69
662.953	80.69
663.156	80.69
663.36	82.69
663.563	79.69
663.766	93.69
663.969	66.69
664.173	84.69
664.376	76.69
664.579	62.69
664.782	80.69
664.985	73.69
665.188	85.69
665.391	90.69
665.594	82.69
665.797	69.69
666	81.69
666.203	77.69
666.406	68.69
666.609	75.69
666.812	86.69
667.015	76.69
667.218	80.69
667.421	74.69
667.624	79.69
667.827	66.69
668.03	74.69
668.232	74.69
668.435	88.69
668.638	65.69
668.841	72.69
669.043	88.69
669.246	79.69
669.449	82.69
669.651	71.69
669.854	83.69
670.057	73.69
670.259	86.69
670.462	80.69
670.665	78.69
670.867	79.69
671.07	81.69
671.272	85.69
671.475	78.69
671.677	80.69
671.88	73.69
672.082	69.69
672.284	70.69
672.487	74.69
672.689	81.69
672.892	78.69
