Data from Location4.07152019.Energy5.Lamp.07192019.3%Agarose_HRD10591_16-21-11-926.txt Node
Date: Fri Jul 19 16:21:11 EDT 2019
User: cochatt
Spectrometer: HR+D1059
Trigger mode: 1
Integration Time (sec): 1.000000E-1
Scans to average: 1
Electric dark correction enabled: true
Nonlinearity correction enabled: false
Boxcar width: 0
XAxis mode: Wavelengths
Number of Pixels in Spectrum: 2048
>>>>>Begin Spectral Data<<<<<
223.165	-14.94
223.4	-14.94
223.635	-14.94
223.869	-2.94
224.104	-12.94
224.338	-13.94
224.573	-20.94
224.808	-20.94
225.042	-1.94
225.277	0.06
225.511	-13.94
225.746	-0.94
225.98	9.06
226.215	11.06
226.449	9.06
226.683	16.06
226.918	22.06
227.152	36.06
227.387	29.06
227.621	35.06
227.856	46.06
228.09	44.06
228.324	54.06
228.559	54.06
228.793	51.06
229.027	66.06
229.262	49.06
229.496	53.06
229.73	76.06
229.964	76.06
230.199	76.06
230.433	74.06
230.667	78.06
230.901	80.06
231.136	70.06
231.37	71.06
231.604	82.06
231.838	71.06
232.072	80.06
232.306	77.06
232.541	89.06
232.775	85.06
233.009	75.06
233.243	68.06
233.477	80.06
233.711	71.06
233.945	82.06
234.179	68.06
234.413	91.06
234.647	70.06
234.881	60.06
235.115	65.06
235.349	79.06
235.583	77.06
235.817	87.06
236.051	80.06
236.285	74.06
236.519	76.06
236.753	75.06
236.987	76.06
237.221	83.06
237.455	78.06
237.689	78.06
237.922	84.06
238.156	81.06
238.39	75.06
238.624	77.06
238.858	67.06
239.091	80.06
239.325	76.06
239.559	75.06
239.793	71.06
240.027	84.06
240.26	76.06
240.494	84.06
240.728	86.06
240.961	70.06
241.195	72.06
241.429	72.06
241.662	75.06
241.896	83.06
242.13	74.06
242.363	68.06
242.597	82.06
242.83	76.06
243.064	65.06
243.298	66.06
243.531	80.06
243.765	92.06
243.998	89.06
244.232	75.06
244.465	84.06
244.699	67.06
244.932	72.06
245.166	81.06
245.399	83.06
245.633	81.06
245.866	87.06
246.099	90.06
246.333	90.06
246.566	51.06
246.8	68.06
247.033	74.06
247.266	76.06
247.5	72.06
247.733	71.06
247.966	67.06
248.2	75.06
248.433	71.06
248.666	72.06
248.899	77.06
249.133	77.06
249.366	72.06
249.599	81.06
249.832	72.06
250.066	72.06
250.299	88.06
250.532	74.06
250.765	67.06
250.998	75.06
251.231	61.06
251.465	65.06
251.698	87.06
251.931	72.06
252.164	86.06
252.397	72.06
252.63	85.06
252.863	82.06
253.096	86.06
253.329	72.06
253.562	79.06
253.795	62.06
254.028	79.06
254.261	67.06
254.494	73.06
254.727	73.06
254.96	76.06
255.193	74.06
255.426	67.06
255.659	77.06
255.892	84.06
256.124	76.06
256.357	69.06
256.59	88.06
256.823	76.06
257.056	90.06
257.289	91.06
257.521	76.06
257.754	81.06
257.987	79.06
258.22	73.06
258.452	82.06
258.685	92.06
258.918	85.06
259.151	88.06
259.383	75.06
259.616	75.06
259.849	96.06
260.081	78.06
260.314	74.06
260.547	68.06
260.779	90.06
261.012	81.06
261.244	73.06
261.477	82.06
261.71	72.06
261.942	75.06
262.175	69.06
262.407	83.06
262.64	85.06
262.872	71.06
263.105	74.06
263.337	86.06
263.57	72.06
263.802	82.06
264.035	91.06
264.267	81.06
264.499	86.06
264.732	84.06
264.964	95.06
265.197	89.06
265.429	78.06
265.661	74.06
265.894	65.06
266.126	90.06
266.358	107.06
266.591	76.06
266.823	77.06
267.055	78.06
267.287	86.06
267.52	82.06
267.752	73.06
267.984	85.06
268.216	66.06
268.448	90.06
268.681	72.06
268.913	84.06
269.145	87.06
269.377	88.06
269.609	76.06
269.841	72.06
270.073	68.06
270.306	88.06
270.538	90.06
270.77	76.06
271.002	70.06
271.234	79.06
271.466	77.06
271.698	94.06
271.93	75.06
272.162	71.06
272.394	74.06
272.626	74.06
272.858	74.06
273.09	86.06
273.322	85.06
273.553	71.06
273.785	82.06
274.017	77.06
274.249	75.06
274.481	85.06
274.713	98.06
274.945	87.06
275.176	87.06
275.408	75.06
275.64	84.06
275.872	97.06
276.104	88.06
276.335	80.06
276.567	78.06
276.799	86.06
277.031	63.06
277.262	77.06
277.494	77.06
277.726	78.06
277.957	88.06
278.189	80.06
278.421	64.06
278.652	84.06
278.884	84.06
279.115	73.06
279.347	81.06
279.579	63.06
279.81	73.06
280.042	84.06
280.273	79.06
280.505	75.06
280.736	89.06
280.968	90.06
281.199	79.06
281.431	84.06
281.662	87.06
281.894	83.06
282.125	75.06
282.356	82.06
282.588	72.06
282.819	81.06
283.051	88.06
283.282	82.06
283.513	78.06
283.745	80.06
283.976	99.06
284.207	88.06
284.439	96.06
284.67	98.06
284.901	100.06
285.132	90.06
285.364	86.06
285.595	79.06
285.826	96.06
286.057	77.06
286.288	76.06
286.52	93.06
286.751	74.06
286.982	81.06
287.213	81.06
287.444	71.06
287.675	83.06
287.906	83.06
288.138	83.06
288.369	65.06
288.6	74.06
288.831	92.06
289.062	69.06
289.293	82.06
289.524	89.06
289.755	103.06
289.986	88.06
290.217	82.06
290.448	80.06
290.679	90.06
290.91	84.06
291.141	90.06
291.371	82.06
291.602	85.06
291.833	82.06
292.064	86.06
292.295	73.06
292.526	85.06
292.757	84.06
292.987	87.06
293.218	80.06
293.449	96.06
293.68	86.06
293.91	86.06
294.141	82.06
294.372	83.06
294.603	76.06
294.833	83.06
295.064	82.06
295.295	80.06
295.525	79.06
295.756	82.06
295.987	83.06
296.217	98.06
296.448	86.06
296.679	89.06
296.909	91.06
297.14	88.06
297.37	88.06
297.601	72.06
297.831	89.06
298.062	87.06
298.292	89.06
298.523	95.06
298.753	85.06
298.984	89.06
299.214	81.06
299.445	91.06
299.675	85.06
299.905	85.06
300.136	90.06
300.366	76.06
300.597	70.06
300.827	81.06
301.057	87.06
301.288	81.06
301.518	76.06
301.748	89.06
301.979	86.06
302.209	85.06
302.439	82.06
302.669	81.06
302.9	81.06
303.13	75.06
303.36	83.06
303.59	75.06
303.82	80.06
304.051	95.06
304.281	81.06
304.511	83.06
304.741	84.06
304.971	92.06
305.201	76.06
305.431	76.06
305.661	76.06
305.891	88.06
306.121	81.06
306.352	85.06
306.582	75.06
306.812	75.06
307.042	90.06
307.272	83.06
307.502	84.06
307.731	90.06
307.961	86.06
308.191	90.06
308.421	76.06
308.651	88.06
308.881	89.06
309.111	76.06
309.341	87.06
309.571	86.06
309.8	96.06
310.03	82.06
310.26	91.06
310.49	98.06
310.72	84.06
310.949	72.06
311.179	84.06
311.409	82.06
311.639	94.06
311.868	94.06
312.098	89.06
312.328	88.06
312.557	74.06
312.787	81.06
313.017	80.06
313.246	96.06
313.476	68.06
313.706	75.06
313.935	78.06
314.165	76.06
314.394	75.06
314.624	92.06
314.853	87.06
315.083	80.06
315.312	68.06
315.542	80.06
315.771	84.06
316.001	75.06
316.23	68.06
316.46	91.06
316.689	102.06
316.919	63.06
317.148	88.06
317.377	89.06
317.607	98.06
317.836	91.06
318.065	100.06
318.295	83.06
318.524	85.06
318.753	76.06
318.983	76.06
319.212	103.06
319.441	81.06
319.67	80.06
319.9	84.06
320.129	76.06
320.358	76.06
320.587	90.06
320.816	66.06
321.046	92.06
321.275	94.06
321.504	81.06
321.733	88.06
321.962	88.06
322.191	76.06
322.42	89.06
322.649	84.06
322.878	79.06
323.108	84.06
323.337	86.06
323.566	66.06
323.795	75.06
324.024	84.06
324.253	82.06
324.482	85.06
324.71	80.06
324.939	91.06
325.168	96.06
325.397	77.06
325.626	98.06
325.855	85.06
326.084	82.06
326.313	77.06
326.542	78.06
326.77	67.06
326.999	86.06
327.228	80.06
327.457	83.06
327.686	84.06
327.914	83.06
328.143	93.06
328.372	87.06
328.6	90.06
328.829	77.06
329.058	90.06
329.287	81.06
329.515	92.06
329.744	95.06
329.972	68.06
330.201	94.06
330.43	63.06
330.658	87.06
330.887	95.06
331.115	87.06
331.344	75.06
331.572	89.06
331.801	96.06
332.03	73.06
332.258	82.06
332.486	87.06
332.715	98.06
332.943	82.06
333.172	80.06
333.4	83.06
333.629	81.06
333.857	86.06
334.085	95.06
334.314	86.06
334.542	66.06
334.771	78.06
334.999	90.06
335.227	85.06
335.455	90.06
335.684	79.06
335.912	82.06
336.14	75.06
336.369	73.06
336.597	65.06
336.825	90.06
337.053	85.06
337.281	87.06
337.51	85.06
337.738	83.06
337.966	81.06
338.194	93.06
338.422	74.06
338.65	85.06
338.878	87.06
339.106	88.06
339.334	87.06
339.562	90.06
339.79	89.06
340.018	84.06
340.246	86.06
340.474	82.06
340.702	86.06
340.93	94.06
341.158	65.06
341.386	90.06
341.614	86.06
341.842	80.06
342.07	86.06
342.298	75.06
342.526	89.06
342.754	81.06
342.981	87.06
343.209	82.06
343.437	79.06
343.665	87.06
343.893	83.06
344.12	93.06
344.348	88.06
344.576	71.06
344.804	92.06
345.031	62.06
345.259	74.06
345.487	83.06
345.714	81.06
345.942	80.06
346.17	71.06
346.397	74.06
346.625	85.06
346.853	83.06
347.08	89.06
347.308	87.06
347.535	74.06
347.763	76.06
347.99	83.06
348.218	79.06
348.445	86.06
348.673	92.06
348.9	82.06
349.128	84.06
349.355	91.06
349.583	83.06
349.81	77.06
350.037	76.06
350.265	76.06
350.492	84.06
350.72	70.06
350.947	77.06
351.174	86.06
351.402	81.06
351.629	87.06
351.856	91.06
352.083	90.06
352.311	84.06
352.538	74.06
352.765	78.06
352.992	79.06
353.22	85.06
353.447	92.06
353.674	93.06
353.901	92.06
354.128	86.06
354.355	74.06
354.583	63.06
354.81	82.06
355.037	74.06
355.264	90.06
355.491	74.06
355.718	89.06
355.945	75.06
356.172	81.06
356.399	68.06
356.626	91.06
356.853	69.06
357.08	89.06
357.307	90.06
357.534	86.06
357.761	84.06
357.988	79.06
358.215	71.06
358.441	83.06
358.668	79.06
358.895	93.06
359.122	75.06
359.349	76.06
359.576	94.06
359.802	102.06
360.029	90.06
360.256	94.06
360.483	82.06
360.709	72.06
360.936	92.06
361.163	77.06
361.39	76.06
361.616	89.06
361.843	63.06
362.07	74.06
362.296	79.06
362.523	93.06
362.749	76.06
362.976	89.06
363.203	74.06
363.429	88.06
363.656	92.06
363.882	97.06
364.109	91.06
364.335	79.06
364.562	91.06
364.788	80.06
365.015	96.06
365.241	83.06
365.468	96.06
365.694	88.06
365.92	83.06
366.147	83.06
366.373	94.06
366.599	96.06
366.826	87.06
367.052	87.06
367.278	84.06
367.505	85.06
367.731	80.06
367.957	80.06
368.184	74.06
368.41	80.06
368.636	94.06
368.862	88.06
369.089	96.06
369.315	99.06
369.541	88.06
369.767	79.06
369.993	87.06
370.219	83.06
370.445	84.06
370.672	82.06
370.898	79.06
371.124	80.06
371.35	95.06
371.576	87.06
371.802	88.06
372.028	90.06
372.254	85.06
372.48	92.06
372.706	96.06
372.932	79.06
373.158	97.06
373.384	88.06
373.61	96.06
373.835	89.06
374.061	84.06
374.287	85.06
374.513	91.06
374.739	78.06
374.965	88.06
375.191	76.06
375.416	74.06
375.642	95.06
375.868	88.06
376.094	91.06
376.319	81.06
376.545	97.06
376.771	86.06
376.997	85.06
377.222	96.06
377.448	91.06
377.674	94.06
377.899	86.06
378.125	88.06
378.35	100.06
378.576	99.06
378.802	80.06
379.027	91.06
379.253	92.06
379.478	88.06
379.704	101.06
379.929	80.06
380.155	111.06
380.38	83.06
380.606	88.06
380.831	101.06
381.057	108.06
381.282	84.06
381.507	97.06
381.733	83.06
381.958	96.06
382.184	88.06
382.409	88.06
382.634	94.06
382.86	106.06
383.085	99.06
383.31	96.06
383.535	102.06
383.761	108.06
383.986	99.06
384.211	92.06
384.436	90.06
384.662	93.06
384.887	95.06
385.112	91.06
385.337	97.06
385.562	91.06
385.787	90.06
386.013	99.06
386.238	99.06
386.463	90.06
386.688	90.06
386.913	102.06
387.138	85.06
387.363	98.06
387.588	89.06
387.813	100.06
388.038	100.06
388.263	97.06
388.488	93.06
388.713	102.06
388.938	95.06
389.163	95.06
389.387	99.06
389.612	87.06
389.837	96.06
390.062	107.06
390.287	101.06
390.512	102.06
390.736	112.06
390.961	99.06
391.186	107.06
391.411	94.06
391.636	93.06
391.86	102.06
392.085	102.06
392.31	89.06
392.534	103.06
392.759	101.06
392.984	101.06
393.208	90.06
393.433	84.06
393.658	103.06
393.882	119.06
394.107	103.06
394.331	104.06
394.556	116.06
394.78	95.06
395.005	97.06
395.229	109.06
395.454	106.06
395.678	102.06
395.903	114.06
396.127	105.06
396.352	101.06
396.576	106.06
396.801	86.06
397.025	103.06
397.249	119.06
397.474	108.06
397.698	105.06
397.922	110.06
398.147	115.06
398.371	111.06
398.595	95.06
398.82	110.06
399.044	103.06
399.268	92.06
399.492	111.06
399.717	98.06
399.941	96.06
400.165	112.06
400.389	122.06
400.613	120.06
400.837	101.06
401.062	101.06
401.286	106.06
401.51	112.06
401.734	95.06
401.958	114.06
402.182	97.06
402.406	94.06
402.63	101.06
402.854	118.06
403.078	111.06
403.302	82.06
403.526	107.06
403.75	118.06
403.974	102.06
404.198	110.06
404.422	111.06
404.645	112.06
404.869	126.06
405.093	102.06
405.317	126.06
405.541	133.06
405.765	111.06
405.988	119.06
406.212	101.06
406.436	128.06
406.66	122.06
406.883	116.06
407.107	116.06
407.331	100.06
407.555	102.06
407.778	101.06
408.002	124.06
408.226	114.06
408.449	103.06
408.673	106.06
408.896	110.06
409.12	104.06
409.344	121.06
409.567	91.06
409.791	102.06
410.014	119.06
410.238	118.06
410.461	110.06
410.685	128.06
410.908	126.06
411.132	118.06
411.355	123.06
411.578	120.06
411.802	104.06
412.025	121.06
412.249	115.06
412.472	119.06
412.695	95.06
412.919	98.06
413.142	134.06
413.365	136.06
413.589	123.06
413.812	130.06
414.035	121.06
414.258	122.06
414.482	111.06
414.705	107.06
414.928	113.06
415.151	130.06
415.374	126.06
415.597	127.06
415.821	137.06
416.044	139.06
416.267	117.06
416.49	131.06
416.713	113.06
416.936	129.06
417.159	119.06
417.382	122.06
417.605	113.06
417.828	117.06
418.051	122.06
418.274	137.06
418.497	137.06
418.72	122.06
418.943	138.06
419.166	131.06
419.389	134.06
419.611	138.06
419.834	127.06
420.057	106.06
420.28	124.06
420.503	138.06
420.726	138.06
420.948	128.06
421.171	124.06
421.394	134.06
421.617	128.06
421.839	129.06
422.062	136.06
422.285	124.06
422.507	131.06
422.73	118.06
422.953	121.06
423.175	130.06
423.398	122.06
423.621	139.06
423.843	136.06
424.066	130.06
424.288	135.06
424.511	129.06
424.733	145.06
424.956	139.06
425.178	123.06
425.401	130.06
425.623	130.06
425.846	112.06
426.068	136.06
426.291	127.06
426.513	143.06
426.735	127.06
426.958	119.06
427.18	121.06
427.402	135.06
427.625	108.06
427.847	112.06
428.069	118.06
428.292	130.06
428.514	124.06
428.736	126.06
428.958	116.06
429.181	119.06
429.403	132.06
429.625	115.06
429.847	128.06
430.069	116.06
430.292	126.06
430.514	121.06
430.736	118.06
430.958	126.06
431.18	135.06
431.402	100.06
431.624	98.06
431.846	110.06
432.068	102.06
432.29	83.06
432.512	100.06
432.734	123.06
432.956	113.06
433.178	139.06
433.4	125.06
433.622	126.06
433.844	128.06
434.066	121.06
434.287	95.06
434.509	96.06
434.731	112.06
434.953	118.06
435.175	116.06
435.397	116.06
435.618	104.06
435.84	114.06
436.062	122.06
436.284	114.06
436.505	126.06
436.727	119.06
436.949	124.06
437.17	126.06
437.392	134.06
437.614	119.06
437.835	113.06
438.057	118.06
438.278	111.06
438.5	113.06
438.721	126.06
438.943	139.06
439.165	129.06
439.386	143.06
439.608	149.06
439.829	140.06
440.05	138.06
440.272	131.06
440.493	145.06
440.715	135.06
440.936	137.06
441.158	152.06
441.379	146.06
441.6	134.06
441.822	151.06
442.043	141.06
442.264	129.06
442.486	110.06
442.707	126.06
442.928	116.06
443.149	144.06
443.371	134.06
443.592	131.06
443.813	138.06
444.034	141.06
444.255	147.06
444.476	140.06
444.698	133.06
444.919	140.06
445.14	264.06
445.361	191.06
445.582	147.06
445.803	146.06
446.024	144.06
446.245	143.06
446.466	156.06
446.687	151.06
446.908	149.06
447.129	146.06
447.35	139.06
447.571	138.06
447.792	141.06
448.013	120.06
448.234	136.06
448.455	138.06
448.675	126.06
448.896	139.06
449.117	128.06
449.338	128.06
449.559	134.06
449.779	121.06
450	133.06
450.221	134.06
450.442	123.06
450.662	128.06
450.883	130.06
451.104	127.06
451.324	120.06
451.545	141.06
451.766	124.06
451.986	135.06
452.207	112.06
452.428	118.06
452.648	105.06
452.869	113.06
453.089	112.06
453.31	114.06
453.53	115.06
453.751	101.06
453.971	102.06
454.192	121.06
454.412	96.06
454.633	108.06
454.853	116.06
455.073	131.06
455.294	116.06
455.514	124.06
455.734	102.06
455.955	106.06
456.175	113.06
456.395	115.06
456.616	97.06
456.836	115.06
457.056	112.06
457.276	110.06
457.497	99.06
457.717	90.06
457.937	98.06
458.157	91.06
458.377	98.06
458.598	102.06
458.818	97.06
459.038	87.06
459.258	84.06
459.478	90.06
459.698	117.06
459.918	90.06
460.138	91.06
460.358	106.06
460.578	112.06
460.798	105.06
461.018	107.06
461.238	118.06
461.458	118.06
461.678	113.06
461.898	101.06
462.118	126.06
462.338	104.06
462.558	130.06
462.777	101.06
462.997	104.06
463.217	114.06
463.437	93.06
463.657	118.06
463.876	117.06
464.096	111.06
464.316	101.06
464.536	108.06
464.755	106.06
464.975	106.06
465.195	106.06
465.414	119.06
465.634	110.06
465.854	121.06
466.073	117.06
466.293	115.06
466.512	113.06
466.732	119.06
466.951	139.06
467.171	131.06
467.391	127.06
467.61	128.06
467.829	135.06
468.049	135.06
468.268	124.06
468.488	113.06
468.707	133.06
468.927	129.06
469.146	128.06
469.365	149.06
469.585	151.06
469.804	140.06
470.023	137.06
470.243	140.06
470.462	138.06
470.681	145.06
470.901	132.06
471.12	137.06
471.339	140.06
471.558	133.06
471.777	134.06
471.997	119.06
472.216	124.06
472.435	109.06
472.654	116.06
472.873	104.06
473.092	120.06
473.311	103.06
473.53	126.06
473.749	119.06
473.968	129.06
474.187	122.06
474.406	120.06
474.625	122.06
474.844	114.06
475.063	114.06
475.282	123.06
475.501	112.06
475.72	105.06
475.939	121.06
476.158	103.06
476.377	116.06
476.596	130.06
476.814	102.06
477.033	103.06
477.252	118.06
477.471	115.06
477.69	126.06
477.908	132.06
478.127	136.06
478.346	120.06
478.564	138.06
478.783	142.06
479.002	117.06
479.22	138.06
479.439	118.06
479.658	132.06
479.876	115.06
480.095	104.06
480.313	106.06
480.532	121.06
480.751	120.06
480.969	100.06
481.188	101.06
481.406	75.06
481.624	83.06
481.843	104.06
482.061	87.06
482.28	100.06
482.498	125.06
482.717	105.06
482.935	118.06
483.153	143.06
483.372	152.06
483.59	145.06
483.808	137.06
484.027	136.06
484.245	134.06
484.463	135.06
484.681	153.06
484.9	138.06
485.118	139.06
485.336	126.06
485.554	101.06
485.772	80.06
485.99	104.06
486.209	112.06
486.427	104.06
486.645	120.06
486.863	141.06
487.081	139.06
487.299	118.06
487.517	142.06
487.735	167.06
487.953	165.06
488.171	185.06
488.389	160.06
488.607	160.06
488.825	139.06
489.043	132.06
489.261	129.06
489.479	136.06
489.696	139.06
489.914	152.06
490.132	132.06
490.35	151.06
490.568	163.06
490.786	158.06
491.003	163.06
491.221	155.06
491.439	183.06
491.657	175.06
491.874	191.06
492.092	193.06
492.31	229.06
492.527	224.06
492.745	210.06
492.963	201.06
493.18	155.06
493.398	167.06
493.615	169.06
493.833	171.06
494.05	159.06
494.268	182.06
494.485	182.06
494.703	156.06
494.92	170.06
495.138	146.06
495.355	171.06
495.573	168.06
495.79	169.06
496.008	163.06
496.225	161.06
496.442	152.06
496.66	164.06
496.877	160.06
497.094	164.06
497.312	150.06
497.529	140.06
497.746	154.06
497.963	143.06
498.181	139.06
498.398	112.06
498.615	108.06
498.832	125.06
499.049	126.06
499.267	125.06
499.484	112.06
499.701	132.06
499.918	130.06
500.135	131.06
500.352	145.06
500.569	136.06
500.786	140.06
501.003	138.06
501.22	141.06
501.437	126.06
501.654	123.06
501.871	119.06
502.088	123.06
502.305	124.06
502.522	124.06
502.739	119.06
502.956	127.06
503.172	120.06
503.389	110.06
503.606	117.06
503.823	113.06
504.04	114.06
504.256	124.06
504.473	120.06
504.69	120.06
504.907	115.06
505.123	125.06
505.34	115.06
505.557	118.06
505.773	99.06
505.99	127.06
506.207	106.06
506.423	141.06
506.64	121.06
506.856	115.06
507.073	118.06
507.289	117.06
507.506	111.06
507.722	112.06
507.939	115.06
508.155	124.06
508.372	122.06
508.588	111.06
508.805	120.06
509.021	117.06
509.238	112.06
509.454	112.06
509.67	101.06
509.887	80.06
510.103	99.06
510.319	90.06
510.536	94.06
510.752	86.06
510.968	82.06
511.184	85.06
511.401	71.06
511.617	83.06
511.833	80.06
512.049	76.06
512.265	86.06
512.481	87.06
512.698	100.06
512.914	95.06
513.13	87.06
513.346	86.06
513.562	96.06
513.778	94.06
513.994	77.06
514.21	100.06
514.426	100.06
514.642	88.06
514.858	96.06
515.074	97.06
515.29	97.06
515.506	85.06
515.721	79.06
515.937	80.06
516.153	85.06
516.369	80.06
516.585	83.06
516.801	87.06
517.016	97.06
517.232	90.06
517.448	103.06
517.664	95.06
517.879	91.06
518.095	99.06
518.311	92.06
518.527	81.06
518.742	89.06
518.958	102.06
519.173	120.06
519.389	110.06
519.605	103.06
519.82	116.06
520.036	116.06
520.251	98.06
520.467	98.06
520.682	96.06
520.898	86.06
521.113	78.06
521.329	85.06
521.544	94.06
521.76	86.06
521.975	91.06
522.19	105.06
522.406	97.06
522.621	110.06
522.836	106.06
523.052	99.06
523.267	104.06
523.482	104.06
523.698	105.06
523.913	111.06
524.128	102.06
524.343	107.06
524.559	112.06
524.774	122.06
524.989	105.06
525.204	110.06
525.419	105.06
525.634	104.06
525.849	95.06
526.064	100.06
526.28	114.06
526.495	75.06
526.71	97.06
526.925	71.06
527.14	69.06
527.355	74.06
527.57	89.06
527.785	90.06
527.999	102.06
528.214	86.06
528.429	97.06
528.644	129.06
528.859	136.06
529.074	158.06
529.289	147.06
529.503	147.06
529.718	137.06
529.933	125.06
530.148	99.06
530.363	92.06
530.577	81.06
530.792	79.06
531.007	87.06
531.221	88.06
531.436	83.06
531.651	87.06
531.865	94.06
532.08	71.06
532.295	82.06
532.509	73.06
532.724	78.06
532.938	68.06
533.153	92.06
533.367	111.06
533.582	127.06
533.796	127.06
534.011	116.06
534.225	101.06
534.44	102.06
534.654	83.06
534.868	102.06
535.083	82.06
535.297	93.06
535.511	94.06
535.726	106.06
535.94	99.06
536.154	96.06
536.369	90.06
536.583	88.06
536.797	98.06
537.011	78.06
537.225	84.06
537.44	86.06
537.654	74.06
537.868	70.06
538.082	86.06
538.296	90.06
538.51	112.06
538.724	112.06
538.938	119.06
539.153	125.06
539.367	120.06
539.581	107.06
539.795	96.06
540.009	100.06
540.222	84.06
540.436	102.06
540.65	119.06
540.864	112.06
541.078	137.06
541.292	146.06
541.506	155.06
541.72	163.06
541.934	192.06
542.147	197.06
542.361	178.06
542.575	161.06
542.789	151.06
543.002	115.06
543.216	124.06
543.43	127.06
543.644	127.06
543.857	144.06
544.071	163.06
544.285	151.06
544.498	142.06
544.712	152.06
544.925	171.06
545.139	150.06
545.352	134.06
545.566	142.06
545.779	149.06
545.993	164.06
546.206	160.06
546.42	155.06
546.633	146.06
546.847	156.06
547.06	167.06
547.274	160.06
547.487	160.06
547.7	170.06
547.914	153.06
548.127	160.06
548.34	164.06
548.554	162.06
548.767	163.06
548.98	158.06
549.193	142.06
549.407	146.06
549.62	147.06
549.833	142.06
550.046	133.06
550.259	141.06
550.473	147.06
550.686	158.06
550.899	138.06
551.112	144.06
551.325	141.06
551.538	141.06
551.751	123.06
551.964	122.06
552.177	133.06
552.39	122.06
552.603	136.06
552.816	143.06
553.029	128.06
553.242	146.06
553.455	146.06
553.667	157.06
553.88	149.06
554.093	146.06
554.306	144.06
554.519	144.06
554.732	137.06
554.944	151.06
555.157	122.06
555.37	149.06
555.583	141.06
555.795	138.06
556.008	124.06
556.221	123.06
556.433	131.06
556.646	135.06
556.859	135.06
557.071	138.06
557.284	132.06
557.496	128.06
557.709	137.06
557.921	145.06
558.134	135.06
558.346	143.06
558.559	121.06
558.771	134.06
558.984	135.06
559.196	133.06
559.409	135.06
559.621	121.06
559.833	122.06
560.046	129.06
560.258	127.06
560.47	136.06
560.683	129.06
560.895	124.06
561.107	120.06
561.32	103.06
561.532	126.06
561.744	138.06
561.956	126.06
562.168	123.06
562.381	126.06
562.593	131.06
562.805	106.06
563.017	134.06
563.229	130.06
563.441	117.06
563.653	120.06
563.865	132.06
564.077	123.06
564.289	123.06
564.501	125.06
564.713	121.06
564.925	120.06
565.137	119.06
565.349	113.06
565.561	128.06
565.773	126.06
565.985	121.06
566.197	103.06
566.408	116.06
566.62	111.06
566.832	100.06
567.044	101.06
567.255	123.06
567.467	115.06
567.679	109.06
567.891	105.06
568.102	96.06
568.314	103.06
568.526	99.06
568.737	107.06
568.949	98.06
569.161	92.06
569.372	90.06
569.584	87.06
569.795	86.06
570.007	85.06
570.218	87.06
570.43	90.06
570.641	90.06
570.853	89.06
571.064	102.06
571.276	110.06
571.487	108.06
571.698	99.06
571.91	84.06
572.121	94.06
572.333	94.06
572.544	102.06
572.755	102.06
572.966	98.06
573.178	88.06
573.389	76.06
573.6	78.06
573.811	82.06
574.023	71.06
574.234	81.06
574.445	82.06
574.656	90.06
574.867	93.06
575.078	88.06
575.289	88.06
575.501	88.06
575.712	80.06
575.923	98.06
576.134	95.06
576.345	99.06
576.556	100.06
576.767	95.06
576.978	103.06
577.188	103.06
577.399	100.06
577.61	86.06
577.821	93.06
578.032	84.06
578.243	86.06
578.454	86.06
578.665	92.06
578.875	91.06
579.086	92.06
579.297	95.06
579.508	84.06
579.718	80.06
579.929	80.06
580.14	85.06
580.35	82.06
580.561	92.06
580.772	81.06
580.982	89.06
581.193	84.06
581.403	102.06
581.614	97.06
581.825	81.06
582.035	97.06
582.246	85.06
582.456	84.06
582.667	100.06
582.877	89.06
583.087	83.06
583.298	92.06
583.508	92.06
583.719	96.06
583.929	91.06
584.139	76.06
584.35	80.06
584.56	85.06
584.77	80.06
584.981	75.06
585.191	81.06
585.401	88.06
585.611	92.06
585.821	85.06
586.032	82.06
586.242	86.06
586.452	96.06
586.662	78.06
586.872	94.06
587.082	82.06
587.292	93.06
587.502	85.06
587.713	87.06
587.923	85.06
588.133	98.06
588.343	81.06
588.553	89.06
588.762	91.06
588.972	86.06
589.182	91.06
589.392	97.06
589.602	84.06
589.812	74.06
590.022	74.06
590.232	76.06
590.441	76.06
590.651	89.06
590.861	85.06
591.071	89.06
591.281	79.06
591.49	79.06
591.7	89.06
591.91	82.06
592.119	78.06
592.329	96.06
592.539	82.06
592.748	72.06
592.958	73.06
593.167	70.06
593.377	80.06
593.587	94.06
593.796	82.06
594.006	95.06
594.215	79.06
594.424	89.06
594.634	90.06
594.843	90.06
595.053	89.06
595.262	100.06
595.472	93.06
595.681	94.06
595.89	83.06
596.1	86.06
596.309	78.06
596.518	91.06
596.727	97.06
596.937	98.06
597.146	82.06
597.355	99.06
597.564	82.06
597.774	86.06
597.983	92.06
598.192	86.06
598.401	92.06
598.61	74.06
598.819	82.06
599.028	100.06
599.237	96.06
599.446	76.06
599.655	95.06
599.864	95.06
600.073	93.06
600.282	97.06
600.491	91.06
600.7	83.06
600.909	88.06
601.118	93.06
601.327	120.06
601.536	106.06
601.745	110.06
601.953	95.06
602.162	101.06
602.371	105.06
602.58	104.06
602.789	91.06
602.997	103.06
603.206	116.06
603.415	107.06
603.623	122.06
603.832	109.06
604.041	111.06
604.249	97.06
604.458	89.06
604.666	83.06
604.875	99.06
605.084	90.06
605.292	107.06
605.501	103.06
605.709	108.06
605.918	115.06
606.126	115.06
606.334	120.06
606.543	106.06
606.751	114.06
606.96	108.06
607.168	106.06
607.376	95.06
607.585	125.06
607.793	117.06
608.001	118.06
608.21	121.06
608.418	118.06
608.626	103.06
608.834	115.06
609.043	120.06
609.251	115.06
609.459	106.06
609.667	120.06
609.875	118.06
610.083	122.06
610.291	109.06
610.499	104.06
610.707	120.06
610.916	104.06
611.124	105.06
611.332	96.06
611.54	105.06
611.748	116.06
611.955	107.06
612.163	105.06
612.371	120.06
612.579	103.06
612.787	103.06
612.995	92.06
613.203	135.06
613.411	114.06
613.618	112.06
613.826	109.06
614.034	108.06
614.242	97.06
614.449	103.06
614.657	108.06
614.865	117.06
615.072	104.06
615.28	103.06
615.488	113.06
615.695	100.06
615.903	89.06
616.111	106.06
616.318	109.06
616.526	103.06
616.733	106.06
616.941	116.06
617.148	106.06
617.356	104.06
617.563	106.06
617.771	102.06
617.978	113.06
618.185	108.06
618.393	102.06
618.6	107.06
618.807	117.06
619.015	99.06
619.222	106.06
619.429	99.06
619.637	93.06
619.844	97.06
620.051	91.06
620.258	89.06
620.466	109.06
620.673	104.06
620.88	100.06
621.087	108.06
621.294	89.06
621.501	108.06
621.708	116.06
621.915	106.06
622.122	101.06
622.329	95.06
622.536	99.06
622.743	103.06
622.95	107.06
623.157	107.06
623.364	110.06
623.571	90.06
623.778	90.06
623.985	108.06
624.192	107.06
624.399	104.06
624.606	117.06
624.812	107.06
625.019	110.06
625.226	113.06
625.433	106.06
625.639	106.06
625.846	97.06
626.053	97.06
626.259	90.06
626.466	103.06
626.673	91.06
626.879	91.06
627.086	86.06
627.293	114.06
627.499	94.06
627.706	97.06
627.912	94.06
628.119	96.06
628.325	108.06
628.532	95.06
628.738	91.06
628.945	110.06
629.151	93.06
629.357	108.06
629.564	107.06
629.77	117.06
629.976	97.06
630.183	107.06
630.389	100.06
630.595	104.06
630.802	114.06
631.008	101.06
631.214	114.06
631.42	95.06
631.627	95.06
631.833	90.06
632.039	86.06
632.245	103.06
632.451	108.06
632.657	112.06
632.863	93.06
633.069	88.06
633.275	103.06
633.481	94.06
633.688	101.06
633.893	92.06
634.099	83.06
634.305	91.06
634.511	100.06
634.717	99.06
634.923	99.06
635.129	113.06
635.335	106.06
635.541	94.06
635.747	96.06
635.952	97.06
636.158	111.06
636.364	113.06
636.57	87.06
636.775	85.06
636.981	89.06
637.187	98.06
637.392	95.06
637.598	96.06
637.804	91.06
638.009	93.06
638.215	93.06
638.421	100.06
638.626	88.06
638.832	105.06
639.037	92.06
639.243	91.06
639.448	96.06
639.654	108.06
639.859	111.06
640.065	105.06
640.27	93.06
640.475	95.06
640.681	100.06
640.886	88.06
641.091	99.06
641.297	96.06
641.502	99.06
641.707	107.06
641.913	94.06
642.118	95.06
642.323	92.06
642.528	115.06
642.733	112.06
642.939	111.06
643.144	98.06
643.349	103.06
643.554	89.06
643.759	90.06
643.964	107.06
644.169	98.06
644.374	91.06
644.579	106.06
644.784	108.06
644.989	110.06
645.194	97.06
645.399	85.06
645.604	95.06
645.809	104.06
646.014	103.06
646.219	104.06
646.423	95.06
646.628	99.06
646.833	85.06
647.038	106.06
647.243	94.06
647.447	98.06
647.652	91.06
647.857	87.06
648.062	93.06
648.266	100.06
648.471	110.06
648.676	103.06
648.88	105.06
649.085	91.06
649.289	89.06
649.494	95.06
649.698	98.06
649.903	97.06
650.107	95.06
650.312	89.06
650.516	82.06
650.721	76.06
650.925	90.06
651.13	94.06
651.334	91.06
651.539	99.06
651.743	88.06
651.947	100.06
652.152	80.06
652.356	92.06
652.56	99.06
652.764	101.06
652.969	102.06
653.173	98.06
653.377	89.06
653.581	83.06
653.785	89.06
653.99	91.06
654.194	87.06
654.398	98.06
654.602	83.06
654.806	91.06
655.01	78.06
655.214	78.06
655.418	89.06
655.622	91.06
655.826	91.06
656.03	95.06
656.234	84.06
656.438	78.06
656.642	81.06
656.846	88.06
657.049	104.06
657.253	90.06
657.457	92.06
657.661	82.06
657.865	64.06
658.068	76.06
658.272	79.06
658.476	86.06
658.68	77.06
658.883	76.06
659.087	79.06
659.291	101.06
659.494	82.06
659.698	86.06
659.901	85.06
660.105	88.06
660.309	81.06
660.512	75.06
660.716	79.06
660.919	78.06
661.123	77.06
661.326	83.06
661.53	93.06
661.733	82.06
661.936	98.06
662.14	77.06
662.343	100.06
662.546	89.06
662.75	86.06
662.953	79.06
663.156	82.06
663.36	77.06
663.563	79.06
663.766	68.06
663.969	87.06
664.173	87.06
664.376	87.06
664.579	80.06
664.782	80.06
664.985	67.06
665.188	70.06
665.391	82.06
665.594	81.06
665.797	97.06
666	90.06
666.203	90.06
666.406	91.06
666.609	83.06
666.812	77.06
667.015	98.06
667.218	68.06
667.421	80.06
667.624	72.06
667.827	72.06
668.03	86.06
668.232	86.06
668.435	83.06
668.638	76.06
668.841	76.06
669.043	75.06
669.246	84.06
669.449	81.06
669.651	71.06
669.854	75.06
670.057	78.06
670.259	90.06
670.462	90.06
670.665	74.06
670.867	77.06
671.07	82.06
671.272	81.06
671.475	87.06
671.677	83.06
671.88	96.06
672.082	74.06
672.284	66.06
672.487	72.06
672.689	68.06
672.892	75.06
