Data from Location4.07152019.Energy5.Lamp.07192019.3%Agarose_HRD10591_16-18-21-928.txt Node
Date: Fri Jul 19 16:18:21 EDT 2019
User: cochatt
Spectrometer: HR+D1059
Trigger mode: 1
Integration Time (sec): 1.000000E-1
Scans to average: 1
Electric dark correction enabled: true
Nonlinearity correction enabled: false
Boxcar width: 0
XAxis mode: Wavelengths
Number of Pixels in Spectrum: 2048
>>>>>Begin Spectral Data<<<<<
223.165	-12.94
223.4	-12.94
223.635	-12.94
223.869	-15.94
224.104	-14.94
224.338	-8.94
224.573	-3.94
224.808	-1.94
225.042	-24.94
225.277	-0.94
225.511	7.06
225.746	-5.94
225.98	0.06
226.215	6.06
226.449	21.06
226.683	21.06
226.918	18.06
227.152	17.06
227.387	35.06
227.621	45.06
227.856	49.06
228.09	53.06
228.324	52.06
228.559	62.06
228.793	64.06
229.027	57.06
229.262	67.06
229.496	75.06
229.73	78.06
229.964	78.06
230.199	73.06
230.433	70.06
230.667	85.06
230.901	79.06
231.136	64.06
231.37	89.06
231.604	84.06
231.838	79.06
232.072	94.06
232.306	85.06
232.541	84.06
232.775	80.06
233.009	83.06
233.243	87.06
233.477	83.06
233.711	85.06
233.945	75.06
234.179	73.06
234.413	73.06
234.647	86.06
234.881	85.06
235.115	75.06
235.349	80.06
235.583	91.06
235.817	84.06
236.051	90.06
236.285	82.06
236.519	76.06
236.753	79.06
236.987	77.06
237.221	78.06
237.455	78.06
237.689	92.06
237.922	91.06
238.156	85.06
238.39	71.06
238.624	98.06
238.858	86.06
239.091	84.06
239.325	86.06
239.559	82.06
239.793	71.06
240.027	68.06
240.26	62.06
240.494	91.06
240.728	72.06
240.961	85.06
241.195	79.06
241.429	80.06
241.662	73.06
241.896	64.06
242.13	77.06
242.363	76.06
242.597	73.06
242.83	65.06
243.064	71.06
243.298	71.06
243.531	80.06
243.765	75.06
243.998	78.06
244.232	78.06
244.465	95.06
244.699	77.06
244.932	76.06
245.166	71.06
245.399	85.06
245.633	85.06
245.866	74.06
246.099	97.06
246.333	71.06
246.566	81.06
246.8	77.06
247.033	88.06
247.266	83.06
247.5	99.06
247.733	67.06
247.966	76.06
248.2	83.06
248.433	65.06
248.666	70.06
248.899	87.06
249.133	80.06
249.366	81.06
249.599	78.06
249.832	79.06
250.066	80.06
250.299	83.06
250.532	71.06
250.765	74.06
250.998	77.06
251.231	92.06
251.465	85.06
251.698	80.06
251.931	79.06
252.164	79.06
252.397	78.06
252.63	72.06
252.863	75.06
253.096	72.06
253.329	75.06
253.562	94.06
253.795	83.06
254.028	82.06
254.261	94.06
254.494	75.06
254.727	76.06
254.96	77.06
255.193	83.06
255.426	91.06
255.659	84.06
255.892	92.06
256.124	64.06
256.357	94.06
256.59	76.06
256.823	91.06
257.056	74.06
257.289	89.06
257.521	79.06
257.754	79.06
257.987	89.06
258.22	89.06
258.452	71.06
258.685	89.06
258.918	85.06
259.151	77.06
259.383	84.06
259.616	81.06
259.849	80.06
260.081	86.06
260.314	82.06
260.547	90.06
260.779	88.06
261.012	79.06
261.244	71.06
261.477	91.06
261.71	83.06
261.942	92.06
262.175	76.06
262.407	84.06
262.64	87.06
262.872	81.06
263.105	83.06
263.337	98.06
263.57	102.06
263.802	82.06
264.035	90.06
264.267	81.06
264.499	79.06
264.732	79.06
264.964	87.06
265.197	79.06
265.429	77.06
265.661	84.06
265.894	76.06
266.126	96.06
266.358	95.06
266.591	71.06
266.823	89.06
267.055	82.06
267.287	87.06
267.52	91.06
267.752	81.06
267.984	76.06
268.216	68.06
268.448	88.06
268.681	78.06
268.913	76.06
269.145	74.06
269.377	79.06
269.609	80.06
269.841	82.06
270.073	76.06
270.306	87.06
270.538	89.06
270.77	90.06
271.002	76.06
271.234	79.06
271.466	83.06
271.698	103.06
271.93	83.06
272.162	96.06
272.394	77.06
272.626	83.06
272.858	86.06
273.09	75.06
273.322	78.06
273.553	90.06
273.785	76.06
274.017	78.06
274.249	87.06
274.481	87.06
274.713	79.06
274.945	87.06
275.176	99.06
275.408	84.06
275.64	93.06
275.872	81.06
276.104	85.06
276.335	74.06
276.567	79.06
276.799	95.06
277.031	85.06
277.262	70.06
277.494	83.06
277.726	79.06
277.957	80.06
278.189	76.06
278.421	78.06
278.652	76.06
278.884	75.06
279.115	89.06
279.347	83.06
279.579	103.06
279.81	77.06
280.042	81.06
280.273	99.06
280.505	87.06
280.736	84.06
280.968	86.06
281.199	93.06
281.431	86.06
281.662	95.06
281.894	75.06
282.125	101.06
282.356	86.06
282.588	94.06
282.819	80.06
283.051	79.06
283.282	70.06
283.513	70.06
283.745	81.06
283.976	74.06
284.207	90.06
284.439	87.06
284.67	84.06
284.901	77.06
285.132	83.06
285.364	77.06
285.595	86.06
285.826	88.06
286.057	80.06
286.288	93.06
286.52	80.06
286.751	93.06
286.982	90.06
287.213	88.06
287.444	86.06
287.675	59.06
287.906	84.06
288.138	74.06
288.369	79.06
288.6	79.06
288.831	89.06
289.062	91.06
289.293	88.06
289.524	85.06
289.755	75.06
289.986	75.06
290.217	84.06
290.448	95.06
290.679	84.06
290.91	84.06
291.141	89.06
291.371	89.06
291.602	87.06
291.833	72.06
292.064	75.06
292.295	99.06
292.526	85.06
292.757	85.06
292.987	88.06
293.218	81.06
293.449	85.06
293.68	88.06
293.91	86.06
294.141	78.06
294.372	82.06
294.603	82.06
294.833	74.06
295.064	106.06
295.295	83.06
295.525	84.06
295.756	95.06
295.987	103.06
296.217	97.06
296.448	92.06
296.679	85.06
296.909	82.06
297.14	95.06
297.37	87.06
297.601	91.06
297.831	88.06
298.062	96.06
298.292	85.06
298.523	75.06
298.753	100.06
298.984	93.06
299.214	85.06
299.445	87.06
299.675	81.06
299.905	76.06
300.136	85.06
300.366	81.06
300.597	78.06
300.827	91.06
301.057	85.06
301.288	83.06
301.518	82.06
301.748	93.06
301.979	80.06
302.209	79.06
302.439	70.06
302.669	94.06
302.9	84.06
303.13	77.06
303.36	102.06
303.59	93.06
303.82	73.06
304.051	78.06
304.281	97.06
304.511	100.06
304.741	90.06
304.971	78.06
305.201	74.06
305.431	96.06
305.661	87.06
305.891	85.06
306.121	85.06
306.352	79.06
306.582	92.06
306.812	82.06
307.042	86.06
307.272	103.06
307.502	84.06
307.731	83.06
307.961	95.06
308.191	77.06
308.421	99.06
308.651	91.06
308.881	84.06
309.111	75.06
309.341	79.06
309.571	90.06
309.8	92.06
310.03	89.06
310.26	70.06
310.49	75.06
310.72	93.06
310.949	84.06
311.179	89.06
311.409	92.06
311.639	86.06
311.868	90.06
312.098	98.06
312.328	100.06
312.557	81.06
312.787	92.06
313.017	110.06
313.246	79.06
313.476	95.06
313.706	74.06
313.935	93.06
314.165	86.06
314.394	83.06
314.624	85.06
314.853	79.06
315.083	95.06
315.312	89.06
315.542	73.06
315.771	93.06
316.001	86.06
316.23	93.06
316.46	83.06
316.689	80.06
316.919	81.06
317.148	82.06
317.377	92.06
317.607	81.06
317.836	97.06
318.065	84.06
318.295	82.06
318.524	81.06
318.753	79.06
318.983	86.06
319.212	106.06
319.441	79.06
319.67	87.06
319.9	98.06
320.129	85.06
320.358	107.06
320.587	98.06
320.816	98.06
321.046	82.06
321.275	91.06
321.504	76.06
321.733	102.06
321.962	90.06
322.191	81.06
322.42	102.06
322.649	86.06
322.878	92.06
323.108	92.06
323.337	83.06
323.566	75.06
323.795	83.06
324.024	79.06
324.253	102.06
324.482	76.06
324.71	77.06
324.939	73.06
325.168	78.06
325.397	88.06
325.626	91.06
325.855	89.06
326.084	82.06
326.313	94.06
326.542	86.06
326.77	86.06
326.999	89.06
327.228	97.06
327.457	88.06
327.686	68.06
327.914	86.06
328.143	86.06
328.372	93.06
328.6	90.06
328.829	100.06
329.058	86.06
329.287	81.06
329.515	86.06
329.744	84.06
329.972	92.06
330.201	84.06
330.43	76.06
330.658	86.06
330.887	86.06
331.115	80.06
331.344	81.06
331.572	66.06
331.801	95.06
332.03	87.06
332.258	86.06
332.486	87.06
332.715	73.06
332.943	69.06
333.172	89.06
333.4	91.06
333.629	74.06
333.857	78.06
334.085	80.06
334.314	84.06
334.542	72.06
334.771	86.06
334.999	78.06
335.227	70.06
335.455	93.06
335.684	85.06
335.912	79.06
336.14	81.06
336.369	87.06
336.597	78.06
336.825	85.06
337.053	85.06
337.281	82.06
337.51	92.06
337.738	74.06
337.966	89.06
338.194	88.06
338.422	92.06
338.65	100.06
338.878	99.06
339.106	86.06
339.334	88.06
339.562	102.06
339.79	81.06
340.018	81.06
340.246	77.06
340.474	97.06
340.702	97.06
340.93	79.06
341.158	93.06
341.386	88.06
341.614	93.06
341.842	77.06
342.07	82.06
342.298	71.06
342.526	96.06
342.754	93.06
342.981	80.06
343.209	84.06
343.437	86.06
343.665	92.06
343.893	106.06
344.12	88.06
344.348	77.06
344.576	99.06
344.804	91.06
345.031	91.06
345.259	77.06
345.487	94.06
345.714	96.06
345.942	71.06
346.17	88.06
346.397	90.06
346.625	84.06
346.853	73.06
347.08	92.06
347.308	85.06
347.535	73.06
347.763	85.06
347.99	93.06
348.218	93.06
348.445	82.06
348.673	88.06
348.9	85.06
349.128	86.06
349.355	81.06
349.583	87.06
349.81	81.06
350.037	78.06
350.265	87.06
350.492	87.06
350.72	101.06
350.947	83.06
351.174	95.06
351.402	79.06
351.629	85.06
351.856	90.06
352.083	83.06
352.311	85.06
352.538	94.06
352.765	86.06
352.992	85.06
353.22	81.06
353.447	71.06
353.674	77.06
353.901	87.06
354.128	96.06
354.355	79.06
354.583	84.06
354.81	75.06
355.037	81.06
355.264	90.06
355.491	97.06
355.718	102.06
355.945	78.06
356.172	81.06
356.399	79.06
356.626	94.06
356.853	76.06
357.08	90.06
357.307	90.06
357.534	87.06
357.761	85.06
357.988	90.06
358.215	79.06
358.441	74.06
358.668	90.06
358.895	86.06
359.122	90.06
359.349	83.06
359.576	85.06
359.802	78.06
360.029	61.06
360.256	95.06
360.483	77.06
360.709	90.06
360.936	93.06
361.163	89.06
361.39	94.06
361.616	77.06
361.843	79.06
362.07	107.06
362.296	86.06
362.523	88.06
362.749	79.06
362.976	94.06
363.203	90.06
363.429	100.06
363.656	89.06
363.882	87.06
364.109	86.06
364.335	81.06
364.562	80.06
364.788	83.06
365.015	81.06
365.241	82.06
365.468	91.06
365.694	94.06
365.92	91.06
366.147	85.06
366.373	80.06
366.599	87.06
366.826	86.06
367.052	91.06
367.278	82.06
367.505	89.06
367.731	95.06
367.957	92.06
368.184	81.06
368.41	92.06
368.636	92.06
368.862	84.06
369.089	89.06
369.315	75.06
369.541	83.06
369.767	99.06
369.993	92.06
370.219	97.06
370.445	89.06
370.672	85.06
370.898	97.06
371.124	82.06
371.35	93.06
371.576	99.06
371.802	90.06
372.028	98.06
372.254	100.06
372.48	89.06
372.706	90.06
372.932	96.06
373.158	96.06
373.384	94.06
373.61	84.06
373.835	95.06
374.061	91.06
374.287	90.06
374.513	96.06
374.739	87.06
374.965	91.06
375.191	96.06
375.416	101.06
375.642	99.06
375.868	98.06
376.094	98.06
376.319	85.06
376.545	91.06
376.771	96.06
376.997	77.06
377.222	91.06
377.448	86.06
377.674	97.06
377.899	95.06
378.125	89.06
378.35	86.06
378.576	98.06
378.802	98.06
379.027	99.06
379.253	106.06
379.478	105.06
379.704	92.06
379.929	99.06
380.155	97.06
380.38	108.06
380.606	102.06
380.831	95.06
381.057	101.06
381.282	99.06
381.507	99.06
381.733	115.06
381.958	85.06
382.184	84.06
382.409	102.06
382.634	109.06
382.86	108.06
383.085	100.06
383.31	92.06
383.535	87.06
383.761	94.06
383.986	94.06
384.211	107.06
384.436	119.06
384.662	95.06
384.887	98.06
385.112	90.06
385.337	99.06
385.562	115.06
385.787	103.06
386.013	99.06
386.238	105.06
386.463	97.06
386.688	94.06
386.913	93.06
387.138	101.06
387.363	96.06
387.588	126.06
387.813	117.06
388.038	89.06
388.263	95.06
388.488	98.06
388.713	91.06
388.938	88.06
389.163	85.06
389.387	91.06
389.612	98.06
389.837	88.06
390.062	98.06
390.287	107.06
390.512	130.06
390.736	107.06
390.961	105.06
391.186	97.06
391.411	98.06
391.636	95.06
391.86	95.06
392.085	107.06
392.31	104.06
392.534	109.06
392.759	92.06
392.984	110.06
393.208	105.06
393.433	110.06
393.658	100.06
393.882	104.06
394.107	103.06
394.331	104.06
394.556	114.06
394.78	104.06
395.005	104.06
395.229	102.06
395.454	103.06
395.678	94.06
395.903	108.06
396.127	122.06
396.352	97.06
396.576	124.06
396.801	113.06
397.025	107.06
397.249	118.06
397.474	117.06
397.698	121.06
397.922	106.06
398.147	118.06
398.371	113.06
398.595	109.06
398.82	110.06
399.044	106.06
399.268	106.06
399.492	118.06
399.717	115.06
399.941	124.06
400.165	98.06
400.389	122.06
400.613	97.06
400.837	109.06
401.062	119.06
401.286	100.06
401.51	109.06
401.734	110.06
401.958	107.06
402.182	118.06
402.406	113.06
402.63	122.06
402.854	111.06
403.078	98.06
403.302	95.06
403.526	114.06
403.75	113.06
403.974	102.06
404.198	119.06
404.422	115.06
404.645	101.06
404.869	116.06
405.093	125.06
405.317	128.06
405.541	122.06
405.765	113.06
405.988	121.06
406.212	126.06
406.436	117.06
406.66	119.06
406.883	125.06
407.107	124.06
407.331	118.06
407.555	104.06
407.778	118.06
408.002	126.06
408.226	118.06
408.449	122.06
408.673	130.06
408.896	105.06
409.12	121.06
409.344	115.06
409.567	114.06
409.791	117.06
410.014	128.06
410.238	127.06
410.461	122.06
410.685	121.06
410.908	111.06
411.132	129.06
411.355	117.06
411.578	120.06
411.802	116.06
412.025	120.06
412.249	117.06
412.472	114.06
412.695	118.06
412.919	108.06
413.142	118.06
413.365	119.06
413.589	120.06
413.812	110.06
414.035	120.06
414.258	115.06
414.482	114.06
414.705	126.06
414.928	108.06
415.151	101.06
415.374	126.06
415.597	103.06
415.821	126.06
416.044	119.06
416.267	125.06
416.49	123.06
416.713	136.06
416.936	115.06
417.159	122.06
417.382	116.06
417.605	115.06
417.828	124.06
418.051	122.06
418.274	127.06
418.497	122.06
418.72	143.06
418.943	134.06
419.166	130.06
419.389	139.06
419.611	130.06
419.834	113.06
420.057	140.06
420.28	139.06
420.503	129.06
420.726	129.06
420.948	126.06
421.171	131.06
421.394	123.06
421.617	135.06
421.839	148.06
422.062	137.06
422.285	125.06
422.507	125.06
422.73	136.06
422.953	137.06
423.175	114.06
423.398	120.06
423.621	126.06
423.843	124.06
424.066	138.06
424.288	129.06
424.511	138.06
424.733	132.06
424.956	130.06
425.178	119.06
425.401	141.06
425.623	130.06
425.846	129.06
426.068	127.06
426.291	127.06
426.513	139.06
426.735	117.06
426.958	133.06
427.18	149.06
427.402	131.06
427.625	134.06
427.847	135.06
428.069	126.06
428.292	117.06
428.514	133.06
428.736	129.06
428.958	128.06
429.181	129.06
429.403	125.06
429.625	121.06
429.847	120.06
430.069	123.06
430.292	121.06
430.514	128.06
430.736	136.06
430.958	134.06
431.18	121.06
431.402	134.06
431.624	118.06
431.846	123.06
432.068	99.06
432.29	91.06
432.512	125.06
432.734	109.06
432.956	127.06
433.178	126.06
433.4	147.06
433.622	137.06
433.844	140.06
434.066	122.06
434.287	121.06
434.509	106.06
434.731	106.06
434.953	106.06
435.175	116.06
435.397	113.06
435.618	112.06
435.84	119.06
436.062	115.06
436.284	127.06
436.505	124.06
436.727	140.06
436.949	142.06
437.17	107.06
437.392	103.06
437.614	122.06
437.835	105.06
438.057	110.06
438.278	121.06
438.5	118.06
438.721	130.06
438.943	136.06
439.165	141.06
439.386	136.06
439.608	134.06
439.829	139.06
440.05	142.06
440.272	146.06
440.493	155.06
440.715	142.06
440.936	136.06
441.158	143.06
441.379	118.06
441.6	139.06
441.822	151.06
442.043	150.06
442.264	132.06
442.486	127.06
442.707	142.06
442.928	146.06
443.149	141.06
443.371	139.06
443.592	144.06
443.813	149.06
444.034	129.06
444.255	143.06
444.476	139.06
444.698	129.06
444.919	137.06
445.14	253.06
445.361	194.06
445.582	153.06
445.803	145.06
446.024	151.06
446.245	149.06
446.466	157.06
446.687	154.06
446.908	145.06
447.129	158.06
447.35	155.06
447.571	153.06
447.792	143.06
448.013	145.06
448.234	141.06
448.455	157.06
448.675	147.06
448.896	149.06
449.117	140.06
449.338	145.06
449.559	145.06
449.779	134.06
450	119.06
450.221	143.06
450.442	131.06
450.662	140.06
450.883	141.06
451.104	127.06
451.324	140.06
451.545	138.06
451.766	124.06
451.986	125.06
452.207	126.06
452.428	124.06
452.648	126.06
452.869	132.06
453.089	109.06
453.31	116.06
453.53	115.06
453.751	98.06
453.971	106.06
454.192	106.06
454.412	123.06
454.633	117.06
454.853	123.06
455.073	116.06
455.294	125.06
455.514	124.06
455.734	121.06
455.955	123.06
456.175	117.06
456.395	103.06
456.616	124.06
456.836	109.06
457.056	123.06
457.276	118.06
457.497	106.06
457.717	117.06
457.937	105.06
458.157	107.06
458.377	109.06
458.598	103.06
458.818	112.06
459.038	83.06
459.258	89.06
459.478	76.06
459.698	83.06
459.918	95.06
460.138	109.06
460.358	118.06
460.578	126.06
460.798	111.06
461.018	122.06
461.238	108.06
461.458	116.06
461.678	117.06
461.898	120.06
462.118	118.06
462.338	113.06
462.558	106.06
462.777	116.06
462.997	104.06
463.217	115.06
463.437	102.06
463.657	111.06
463.876	94.06
464.096	102.06
464.316	104.06
464.536	111.06
464.755	112.06
464.975	114.06
465.195	119.06
465.414	135.06
465.634	109.06
465.854	125.06
466.073	119.06
466.293	124.06
466.512	131.06
466.732	124.06
466.951	139.06
467.171	144.06
467.391	153.06
467.61	133.06
467.829	121.06
468.049	128.06
468.268	129.06
468.488	131.06
468.707	138.06
468.927	138.06
469.146	159.06
469.365	135.06
469.585	137.06
469.804	147.06
470.023	133.06
470.243	130.06
470.462	130.06
470.681	138.06
470.901	135.06
471.12	144.06
471.339	135.06
471.558	133.06
471.777	127.06
471.997	126.06
472.216	131.06
472.435	115.06
472.654	109.06
472.873	111.06
473.092	133.06
473.311	128.06
473.53	132.06
473.749	131.06
473.968	126.06
474.187	122.06
474.406	125.06
474.625	135.06
474.844	126.06
475.063	145.06
475.282	128.06
475.501	121.06
475.72	129.06
475.939	118.06
476.158	137.06
476.377	126.06
476.596	126.06
476.814	117.06
477.033	100.06
477.252	124.06
477.471	129.06
477.69	116.06
477.908	134.06
478.127	133.06
478.346	144.06
478.564	142.06
478.783	144.06
479.002	129.06
479.22	135.06
479.439	125.06
479.658	124.06
479.876	109.06
480.095	117.06
480.313	125.06
480.532	115.06
480.751	123.06
480.969	94.06
481.188	91.06
481.406	92.06
481.624	97.06
481.843	96.06
482.061	100.06
482.28	114.06
482.498	111.06
482.717	98.06
482.935	105.06
483.153	147.06
483.372	147.06
483.59	139.06
483.808	146.06
484.027	147.06
484.245	138.06
484.463	151.06
484.681	150.06
484.9	153.06
485.118	137.06
485.336	118.06
485.554	110.06
485.772	103.06
485.99	114.06
486.209	109.06
486.427	115.06
486.645	116.06
486.863	132.06
487.081	136.06
487.299	123.06
487.517	133.06
487.735	171.06
487.953	190.06
488.171	186.06
488.389	184.06
488.607	174.06
488.825	141.06
489.043	144.06
489.261	131.06
489.479	130.06
489.696	136.06
489.914	145.06
490.132	138.06
490.35	144.06
490.568	174.06
490.786	162.06
491.003	172.06
491.221	174.06
491.439	174.06
491.657	188.06
491.874	199.06
492.092	235.06
492.31	243.06
492.527	243.06
492.745	182.06
492.963	181.06
493.18	176.06
493.398	177.06
493.615	177.06
493.833	192.06
494.05	164.06
494.268	169.06
494.485	175.06
494.703	161.06
494.92	163.06
495.138	157.06
495.355	180.06
495.573	180.06
495.79	170.06
496.008	161.06
496.225	155.06
496.442	156.06
496.66	162.06
496.877	155.06
497.094	158.06
497.312	151.06
497.529	157.06
497.746	151.06
497.963	144.06
498.181	123.06
498.398	131.06
498.615	117.06
498.832	108.06
499.049	117.06
499.267	118.06
499.484	129.06
499.701	137.06
499.918	142.06
500.135	132.06
500.352	145.06
500.569	135.06
500.786	133.06
501.003	129.06
501.22	154.06
501.437	129.06
501.654	126.06
501.871	147.06
502.088	140.06
502.305	137.06
502.522	124.06
502.739	119.06
502.956	153.06
503.172	123.06
503.389	125.06
503.606	141.06
503.823	115.06
504.04	119.06
504.256	125.06
504.473	127.06
504.69	122.06
504.907	121.06
505.123	118.06
505.34	119.06
505.557	129.06
505.773	145.06
505.99	135.06
506.207	124.06
506.423	120.06
506.64	119.06
506.856	119.06
507.073	122.06
507.289	117.06
507.506	124.06
507.722	114.06
507.939	117.06
508.155	117.06
508.372	114.06
508.588	122.06
508.805	104.06
509.021	108.06
509.238	108.06
509.454	102.06
509.67	117.06
509.887	98.06
510.103	101.06
510.319	99.06
510.536	97.06
510.752	92.06
510.968	77.06
511.184	82.06
511.401	86.06
511.617	83.06
511.833	99.06
512.049	88.06
512.265	93.06
512.481	88.06
512.698	94.06
512.914	91.06
513.13	89.06
513.346	85.06
513.562	102.06
513.778	84.06
513.994	82.06
514.21	76.06
514.426	98.06
514.642	89.06
514.858	99.06
515.074	102.06
515.29	98.06
515.506	100.06
515.721	82.06
515.937	90.06
516.153	97.06
516.369	87.06
516.585	88.06
516.801	94.06
517.016	85.06
517.232	91.06
517.448	96.06
517.664	89.06
517.879	94.06
518.095	77.06
518.311	89.06
518.527	103.06
518.742	92.06
518.958	96.06
519.173	94.06
519.389	105.06
519.605	95.06
519.82	103.06
520.036	110.06
520.251	117.06
520.467	117.06
520.682	115.06
520.898	89.06
521.113	87.06
521.329	82.06
521.544	96.06
521.76	92.06
521.975	86.06
522.19	111.06
522.406	104.06
522.621	91.06
522.836	99.06
523.052	105.06
523.267	109.06
523.482	107.06
523.698	119.06
523.913	103.06
524.128	111.06
524.343	125.06
524.559	136.06
524.774	117.06
524.989	132.06
525.204	123.06
525.419	127.06
525.634	118.06
525.849	118.06
526.064	117.06
526.28	100.06
526.495	98.06
526.71	87.06
526.925	81.06
527.14	90.06
527.355	82.06
527.57	88.06
527.785	89.06
527.999	109.06
528.214	99.06
528.429	95.06
528.644	113.06
528.859	135.06
529.074	144.06
529.289	154.06
529.503	163.06
529.718	155.06
529.933	121.06
530.148	116.06
530.363	108.06
530.577	91.06
530.792	90.06
531.007	98.06
531.221	84.06
531.436	75.06
531.651	85.06
531.865	101.06
532.08	97.06
532.295	93.06
532.509	85.06
532.724	90.06
532.938	84.06
533.153	102.06
533.367	107.06
533.582	130.06
533.796	107.06
534.011	117.06
534.225	103.06
534.44	101.06
534.654	100.06
534.868	87.06
535.083	115.06
535.297	102.06
535.511	100.06
535.726	127.06
535.94	98.06
536.154	104.06
536.369	82.06
536.583	101.06
536.797	95.06
537.011	96.06
537.225	85.06
537.44	84.06
537.654	92.06
537.868	101.06
538.082	98.06
538.296	88.06
538.51	100.06
538.724	117.06
538.938	130.06
539.153	115.06
539.367	125.06
539.581	107.06
539.795	98.06
540.009	92.06
540.222	108.06
540.436	107.06
540.65	107.06
540.864	123.06
541.078	138.06
541.292	159.06
541.506	146.06
541.72	181.06
541.934	204.06
542.147	207.06
542.361	198.06
542.575	180.06
542.789	145.06
543.002	147.06
543.216	126.06
543.43	121.06
543.644	143.06
543.857	146.06
544.071	151.06
544.285	147.06
544.498	155.06
544.712	160.06
544.925	154.06
545.139	156.06
545.352	155.06
545.566	155.06
545.779	173.06
545.993	162.06
546.206	164.06
546.42	151.06
546.633	169.06
546.847	171.06
547.06	164.06
547.274	164.06
547.487	184.06
547.7	163.06
547.914	169.06
548.127	174.06
548.34	149.06
548.554	153.06
548.767	153.06
548.98	158.06
549.193	162.06
549.407	155.06
549.62	152.06
549.833	159.06
550.046	148.06
550.259	144.06
550.473	153.06
550.686	135.06
550.899	135.06
551.112	153.06
551.325	137.06
551.538	155.06
551.751	116.06
551.964	121.06
552.177	137.06
552.39	119.06
552.603	144.06
552.816	157.06
553.029	150.06
553.242	155.06
553.455	151.06
553.667	136.06
553.88	143.06
554.093	145.06
554.306	154.06
554.519	145.06
554.732	158.06
554.944	155.06
555.157	144.06
555.37	139.06
555.583	131.06
555.795	135.06
556.008	143.06
556.221	138.06
556.433	132.06
556.646	138.06
556.859	126.06
557.071	142.06
557.284	142.06
557.496	122.06
557.709	137.06
557.921	140.06
558.134	119.06
558.346	147.06
558.559	132.06
558.771	123.06
558.984	126.06
559.196	142.06
559.409	129.06
559.621	123.06
559.833	123.06
560.046	109.06
560.258	131.06
560.47	104.06
560.683	123.06
560.895	136.06
561.107	134.06
561.32	124.06
561.532	125.06
561.744	135.06
561.956	146.06
562.168	138.06
562.381	134.06
562.593	143.06
562.805	123.06
563.017	119.06
563.229	123.06
563.441	123.06
563.653	139.06
563.865	121.06
564.077	121.06
564.289	120.06
564.501	136.06
564.713	123.06
564.925	125.06
565.137	118.06
565.349	115.06
565.561	115.06
565.773	121.06
565.985	127.06
566.197	125.06
566.408	127.06
566.62	120.06
566.832	123.06
567.044	129.06
567.255	131.06
567.467	101.06
567.679	107.06
567.891	106.06
568.102	111.06
568.314	105.06
568.526	88.06
568.737	98.06
568.949	110.06
569.161	88.06
569.372	91.06
569.584	80.06
569.795	78.06
570.007	92.06
570.218	87.06
570.43	84.06
570.641	107.06
570.853	105.06
571.064	106.06
571.276	90.06
571.487	99.06
571.698	95.06
571.91	116.06
572.121	117.06
572.333	106.06
572.544	113.06
572.755	91.06
572.966	99.06
573.178	76.06
573.389	94.06
573.6	81.06
573.811	84.06
574.023	98.06
574.234	90.06
574.445	80.06
574.656	90.06
574.867	95.06
575.078	97.06
575.289	90.06
575.501	99.06
575.712	106.06
575.923	98.06
576.134	90.06
576.345	101.06
576.556	106.06
576.767	100.06
576.978	95.06
577.188	103.06
577.399	106.06
577.61	106.06
577.821	109.06
578.032	82.06
578.243	86.06
578.454	90.06
578.665	91.06
578.875	93.06
579.086	78.06
579.297	81.06
579.508	79.06
579.718	83.06
579.929	79.06
580.14	79.06
580.35	93.06
580.561	88.06
580.772	86.06
580.982	94.06
581.193	78.06
581.403	107.06
581.614	96.06
581.825	98.06
582.035	99.06
582.246	93.06
582.456	103.06
582.667	93.06
582.877	88.06
583.087	89.06
583.298	88.06
583.508	83.06
583.719	103.06
583.929	90.06
584.139	83.06
584.35	92.06
584.56	88.06
584.77	94.06
584.981	80.06
585.191	91.06
585.401	96.06
585.611	87.06
585.821	86.06
586.032	90.06
586.242	90.06
586.452	82.06
586.662	89.06
586.872	84.06
587.082	90.06
587.292	88.06
587.502	81.06
587.713	83.06
587.923	89.06
588.133	84.06
588.343	92.06
588.553	78.06
588.762	72.06
588.972	98.06
589.182	83.06
589.392	95.06
589.602	90.06
589.812	94.06
590.022	87.06
590.232	93.06
590.441	80.06
590.651	84.06
590.861	85.06
591.071	99.06
591.281	73.06
591.49	83.06
591.7	87.06
591.91	73.06
592.119	81.06
592.329	83.06
592.539	86.06
592.748	79.06
592.958	87.06
593.167	93.06
593.377	91.06
593.587	85.06
593.796	93.06
594.006	89.06
594.215	83.06
594.424	105.06
594.634	95.06
594.843	90.06
595.053	99.06
595.262	99.06
595.472	87.06
595.681	80.06
595.89	94.06
596.1	83.06
596.309	92.06
596.518	105.06
596.727	102.06
596.937	109.06
597.146	91.06
597.355	96.06
597.564	97.06
597.774	90.06
597.983	95.06
598.192	77.06
598.401	89.06
598.61	70.06
598.819	100.06
599.028	80.06
599.237	89.06
599.446	96.06
599.655	96.06
599.864	99.06
600.073	85.06
600.282	106.06
600.491	99.06
600.7	90.06
600.909	83.06
601.118	98.06
601.327	103.06
601.536	110.06
601.745	114.06
601.953	109.06
602.162	97.06
602.371	105.06
602.58	107.06
602.789	93.06
602.997	114.06
603.206	108.06
603.415	98.06
603.623	116.06
603.832	120.06
604.041	101.06
604.249	96.06
604.458	106.06
604.666	111.06
604.875	107.06
605.084	83.06
605.292	105.06
605.501	121.06
605.709	110.06
605.918	125.06
606.126	124.06
606.334	123.06
606.543	118.06
606.751	103.06
606.96	103.06
607.168	106.06
607.376	126.06
607.585	115.06
607.793	108.06
608.001	106.06
608.21	108.06
608.418	117.06
608.626	114.06
608.834	105.06
609.043	113.06
609.251	115.06
609.459	114.06
609.667	122.06
609.875	120.06
610.083	119.06
610.291	107.06
610.499	123.06
610.707	116.06
610.916	115.06
611.124	109.06
611.332	127.06
611.54	111.06
611.748	129.06
611.955	97.06
612.163	113.06
612.371	111.06
612.579	95.06
612.787	122.06
612.995	121.06
613.203	109.06
613.411	113.06
613.618	107.06
613.826	104.06
614.034	124.06
614.242	133.06
614.449	115.06
614.657	116.06
614.865	100.06
615.072	115.06
615.28	109.06
615.488	124.06
615.695	112.06
615.903	104.06
616.111	98.06
616.318	109.06
616.526	106.06
616.733	102.06
616.941	122.06
617.148	109.06
617.356	98.06
617.563	115.06
617.771	106.06
617.978	115.06
618.185	109.06
618.393	113.06
618.6	113.06
618.807	106.06
619.015	114.06
619.222	120.06
619.429	103.06
619.637	116.06
619.844	92.06
620.051	127.06
620.258	110.06
620.466	102.06
620.673	125.06
620.88	105.06
621.087	115.06
621.294	117.06
621.501	115.06
621.708	99.06
621.915	98.06
622.122	92.06
622.329	112.06
622.536	110.06
622.743	110.06
622.95	99.06
623.157	101.06
623.364	108.06
623.571	98.06
623.778	93.06
623.985	105.06
624.192	110.06
624.399	113.06
624.606	115.06
624.812	108.06
625.019	121.06
625.226	111.06
625.433	102.06
625.639	98.06
625.846	114.06
626.053	89.06
626.259	90.06
626.466	97.06
626.673	98.06
626.879	111.06
627.086	100.06
627.293	113.06
627.499	121.06
627.706	96.06
627.912	107.06
628.119	116.06
628.325	106.06
628.532	113.06
628.738	109.06
628.945	106.06
629.151	91.06
629.357	126.06
629.564	97.06
629.77	90.06
629.976	115.06
630.183	107.06
630.389	91.06
630.595	104.06
630.802	115.06
631.008	104.06
631.214	94.06
631.42	92.06
631.627	100.06
631.833	96.06
632.039	95.06
632.245	100.06
632.451	106.06
632.657	105.06
632.863	90.06
633.069	101.06
633.275	97.06
633.481	99.06
633.688	93.06
633.893	106.06
634.099	103.06
634.305	95.06
634.511	97.06
634.717	94.06
634.923	93.06
635.129	109.06
635.335	83.06
635.541	102.06
635.747	91.06
635.952	99.06
636.158	103.06
636.364	114.06
636.57	95.06
636.775	104.06
636.981	102.06
637.187	113.06
637.392	105.06
637.598	112.06
637.804	94.06
638.009	102.06
638.215	111.06
638.421	99.06
638.626	104.06
638.832	114.06
639.037	113.06
639.243	109.06
639.448	107.06
639.654	110.06
639.859	104.06
640.065	106.06
640.27	101.06
640.475	95.06
640.681	107.06
640.886	94.06
641.091	107.06
641.297	89.06
641.502	100.06
641.707	102.06
641.913	108.06
642.118	99.06
642.323	105.06
642.528	105.06
642.733	107.06
642.939	105.06
643.144	110.06
643.349	100.06
643.554	113.06
643.759	106.06
643.964	105.06
644.169	116.06
644.374	94.06
644.579	109.06
644.784	102.06
644.989	101.06
645.194	100.06
645.399	107.06
645.604	88.06
645.809	113.06
646.014	106.06
646.219	100.06
646.423	110.06
646.628	105.06
646.833	101.06
647.038	104.06
647.243	111.06
647.447	94.06
647.652	116.06
647.857	98.06
648.062	102.06
648.266	84.06
648.471	102.06
648.676	99.06
648.88	94.06
649.085	89.06
649.289	103.06
649.494	113.06
649.698	104.06
649.903	91.06
650.107	110.06
650.312	98.06
650.516	104.06
650.721	99.06
650.925	95.06
651.13	100.06
651.334	102.06
651.539	88.06
651.743	98.06
651.947	104.06
652.152	102.06
652.356	117.06
652.56	86.06
652.764	87.06
652.969	101.06
653.173	71.06
653.377	87.06
653.581	97.06
653.785	88.06
653.99	99.06
654.194	94.06
654.398	102.06
654.602	89.06
654.806	94.06
655.01	83.06
655.214	94.06
655.418	94.06
655.622	93.06
655.826	95.06
656.03	89.06
656.234	94.06
656.438	102.06
656.642	78.06
656.846	101.06
657.049	81.06
657.253	98.06
657.457	95.06
657.661	88.06
657.865	91.06
658.068	87.06
658.272	86.06
658.476	76.06
658.68	75.06
658.883	87.06
659.087	85.06
659.291	86.06
659.494	81.06
659.698	94.06
659.901	98.06
660.105	87.06
660.309	87.06
660.512	97.06
660.716	102.06
660.919	99.06
661.123	93.06
661.326	94.06
661.53	92.06
661.733	89.06
661.936	80.06
662.14	84.06
662.343	82.06
662.546	80.06
662.75	93.06
662.953	93.06
663.156	81.06
663.36	80.06
663.563	91.06
663.766	93.06
663.969	80.06
664.173	77.06
664.376	88.06
664.579	82.06
664.782	83.06
664.985	75.06
665.188	97.06
665.391	83.06
665.594	83.06
665.797	87.06
666	96.06
666.203	71.06
666.406	85.06
666.609	89.06
666.812	89.06
667.015	82.06
667.218	102.06
667.421	82.06
667.624	83.06
667.827	85.06
668.03	80.06
668.232	73.06
668.435	93.06
668.638	82.06
668.841	84.06
669.043	73.06
669.246	72.06
669.449	84.06
669.651	90.06
669.854	78.06
670.057	78.06
670.259	89.06
670.462	67.06
670.665	72.06
670.867	92.06
671.07	85.06
671.272	89.06
671.475	86.06
671.677	96.06
671.88	98.06
672.082	94.06
672.284	81.06
672.487	84.06
672.689	77.06
672.892	86.06
