Data from Location4.07152019.Energy5.Lamp.07192019.3%Agarose_HRD10591_16-21-00-926.txt Node
Date: Fri Jul 19 16:21:00 EDT 2019
User: cochatt
Spectrometer: HR+D1059
Trigger mode: 1
Integration Time (sec): 1.000000E-1
Scans to average: 1
Electric dark correction enabled: true
Nonlinearity correction enabled: false
Boxcar width: 0
XAxis mode: Wavelengths
Number of Pixels in Spectrum: 2048
>>>>>Begin Spectral Data<<<<<
223.165	-17.25
223.4	-17.25
223.635	-17.25
223.869	-10.25
224.104	-21.25
224.338	-17.25
224.573	-18.25
224.808	-12.25
225.042	-12.25
225.277	2.75
225.511	4.75
225.746	12.75
225.98	9.75
226.215	-8.25
226.449	0.75
226.683	17.75
226.918	33.75
227.152	34.75
227.387	22.75
227.621	38.75
227.856	51.75
228.09	46.75
228.324	43.75
228.559	51.75
228.793	55.75
229.027	52.75
229.262	59.75
229.496	81.75
229.73	67.75
229.964	64.75
230.199	66.75
230.433	68.75
230.667	65.75
230.901	68.75
231.136	72.75
231.37	64.75
231.604	85.75
231.838	85.75
232.072	75.75
232.306	74.75
232.541	83.75
232.775	73.75
233.009	64.75
233.243	81.75
233.477	79.75
233.711	78.75
233.945	80.75
234.179	77.75
234.413	78.75
234.647	75.75
234.881	67.75
235.115	87.75
235.349	78.75
235.583	79.75
235.817	66.75
236.051	79.75
236.285	81.75
236.519	72.75
236.753	82.75
236.987	82.75
237.221	76.75
237.455	86.75
237.689	82.75
237.922	77.75
238.156	75.75
238.39	77.75
238.624	69.75
238.858	83.75
239.091	81.75
239.325	76.75
239.559	73.75
239.793	74.75
240.027	73.75
240.26	80.75
240.494	84.75
240.728	91.75
240.961	81.75
241.195	76.75
241.429	76.75
241.662	72.75
241.896	74.75
242.13	78.75
242.363	71.75
242.597	57.75
242.83	82.75
243.064	73.75
243.298	83.75
243.531	74.75
243.765	78.75
243.998	86.75
244.232	81.75
244.465	77.75
244.699	73.75
244.932	75.75
245.166	90.75
245.399	77.75
245.633	60.75
245.866	81.75
246.099	81.75
246.333	75.75
246.566	98.75
246.8	77.75
247.033	62.75
247.266	83.75
247.5	74.75
247.733	66.75
247.966	74.75
248.2	79.75
248.433	82.75
248.666	64.75
248.899	76.75
249.133	85.75
249.366	80.75
249.599	78.75
249.832	76.75
250.066	77.75
250.299	78.75
250.532	79.75
250.765	73.75
250.998	78.75
251.231	75.75
251.465	83.75
251.698	88.75
251.931	73.75
252.164	82.75
252.397	74.75
252.63	85.75
252.863	69.75
253.096	80.75
253.329	82.75
253.562	80.75
253.795	73.75
254.028	53.75
254.261	65.75
254.494	91.75
254.727	73.75
254.96	79.75
255.193	71.75
255.426	79.75
255.659	70.75
255.892	85.75
256.124	65.75
256.357	87.75
256.59	83.75
256.823	73.75
257.056	82.75
257.289	91.75
257.521	100.75
257.754	77.75
257.987	86.75
258.22	83.75
258.452	85.75
258.685	87.75
258.918	83.75
259.151	74.75
259.383	75.75
259.616	83.75
259.849	90.75
260.081	82.75
260.314	76.75
260.547	80.75
260.779	73.75
261.012	81.75
261.244	83.75
261.477	85.75
261.71	81.75
261.942	87.75
262.175	78.75
262.407	69.75
262.64	91.75
262.872	81.75
263.105	82.75
263.337	95.75
263.57	71.75
263.802	88.75
264.035	81.75
264.267	80.75
264.499	80.75
264.732	96.75
264.964	73.75
265.197	88.75
265.429	72.75
265.661	81.75
265.894	84.75
266.126	76.75
266.358	67.75
266.591	71.75
266.823	74.75
267.055	74.75
267.287	72.75
267.52	62.75
267.752	87.75
267.984	96.75
268.216	82.75
268.448	98.75
268.681	84.75
268.913	85.75
269.145	94.75
269.377	82.75
269.609	73.75
269.841	67.75
270.073	80.75
270.306	69.75
270.538	92.75
270.77	88.75
271.002	91.75
271.234	80.75
271.466	78.75
271.698	91.75
271.93	81.75
272.162	83.75
272.394	95.75
272.626	95.75
272.858	91.75
273.09	77.75
273.322	81.75
273.553	80.75
273.785	90.75
274.017	73.75
274.249	87.75
274.481	86.75
274.713	88.75
274.945	78.75
275.176	84.75
275.408	81.75
275.64	81.75
275.872	78.75
276.104	93.75
276.335	77.75
276.567	90.75
276.799	71.75
277.031	95.75
277.262	76.75
277.494	91.75
277.726	90.75
277.957	82.75
278.189	81.75
278.421	88.75
278.652	79.75
278.884	87.75
279.115	96.75
279.347	72.75
279.579	93.75
279.81	95.75
280.042	90.75
280.273	79.75
280.505	86.75
280.736	91.75
280.968	79.75
281.199	82.75
281.431	87.75
281.662	73.75
281.894	93.75
282.125	91.75
282.356	92.75
282.588	77.75
282.819	93.75
283.051	79.75
283.282	87.75
283.513	80.75
283.745	84.75
283.976	76.75
284.207	85.75
284.439	85.75
284.67	77.75
284.901	78.75
285.132	87.75
285.364	71.75
285.595	82.75
285.826	95.75
286.057	79.75
286.288	95.75
286.52	91.75
286.751	92.75
286.982	91.75
287.213	91.75
287.444	101.75
287.675	80.75
287.906	83.75
288.138	72.75
288.369	79.75
288.6	80.75
288.831	91.75
289.062	77.75
289.293	90.75
289.524	86.75
289.755	91.75
289.986	98.75
290.217	82.75
290.448	81.75
290.679	80.75
290.91	85.75
291.141	83.75
291.371	86.75
291.602	77.75
291.833	89.75
292.064	93.75
292.295	79.75
292.526	95.75
292.757	67.75
292.987	97.75
293.218	81.75
293.449	77.75
293.68	71.75
293.91	75.75
294.141	88.75
294.372	77.75
294.603	84.75
294.833	74.75
295.064	81.75
295.295	82.75
295.525	82.75
295.756	104.75
295.987	75.75
296.217	83.75
296.448	78.75
296.679	85.75
296.909	87.75
297.14	83.75
297.37	93.75
297.601	83.75
297.831	84.75
298.062	84.75
298.292	79.75
298.523	90.75
298.753	87.75
298.984	92.75
299.214	73.75
299.445	75.75
299.675	95.75
299.905	92.75
300.136	80.75
300.366	82.75
300.597	74.75
300.827	91.75
301.057	78.75
301.288	78.75
301.518	98.75
301.748	95.75
301.979	95.75
302.209	94.75
302.439	90.75
302.669	79.75
302.9	82.75
303.13	81.75
303.36	90.75
303.59	82.75
303.82	90.75
304.051	91.75
304.281	85.75
304.511	91.75
304.741	83.75
304.971	95.75
305.201	80.75
305.431	94.75
305.661	95.75
305.891	80.75
306.121	81.75
306.352	93.75
306.582	76.75
306.812	86.75
307.042	88.75
307.272	73.75
307.502	80.75
307.731	82.75
307.961	82.75
308.191	67.75
308.421	77.75
308.651	77.75
308.881	78.75
309.111	72.75
309.341	90.75
309.571	84.75
309.8	95.75
310.03	80.75
310.26	93.75
310.49	79.75
310.72	69.75
310.949	90.75
311.179	90.75
311.409	89.75
311.639	91.75
311.868	98.75
312.098	81.75
312.328	92.75
312.557	78.75
312.787	91.75
313.017	87.75
313.246	84.75
313.476	77.75
313.706	81.75
313.935	83.75
314.165	84.75
314.394	93.75
314.624	85.75
314.853	79.75
315.083	68.75
315.312	73.75
315.542	80.75
315.771	83.75
316.001	77.75
316.23	82.75
316.46	80.75
316.689	71.75
316.919	75.75
317.148	83.75
317.377	85.75
317.607	69.75
317.836	78.75
318.065	75.75
318.295	74.75
318.524	82.75
318.753	76.75
318.983	74.75
319.212	94.75
319.441	75.75
319.67	86.75
319.9	79.75
320.129	80.75
320.358	86.75
320.587	88.75
320.816	95.75
321.046	91.75
321.275	94.75
321.504	108.75
321.733	82.75
321.962	76.75
322.191	79.75
322.42	77.75
322.649	93.75
322.878	72.75
323.108	78.75
323.337	76.75
323.566	76.75
323.795	77.75
324.024	91.75
324.253	86.75
324.482	87.75
324.71	75.75
324.939	75.75
325.168	81.75
325.397	82.75
325.626	90.75
325.855	83.75
326.084	86.75
326.313	81.75
326.542	82.75
326.77	87.75
326.999	81.75
327.228	87.75
327.457	83.75
327.686	91.75
327.914	80.75
328.143	75.75
328.372	83.75
328.6	86.75
328.829	86.75
329.058	80.75
329.287	72.75
329.515	87.75
329.744	80.75
329.972	89.75
330.201	66.75
330.43	92.75
330.658	77.75
330.887	83.75
331.115	69.75
331.344	86.75
331.572	89.75
331.801	85.75
332.03	89.75
332.258	95.75
332.486	89.75
332.715	81.75
332.943	74.75
333.172	64.75
333.4	71.75
333.629	68.75
333.857	76.75
334.085	65.75
334.314	80.75
334.542	82.75
334.771	87.75
334.999	80.75
335.227	90.75
335.455	86.75
335.684	86.75
335.912	84.75
336.14	82.75
336.369	86.75
336.597	87.75
336.825	93.75
337.053	94.75
337.281	91.75
337.51	77.75
337.738	88.75
337.966	88.75
338.194	68.75
338.422	81.75
338.65	84.75
338.878	82.75
339.106	87.75
339.334	102.75
339.562	81.75
339.79	88.75
340.018	73.75
340.246	72.75
340.474	81.75
340.702	84.75
340.93	89.75
341.158	69.75
341.386	82.75
341.614	69.75
341.842	75.75
342.07	67.75
342.298	87.75
342.526	97.75
342.754	88.75
342.981	83.75
343.209	96.75
343.437	76.75
343.665	88.75
343.893	89.75
344.12	94.75
344.348	85.75
344.576	81.75
344.804	75.75
345.031	90.75
345.259	101.75
345.487	88.75
345.714	92.75
345.942	93.75
346.17	76.75
346.397	83.75
346.625	83.75
346.853	70.75
347.08	76.75
347.308	76.75
347.535	90.75
347.763	81.75
347.99	72.75
348.218	86.75
348.445	84.75
348.673	83.75
348.9	86.75
349.128	81.75
349.355	86.75
349.583	77.75
349.81	75.75
350.037	89.75
350.265	71.75
350.492	80.75
350.72	89.75
350.947	97.75
351.174	85.75
351.402	89.75
351.629	83.75
351.856	80.75
352.083	93.75
352.311	76.75
352.538	84.75
352.765	90.75
352.992	86.75
353.22	75.75
353.447	73.75
353.674	77.75
353.901	76.75
354.128	81.75
354.355	81.75
354.583	82.75
354.81	81.75
355.037	82.75
355.264	86.75
355.491	91.75
355.718	85.75
355.945	83.75
356.172	85.75
356.399	91.75
356.626	83.75
356.853	92.75
357.08	87.75
357.307	76.75
357.534	90.75
357.761	87.75
357.988	95.75
358.215	88.75
358.441	81.75
358.668	87.75
358.895	85.75
359.122	97.75
359.349	74.75
359.576	85.75
359.802	94.75
360.029	92.75
360.256	87.75
360.483	89.75
360.709	86.75
360.936	92.75
361.163	89.75
361.39	95.75
361.616	81.75
361.843	78.75
362.07	84.75
362.296	63.75
362.523	80.75
362.749	82.75
362.976	84.75
363.203	84.75
363.429	89.75
363.656	90.75
363.882	73.75
364.109	80.75
364.335	90.75
364.562	91.75
364.788	84.75
365.015	78.75
365.241	84.75
365.468	93.75
365.694	90.75
365.92	86.75
366.147	96.75
366.373	86.75
366.599	100.75
366.826	88.75
367.052	85.75
367.278	85.75
367.505	91.75
367.731	92.75
367.957	81.75
368.184	83.75
368.41	84.75
368.636	84.75
368.862	88.75
369.089	88.75
369.315	84.75
369.541	98.75
369.767	98.75
369.993	91.75
370.219	88.75
370.445	83.75
370.672	76.75
370.898	93.75
371.124	95.75
371.35	83.75
371.576	93.75
371.802	83.75
372.028	87.75
372.254	97.75
372.48	92.75
372.706	94.75
372.932	79.75
373.158	98.75
373.384	96.75
373.61	95.75
373.835	87.75
374.061	87.75
374.287	103.75
374.513	97.75
374.739	90.75
374.965	85.75
375.191	84.75
375.416	100.75
375.642	97.75
375.868	111.75
376.094	95.75
376.319	90.75
376.545	77.75
376.771	92.75
376.997	84.75
377.222	90.75
377.448	89.75
377.674	93.75
377.899	83.75
378.125	80.75
378.35	98.75
378.576	94.75
378.802	102.75
379.027	97.75
379.253	95.75
379.478	86.75
379.704	96.75
379.929	86.75
380.155	94.75
380.38	106.75
380.606	93.75
380.831	98.75
381.057	92.75
381.282	102.75
381.507	98.75
381.733	103.75
381.958	90.75
382.184	96.75
382.409	103.75
382.634	93.75
382.86	89.75
383.085	105.75
383.31	89.75
383.535	92.75
383.761	93.75
383.986	92.75
384.211	98.75
384.436	88.75
384.662	99.75
384.887	90.75
385.112	90.75
385.337	83.75
385.562	104.75
385.787	85.75
386.013	110.75
386.238	103.75
386.463	100.75
386.688	106.75
386.913	104.75
387.138	88.75
387.363	94.75
387.588	95.75
387.813	104.75
388.038	95.75
388.263	113.75
388.488	100.75
388.713	94.75
388.938	84.75
389.163	92.75
389.387	100.75
389.612	95.75
389.837	95.75
390.062	103.75
390.287	102.75
390.512	102.75
390.736	99.75
390.961	99.75
391.186	96.75
391.411	107.75
391.636	103.75
391.86	108.75
392.085	86.75
392.31	111.75
392.534	110.75
392.759	115.75
392.984	115.75
393.208	102.75
393.433	102.75
393.658	99.75
393.882	96.75
394.107	95.75
394.331	102.75
394.556	105.75
394.78	81.75
395.005	96.75
395.229	96.75
395.454	98.75
395.678	96.75
395.903	112.75
396.127	106.75
396.352	102.75
396.576	108.75
396.801	99.75
397.025	94.75
397.249	99.75
397.474	108.75
397.698	114.75
397.922	113.75
398.147	118.75
398.371	101.75
398.595	103.75
398.82	103.75
399.044	106.75
399.268	117.75
399.492	116.75
399.717	103.75
399.941	108.75
400.165	110.75
400.389	108.75
400.613	108.75
400.837	121.75
401.062	105.75
401.286	98.75
401.51	111.75
401.734	108.75
401.958	118.75
402.182	107.75
402.406	104.75
402.63	119.75
402.854	110.75
403.078	120.75
403.302	99.75
403.526	105.75
403.75	110.75
403.974	111.75
404.198	107.75
404.422	112.75
404.645	113.75
404.869	106.75
405.093	104.75
405.317	115.75
405.541	111.75
405.765	127.75
405.988	119.75
406.212	116.75
406.436	119.75
406.66	118.75
406.883	111.75
407.107	113.75
407.331	116.75
407.555	107.75
407.778	128.75
408.002	129.75
408.226	118.75
408.449	122.75
408.673	114.75
408.896	122.75
409.12	120.75
409.344	122.75
409.567	118.75
409.791	127.75
410.014	122.75
410.238	120.75
410.461	128.75
410.685	111.75
410.908	112.75
411.132	128.75
411.355	121.75
411.578	119.75
411.802	125.75
412.025	117.75
412.249	113.75
412.472	118.75
412.695	122.75
412.919	116.75
413.142	125.75
413.365	115.75
413.589	118.75
413.812	123.75
414.035	95.75
414.258	122.75
414.482	130.75
414.705	115.75
414.928	123.75
415.151	127.75
415.374	112.75
415.597	119.75
415.821	132.75
416.044	120.75
416.267	115.75
416.49	112.75
416.713	120.75
416.936	136.75
417.159	131.75
417.382	122.75
417.605	131.75
417.828	121.75
418.051	127.75
418.274	133.75
418.497	144.75
418.72	129.75
418.943	122.75
419.166	144.75
419.389	130.75
419.611	135.75
419.834	126.75
420.057	118.75
420.28	129.75
420.503	126.75
420.726	134.75
420.948	122.75
421.171	133.75
421.394	132.75
421.617	147.75
421.839	136.75
422.062	136.75
422.285	120.75
422.507	133.75
422.73	128.75
422.953	118.75
423.175	116.75
423.398	125.75
423.621	122.75
423.843	128.75
424.066	131.75
424.288	140.75
424.511	130.75
424.733	147.75
424.956	143.75
425.178	126.75
425.401	125.75
425.623	131.75
425.846	144.75
426.068	130.75
426.291	130.75
426.513	116.75
426.735	123.75
426.958	117.75
427.18	131.75
427.402	130.75
427.625	130.75
427.847	127.75
428.069	124.75
428.292	124.75
428.514	120.75
428.736	137.75
428.958	128.75
429.181	128.75
429.403	118.75
429.625	130.75
429.847	116.75
430.069	126.75
430.292	116.75
430.514	123.75
430.736	128.75
430.958	128.75
431.18	115.75
431.402	118.75
431.624	115.75
431.846	105.75
432.068	90.75
432.29	107.75
432.512	117.75
432.734	131.75
432.956	127.75
433.178	136.75
433.4	133.75
433.622	151.75
433.844	128.75
434.066	121.75
434.287	121.75
434.509	87.75
434.731	86.75
434.953	116.75
435.175	124.75
435.397	141.75
435.618	124.75
435.84	101.75
436.062	106.75
436.284	130.75
436.505	137.75
436.727	135.75
436.949	137.75
437.17	124.75
437.392	137.75
437.614	124.75
437.835	111.75
438.057	105.75
438.278	114.75
438.5	122.75
438.721	135.75
438.943	142.75
439.165	134.75
439.386	137.75
439.608	150.75
439.829	132.75
440.05	149.75
440.272	135.75
440.493	131.75
440.715	139.75
440.936	151.75
441.158	130.75
441.379	148.75
441.6	149.75
441.822	146.75
442.043	142.75
442.264	132.75
442.486	133.75
442.707	135.75
442.928	131.75
443.149	123.75
443.371	131.75
443.592	134.75
443.813	140.75
444.034	148.75
444.255	137.75
444.476	145.75
444.698	128.75
444.919	132.75
445.14	281.75
445.361	196.75
445.582	145.75
445.803	134.75
446.024	136.75
446.245	149.75
446.466	150.75
446.687	144.75
446.908	152.75
447.129	145.75
447.35	151.75
447.571	148.75
447.792	140.75
448.013	149.75
448.234	136.75
448.455	146.75
448.675	130.75
448.896	138.75
449.117	128.75
449.338	136.75
449.559	133.75
449.779	148.75
450	130.75
450.221	127.75
450.442	139.75
450.662	135.75
450.883	134.75
451.104	128.75
451.324	133.75
451.545	135.75
451.766	135.75
451.986	139.75
452.207	122.75
452.428	118.75
452.648	115.75
452.869	121.75
453.089	131.75
453.31	112.75
453.53	104.75
453.751	97.75
453.971	92.75
454.192	101.75
454.412	94.75
454.633	121.75
454.853	112.75
455.073	104.75
455.294	107.75
455.514	122.75
455.734	119.75
455.955	124.75
456.175	122.75
456.395	116.75
456.616	105.75
456.836	102.75
457.056	111.75
457.276	103.75
457.497	89.75
457.717	100.75
457.937	114.75
458.157	86.75
458.377	101.75
458.598	95.75
458.818	81.75
459.038	87.75
459.258	94.75
459.478	86.75
459.698	76.75
459.918	80.75
460.138	113.75
460.358	119.75
460.578	117.75
460.798	95.75
461.018	119.75
461.238	126.75
461.458	117.75
461.678	116.75
461.898	118.75
462.118	112.75
462.338	118.75
462.558	99.75
462.777	102.75
462.997	107.75
463.217	120.75
463.437	102.75
463.657	94.75
463.876	110.75
464.096	102.75
464.316	98.75
464.536	104.75
464.755	105.75
464.975	100.75
465.195	119.75
465.414	115.75
465.634	117.75
465.854	110.75
466.073	109.75
466.293	115.75
466.512	123.75
466.732	125.75
466.951	134.75
467.171	142.75
467.391	116.75
467.61	138.75
467.829	131.75
468.049	133.75
468.268	131.75
468.488	130.75
468.707	127.75
468.927	136.75
469.146	130.75
469.365	136.75
469.585	144.75
469.804	138.75
470.023	130.75
470.243	134.75
470.462	146.75
470.681	136.75
470.901	121.75
471.12	138.75
471.339	130.75
471.558	139.75
471.777	132.75
471.997	133.75
472.216	122.75
472.435	99.75
472.654	112.75
472.873	111.75
473.092	108.75
473.311	122.75
473.53	119.75
473.749	105.75
473.968	125.75
474.187	118.75
474.406	119.75
474.625	124.75
474.844	128.75
475.063	119.75
475.282	112.75
475.501	112.75
475.72	118.75
475.939	105.75
476.158	130.75
476.377	117.75
476.596	118.75
476.814	112.75
477.033	107.75
477.252	119.75
477.471	126.75
477.69	131.75
477.908	108.75
478.127	135.75
478.346	130.75
478.564	130.75
478.783	114.75
479.002	140.75
479.22	136.75
479.439	129.75
479.658	122.75
479.876	100.75
480.095	111.75
480.313	106.75
480.532	112.75
480.751	103.75
480.969	97.75
481.188	104.75
481.406	91.75
481.624	92.75
481.843	70.75
482.061	94.75
482.28	119.75
482.498	128.75
482.717	100.75
482.935	135.75
483.153	141.75
483.372	150.75
483.59	156.75
483.808	125.75
484.027	130.75
484.245	142.75
484.463	148.75
484.681	154.75
484.9	144.75
485.118	132.75
485.336	130.75
485.554	107.75
485.772	96.75
485.99	103.75
486.209	119.75
486.427	98.75
486.645	120.75
486.863	128.75
487.081	128.75
487.299	128.75
487.517	140.75
487.735	160.75
487.953	191.75
488.171	176.75
488.389	163.75
488.607	162.75
488.825	143.75
489.043	114.75
489.261	123.75
489.479	143.75
489.696	138.75
489.914	134.75
490.132	137.75
490.35	154.75
490.568	140.75
490.786	171.75
491.003	170.75
491.221	174.75
491.439	184.75
491.657	192.75
491.874	200.75
492.092	207.75
492.31	244.75
492.527	219.75
492.745	206.75
492.963	190.75
493.18	179.75
493.398	182.75
493.615	190.75
493.833	181.75
494.05	170.75
494.268	158.75
494.485	176.75
494.703	166.75
494.92	162.75
495.138	162.75
495.355	151.75
495.573	175.75
495.79	152.75
496.008	153.75
496.225	168.75
496.442	160.75
496.66	168.75
496.877	148.75
497.094	163.75
497.312	150.75
497.529	162.75
497.746	152.75
497.963	144.75
498.181	152.75
498.398	121.75
498.615	127.75
498.832	107.75
499.049	130.75
499.267	114.75
499.484	113.75
499.701	140.75
499.918	129.75
500.135	126.75
500.352	126.75
500.569	152.75
500.786	138.75
501.003	139.75
501.22	146.75
501.437	129.75
501.654	126.75
501.871	132.75
502.088	126.75
502.305	140.75
502.522	122.75
502.739	138.75
502.956	126.75
503.172	117.75
503.389	107.75
503.606	132.75
503.823	118.75
504.04	106.75
504.256	106.75
504.473	111.75
504.69	111.75
504.907	121.75
505.123	114.75
505.34	140.75
505.557	121.75
505.773	122.75
505.99	95.75
506.207	121.75
506.423	106.75
506.64	127.75
506.856	121.75
507.073	111.75
507.289	124.75
507.506	107.75
507.722	120.75
507.939	104.75
508.155	113.75
508.372	99.75
508.588	111.75
508.805	105.75
509.021	107.75
509.238	98.75
509.454	101.75
509.67	115.75
509.887	114.75
510.103	97.75
510.319	98.75
510.536	94.75
510.752	81.75
510.968	99.75
511.184	83.75
511.401	79.75
511.617	91.75
511.833	81.75
512.049	75.75
512.265	95.75
512.481	97.75
512.698	95.75
512.914	96.75
513.13	97.75
513.346	102.75
513.562	96.75
513.778	96.75
513.994	63.75
514.21	97.75
514.426	95.75
514.642	99.75
514.858	86.75
515.074	90.75
515.29	86.75
515.506	95.75
515.721	76.75
515.937	92.75
516.153	91.75
516.369	84.75
516.585	87.75
516.801	84.75
517.016	80.75
517.232	88.75
517.448	83.75
517.664	105.75
517.879	103.75
518.095	103.75
518.311	80.75
518.527	88.75
518.742	91.75
518.958	100.75
519.173	103.75
519.389	121.75
519.605	101.75
519.82	116.75
520.036	119.75
520.251	96.75
520.467	98.75
520.682	105.75
520.898	101.75
521.113	82.75
521.329	81.75
521.544	94.75
521.76	89.75
521.975	102.75
522.19	107.75
522.406	82.75
522.621	106.75
522.836	112.75
523.052	94.75
523.267	104.75
523.482	100.75
523.698	107.75
523.913	125.75
524.128	118.75
524.343	107.75
524.559	130.75
524.774	107.75
524.989	141.75
525.204	113.75
525.419	116.75
525.634	103.75
525.849	108.75
526.064	98.75
526.28	95.75
526.495	90.75
526.71	89.75
526.925	89.75
527.14	85.75
527.355	92.75
527.57	100.75
527.785	94.75
527.999	87.75
528.214	98.75
528.429	115.75
528.644	120.75
528.859	137.75
529.074	140.75
529.289	176.75
529.503	168.75
529.718	150.75
529.933	126.75
530.148	96.75
530.363	90.75
530.577	68.75
530.792	90.75
531.007	98.75
531.221	85.75
531.436	81.75
531.651	88.75
531.865	110.75
532.08	101.75
532.295	77.75
532.509	91.75
532.724	84.75
532.938	81.75
533.153	99.75
533.367	110.75
533.582	116.75
533.796	123.75
534.011	103.75
534.225	99.75
534.44	87.75
534.654	96.75
534.868	92.75
535.083	83.75
535.297	101.75
535.511	103.75
535.726	101.75
535.94	100.75
536.154	92.75
536.369	72.75
536.583	78.75
536.797	97.75
537.011	79.75
537.225	75.75
537.44	82.75
537.654	76.75
537.868	101.75
538.082	98.75
538.296	96.75
538.51	100.75
538.724	105.75
538.938	116.75
539.153	134.75
539.367	129.75
539.581	104.75
539.795	108.75
540.009	87.75
540.222	99.75
540.436	95.75
540.65	101.75
540.864	126.75
541.078	132.75
541.292	151.75
541.506	158.75
541.72	180.75
541.934	186.75
542.147	204.75
542.361	183.75
542.575	158.75
542.789	140.75
543.002	126.75
543.216	123.75
543.43	131.75
543.644	130.75
543.857	145.75
544.071	153.75
544.285	151.75
544.498	149.75
544.712	136.75
544.925	146.75
545.139	146.75
545.352	151.75
545.566	154.75
545.779	151.75
545.993	177.75
546.206	168.75
546.42	165.75
546.633	170.75
546.847	160.75
547.06	164.75
547.274	153.75
547.487	160.75
547.7	164.75
547.914	166.75
548.127	180.75
548.34	154.75
548.554	161.75
548.767	159.75
548.98	140.75
549.193	152.75
549.407	142.75
549.62	147.75
549.833	148.75
550.046	145.75
550.259	154.75
550.473	161.75
550.686	137.75
550.899	128.75
551.112	140.75
551.325	139.75
551.538	140.75
551.751	122.75
551.964	122.75
552.177	130.75
552.39	130.75
552.603	140.75
552.816	149.75
553.029	140.75
553.242	152.75
553.455	167.75
553.667	160.75
553.88	152.75
554.093	141.75
554.306	139.75
554.519	148.75
554.732	138.75
554.944	146.75
555.157	152.75
555.37	159.75
555.583	137.75
555.795	140.75
556.008	140.75
556.221	120.75
556.433	131.75
556.646	126.75
556.859	140.75
557.071	145.75
557.284	135.75
557.496	128.75
557.709	137.75
557.921	149.75
558.134	120.75
558.346	122.75
558.559	139.75
558.771	144.75
558.984	125.75
559.196	144.75
559.409	128.75
559.621	114.75
559.833	116.75
560.046	131.75
560.258	130.75
560.47	124.75
560.683	131.75
560.895	116.75
561.107	121.75
561.32	131.75
561.532	136.75
561.744	128.75
561.956	128.75
562.168	128.75
562.381	132.75
562.593	130.75
562.805	120.75
563.017	116.75
563.229	128.75
563.441	116.75
563.653	127.75
563.865	124.75
564.077	121.75
564.289	122.75
564.501	116.75
564.713	129.75
564.925	104.75
565.137	115.75
565.349	133.75
565.561	118.75
565.773	120.75
565.985	115.75
566.197	112.75
566.408	116.75
566.62	113.75
566.832	123.75
567.044	130.75
567.255	107.75
567.467	112.75
567.679	106.75
567.891	101.75
568.102	106.75
568.314	85.75
568.526	85.75
568.737	92.75
568.949	84.75
569.161	85.75
569.372	85.75
569.584	85.75
569.795	82.75
570.007	69.75
570.218	96.75
570.43	95.75
570.641	82.75
570.853	99.75
571.064	89.75
571.276	89.75
571.487	110.75
571.698	112.75
571.91	104.75
572.121	120.75
572.333	117.75
572.544	95.75
572.755	104.75
572.966	106.75
573.178	91.75
573.389	89.75
573.6	88.75
573.811	85.75
574.023	83.75
574.234	76.75
574.445	94.75
574.656	86.75
574.867	106.75
575.078	84.75
575.289	97.75
575.501	103.75
575.712	104.75
575.923	104.75
576.134	115.75
576.345	98.75
576.556	100.75
576.767	103.75
576.978	97.75
577.188	100.75
577.399	84.75
577.61	86.75
577.821	91.75
578.032	115.75
578.243	94.75
578.454	93.75
578.665	89.75
578.875	73.75
579.086	92.75
579.297	78.75
579.508	80.75
579.718	91.75
579.929	75.75
580.14	87.75
580.35	72.75
580.561	96.75
580.772	90.75
580.982	81.75
581.193	113.75
581.403	91.75
581.614	90.75
581.825	97.75
582.035	88.75
582.246	85.75
582.456	84.75
582.667	80.75
582.877	87.75
583.087	86.75
583.298	98.75
583.508	82.75
583.719	84.75
583.929	101.75
584.139	91.75
584.35	80.75
584.56	87.75
584.77	74.75
584.981	97.75
585.191	98.75
585.401	90.75
585.611	74.75
585.821	95.75
586.032	85.75
586.242	89.75
586.452	81.75
586.662	79.75
586.872	89.75
587.082	77.75
587.292	83.75
587.502	86.75
587.713	87.75
587.923	82.75
588.133	80.75
588.343	80.75
588.553	82.75
588.762	97.75
588.972	92.75
589.182	91.75
589.392	89.75
589.602	83.75
589.812	90.75
590.022	81.75
590.232	99.75
590.441	86.75
590.651	89.75
590.861	79.75
591.071	91.75
591.281	76.75
591.49	91.75
591.7	97.75
591.91	85.75
592.119	96.75
592.329	81.75
592.539	98.75
592.748	99.75
592.958	95.75
593.167	77.75
593.377	91.75
593.587	97.75
593.796	85.75
594.006	89.75
594.215	70.75
594.424	85.75
594.634	91.75
594.843	94.75
595.053	92.75
595.262	90.75
595.472	96.75
595.681	90.75
595.89	84.75
596.1	91.75
596.309	80.75
596.518	97.75
596.727	98.75
596.937	89.75
597.146	83.75
597.355	99.75
597.564	91.75
597.774	99.75
597.983	96.75
598.192	95.75
598.401	86.75
598.61	84.75
598.819	87.75
599.028	90.75
599.237	102.75
599.446	90.75
599.655	85.75
599.864	84.75
600.073	99.75
600.282	105.75
600.491	90.75
600.7	84.75
600.909	91.75
601.118	99.75
601.327	94.75
601.536	99.75
601.745	112.75
601.953	121.75
602.162	88.75
602.371	93.75
602.58	112.75
602.789	103.75
602.997	102.75
603.206	123.75
603.415	114.75
603.623	99.75
603.832	111.75
604.041	101.75
604.249	108.75
604.458	89.75
604.666	108.75
604.875	103.75
605.084	103.75
605.292	115.75
605.501	114.75
605.709	106.75
605.918	114.75
606.126	117.75
606.334	110.75
606.543	107.75
606.751	107.75
606.96	114.75
607.168	122.75
607.376	116.75
607.585	103.75
607.793	106.75
608.001	104.75
608.21	106.75
608.418	114.75
608.626	114.75
608.834	121.75
609.043	124.75
609.251	107.75
609.459	119.75
609.667	121.75
609.875	135.75
610.083	128.75
610.291	116.75
610.499	112.75
610.707	107.75
610.916	113.75
611.124	117.75
611.332	126.75
611.54	108.75
611.748	112.75
611.955	115.75
612.163	105.75
612.371	98.75
612.579	100.75
612.787	98.75
612.995	129.75
613.203	104.75
613.411	109.75
613.618	102.75
613.826	117.75
614.034	101.75
614.242	108.75
614.449	108.75
614.657	102.75
614.865	112.75
615.072	119.75
615.28	114.75
615.488	107.75
615.695	111.75
615.903	100.75
616.111	118.75
616.318	118.75
616.526	110.75
616.733	102.75
616.941	100.75
617.148	102.75
617.356	110.75
617.563	122.75
617.771	112.75
617.978	112.75
618.185	101.75
618.393	100.75
618.6	101.75
618.807	99.75
619.015	107.75
619.222	115.75
619.429	105.75
619.637	112.75
619.844	93.75
620.051	105.75
620.258	113.75
620.466	94.75
620.673	103.75
620.88	104.75
621.087	110.75
621.294	95.75
621.501	98.75
621.708	107.75
621.915	104.75
622.122	116.75
622.329	110.75
622.536	108.75
622.743	108.75
622.95	118.75
623.157	118.75
623.364	100.75
623.571	112.75
623.778	122.75
623.985	110.75
624.192	113.75
624.399	102.75
624.606	110.75
624.812	98.75
625.019	128.75
625.226	106.75
625.433	95.75
625.639	89.75
625.846	93.75
626.053	90.75
626.259	96.75
626.466	94.75
626.673	90.75
626.879	94.75
627.086	90.75
627.293	100.75
627.499	95.75
627.706	118.75
627.912	122.75
628.119	108.75
628.325	110.75
628.532	89.75
628.738	110.75
628.945	86.75
629.151	99.75
629.357	98.75
629.564	90.75
629.77	115.75
629.976	112.75
630.183	91.75
630.389	105.75
630.595	113.75
630.802	94.75
631.008	106.75
631.214	99.75
631.42	102.75
631.627	119.75
631.833	96.75
632.039	102.75
632.245	96.75
632.451	91.75
632.657	115.75
632.863	99.75
633.069	105.75
633.275	95.75
633.481	106.75
633.688	84.75
633.893	96.75
634.099	106.75
634.305	99.75
634.511	106.75
634.717	93.75
634.923	77.75
635.129	94.75
635.335	90.75
635.541	99.75
635.747	107.75
635.952	111.75
636.158	92.75
636.364	107.75
636.57	101.75
636.775	94.75
636.981	106.75
637.187	116.75
637.392	114.75
637.598	107.75
637.804	101.75
638.009	96.75
638.215	96.75
638.421	104.75
638.626	101.75
638.832	92.75
639.037	110.75
639.243	95.75
639.448	106.75
639.654	101.75
639.859	114.75
640.065	97.75
640.27	104.75
640.475	98.75
640.681	86.75
640.886	95.75
641.091	104.75
641.297	107.75
641.502	96.75
641.707	95.75
641.913	97.75
642.118	107.75
642.323	94.75
642.528	104.75
642.733	107.75
642.939	102.75
643.144	92.75
643.349	94.75
643.554	91.75
643.759	98.75
643.964	76.75
644.169	81.75
644.374	96.75
644.579	105.75
644.784	87.75
644.989	94.75
645.194	106.75
645.399	91.75
645.604	96.75
645.809	108.75
646.014	95.75
646.219	95.75
646.423	109.75
646.628	108.75
646.833	106.75
647.038	114.75
647.243	98.75
647.447	95.75
647.652	124.75
647.857	110.75
648.062	94.75
648.266	107.75
648.471	101.75
648.676	100.75
648.88	110.75
649.085	98.75
649.289	104.75
649.494	98.75
649.698	81.75
649.903	94.75
650.107	96.75
650.312	87.75
650.516	107.75
650.721	102.75
650.925	98.75
651.13	87.75
651.334	97.75
651.539	94.75
651.743	94.75
651.947	87.75
652.152	93.75
652.356	101.75
652.56	99.75
652.764	93.75
652.969	95.75
653.173	83.75
653.377	86.75
653.581	100.75
653.785	110.75
653.99	98.75
654.194	90.75
654.398	89.75
654.602	90.75
654.806	89.75
655.01	97.75
655.214	92.75
655.418	91.75
655.622	96.75
655.826	91.75
656.03	105.75
656.234	92.75
656.438	88.75
656.642	76.75
656.846	89.75
657.049	91.75
657.253	87.75
657.457	80.75
657.661	86.75
657.865	80.75
658.068	94.75
658.272	97.75
658.476	101.75
658.68	81.75
658.883	95.75
659.087	106.75
659.291	89.75
659.494	95.75
659.698	89.75
659.901	96.75
660.105	90.75
660.309	78.75
660.512	84.75
660.716	88.75
660.919	86.75
661.123	91.75
661.326	82.75
661.53	90.75
661.733	71.75
661.936	87.75
662.14	88.75
662.343	78.75
662.546	71.75
662.75	89.75
662.953	87.75
663.156	72.75
663.36	76.75
663.563	91.75
663.766	78.75
663.969	85.75
664.173	75.75
664.376	83.75
664.579	95.75
664.782	71.75
664.985	108.75
665.188	94.75
665.391	75.75
665.594	72.75
665.797	77.75
666	77.75
666.203	84.75
666.406	83.75
666.609	87.75
666.812	95.75
667.015	89.75
667.218	102.75
667.421	81.75
667.624	79.75
667.827	83.75
668.03	92.75
668.232	83.75
668.435	83.75
668.638	73.75
668.841	69.75
669.043	79.75
669.246	86.75
669.449	72.75
669.651	80.75
669.854	80.75
670.057	79.75
670.259	81.75
670.462	80.75
670.665	59.75
670.867	94.75
671.07	90.75
671.272	85.75
671.475	84.75
671.677	76.75
671.88	90.75
672.082	82.75
672.284	83.75
672.487	86.75
672.689	74.75
672.892	90.75
