Data from Location4.07152019.Energy5.Lamp.07192019.3%Agarose_HRD10591_16-20-10-926.txt Node
Date: Fri Jul 19 16:20:10 EDT 2019
User: cochatt
Spectrometer: HR+D1059
Trigger mode: 1
Integration Time (sec): 1.000000E-1
Scans to average: 1
Electric dark correction enabled: true
Nonlinearity correction enabled: false
Boxcar width: 0
XAxis mode: Wavelengths
Number of Pixels in Spectrum: 2048
>>>>>Begin Spectral Data<<<<<
223.165	-20.31
223.4	-20.31
223.635	-20.31
223.869	-21.31
224.104	-11.31
224.338	-16.31
224.573	-16.31
224.808	-20.31
225.042	4.69
225.277	4.69
225.511	-8.31
225.746	8.69
225.98	1.69
226.215	9.69
226.449	12.69
226.683	21.69
226.918	16.69
227.152	33.69
227.387	32.69
227.621	28.69
227.856	46.69
228.09	40.69
228.324	53.69
228.559	62.69
228.793	52.69
229.027	53.69
229.262	72.69
229.496	69.69
229.73	62.69
229.964	78.69
230.199	81.69
230.433	90.69
230.667	65.69
230.901	87.69
231.136	74.69
231.37	89.69
231.604	77.69
231.838	83.69
232.072	88.69
232.306	92.69
232.541	90.69
232.775	76.69
233.009	74.69
233.243	66.69
233.477	90.69
233.711	93.69
233.945	84.69
234.179	72.69
234.413	79.69
234.647	93.69
234.881	85.69
235.115	79.69
235.349	82.69
235.583	87.69
235.817	90.69
236.051	71.69
236.285	83.69
236.519	78.69
236.753	81.69
236.987	84.69
237.221	77.69
237.455	91.69
237.689	78.69
237.922	75.69
238.156	79.69
238.39	72.69
238.624	79.69
238.858	77.69
239.091	68.69
239.325	75.69
239.559	80.69
239.793	76.69
240.027	85.69
240.26	78.69
240.494	84.69
240.728	74.69
240.961	79.69
241.195	82.69
241.429	89.69
241.662	88.69
241.896	74.69
242.13	86.69
242.363	77.69
242.597	83.69
242.83	75.69
243.064	68.69
243.298	73.69
243.531	76.69
243.765	83.69
243.998	76.69
244.232	85.69
244.465	76.69
244.699	83.69
244.932	86.69
245.166	90.69
245.399	79.69
245.633	88.69
245.866	70.69
246.099	67.69
246.333	89.69
246.566	80.69
246.8	77.69
247.033	83.69
247.266	71.69
247.5	70.69
247.733	77.69
247.966	88.69
248.2	79.69
248.433	85.69
248.666	65.69
248.899	70.69
249.133	86.69
249.366	86.69
249.599	71.69
249.832	77.69
250.066	78.69
250.299	60.69
250.532	81.69
250.765	90.69
250.998	82.69
251.231	82.69
251.465	78.69
251.698	90.69
251.931	86.69
252.164	86.69
252.397	83.69
252.63	82.69
252.863	76.69
253.096	88.69
253.329	87.69
253.562	104.69
253.795	84.69
254.028	78.69
254.261	78.69
254.494	75.69
254.727	98.69
254.96	75.69
255.193	79.69
255.426	70.69
255.659	84.69
255.892	94.69
256.124	95.69
256.357	86.69
256.59	85.69
256.823	83.69
257.056	82.69
257.289	89.69
257.521	75.69
257.754	92.69
257.987	87.69
258.22	89.69
258.452	81.69
258.685	87.69
258.918	75.69
259.151	87.69
259.383	83.69
259.616	71.69
259.849	96.69
260.081	71.69
260.314	78.69
260.547	74.69
260.779	77.69
261.012	86.69
261.244	79.69
261.477	87.69
261.71	92.69
261.942	87.69
262.175	85.69
262.407	87.69
262.64	87.69
262.872	87.69
263.105	76.69
263.337	86.69
263.57	81.69
263.802	87.69
264.035	93.69
264.267	78.69
264.499	93.69
264.732	93.69
264.964	82.69
265.197	97.69
265.429	86.69
265.661	89.69
265.894	73.69
266.126	75.69
266.358	75.69
266.591	78.69
266.823	73.69
267.055	74.69
267.287	67.69
267.52	85.69
267.752	74.69
267.984	80.69
268.216	71.69
268.448	72.69
268.681	68.69
268.913	84.69
269.145	80.69
269.377	87.69
269.609	103.69
269.841	77.69
270.073	78.69
270.306	92.69
270.538	81.69
270.77	93.69
271.002	87.69
271.234	77.69
271.466	85.69
271.698	69.69
271.93	78.69
272.162	86.69
272.394	77.69
272.626	81.69
272.858	83.69
273.09	100.69
273.322	78.69
273.553	85.69
273.785	92.69
274.017	83.69
274.249	82.69
274.481	89.69
274.713	77.69
274.945	86.69
275.176	86.69
275.408	84.69
275.64	89.69
275.872	94.69
276.104	79.69
276.335	81.69
276.567	83.69
276.799	89.69
277.031	86.69
277.262	86.69
277.494	78.69
277.726	81.69
277.957	78.69
278.189	77.69
278.421	76.69
278.652	79.69
278.884	89.69
279.115	83.69
279.347	90.69
279.579	76.69
279.81	90.69
280.042	73.69
280.273	78.69
280.505	86.69
280.736	81.69
280.968	89.69
281.199	86.69
281.431	79.69
281.662	77.69
281.894	79.69
282.125	81.69
282.356	87.69
282.588	89.69
282.819	79.69
283.051	76.69
283.282	86.69
283.513	95.69
283.745	73.69
283.976	83.69
284.207	87.69
284.439	77.69
284.67	93.69
284.901	79.69
285.132	83.69
285.364	85.69
285.595	83.69
285.826	91.69
286.057	94.69
286.288	78.69
286.52	104.69
286.751	85.69
286.982	89.69
287.213	74.69
287.444	94.69
287.675	85.69
287.906	88.69
288.138	87.69
288.369	85.69
288.6	74.69
288.831	96.69
289.062	81.69
289.293	82.69
289.524	93.69
289.755	104.69
289.986	97.69
290.217	74.69
290.448	69.69
290.679	86.69
290.91	99.69
291.141	86.69
291.371	93.69
291.602	78.69
291.833	98.69
292.064	86.69
292.295	80.69
292.526	92.69
292.757	82.69
292.987	79.69
293.218	76.69
293.449	79.69
293.68	93.69
293.91	89.69
294.141	83.69
294.372	96.69
294.603	84.69
294.833	79.69
295.064	81.69
295.295	69.69
295.525	79.69
295.756	89.69
295.987	75.69
296.217	85.69
296.448	86.69
296.679	90.69
296.909	84.69
297.14	101.69
297.37	92.69
297.601	86.69
297.831	87.69
298.062	81.69
298.292	76.69
298.523	83.69
298.753	76.69
298.984	90.69
299.214	83.69
299.445	73.69
299.675	70.69
299.905	87.69
300.136	85.69
300.366	88.69
300.597	91.69
300.827	80.69
301.057	94.69
301.288	78.69
301.518	91.69
301.748	74.69
301.979	89.69
302.209	79.69
302.439	83.69
302.669	95.69
302.9	89.69
303.13	99.69
303.36	94.69
303.59	86.69
303.82	85.69
304.051	87.69
304.281	86.69
304.511	88.69
304.741	88.69
304.971	83.69
305.201	86.69
305.431	81.69
305.661	77.69
305.891	93.69
306.121	82.69
306.352	78.69
306.582	77.69
306.812	70.69
307.042	99.69
307.272	90.69
307.502	84.69
307.731	92.69
307.961	82.69
308.191	91.69
308.421	87.69
308.651	88.69
308.881	99.69
309.111	89.69
309.341	85.69
309.571	92.69
309.8	84.69
310.03	91.69
310.26	78.69
310.49	71.69
310.72	80.69
310.949	99.69
311.179	89.69
311.409	90.69
311.639	82.69
311.868	77.69
312.098	91.69
312.328	91.69
312.557	87.69
312.787	76.69
313.017	97.69
313.246	94.69
313.476	90.69
313.706	93.69
313.935	81.69
314.165	75.69
314.394	76.69
314.624	70.69
314.853	85.69
315.083	86.69
315.312	82.69
315.542	83.69
315.771	91.69
316.001	83.69
316.23	84.69
316.46	84.69
316.689	82.69
316.919	77.69
317.148	91.69
317.377	85.69
317.607	91.69
317.836	81.69
318.065	88.69
318.295	79.69
318.524	92.69
318.753	78.69
318.983	89.69
319.212	103.69
319.441	78.69
319.67	88.69
319.9	78.69
320.129	85.69
320.358	90.69
320.587	83.69
320.816	95.69
321.046	86.69
321.275	94.69
321.504	89.69
321.733	94.69
321.962	88.69
322.191	77.69
322.42	80.69
322.649	88.69
322.878	96.69
323.108	71.69
323.337	86.69
323.566	79.69
323.795	95.69
324.024	88.69
324.253	78.69
324.482	87.69
324.71	102.69
324.939	101.69
325.168	91.69
325.397	86.69
325.626	90.69
325.855	79.69
326.084	85.69
326.313	87.69
326.542	89.69
326.77	74.69
326.999	89.69
327.228	85.69
327.457	91.69
327.686	73.69
327.914	72.69
328.143	102.69
328.372	91.69
328.6	89.69
328.829	81.69
329.058	74.69
329.287	73.69
329.515	97.69
329.744	85.69
329.972	80.69
330.201	83.69
330.43	72.69
330.658	84.69
330.887	96.69
331.115	92.69
331.344	81.69
331.572	97.69
331.801	94.69
332.03	92.69
332.258	86.69
332.486	84.69
332.715	88.69
332.943	83.69
333.172	84.69
333.4	95.69
333.629	98.69
333.857	81.69
334.085	79.69
334.314	71.69
334.542	88.69
334.771	91.69
334.999	74.69
335.227	88.69
335.455	87.69
335.684	79.69
335.912	85.69
336.14	98.69
336.369	73.69
336.597	85.69
336.825	90.69
337.053	98.69
337.281	87.69
337.51	84.69
337.738	81.69
337.966	82.69
338.194	85.69
338.422	80.69
338.65	86.69
338.878	79.69
339.106	83.69
339.334	83.69
339.562	86.69
339.79	79.69
340.018	74.69
340.246	91.69
340.474	85.69
340.702	88.69
340.93	74.69
341.158	92.69
341.386	83.69
341.614	79.69
341.842	82.69
342.07	83.69
342.298	104.69
342.526	71.69
342.754	72.69
342.981	82.69
343.209	84.69
343.437	80.69
343.665	83.69
343.893	73.69
344.12	62.69
344.348	65.69
344.576	86.69
344.804	90.69
345.031	93.69
345.259	87.69
345.487	84.69
345.714	85.69
345.942	79.69
346.17	80.69
346.397	78.69
346.625	94.69
346.853	84.69
347.08	84.69
347.308	85.69
347.535	76.69
347.763	91.69
347.99	103.69
348.218	97.69
348.445	83.69
348.673	82.69
348.9	85.69
349.128	98.69
349.355	85.69
349.583	85.69
349.81	97.69
350.037	79.69
350.265	87.69
350.492	94.69
350.72	81.69
350.947	88.69
351.174	92.69
351.402	83.69
351.629	90.69
351.856	89.69
352.083	89.69
352.311	81.69
352.538	89.69
352.765	91.69
352.992	86.69
353.22	77.69
353.447	100.69
353.674	83.69
353.901	79.69
354.128	82.69
354.355	109.69
354.583	78.69
354.81	97.69
355.037	80.69
355.264	78.69
355.491	91.69
355.718	69.69
355.945	82.69
356.172	93.69
356.399	88.69
356.626	87.69
356.853	95.69
357.08	99.69
357.307	90.69
357.534	85.69
357.761	76.69
357.988	78.69
358.215	94.69
358.441	86.69
358.668	87.69
358.895	93.69
359.122	78.69
359.349	78.69
359.576	89.69
359.802	87.69
360.029	93.69
360.256	87.69
360.483	87.69
360.709	88.69
360.936	88.69
361.163	84.69
361.39	97.69
361.616	93.69
361.843	69.69
362.07	76.69
362.296	74.69
362.523	83.69
362.749	83.69
362.976	78.69
363.203	98.69
363.429	84.69
363.656	84.69
363.882	75.69
364.109	94.69
364.335	81.69
364.562	69.69
364.788	83.69
365.015	87.69
365.241	89.69
365.468	94.69
365.694	78.69
365.92	91.69
366.147	70.69
366.373	75.69
366.599	91.69
366.826	98.69
367.052	88.69
367.278	77.69
367.505	88.69
367.731	84.69
367.957	87.69
368.184	89.69
368.41	85.69
368.636	105.69
368.862	82.69
369.089	87.69
369.315	79.69
369.541	90.69
369.767	107.69
369.993	104.69
370.219	87.69
370.445	80.69
370.672	93.69
370.898	81.69
371.124	97.69
371.35	85.69
371.576	89.69
371.802	85.69
372.028	94.69
372.254	100.69
372.48	100.69
372.706	96.69
372.932	86.69
373.158	95.69
373.384	82.69
373.61	84.69
373.835	87.69
374.061	82.69
374.287	100.69
374.513	82.69
374.739	100.69
374.965	84.69
375.191	88.69
375.416	95.69
375.642	91.69
375.868	98.69
376.094	95.69
376.319	92.69
376.545	92.69
376.771	83.69
376.997	102.69
377.222	92.69
377.448	90.69
377.674	95.69
377.899	108.69
378.125	93.69
378.35	95.69
378.576	88.69
378.802	93.69
379.027	89.69
379.253	107.69
379.478	103.69
379.704	92.69
379.929	102.69
380.155	99.69
380.38	95.69
380.606	106.69
380.831	89.69
381.057	101.69
381.282	120.69
381.507	98.69
381.733	81.69
381.958	93.69
382.184	93.69
382.409	108.69
382.634	86.69
382.86	91.69
383.085	118.69
383.31	105.69
383.535	100.69
383.761	101.69
383.986	96.69
384.211	92.69
384.436	90.69
384.662	89.69
384.887	90.69
385.112	96.69
385.337	95.69
385.562	95.69
385.787	107.69
386.013	114.69
386.238	95.69
386.463	88.69
386.688	100.69
386.913	87.69
387.138	96.69
387.363	87.69
387.588	102.69
387.813	103.69
388.038	111.69
388.263	102.69
388.488	107.69
388.713	106.69
388.938	94.69
389.163	99.69
389.387	105.69
389.612	103.69
389.837	85.69
390.062	112.69
390.287	101.69
390.512	93.69
390.736	113.69
390.961	91.69
391.186	90.69
391.411	104.69
391.636	98.69
391.86	108.69
392.085	105.69
392.31	102.69
392.534	111.69
392.759	98.69
392.984	95.69
393.208	113.69
393.433	99.69
393.658	103.69
393.882	110.69
394.107	95.69
394.331	85.69
394.556	121.69
394.78	110.69
395.005	121.69
395.229	96.69
395.454	99.69
395.678	101.69
395.903	109.69
396.127	120.69
396.352	108.69
396.576	96.69
396.801	110.69
397.025	91.69
397.249	106.69
397.474	106.69
397.698	105.69
397.922	100.69
398.147	100.69
398.371	103.69
398.595	108.69
398.82	119.69
399.044	109.69
399.268	113.69
399.492	106.69
399.717	101.69
399.941	95.69
400.165	106.69
400.389	111.69
400.613	123.69
400.837	110.69
401.062	94.69
401.286	122.69
401.51	115.69
401.734	124.69
401.958	109.69
402.182	117.69
402.406	104.69
402.63	117.69
402.854	119.69
403.078	107.69
403.302	119.69
403.526	118.69
403.75	123.69
403.974	124.69
404.198	118.69
404.422	107.69
404.645	100.69
404.869	131.69
405.093	116.69
405.317	119.69
405.541	111.69
405.765	105.69
405.988	133.69
406.212	121.69
406.436	104.69
406.66	125.69
406.883	129.69
407.107	117.69
407.331	123.69
407.555	117.69
407.778	114.69
408.002	117.69
408.226	112.69
408.449	122.69
408.673	117.69
408.896	123.69
409.12	116.69
409.344	128.69
409.567	139.69
409.791	115.69
410.014	127.69
410.238	123.69
410.461	130.69
410.685	116.69
410.908	131.69
411.132	133.69
411.355	128.69
411.578	104.69
411.802	114.69
412.025	119.69
412.249	114.69
412.472	108.69
412.695	108.69
412.919	123.69
413.142	110.69
413.365	121.69
413.589	124.69
413.812	117.69
414.035	108.69
414.258	125.69
414.482	115.69
414.705	131.69
414.928	116.69
415.151	105.69
415.374	111.69
415.597	124.69
415.821	129.69
416.044	123.69
416.267	117.69
416.49	122.69
416.713	123.69
416.936	128.69
417.159	136.69
417.382	108.69
417.605	119.69
417.828	130.69
418.051	131.69
418.274	137.69
418.497	135.69
418.72	133.69
418.943	142.69
419.166	140.69
419.389	133.69
419.611	120.69
419.834	129.69
420.057	136.69
420.28	124.69
420.503	126.69
420.726	134.69
420.948	126.69
421.171	129.69
421.394	136.69
421.617	145.69
421.839	132.69
422.062	137.69
422.285	135.69
422.507	124.69
422.73	133.69
422.953	132.69
423.175	119.69
423.398	130.69
423.621	125.69
423.843	139.69
424.066	149.69
424.288	137.69
424.511	135.69
424.733	133.69
424.956	139.69
425.178	148.69
425.401	124.69
425.623	131.69
425.846	135.69
426.068	136.69
426.291	145.69
426.513	124.69
426.735	130.69
426.958	135.69
427.18	137.69
427.402	129.69
427.625	122.69
427.847	129.69
428.069	122.69
428.292	115.69
428.514	129.69
428.736	119.69
428.958	138.69
429.181	125.69
429.403	111.69
429.625	129.69
429.847	126.69
430.069	121.69
430.292	120.69
430.514	131.69
430.736	115.69
430.958	127.69
431.18	132.69
431.402	130.69
431.624	123.69
431.846	106.69
432.068	93.69
432.29	103.69
432.512	110.69
432.734	123.69
432.956	142.69
433.178	139.69
433.4	133.69
433.622	154.69
433.844	137.69
434.066	126.69
434.287	118.69
434.509	100.69
434.731	103.69
434.953	120.69
435.175	121.69
435.397	119.69
435.618	109.69
435.84	117.69
436.062	99.69
436.284	121.69
436.505	121.69
436.727	128.69
436.949	131.69
437.17	132.69
437.392	125.69
437.614	123.69
437.835	114.69
438.057	106.69
438.278	113.69
438.5	121.69
438.721	129.69
438.943	141.69
439.165	133.69
439.386	140.69
439.608	155.69
439.829	142.69
440.05	141.69
440.272	140.69
440.493	147.69
440.715	139.69
440.936	153.69
441.158	135.69
441.379	142.69
441.6	141.69
441.822	145.69
442.043	148.69
442.264	134.69
442.486	141.69
442.707	129.69
442.928	128.69
443.149	129.69
443.371	146.69
443.592	144.69
443.813	144.69
444.034	137.69
444.255	141.69
444.476	140.69
444.698	143.69
444.919	137.69
445.14	255.69
445.361	203.69
445.582	149.69
445.803	158.69
446.024	119.69
446.245	141.69
446.466	147.69
446.687	152.69
446.908	168.69
447.129	163.69
447.35	148.69
447.571	161.69
447.792	147.69
448.013	148.69
448.234	151.69
448.455	137.69
448.675	153.69
448.896	125.69
449.117	152.69
449.338	143.69
449.559	138.69
449.779	147.69
450	138.69
450.221	146.69
450.442	148.69
450.662	140.69
450.883	138.69
451.104	121.69
451.324	133.69
451.545	138.69
451.766	128.69
451.986	122.69
452.207	122.69
452.428	126.69
452.648	124.69
452.869	117.69
453.089	114.69
453.31	112.69
453.53	120.69
453.751	91.69
453.971	123.69
454.192	108.69
454.412	101.69
454.633	117.69
454.853	112.69
455.073	129.69
455.294	125.69
455.514	126.69
455.734	127.69
455.955	127.69
456.175	117.69
456.395	104.69
456.616	115.69
456.836	106.69
457.056	110.69
457.276	123.69
457.497	98.69
457.717	111.69
457.937	122.69
458.157	106.69
458.377	115.69
458.598	96.69
458.818	101.69
459.038	96.69
459.258	86.69
459.478	83.69
459.698	94.69
459.918	99.69
460.138	88.69
460.358	110.69
460.578	111.69
460.798	118.69
461.018	127.69
461.238	107.69
461.458	119.69
461.678	118.69
461.898	123.69
462.118	121.69
462.338	119.69
462.558	129.69
462.777	121.69
462.997	105.69
463.217	108.69
463.437	123.69
463.657	115.69
463.876	101.69
464.096	107.69
464.316	121.69
464.536	124.69
464.755	129.69
464.975	116.69
465.195	117.69
465.414	115.69
465.634	117.69
465.854	126.69
466.073	119.69
466.293	127.69
466.512	118.69
466.732	128.69
466.951	126.69
467.171	139.69
467.391	141.69
467.61	132.69
467.829	136.69
468.049	130.69
468.268	121.69
468.488	127.69
468.707	133.69
468.927	124.69
469.146	142.69
469.365	131.69
469.585	139.69
469.804	130.69
470.023	131.69
470.243	151.69
470.462	147.69
470.681	144.69
470.901	128.69
471.12	138.69
471.339	134.69
471.558	142.69
471.777	139.69
471.997	130.69
472.216	130.69
472.435	106.69
472.654	110.69
472.873	116.69
473.092	114.69
473.311	123.69
473.53	138.69
473.749	131.69
473.968	147.69
474.187	142.69
474.406	131.69
474.625	123.69
474.844	114.69
475.063	124.69
475.282	139.69
475.501	127.69
475.72	120.69
475.939	127.69
476.158	121.69
476.377	120.69
476.596	101.69
476.814	113.69
477.033	115.69
477.252	113.69
477.471	117.69
477.69	134.69
477.908	126.69
478.127	123.69
478.346	135.69
478.564	134.69
478.783	128.69
479.002	130.69
479.22	137.69
479.439	153.69
479.658	121.69
479.876	108.69
480.095	116.69
480.313	127.69
480.532	119.69
480.751	98.69
480.969	89.69
481.188	81.69
481.406	98.69
481.624	85.69
481.843	96.69
482.061	94.69
482.28	122.69
482.498	105.69
482.717	133.69
482.935	139.69
483.153	135.69
483.372	151.69
483.59	131.69
483.808	156.69
484.027	129.69
484.245	137.69
484.463	138.69
484.681	168.69
484.9	151.69
485.118	123.69
485.336	145.69
485.554	109.69
485.772	103.69
485.99	104.69
486.209	117.69
486.427	117.69
486.645	108.69
486.863	144.69
487.081	152.69
487.299	134.69
487.517	148.69
487.735	166.69
487.953	174.69
488.171	175.69
488.389	171.69
488.607	156.69
488.825	143.69
489.043	125.69
489.261	139.69
489.479	126.69
489.696	134.69
489.914	138.69
490.132	139.69
490.35	168.69
490.568	157.69
490.786	162.69
491.003	161.69
491.221	179.69
491.439	196.69
491.657	197.69
491.874	196.69
492.092	210.69
492.31	238.69
492.527	236.69
492.745	206.69
492.963	193.69
493.18	174.69
493.398	179.69
493.615	165.69
493.833	157.69
494.05	177.69
494.268	181.69
494.485	166.69
494.703	155.69
494.92	180.69
495.138	165.69
495.355	187.69
495.573	168.69
495.79	153.69
496.008	167.69
496.225	150.69
496.442	163.69
496.66	183.69
496.877	156.69
497.094	168.69
497.312	162.69
497.529	163.69
497.746	161.69
497.963	144.69
498.181	135.69
498.398	134.69
498.615	116.69
498.832	120.69
499.049	112.69
499.267	131.69
499.484	116.69
499.701	126.69
499.918	135.69
500.135	132.69
500.352	123.69
500.569	141.69
500.786	149.69
501.003	131.69
501.22	135.69
501.437	159.69
501.654	131.69
501.871	139.69
502.088	138.69
502.305	137.69
502.522	129.69
502.739	127.69
502.956	121.69
503.172	127.69
503.389	125.69
503.606	120.69
503.823	113.69
504.04	137.69
504.256	122.69
504.473	107.69
504.69	120.69
504.907	133.69
505.123	108.69
505.34	129.69
505.557	138.69
505.773	135.69
505.99	125.69
506.207	134.69
506.423	127.69
506.64	112.69
506.856	123.69
507.073	123.69
507.289	119.69
507.506	135.69
507.722	117.69
507.939	120.69
508.155	124.69
508.372	134.69
508.588	111.69
508.805	96.69
509.021	93.69
509.238	108.69
509.454	117.69
509.67	101.69
509.887	98.69
510.103	97.69
510.319	105.69
510.536	103.69
510.752	91.69
510.968	94.69
511.184	79.69
511.401	81.69
511.617	100.69
511.833	93.69
512.049	94.69
512.265	110.69
512.481	101.69
512.698	92.69
512.914	100.69
513.13	94.69
513.346	78.69
513.562	93.69
513.778	89.69
513.994	96.69
514.21	101.69
514.426	108.69
514.642	93.69
514.858	78.69
515.074	89.69
515.29	93.69
515.506	97.69
515.721	93.69
515.937	82.69
516.153	89.69
516.369	85.69
516.585	65.69
516.801	90.69
517.016	100.69
517.232	86.69
517.448	90.69
517.664	99.69
517.879	90.69
518.095	94.69
518.311	103.69
518.527	106.69
518.742	100.69
518.958	106.69
519.173	103.69
519.389	109.69
519.605	104.69
519.82	98.69
520.036	105.69
520.251	113.69
520.467	92.69
520.682	105.69
520.898	103.69
521.113	89.69
521.329	99.69
521.544	96.69
521.76	94.69
521.975	98.69
522.19	99.69
522.406	94.69
522.621	104.69
522.836	102.69
523.052	121.69
523.267	105.69
523.482	116.69
523.698	104.69
523.913	94.69
524.128	121.69
524.343	110.69
524.559	131.69
524.774	126.69
524.989	135.69
525.204	123.69
525.419	119.69
525.634	109.69
525.849	111.69
526.064	111.69
526.28	107.69
526.495	79.69
526.71	97.69
526.925	94.69
527.14	85.69
527.355	87.69
527.57	97.69
527.785	79.69
527.999	95.69
528.214	91.69
528.429	108.69
528.644	123.69
528.859	133.69
529.074	144.69
529.289	167.69
529.503	151.69
529.718	135.69
529.933	126.69
530.148	107.69
530.363	91.69
530.577	87.69
530.792	94.69
531.007	82.69
531.221	81.69
531.436	92.69
531.651	84.69
531.865	90.69
532.08	94.69
532.295	86.69
532.509	71.69
532.724	83.69
532.938	96.69
533.153	90.69
533.367	112.69
533.582	117.69
533.796	119.69
534.011	108.69
534.225	115.69
534.44	108.69
534.654	98.69
534.868	105.69
535.083	110.69
535.297	109.69
535.511	108.69
535.726	94.69
535.94	99.69
536.154	93.69
536.369	70.69
536.583	84.69
536.797	88.69
537.011	84.69
537.225	81.69
537.44	88.69
537.654	103.69
537.868	92.69
538.082	98.69
538.296	101.69
538.51	95.69
538.724	115.69
538.938	124.69
539.153	126.69
539.367	139.69
539.581	116.69
539.795	107.69
540.009	104.69
540.222	97.69
540.436	100.69
540.65	117.69
540.864	120.69
541.078	133.69
541.292	142.69
541.506	167.69
541.72	162.69
541.934	203.69
542.147	192.69
542.361	182.69
542.575	160.69
542.789	136.69
543.002	124.69
543.216	118.69
543.43	123.69
543.644	126.69
543.857	149.69
544.071	155.69
544.285	171.69
544.498	164.69
544.712	165.69
544.925	146.69
545.139	162.69
545.352	163.69
545.566	161.69
545.779	167.69
545.993	159.69
546.206	159.69
546.42	146.69
546.633	158.69
546.847	161.69
547.06	177.69
547.274	166.69
547.487	169.69
547.7	161.69
547.914	180.69
548.127	170.69
548.34	163.69
548.554	156.69
548.767	153.69
548.98	157.69
549.193	140.69
549.407	149.69
549.62	143.69
549.833	148.69
550.046	149.69
550.259	141.69
550.473	157.69
550.686	154.69
550.899	149.69
551.112	143.69
551.325	139.69
551.538	125.69
551.751	121.69
551.964	117.69
552.177	133.69
552.39	133.69
552.603	146.69
552.816	149.69
553.029	156.69
553.242	144.69
553.455	150.69
553.667	167.69
553.88	166.69
554.093	141.69
554.306	142.69
554.519	156.69
554.732	146.69
554.944	149.69
555.157	157.69
555.37	136.69
555.583	122.69
555.795	141.69
556.008	139.69
556.221	126.69
556.433	141.69
556.646	134.69
556.859	138.69
557.071	130.69
557.284	150.69
557.496	131.69
557.709	141.69
557.921	138.69
558.134	137.69
558.346	138.69
558.559	140.69
558.771	140.69
558.984	126.69
559.196	124.69
559.409	131.69
559.621	118.69
559.833	115.69
560.046	118.69
560.258	135.69
560.47	120.69
560.683	142.69
560.895	129.69
561.107	115.69
561.32	128.69
561.532	113.69
561.744	134.69
561.956	111.69
562.168	129.69
562.381	110.69
562.593	123.69
562.805	120.69
563.017	125.69
563.229	135.69
563.441	137.69
563.653	110.69
563.865	117.69
564.077	123.69
564.289	129.69
564.501	124.69
564.713	113.69
564.925	119.69
565.137	125.69
565.349	117.69
565.561	115.69
565.773	120.69
565.985	122.69
566.197	126.69
566.408	111.69
566.62	119.69
566.832	139.69
567.044	137.69
567.255	110.69
567.467	111.69
567.679	101.69
567.891	98.69
568.102	101.69
568.314	95.69
568.526	95.69
568.737	111.69
568.949	91.69
569.161	93.69
569.372	79.69
569.584	88.69
569.795	76.69
570.007	72.69
570.218	76.69
570.43	96.69
570.641	94.69
570.853	85.69
571.064	113.69
571.276	107.69
571.487	94.69
571.698	118.69
571.91	105.69
572.121	102.69
572.333	111.69
572.544	105.69
572.755	104.69
572.966	100.69
573.178	85.69
573.389	78.69
573.6	84.69
573.811	90.69
574.023	94.69
574.234	85.69
574.445	100.69
574.656	103.69
574.867	91.69
575.078	115.69
575.289	96.69
575.501	93.69
575.712	102.69
575.923	94.69
576.134	94.69
576.345	82.69
576.556	103.69
576.767	89.69
576.978	93.69
577.188	99.69
577.399	98.69
577.61	91.69
577.821	95.69
578.032	91.69
578.243	93.69
578.454	96.69
578.665	81.69
578.875	87.69
579.086	90.69
579.297	83.69
579.508	78.69
579.718	97.69
579.929	95.69
580.14	93.69
580.35	91.69
580.561	89.69
580.772	92.69
580.982	81.69
581.193	98.69
581.403	93.69
581.614	96.69
581.825	93.69
582.035	100.69
582.246	85.69
582.456	99.69
582.667	100.69
582.877	99.69
583.087	97.69
583.298	91.69
583.508	90.69
583.719	90.69
583.929	84.69
584.139	88.69
584.35	86.69
584.56	83.69
584.77	65.69
584.981	70.69
585.191	87.69
585.401	79.69
585.611	94.69
585.821	92.69
586.032	88.69
586.242	91.69
586.452	100.69
586.662	77.69
586.872	87.69
587.082	93.69
587.292	86.69
587.502	83.69
587.713	106.69
587.923	106.69
588.133	99.69
588.343	90.69
588.553	80.69
588.762	95.69
588.972	92.69
589.182	94.69
589.392	88.69
589.602	84.69
589.812	90.69
590.022	81.69
590.232	79.69
590.441	98.69
590.651	82.69
590.861	89.69
591.071	96.69
591.281	95.69
591.49	87.69
591.7	76.69
591.91	90.69
592.119	93.69
592.329	91.69
592.539	84.69
592.748	89.69
592.958	92.69
593.167	88.69
593.377	84.69
593.587	99.69
593.796	82.69
594.006	83.69
594.215	81.69
594.424	99.69
594.634	109.69
594.843	101.69
595.053	104.69
595.262	98.69
595.472	87.69
595.681	85.69
595.89	91.69
596.1	84.69
596.309	107.69
596.518	100.69
596.727	90.69
596.937	99.69
597.146	94.69
597.355	93.69
597.564	89.69
597.774	93.69
597.983	90.69
598.192	89.69
598.401	98.69
598.61	87.69
598.819	103.69
599.028	93.69
599.237	85.69
599.446	100.69
599.655	85.69
599.864	83.69
600.073	92.69
600.282	93.69
600.491	104.69
600.7	100.69
600.909	98.69
601.118	102.69
601.327	120.69
601.536	95.69
601.745	113.69
601.953	110.69
602.162	110.69
602.371	103.69
602.58	115.69
602.789	99.69
602.997	113.69
603.206	134.69
603.415	117.69
603.623	92.69
603.832	106.69
604.041	99.69
604.249	108.69
604.458	110.69
604.666	94.69
604.875	108.69
605.084	109.69
605.292	109.69
605.501	106.69
605.709	109.69
605.918	101.69
606.126	110.69
606.334	107.69
606.543	119.69
606.751	129.69
606.96	105.69
607.168	121.69
607.376	117.69
607.585	97.69
607.793	104.69
608.001	113.69
608.21	122.69
608.418	101.69
608.626	121.69
608.834	125.69
609.043	126.69
609.251	121.69
609.459	113.69
609.667	102.69
609.875	111.69
610.083	115.69
610.291	112.69
610.499	106.69
610.707	127.69
610.916	123.69
611.124	115.69
611.332	117.69
611.54	123.69
611.748	105.69
611.955	118.69
612.163	109.69
612.371	112.69
612.579	113.69
612.787	95.69
612.995	121.69
613.203	132.69
613.411	111.69
613.618	122.69
613.826	117.69
614.034	105.69
614.242	113.69
614.449	114.69
614.657	119.69
614.865	122.69
615.072	123.69
615.28	117.69
615.488	108.69
615.695	100.69
615.903	113.69
616.111	121.69
616.318	117.69
616.526	126.69
616.733	115.69
616.941	108.69
617.148	117.69
617.356	117.69
617.563	105.69
617.771	118.69
617.978	104.69
618.185	108.69
618.393	108.69
618.6	105.69
618.807	127.69
619.015	123.69
619.222	118.69
619.429	110.69
619.637	114.69
619.844	105.69
620.051	97.69
620.258	110.69
620.466	112.69
620.673	117.69
620.88	102.69
621.087	113.69
621.294	102.69
621.501	99.69
621.708	108.69
621.915	104.69
622.122	112.69
622.329	102.69
622.536	101.69
622.743	103.69
622.95	98.69
623.157	106.69
623.364	111.69
623.571	107.69
623.778	106.69
623.985	110.69
624.192	106.69
624.399	111.69
624.606	108.69
624.812	112.69
625.019	106.69
625.226	107.69
625.433	115.69
625.639	119.69
625.846	104.69
626.053	97.69
626.259	114.69
626.466	106.69
626.673	101.69
626.879	110.69
627.086	114.69
627.293	103.69
627.499	105.69
627.706	94.69
627.912	113.69
628.119	110.69
628.325	109.69
628.532	108.69
628.738	100.69
628.945	108.69
629.151	111.69
629.357	88.69
629.564	93.69
629.77	99.69
629.976	116.69
630.183	102.69
630.389	108.69
630.595	96.69
630.802	94.69
631.008	105.69
631.214	105.69
631.42	97.69
631.627	104.69
631.833	95.69
632.039	104.69
632.245	104.69
632.451	104.69
632.657	105.69
632.863	98.69
633.069	119.69
633.275	115.69
633.481	97.69
633.688	104.69
633.893	86.69
634.099	100.69
634.305	93.69
634.511	108.69
634.717	101.69
634.923	93.69
635.129	107.69
635.335	89.69
635.541	94.69
635.747	116.69
635.952	95.69
636.158	89.69
636.364	115.69
636.57	88.69
636.775	84.69
636.981	93.69
637.187	100.69
637.392	97.69
637.598	98.69
637.804	110.69
638.009	84.69
638.215	97.69
638.421	94.69
638.626	115.69
638.832	94.69
639.037	98.69
639.243	116.69
639.448	98.69
639.654	105.69
639.859	114.69
640.065	95.69
640.27	107.69
640.475	86.69
640.681	102.69
640.886	86.69
641.091	96.69
641.297	103.69
641.502	114.69
641.707	104.69
641.913	100.69
642.118	84.69
642.323	99.69
642.528	104.69
642.733	117.69
642.939	97.69
643.144	105.69
643.349	101.69
643.554	104.69
643.759	100.69
643.964	105.69
644.169	92.69
644.374	82.69
644.579	102.69
644.784	88.69
644.989	86.69
645.194	98.69
645.399	96.69
645.604	95.69
645.809	110.69
646.014	98.69
646.219	93.69
646.423	94.69
646.628	100.69
646.833	98.69
647.038	94.69
647.243	104.69
647.447	98.69
647.652	92.69
647.857	100.69
648.062	109.69
648.266	111.69
648.471	89.69
648.676	106.69
648.88	91.69
649.085	102.69
649.289	95.69
649.494	101.69
649.698	97.69
649.903	92.69
650.107	100.69
650.312	102.69
650.516	91.69
650.721	99.69
650.925	99.69
651.13	107.69
651.334	99.69
651.539	105.69
651.743	91.69
651.947	90.69
652.152	100.69
652.356	82.69
652.56	88.69
652.764	84.69
652.969	92.69
653.173	106.69
653.377	85.69
653.581	92.69
653.785	92.69
653.99	91.69
654.194	93.69
654.398	85.69
654.602	99.69
654.806	89.69
655.01	92.69
655.214	73.69
655.418	84.69
655.622	87.69
655.826	84.69
656.03	91.69
656.234	94.69
656.438	83.69
656.642	85.69
656.846	83.69
657.049	78.69
657.253	81.69
657.457	92.69
657.661	80.69
657.865	101.69
658.068	80.69
658.272	102.69
658.476	72.69
658.68	88.69
658.883	83.69
659.087	84.69
659.291	88.69
659.494	87.69
659.698	89.69
659.901	92.69
660.105	92.69
660.309	89.69
660.512	100.69
660.716	77.69
660.919	98.69
661.123	90.69
661.326	93.69
661.53	87.69
661.733	87.69
661.936	87.69
662.14	95.69
662.343	97.69
662.546	82.69
662.75	81.69
662.953	82.69
663.156	92.69
663.36	94.69
663.563	82.69
663.766	77.69
663.969	73.69
664.173	76.69
664.376	79.69
664.579	86.69
664.782	88.69
664.985	83.69
665.188	98.69
665.391	84.69
665.594	84.69
665.797	88.69
666	90.69
666.203	92.69
666.406	90.69
666.609	76.69
666.812	89.69
667.015	78.69
667.218	78.69
667.421	84.69
667.624	89.69
667.827	85.69
668.03	80.69
668.232	82.69
668.435	94.69
668.638	83.69
668.841	92.69
669.043	97.69
669.246	89.69
669.449	71.69
669.651	78.69
669.854	78.69
670.057	69.69
670.259	78.69
670.462	90.69
670.665	85.69
670.867	89.69
671.07	81.69
671.272	92.69
671.475	75.69
671.677	86.69
671.88	87.69
672.082	74.69
672.284	89.69
672.487	94.69
672.689	94.69
672.892	83.69
