Data from Location4.07152019.Energy5.Lamp.07192019.3%Agarose_HRD10591_16-21-34-926.txt Node
Date: Fri Jul 19 16:21:34 EDT 2019
User: cochatt
Spectrometer: HR+D1059
Trigger mode: 1
Integration Time (sec): 1.000000E-1
Scans to average: 1
Electric dark correction enabled: true
Nonlinearity correction enabled: false
Boxcar width: 0
XAxis mode: Wavelengths
Number of Pixels in Spectrum: 2048
>>>>>Begin Spectral Data<<<<<
223.165	-6.25
223.4	-6.25
223.635	-6.25
223.869	-8.25
224.104	-16.25
224.338	-14.25
224.573	-18.25
224.808	-6.25
225.042	-17.25
225.277	-11.25
225.511	-6.25
225.746	12.75
225.98	-0.25
226.215	1.75
226.449	11.75
226.683	25.75
226.918	37.75
227.152	14.75
227.387	31.75
227.621	37.75
227.856	46.75
228.09	37.75
228.324	51.75
228.559	61.75
228.793	50.75
229.027	53.75
229.262	72.75
229.496	61.75
229.73	83.75
229.964	65.75
230.199	69.75
230.433	81.75
230.667	77.75
230.901	86.75
231.136	75.75
231.37	94.75
231.604	79.75
231.838	72.75
232.072	74.75
232.306	82.75
232.541	83.75
232.775	70.75
233.009	85.75
233.243	73.75
233.477	78.75
233.711	80.75
233.945	80.75
234.179	88.75
234.413	79.75
234.647	78.75
234.881	73.75
235.115	82.75
235.349	91.75
235.583	77.75
235.817	83.75
236.051	77.75
236.285	100.75
236.519	92.75
236.753	95.75
236.987	87.75
237.221	83.75
237.455	89.75
237.689	68.75
237.922	84.75
238.156	78.75
238.39	74.75
238.624	75.75
238.858	79.75
239.091	79.75
239.325	73.75
239.559	74.75
239.793	75.75
240.027	74.75
240.26	91.75
240.494	85.75
240.728	79.75
240.961	85.75
241.195	78.75
241.429	87.75
241.662	72.75
241.896	83.75
242.13	94.75
242.363	87.75
242.597	89.75
242.83	75.75
243.064	86.75
243.298	78.75
243.531	75.75
243.765	75.75
243.998	90.75
244.232	82.75
244.465	71.75
244.699	82.75
244.932	78.75
245.166	77.75
245.399	76.75
245.633	84.75
245.866	89.75
246.099	84.75
246.333	85.75
246.566	77.75
246.8	75.75
247.033	54.75
247.266	87.75
247.5	77.75
247.733	89.75
247.966	84.75
248.2	87.75
248.433	69.75
248.666	88.75
248.899	79.75
249.133	81.75
249.366	90.75
249.599	72.75
249.832	90.75
250.066	75.75
250.299	67.75
250.532	77.75
250.765	74.75
250.998	74.75
251.231	85.75
251.465	78.75
251.698	65.75
251.931	83.75
252.164	77.75
252.397	87.75
252.63	78.75
252.863	78.75
253.096	70.75
253.329	89.75
253.562	91.75
253.795	68.75
254.028	90.75
254.261	74.75
254.494	90.75
254.727	92.75
254.96	92.75
255.193	70.75
255.426	72.75
255.659	81.75
255.892	85.75
256.124	68.75
256.357	82.75
256.59	82.75
256.823	86.75
257.056	83.75
257.289	94.75
257.521	80.75
257.754	86.75
257.987	87.75
258.22	93.75
258.452	86.75
258.685	87.75
258.918	80.75
259.151	82.75
259.383	83.75
259.616	82.75
259.849	88.75
260.081	90.75
260.314	86.75
260.547	72.75
260.779	80.75
261.012	82.75
261.244	70.75
261.477	79.75
261.71	85.75
261.942	78.75
262.175	79.75
262.407	69.75
262.64	85.75
262.872	83.75
263.105	76.75
263.337	83.75
263.57	81.75
263.802	87.75
264.035	100.75
264.267	85.75
264.499	82.75
264.732	84.75
264.964	87.75
265.197	76.75
265.429	87.75
265.661	88.75
265.894	89.75
266.126	79.75
266.358	83.75
266.591	88.75
266.823	95.75
267.055	76.75
267.287	86.75
267.52	77.75
267.752	79.75
267.984	92.75
268.216	89.75
268.448	93.75
268.681	105.75
268.913	93.75
269.145	72.75
269.377	79.75
269.609	85.75
269.841	99.75
270.073	87.75
270.306	79.75
270.538	78.75
270.77	89.75
271.002	94.75
271.234	87.75
271.466	79.75
271.698	84.75
271.93	77.75
272.162	94.75
272.394	81.75
272.626	82.75
272.858	88.75
273.09	88.75
273.322	80.75
273.553	81.75
273.785	80.75
274.017	89.75
274.249	88.75
274.481	99.75
274.713	81.75
274.945	88.75
275.176	89.75
275.408	79.75
275.64	74.75
275.872	82.75
276.104	85.75
276.335	86.75
276.567	79.75
276.799	85.75
277.031	84.75
277.262	82.75
277.494	100.75
277.726	79.75
277.957	95.75
278.189	86.75
278.421	85.75
278.652	93.75
278.884	88.75
279.115	86.75
279.347	87.75
279.579	92.75
279.81	85.75
280.042	78.75
280.273	88.75
280.505	85.75
280.736	89.75
280.968	94.75
281.199	96.75
281.431	81.75
281.662	88.75
281.894	72.75
282.125	84.75
282.356	96.75
282.588	93.75
282.819	79.75
283.051	88.75
283.282	89.75
283.513	89.75
283.745	80.75
283.976	80.75
284.207	91.75
284.439	90.75
284.67	95.75
284.901	88.75
285.132	79.75
285.364	102.75
285.595	84.75
285.826	76.75
286.057	86.75
286.288	75.75
286.52	73.75
286.751	84.75
286.982	81.75
287.213	87.75
287.444	93.75
287.675	85.75
287.906	77.75
288.138	83.75
288.369	91.75
288.6	88.75
288.831	92.75
289.062	99.75
289.293	79.75
289.524	75.75
289.755	90.75
289.986	103.75
290.217	86.75
290.448	74.75
290.679	67.75
290.91	97.75
291.141	79.75
291.371	82.75
291.602	88.75
291.833	87.75
292.064	89.75
292.295	85.75
292.526	75.75
292.757	87.75
292.987	76.75
293.218	93.75
293.449	92.75
293.68	95.75
293.91	93.75
294.141	94.75
294.372	77.75
294.603	77.75
294.833	85.75
295.064	73.75
295.295	86.75
295.525	91.75
295.756	88.75
295.987	93.75
296.217	97.75
296.448	87.75
296.679	95.75
296.909	73.75
297.14	92.75
297.37	104.75
297.601	89.75
297.831	79.75
298.062	83.75
298.292	79.75
298.523	70.75
298.753	85.75
298.984	85.75
299.214	94.75
299.445	91.75
299.675	74.75
299.905	88.75
300.136	83.75
300.366	87.75
300.597	86.75
300.827	92.75
301.057	84.75
301.288	92.75
301.518	90.75
301.748	76.75
301.979	78.75
302.209	75.75
302.439	78.75
302.669	75.75
302.9	91.75
303.13	91.75
303.36	80.75
303.59	101.75
303.82	83.75
304.051	78.75
304.281	91.75
304.511	87.75
304.741	77.75
304.971	93.75
305.201	90.75
305.431	74.75
305.661	91.75
305.891	89.75
306.121	83.75
306.352	89.75
306.582	86.75
306.812	76.75
307.042	91.75
307.272	89.75
307.502	83.75
307.731	88.75
307.961	82.75
308.191	83.75
308.421	83.75
308.651	81.75
308.881	88.75
309.111	70.75
309.341	90.75
309.571	86.75
309.8	83.75
310.03	93.75
310.26	88.75
310.49	94.75
310.72	98.75
310.949	85.75
311.179	82.75
311.409	74.75
311.639	94.75
311.868	93.75
312.098	87.75
312.328	84.75
312.557	80.75
312.787	83.75
313.017	79.75
313.246	98.75
313.476	78.75
313.706	88.75
313.935	86.75
314.165	84.75
314.394	81.75
314.624	94.75
314.853	89.75
315.083	87.75
315.312	87.75
315.542	86.75
315.771	81.75
316.001	95.75
316.23	73.75
316.46	80.75
316.689	97.75
316.919	80.75
317.148	83.75
317.377	92.75
317.607	76.75
317.836	94.75
318.065	77.75
318.295	85.75
318.524	99.75
318.753	79.75
318.983	89.75
319.212	88.75
319.441	95.75
319.67	81.75
319.9	90.75
320.129	93.75
320.358	80.75
320.587	81.75
320.816	94.75
321.046	79.75
321.275	90.75
321.504	84.75
321.733	85.75
321.962	83.75
322.191	83.75
322.42	83.75
322.649	91.75
322.878	93.75
323.108	82.75
323.337	82.75
323.566	82.75
323.795	92.75
324.024	82.75
324.253	82.75
324.482	85.75
324.71	72.75
324.939	78.75
325.168	78.75
325.397	83.75
325.626	89.75
325.855	80.75
326.084	81.75
326.313	78.75
326.542	102.75
326.77	82.75
326.999	86.75
327.228	80.75
327.457	96.75
327.686	80.75
327.914	79.75
328.143	92.75
328.372	86.75
328.6	93.75
328.829	93.75
329.058	101.75
329.287	78.75
329.515	85.75
329.744	90.75
329.972	85.75
330.201	82.75
330.43	97.75
330.658	85.75
330.887	102.75
331.115	86.75
331.344	90.75
331.572	95.75
331.801	69.75
332.03	92.75
332.258	89.75
332.486	83.75
332.715	95.75
332.943	85.75
333.172	93.75
333.4	82.75
333.629	79.75
333.857	95.75
334.085	85.75
334.314	87.75
334.542	79.75
334.771	86.75
334.999	76.75
335.227	85.75
335.455	88.75
335.684	85.75
335.912	94.75
336.14	83.75
336.369	72.75
336.597	84.75
336.825	81.75
337.053	79.75
337.281	79.75
337.51	83.75
337.738	92.75
337.966	87.75
338.194	86.75
338.422	72.75
338.65	87.75
338.878	84.75
339.106	83.75
339.334	90.75
339.562	92.75
339.79	98.75
340.018	65.75
340.246	68.75
340.474	97.75
340.702	86.75
340.93	94.75
341.158	84.75
341.386	81.75
341.614	89.75
341.842	79.75
342.07	91.75
342.298	81.75
342.526	90.75
342.754	76.75
342.981	89.75
343.209	78.75
343.437	91.75
343.665	81.75
343.893	92.75
344.12	98.75
344.348	85.75
344.576	90.75
344.804	87.75
345.031	89.75
345.259	88.75
345.487	78.75
345.714	74.75
345.942	79.75
346.17	85.75
346.397	89.75
346.625	99.75
346.853	87.75
347.08	94.75
347.308	95.75
347.535	76.75
347.763	87.75
347.99	73.75
348.218	89.75
348.445	85.75
348.673	79.75
348.9	89.75
349.128	95.75
349.355	91.75
349.583	90.75
349.81	88.75
350.037	76.75
350.265	82.75
350.492	98.75
350.72	93.75
350.947	80.75
351.174	91.75
351.402	86.75
351.629	86.75
351.856	94.75
352.083	87.75
352.311	100.75
352.538	83.75
352.765	78.75
352.992	88.75
353.22	92.75
353.447	80.75
353.674	86.75
353.901	93.75
354.128	90.75
354.355	88.75
354.583	93.75
354.81	91.75
355.037	77.75
355.264	79.75
355.491	90.75
355.718	90.75
355.945	85.75
356.172	79.75
356.399	79.75
356.626	84.75
356.853	83.75
357.08	88.75
357.307	91.75
357.534	81.75
357.761	79.75
357.988	93.75
358.215	83.75
358.441	90.75
358.668	84.75
358.895	95.75
359.122	84.75
359.349	73.75
359.576	79.75
359.802	94.75
360.029	97.75
360.256	104.75
360.483	86.75
360.709	95.75
360.936	94.75
361.163	93.75
361.39	72.75
361.616	81.75
361.843	76.75
362.07	95.75
362.296	89.75
362.523	87.75
362.749	82.75
362.976	87.75
363.203	87.75
363.429	83.75
363.656	94.75
363.882	88.75
364.109	93.75
364.335	85.75
364.562	92.75
364.788	98.75
365.015	86.75
365.241	84.75
365.468	99.75
365.694	95.75
365.92	96.75
366.147	100.75
366.373	77.75
366.599	95.75
366.826	76.75
367.052	105.75
367.278	88.75
367.505	108.75
367.731	82.75
367.957	105.75
368.184	94.75
368.41	77.75
368.636	89.75
368.862	91.75
369.089	95.75
369.315	89.75
369.541	103.75
369.767	95.75
369.993	95.75
370.219	86.75
370.445	86.75
370.672	89.75
370.898	85.75
371.124	83.75
371.35	90.75
371.576	101.75
371.802	88.75
372.028	88.75
372.254	87.75
372.48	97.75
372.706	93.75
372.932	92.75
373.158	92.75
373.384	106.75
373.61	107.75
373.835	106.75
374.061	94.75
374.287	94.75
374.513	82.75
374.739	104.75
374.965	90.75
375.191	94.75
375.416	92.75
375.642	92.75
375.868	99.75
376.094	91.75
376.319	89.75
376.545	83.75
376.771	92.75
376.997	86.75
377.222	80.75
377.448	97.75
377.674	85.75
377.899	90.75
378.125	74.75
378.35	95.75
378.576	108.75
378.802	103.75
379.027	102.75
379.253	121.75
379.478	97.75
379.704	97.75
379.929	102.75
380.155	102.75
380.38	107.75
380.606	90.75
380.831	99.75
381.057	108.75
381.282	97.75
381.507	98.75
381.733	104.75
381.958	114.75
382.184	100.75
382.409	97.75
382.634	109.75
382.86	96.75
383.085	95.75
383.31	103.75
383.535	93.75
383.761	90.75
383.986	97.75
384.211	113.75
384.436	117.75
384.662	95.75
384.887	104.75
385.112	92.75
385.337	86.75
385.562	105.75
385.787	91.75
386.013	99.75
386.238	106.75
386.463	90.75
386.688	93.75
386.913	94.75
387.138	100.75
387.363	106.75
387.588	92.75
387.813	97.75
388.038	106.75
388.263	94.75
388.488	100.75
388.713	113.75
388.938	99.75
389.163	106.75
389.387	101.75
389.612	101.75
389.837	108.75
390.062	103.75
390.287	101.75
390.512	102.75
390.736	122.75
390.961	95.75
391.186	110.75
391.411	113.75
391.636	113.75
391.86	105.75
392.085	101.75
392.31	92.75
392.534	102.75
392.759	108.75
392.984	114.75
393.208	92.75
393.433	114.75
393.658	100.75
393.882	103.75
394.107	106.75
394.331	109.75
394.556	107.75
394.78	112.75
395.005	119.75
395.229	89.75
395.454	117.75
395.678	107.75
395.903	98.75
396.127	100.75
396.352	97.75
396.576	104.75
396.801	101.75
397.025	107.75
397.249	118.75
397.474	120.75
397.698	101.75
397.922	125.75
398.147	118.75
398.371	113.75
398.595	106.75
398.82	109.75
399.044	115.75
399.268	100.75
399.492	108.75
399.717	123.75
399.941	118.75
400.165	115.75
400.389	113.75
400.613	97.75
400.837	120.75
401.062	110.75
401.286	129.75
401.51	123.75
401.734	119.75
401.958	120.75
402.182	114.75
402.406	126.75
402.63	108.75
402.854	116.75
403.078	113.75
403.302	100.75
403.526	119.75
403.75	115.75
403.974	105.75
404.198	114.75
404.422	122.75
404.645	130.75
404.869	126.75
405.093	125.75
405.317	121.75
405.541	124.75
405.765	95.75
405.988	113.75
406.212	131.75
406.436	113.75
406.66	127.75
406.883	127.75
407.107	126.75
407.331	118.75
407.555	113.75
407.778	122.75
408.002	117.75
408.226	115.75
408.449	115.75
408.673	116.75
408.896	117.75
409.12	109.75
409.344	123.75
409.567	115.75
409.791	128.75
410.014	121.75
410.238	113.75
410.461	121.75
410.685	131.75
410.908	128.75
411.132	128.75
411.355	131.75
411.578	125.75
411.802	118.75
412.025	113.75
412.249	120.75
412.472	122.75
412.695	115.75
412.919	118.75
413.142	123.75
413.365	122.75
413.589	107.75
413.812	126.75
414.035	121.75
414.258	129.75
414.482	116.75
414.705	116.75
414.928	119.75
415.151	109.75
415.374	124.75
415.597	135.75
415.821	131.75
416.044	130.75
416.267	124.75
416.49	126.75
416.713	108.75
416.936	131.75
417.159	123.75
417.382	114.75
417.605	123.75
417.828	133.75
418.051	127.75
418.274	128.75
418.497	120.75
418.72	132.75
418.943	141.75
419.166	123.75
419.389	131.75
419.611	139.75
419.834	114.75
420.057	132.75
420.28	120.75
420.503	120.75
420.726	131.75
420.948	124.75
421.171	131.75
421.394	154.75
421.617	125.75
421.839	140.75
422.062	147.75
422.285	125.75
422.507	120.75
422.73	118.75
422.953	128.75
423.175	125.75
423.398	127.75
423.621	119.75
423.843	133.75
424.066	134.75
424.288	127.75
424.511	137.75
424.733	141.75
424.956	142.75
425.178	133.75
425.401	139.75
425.623	131.75
425.846	122.75
426.068	131.75
426.291	127.75
426.513	125.75
426.735	120.75
426.958	126.75
427.18	132.75
427.402	137.75
427.625	155.75
427.847	137.75
428.069	121.75
428.292	121.75
428.514	126.75
428.736	122.75
428.958	121.75
429.181	133.75
429.403	118.75
429.625	126.75
429.847	127.75
430.069	132.75
430.292	137.75
430.514	125.75
430.736	119.75
430.958	119.75
431.18	129.75
431.402	133.75
431.624	130.75
431.846	100.75
432.068	97.75
432.29	105.75
432.512	106.75
432.734	109.75
432.956	127.75
433.178	137.75
433.4	115.75
433.622	131.75
433.844	137.75
434.066	130.75
434.287	117.75
434.509	90.75
434.731	95.75
434.953	95.75
435.175	123.75
435.397	125.75
435.618	129.75
435.84	113.75
436.062	114.75
436.284	121.75
436.505	130.75
436.727	125.75
436.949	123.75
437.17	129.75
437.392	137.75
437.614	132.75
437.835	120.75
438.057	117.75
438.278	109.75
438.5	120.75
438.721	138.75
438.943	143.75
439.165	138.75
439.386	141.75
439.608	131.75
439.829	151.75
440.05	151.75
440.272	156.75
440.493	134.75
440.715	142.75
440.936	132.75
441.158	143.75
441.379	144.75
441.6	167.75
441.822	144.75
442.043	143.75
442.264	147.75
442.486	131.75
442.707	139.75
442.928	139.75
443.149	127.75
443.371	123.75
443.592	126.75
443.813	129.75
444.034	131.75
444.255	146.75
444.476	137.75
444.698	142.75
444.919	136.75
445.14	269.75
445.361	201.75
445.582	145.75
445.803	147.75
446.024	145.75
446.245	144.75
446.466	141.75
446.687	142.75
446.908	136.75
447.129	153.75
447.35	167.75
447.571	142.75
447.792	141.75
448.013	143.75
448.234	139.75
448.455	137.75
448.675	132.75
448.896	128.75
449.117	139.75
449.338	126.75
449.559	144.75
449.779	125.75
450	133.75
450.221	143.75
450.442	149.75
450.662	137.75
450.883	129.75
451.104	126.75
451.324	122.75
451.545	118.75
451.766	127.75
451.986	122.75
452.207	129.75
452.428	123.75
452.648	136.75
452.869	119.75
453.089	120.75
453.31	113.75
453.53	107.75
453.751	110.75
453.971	101.75
454.192	92.75
454.412	110.75
454.633	112.75
454.853	121.75
455.073	134.75
455.294	120.75
455.514	134.75
455.734	121.75
455.955	114.75
456.175	133.75
456.395	107.75
456.616	113.75
456.836	109.75
457.056	113.75
457.276	113.75
457.497	107.75
457.717	103.75
457.937	121.75
458.157	97.75
458.377	102.75
458.598	95.75
458.818	103.75
459.038	87.75
459.258	90.75
459.478	91.75
459.698	82.75
459.918	103.75
460.138	120.75
460.358	127.75
460.578	121.75
460.798	116.75
461.018	115.75
461.238	101.75
461.458	112.75
461.678	121.75
461.898	114.75
462.118	117.75
462.338	105.75
462.558	113.75
462.777	91.75
462.997	117.75
463.217	114.75
463.437	110.75
463.657	107.75
463.876	99.75
464.096	115.75
464.316	109.75
464.536	107.75
464.755	117.75
464.975	120.75
465.195	128.75
465.414	125.75
465.634	125.75
465.854	106.75
466.073	129.75
466.293	115.75
466.512	122.75
466.732	130.75
466.951	154.75
467.171	143.75
467.391	130.75
467.61	144.75
467.829	130.75
468.049	143.75
468.268	156.75
468.488	141.75
468.707	124.75
468.927	151.75
469.146	140.75
469.365	134.75
469.585	139.75
469.804	153.75
470.023	142.75
470.243	152.75
470.462	151.75
470.681	145.75
470.901	152.75
471.12	140.75
471.339	129.75
471.558	136.75
471.777	142.75
471.997	143.75
472.216	141.75
472.435	122.75
472.654	120.75
472.873	129.75
473.092	118.75
473.311	125.75
473.53	141.75
473.749	126.75
473.968	130.75
474.187	131.75
474.406	128.75
474.625	119.75
474.844	131.75
475.063	131.75
475.282	122.75
475.501	116.75
475.72	109.75
475.939	132.75
476.158	130.75
476.377	121.75
476.596	118.75
476.814	111.75
477.033	96.75
477.252	117.75
477.471	125.75
477.69	144.75
477.908	127.75
478.127	136.75
478.346	144.75
478.564	139.75
478.783	137.75
479.002	147.75
479.22	140.75
479.439	145.75
479.658	121.75
479.876	121.75
480.095	122.75
480.313	120.75
480.532	120.75
480.751	104.75
480.969	83.75
481.188	85.75
481.406	94.75
481.624	100.75
481.843	103.75
482.061	103.75
482.28	104.75
482.498	116.75
482.717	110.75
482.935	108.75
483.153	138.75
483.372	155.75
483.59	153.75
483.808	135.75
484.027	129.75
484.245	145.75
484.463	157.75
484.681	173.75
484.9	151.75
485.118	149.75
485.336	120.75
485.554	104.75
485.772	110.75
485.99	116.75
486.209	116.75
486.427	116.75
486.645	120.75
486.863	128.75
487.081	130.75
487.299	114.75
487.517	141.75
487.735	170.75
487.953	185.75
488.171	188.75
488.389	179.75
488.607	165.75
488.825	149.75
489.043	134.75
489.261	127.75
489.479	140.75
489.696	147.75
489.914	144.75
490.132	141.75
490.35	148.75
490.568	173.75
490.786	170.75
491.003	174.75
491.221	177.75
491.439	181.75
491.657	183.75
491.874	208.75
492.092	227.75
492.31	229.75
492.527	228.75
492.745	200.75
492.963	206.75
493.18	179.75
493.398	191.75
493.615	163.75
493.833	168.75
494.05	162.75
494.268	166.75
494.485	174.75
494.703	167.75
494.92	165.75
495.138	177.75
495.355	163.75
495.573	161.75
495.79	175.75
496.008	169.75
496.225	180.75
496.442	161.75
496.66	175.75
496.877	177.75
497.094	175.75
497.312	162.75
497.529	152.75
497.746	144.75
497.963	146.75
498.181	129.75
498.398	128.75
498.615	126.75
498.832	113.75
499.049	125.75
499.267	126.75
499.484	121.75
499.701	139.75
499.918	140.75
500.135	125.75
500.352	136.75
500.569	125.75
500.786	145.75
501.003	153.75
501.22	133.75
501.437	141.75
501.654	146.75
501.871	143.75
502.088	137.75
502.305	127.75
502.522	133.75
502.739	117.75
502.956	137.75
503.172	135.75
503.389	126.75
503.606	116.75
503.823	126.75
504.04	120.75
504.256	115.75
504.473	125.75
504.69	121.75
504.907	118.75
505.123	111.75
505.34	121.75
505.557	133.75
505.773	135.75
505.99	119.75
506.207	113.75
506.423	117.75
506.64	133.75
506.856	121.75
507.073	118.75
507.289	127.75
507.506	114.75
507.722	119.75
507.939	118.75
508.155	123.75
508.372	107.75
508.588	116.75
508.805	112.75
509.021	116.75
509.238	108.75
509.454	108.75
509.67	102.75
509.887	95.75
510.103	92.75
510.319	86.75
510.536	98.75
510.752	96.75
510.968	92.75
511.184	88.75
511.401	88.75
511.617	102.75
511.833	98.75
512.049	101.75
512.265	100.75
512.481	87.75
512.698	98.75
512.914	93.75
513.13	92.75
513.346	91.75
513.562	93.75
513.778	101.75
513.994	100.75
514.21	98.75
514.426	96.75
514.642	106.75
514.858	96.75
515.074	84.75
515.29	87.75
515.506	72.75
515.721	94.75
515.937	85.75
516.153	78.75
516.369	90.75
516.585	95.75
516.801	85.75
517.016	90.75
517.232	90.75
517.448	93.75
517.664	96.75
517.879	98.75
518.095	92.75
518.311	98.75
518.527	113.75
518.742	95.75
518.958	115.75
519.173	113.75
519.389	111.75
519.605	117.75
519.82	108.75
520.036	117.75
520.251	116.75
520.467	106.75
520.682	96.75
520.898	83.75
521.113	77.75
521.329	90.75
521.544	83.75
521.76	90.75
521.975	101.75
522.19	88.75
522.406	107.75
522.621	102.75
522.836	113.75
523.052	95.75
523.267	95.75
523.482	102.75
523.698	119.75
523.913	113.75
524.128	128.75
524.343	115.75
524.559	117.75
524.774	119.75
524.989	117.75
525.204	115.75
525.419	119.75
525.634	113.75
525.849	117.75
526.064	99.75
526.28	106.75
526.495	88.75
526.71	90.75
526.925	85.75
527.14	86.75
527.355	85.75
527.57	99.75
527.785	83.75
527.999	95.75
528.214	114.75
528.429	115.75
528.644	121.75
528.859	138.75
529.074	150.75
529.289	166.75
529.503	155.75
529.718	135.75
529.933	128.75
530.148	106.75
530.363	105.75
530.577	96.75
530.792	95.75
531.007	73.75
531.221	70.75
531.436	87.75
531.651	98.75
531.865	82.75
532.08	97.75
532.295	91.75
532.509	92.75
532.724	95.75
532.938	88.75
533.153	104.75
533.367	106.75
533.582	124.75
533.796	124.75
534.011	106.75
534.225	102.75
534.44	92.75
534.654	99.75
534.868	92.75
535.083	114.75
535.297	101.75
535.511	94.75
535.726	113.75
535.94	92.75
536.154	104.75
536.369	87.75
536.583	77.75
536.797	110.75
537.011	103.75
537.225	93.75
537.44	102.75
537.654	107.75
537.868	86.75
538.082	88.75
538.296	105.75
538.51	110.75
538.724	102.75
538.938	112.75
539.153	146.75
539.367	129.75
539.581	103.75
539.795	107.75
540.009	103.75
540.222	98.75
540.436	97.75
540.65	128.75
540.864	123.75
541.078	137.75
541.292	150.75
541.506	163.75
541.72	159.75
541.934	180.75
542.147	187.75
542.361	177.75
542.575	157.75
542.789	143.75
543.002	141.75
543.216	127.75
543.43	126.75
543.644	123.75
543.857	152.75
544.071	170.75
544.285	179.75
544.498	140.75
544.712	157.75
544.925	147.75
545.139	178.75
545.352	162.75
545.566	164.75
545.779	160.75
545.993	150.75
546.206	171.75
546.42	154.75
546.633	161.75
546.847	163.75
547.06	162.75
547.274	163.75
547.487	167.75
547.7	176.75
547.914	169.75
548.127	168.75
548.34	160.75
548.554	154.75
548.767	154.75
548.98	163.75
549.193	143.75
549.407	155.75
549.62	156.75
549.833	162.75
550.046	158.75
550.259	170.75
550.473	153.75
550.686	161.75
550.899	139.75
551.112	144.75
551.325	137.75
551.538	135.75
551.751	117.75
551.964	98.75
552.177	137.75
552.39	135.75
552.603	133.75
552.816	133.75
553.029	147.75
553.242	154.75
553.455	151.75
553.667	164.75
553.88	146.75
554.093	157.75
554.306	151.75
554.519	162.75
554.732	150.75
554.944	142.75
555.157	153.75
555.37	144.75
555.583	147.75
555.795	138.75
556.008	140.75
556.221	128.75
556.433	141.75
556.646	117.75
556.859	129.75
557.071	126.75
557.284	141.75
557.496	147.75
557.709	133.75
557.921	138.75
558.134	140.75
558.346	149.75
558.559	142.75
558.771	137.75
558.984	127.75
559.196	124.75
559.409	134.75
559.621	126.75
559.833	134.75
560.046	102.75
560.258	133.75
560.47	140.75
560.683	145.75
560.895	137.75
561.107	111.75
561.32	127.75
561.532	133.75
561.744	141.75
561.956	137.75
562.168	125.75
562.381	129.75
562.593	141.75
562.805	124.75
563.017	117.75
563.229	115.75
563.441	117.75
563.653	127.75
563.865	124.75
564.077	121.75
564.289	128.75
564.501	123.75
564.713	117.75
564.925	115.75
565.137	125.75
565.349	114.75
565.561	117.75
565.773	107.75
565.985	122.75
566.197	119.75
566.408	116.75
566.62	129.75
566.832	133.75
567.044	126.75
567.255	117.75
567.467	118.75
567.679	99.75
567.891	106.75
568.102	106.75
568.314	95.75
568.526	94.75
568.737	92.75
568.949	79.75
569.161	93.75
569.372	86.75
569.584	80.75
569.795	94.75
570.007	79.75
570.218	88.75
570.43	90.75
570.641	102.75
570.853	99.75
571.064	113.75
571.276	113.75
571.487	108.75
571.698	108.75
571.91	121.75
572.121	107.75
572.333	114.75
572.544	105.75
572.755	102.75
572.966	84.75
573.178	87.75
573.389	87.75
573.6	83.75
573.811	92.75
574.023	74.75
574.234	86.75
574.445	88.75
574.656	107.75
574.867	95.75
575.078	101.75
575.289	95.75
575.501	98.75
575.712	89.75
575.923	99.75
576.134	92.75
576.345	97.75
576.556	101.75
576.767	100.75
576.978	106.75
577.188	88.75
577.399	89.75
577.61	101.75
577.821	92.75
578.032	105.75
578.243	103.75
578.454	102.75
578.665	96.75
578.875	94.75
579.086	96.75
579.297	87.75
579.508	93.75
579.718	93.75
579.929	77.75
580.14	88.75
580.35	87.75
580.561	89.75
580.772	99.75
580.982	87.75
581.193	101.75
581.403	109.75
581.614	85.75
581.825	92.75
582.035	103.75
582.246	104.75
582.456	93.75
582.667	95.75
582.877	103.75
583.087	105.75
583.298	90.75
583.508	95.75
583.719	80.75
583.929	102.75
584.139	87.75
584.35	91.75
584.56	91.75
584.77	98.75
584.981	105.75
585.191	78.75
585.401	75.75
585.611	90.75
585.821	89.75
586.032	99.75
586.242	85.75
586.452	103.75
586.662	94.75
586.872	87.75
587.082	85.75
587.292	98.75
587.502	92.75
587.713	80.75
587.923	80.75
588.133	76.75
588.343	93.75
588.553	71.75
588.762	71.75
588.972	92.75
589.182	92.75
589.392	86.75
589.602	91.75
589.812	83.75
590.022	92.75
590.232	92.75
590.441	78.75
590.651	81.75
590.861	93.75
591.071	78.75
591.281	78.75
591.49	81.75
591.7	81.75
591.91	83.75
592.119	95.75
592.329	93.75
592.539	97.75
592.748	88.75
592.958	90.75
593.167	90.75
593.377	82.75
593.587	89.75
593.796	90.75
594.006	85.75
594.215	79.75
594.424	74.75
594.634	93.75
594.843	99.75
595.053	90.75
595.262	100.75
595.472	83.75
595.681	101.75
595.89	90.75
596.1	100.75
596.309	96.75
596.518	90.75
596.727	97.75
596.937	95.75
597.146	95.75
597.355	98.75
597.564	102.75
597.774	100.75
597.983	93.75
598.192	87.75
598.401	99.75
598.61	78.75
598.819	97.75
599.028	78.75
599.237	81.75
599.446	85.75
599.655	100.75
599.864	111.75
600.073	102.75
600.282	84.75
600.491	85.75
600.7	104.75
600.909	104.75
601.118	94.75
601.327	104.75
601.536	113.75
601.745	108.75
601.953	115.75
602.162	107.75
602.371	119.75
602.58	108.75
602.789	103.75
602.997	96.75
603.206	117.75
603.415	113.75
603.623	118.75
603.832	111.75
604.041	100.75
604.249	116.75
604.458	98.75
604.666	105.75
604.875	99.75
605.084	110.75
605.292	108.75
605.501	126.75
605.709	135.75
605.918	133.75
606.126	119.75
606.334	108.75
606.543	111.75
606.751	121.75
606.96	111.75
607.168	106.75
607.376	119.75
607.585	113.75
607.793	114.75
608.001	116.75
608.21	111.75
608.418	111.75
608.626	117.75
608.834	111.75
609.043	115.75
609.251	118.75
609.459	102.75
609.667	107.75
609.875	113.75
610.083	127.75
610.291	119.75
610.499	114.75
610.707	114.75
610.916	120.75
611.124	110.75
611.332	101.75
611.54	110.75
611.748	128.75
611.955	104.75
612.163	116.75
612.371	119.75
612.579	127.75
612.787	107.75
612.995	107.75
613.203	112.75
613.411	123.75
613.618	105.75
613.826	110.75
614.034	115.75
614.242	110.75
614.449	125.75
614.657	95.75
614.865	103.75
615.072	109.75
615.28	119.75
615.488	108.75
615.695	108.75
615.903	97.75
616.111	107.75
616.318	115.75
616.526	100.75
616.733	108.75
616.941	113.75
617.148	117.75
617.356	113.75
617.563	105.75
617.771	97.75
617.978	110.75
618.185	115.75
618.393	113.75
618.6	123.75
618.807	108.75
619.015	114.75
619.222	99.75
619.429	106.75
619.637	112.75
619.844	117.75
620.051	122.75
620.258	103.75
620.466	107.75
620.673	103.75
620.88	111.75
621.087	105.75
621.294	95.75
621.501	107.75
621.708	77.75
621.915	101.75
622.122	115.75
622.329	115.75
622.536	121.75
622.743	106.75
622.95	94.75
623.157	113.75
623.364	106.75
623.571	107.75
623.778	96.75
623.985	105.75
624.192	108.75
624.399	124.75
624.606	120.75
624.812	103.75
625.019	111.75
625.226	106.75
625.433	100.75
625.639	102.75
625.846	103.75
626.053	94.75
626.259	91.75
626.466	93.75
626.673	106.75
626.879	84.75
627.086	105.75
627.293	122.75
627.499	114.75
627.706	109.75
627.912	103.75
628.119	113.75
628.325	107.75
628.532	101.75
628.738	107.75
628.945	105.75
629.151	106.75
629.357	95.75
629.564	106.75
629.77	107.75
629.976	105.75
630.183	95.75
630.389	108.75
630.595	100.75
630.802	106.75
631.008	106.75
631.214	95.75
631.42	119.75
631.627	122.75
631.833	94.75
632.039	116.75
632.245	108.75
632.451	103.75
632.657	118.75
632.863	118.75
633.069	103.75
633.275	102.75
633.481	108.75
633.688	95.75
633.893	116.75
634.099	120.75
634.305	91.75
634.511	116.75
634.717	93.75
634.923	101.75
635.129	101.75
635.335	94.75
635.541	94.75
635.747	91.75
635.952	99.75
636.158	94.75
636.364	101.75
636.57	119.75
636.775	105.75
636.981	115.75
637.187	102.75
637.392	109.75
637.598	106.75
637.804	99.75
638.009	105.75
638.215	96.75
638.421	87.75
638.626	95.75
638.832	114.75
639.037	94.75
639.243	94.75
639.448	97.75
639.654	102.75
639.859	114.75
640.065	101.75
640.27	110.75
640.475	101.75
640.681	94.75
640.886	92.75
641.091	107.75
641.297	103.75
641.502	92.75
641.707	105.75
641.913	100.75
642.118	97.75
642.323	96.75
642.528	113.75
642.733	101.75
642.939	108.75
643.144	100.75
643.349	103.75
643.554	118.75
643.759	94.75
643.964	103.75
644.169	92.75
644.374	102.75
644.579	98.75
644.784	106.75
644.989	102.75
645.194	114.75
645.399	94.75
645.604	111.75
645.809	123.75
646.014	92.75
646.219	117.75
646.423	113.75
646.628	109.75
646.833	102.75
647.038	102.75
647.243	107.75
647.447	94.75
647.652	97.75
647.857	96.75
648.062	106.75
648.266	115.75
648.471	93.75
648.676	112.75
648.88	103.75
649.085	106.75
649.289	109.75
649.494	99.75
649.698	98.75
649.903	97.75
650.107	99.75
650.312	109.75
650.516	103.75
650.721	106.75
650.925	100.75
651.13	102.75
651.334	94.75
651.539	87.75
651.743	100.75
651.947	90.75
652.152	111.75
652.356	87.75
652.56	95.75
652.764	81.75
652.969	85.75
653.173	82.75
653.377	96.75
653.581	105.75
653.785	100.75
653.99	98.75
654.194	91.75
654.398	83.75
654.602	91.75
654.806	97.75
655.01	109.75
655.214	88.75
655.418	101.75
655.622	90.75
655.826	88.75
656.03	95.75
656.234	87.75
656.438	102.75
656.642	87.75
656.846	88.75
657.049	101.75
657.253	85.75
657.457	87.75
657.661	93.75
657.865	88.75
658.068	91.75
658.272	75.75
658.476	89.75
658.68	80.75
658.883	91.75
659.087	85.75
659.291	72.75
659.494	82.75
659.698	95.75
659.901	86.75
660.105	89.75
660.309	90.75
660.512	87.75
660.716	70.75
660.919	91.75
661.123	86.75
661.326	94.75
661.53	85.75
661.733	81.75
661.936	76.75
662.14	78.75
662.343	84.75
662.546	105.75
662.75	80.75
662.953	102.75
663.156	85.75
663.36	87.75
663.563	90.75
663.766	95.75
663.969	78.75
664.173	89.75
664.376	90.75
664.579	76.75
664.782	73.75
664.985	94.75
665.188	89.75
665.391	80.75
665.594	81.75
665.797	78.75
666	90.75
666.203	73.75
666.406	72.75
666.609	82.75
666.812	77.75
667.015	77.75
667.218	90.75
667.421	77.75
667.624	72.75
667.827	85.75
668.03	78.75
668.232	94.75
668.435	86.75
668.638	84.75
668.841	89.75
669.043	78.75
669.246	84.75
669.449	87.75
669.651	95.75
669.854	70.75
670.057	82.75
670.259	85.75
670.462	78.75
670.665	82.75
670.867	78.75
671.07	84.75
671.272	85.75
671.475	79.75
671.677	84.75
671.88	77.75
672.082	85.75
672.284	91.75
672.487	84.75
672.689	81.75
672.892	75.75
