Data from Location4.07152019.Energy5.Lamp.07192019.3%Agarose_HRD10591_16-19-51-925.txt Node
Date: Fri Jul 19 16:19:51 EDT 2019
User: cochatt
Spectrometer: HR+D1059
Trigger mode: 1
Integration Time (sec): 1.000000E-1
Scans to average: 1
Electric dark correction enabled: true
Nonlinearity correction enabled: false
Boxcar width: 0
XAxis mode: Wavelengths
Number of Pixels in Spectrum: 2048
>>>>>Begin Spectral Data<<<<<
223.165	-16.62
223.4	-16.62
223.635	-16.62
223.869	-21.62
224.104	-20.62
224.338	2.38
224.573	-23.62
224.808	-22.62
225.042	-13.62
225.277	-8.62
225.511	-9.62
225.746	11.38
225.98	6.38
226.215	0.38
226.449	30.38
226.683	21.38
226.918	33.38
227.152	31.38
227.387	35.38
227.621	35.38
227.856	32.38
228.09	40.38
228.324	53.38
228.559	56.38
228.793	59.38
229.027	59.38
229.262	71.38
229.496	65.38
229.73	76.38
229.964	76.38
230.199	79.38
230.433	62.38
230.667	66.38
230.901	67.38
231.136	64.38
231.37	84.38
231.604	78.38
231.838	79.38
232.072	81.38
232.306	84.38
232.541	83.38
232.775	99.38
233.009	84.38
233.243	75.38
233.477	82.38
233.711	74.38
233.945	87.38
234.179	94.38
234.413	72.38
234.647	75.38
234.881	90.38
235.115	80.38
235.349	75.38
235.583	74.38
235.817	66.38
236.051	81.38
236.285	76.38
236.519	79.38
236.753	84.38
236.987	86.38
237.221	78.38
237.455	69.38
237.689	76.38
237.922	80.38
238.156	75.38
238.39	71.38
238.624	90.38
238.858	64.38
239.091	75.38
239.325	80.38
239.559	72.38
239.793	88.38
240.027	85.38
240.26	84.38
240.494	77.38
240.728	71.38
240.961	65.38
241.195	86.38
241.429	82.38
241.662	80.38
241.896	64.38
242.13	78.38
242.363	87.38
242.597	74.38
242.83	69.38
243.064	72.38
243.298	83.38
243.531	72.38
243.765	67.38
243.998	84.38
244.232	70.38
244.465	81.38
244.699	83.38
244.932	83.38
245.166	71.38
245.399	82.38
245.633	68.38
245.866	74.38
246.099	75.38
246.333	71.38
246.566	75.38
246.8	87.38
247.033	78.38
247.266	58.38
247.5	77.38
247.733	71.38
247.966	70.38
248.2	85.38
248.433	73.38
248.666	72.38
248.899	90.38
249.133	66.38
249.366	85.38
249.599	91.38
249.832	73.38
250.066	86.38
250.299	76.38
250.532	73.38
250.765	76.38
250.998	74.38
251.231	78.38
251.465	90.38
251.698	79.38
251.931	74.38
252.164	67.38
252.397	69.38
252.63	67.38
252.863	85.38
253.096	70.38
253.329	81.38
253.562	80.38
253.795	77.38
254.028	83.38
254.261	86.38
254.494	74.38
254.727	82.38
254.96	72.38
255.193	84.38
255.426	78.38
255.659	70.38
255.892	90.38
256.124	73.38
256.357	88.38
256.59	82.38
256.823	80.38
257.056	80.38
257.289	69.38
257.521	84.38
257.754	78.38
257.987	83.38
258.22	71.38
258.452	78.38
258.685	89.38
258.918	92.38
259.151	76.38
259.383	78.38
259.616	86.38
259.849	78.38
260.081	76.38
260.314	70.38
260.547	87.38
260.779	80.38
261.012	89.38
261.244	89.38
261.477	85.38
261.71	67.38
261.942	91.38
262.175	88.38
262.407	90.38
262.64	70.38
262.872	80.38
263.105	71.38
263.337	83.38
263.57	74.38
263.802	82.38
264.035	74.38
264.267	80.38
264.499	65.38
264.732	72.38
264.964	87.38
265.197	88.38
265.429	87.38
265.661	79.38
265.894	91.38
266.126	84.38
266.358	80.38
266.591	88.38
266.823	87.38
267.055	82.38
267.287	72.38
267.52	75.38
267.752	80.38
267.984	69.38
268.216	65.38
268.448	82.38
268.681	80.38
268.913	82.38
269.145	80.38
269.377	77.38
269.609	91.38
269.841	87.38
270.073	67.38
270.306	84.38
270.538	80.38
270.77	79.38
271.002	81.38
271.234	71.38
271.466	93.38
271.698	72.38
271.93	90.38
272.162	87.38
272.394	88.38
272.626	88.38
272.858	92.38
273.09	87.38
273.322	74.38
273.553	87.38
273.785	77.38
274.017	75.38
274.249	76.38
274.481	86.38
274.713	83.38
274.945	79.38
275.176	84.38
275.408	90.38
275.64	94.38
275.872	87.38
276.104	92.38
276.335	93.38
276.567	76.38
276.799	76.38
277.031	81.38
277.262	81.38
277.494	87.38
277.726	69.38
277.957	83.38
278.189	87.38
278.421	97.38
278.652	88.38
278.884	86.38
279.115	80.38
279.347	79.38
279.579	81.38
279.81	86.38
280.042	62.38
280.273	60.38
280.505	75.38
280.736	80.38
280.968	85.38
281.199	86.38
281.431	98.38
281.662	80.38
281.894	88.38
282.125	80.38
282.356	75.38
282.588	79.38
282.819	78.38
283.051	80.38
283.282	79.38
283.513	96.38
283.745	72.38
283.976	85.38
284.207	81.38
284.439	85.38
284.67	82.38
284.901	94.38
285.132	98.38
285.364	78.38
285.595	86.38
285.826	84.38
286.057	89.38
286.288	74.38
286.52	80.38
286.751	87.38
286.982	87.38
287.213	73.38
287.444	82.38
287.675	90.38
287.906	83.38
288.138	90.38
288.369	70.38
288.6	61.38
288.831	98.38
289.062	82.38
289.293	92.38
289.524	87.38
289.755	82.38
289.986	93.38
290.217	88.38
290.448	85.38
290.679	87.38
290.91	74.38
291.141	77.38
291.371	84.38
291.602	101.38
291.833	87.38
292.064	87.38
292.295	88.38
292.526	79.38
292.757	91.38
292.987	87.38
293.218	83.38
293.449	77.38
293.68	77.38
293.91	91.38
294.141	68.38
294.372	75.38
294.603	92.38
294.833	97.38
295.064	82.38
295.295	81.38
295.525	91.38
295.756	85.38
295.987	79.38
296.217	76.38
296.448	87.38
296.679	95.38
296.909	89.38
297.14	97.38
297.37	96.38
297.601	92.38
297.831	91.38
298.062	90.38
298.292	89.38
298.523	82.38
298.753	91.38
298.984	90.38
299.214	97.38
299.445	80.38
299.675	93.38
299.905	82.38
300.136	81.38
300.366	76.38
300.597	95.38
300.827	92.38
301.057	80.38
301.288	95.38
301.518	81.38
301.748	93.38
301.979	89.38
302.209	88.38
302.439	89.38
302.669	92.38
302.9	83.38
303.13	86.38
303.36	94.38
303.59	74.38
303.82	90.38
304.051	72.38
304.281	77.38
304.511	81.38
304.741	77.38
304.971	69.38
305.201	82.38
305.431	91.38
305.661	82.38
305.891	90.38
306.121	82.38
306.352	85.38
306.582	92.38
306.812	98.38
307.042	69.38
307.272	74.38
307.502	66.38
307.731	81.38
307.961	82.38
308.191	73.38
308.421	84.38
308.651	93.38
308.881	101.38
309.111	87.38
309.341	89.38
309.571	72.38
309.8	86.38
310.03	76.38
310.26	90.38
310.49	90.38
310.72	75.38
310.949	86.38
311.179	99.38
311.409	78.38
311.639	76.38
311.868	87.38
312.098	88.38
312.328	91.38
312.557	87.38
312.787	67.38
313.017	86.38
313.246	82.38
313.476	83.38
313.706	82.38
313.935	79.38
314.165	85.38
314.394	69.38
314.624	76.38
314.853	86.38
315.083	93.38
315.312	91.38
315.542	83.38
315.771	88.38
316.001	71.38
316.23	98.38
316.46	85.38
316.689	90.38
316.919	69.38
317.148	90.38
317.377	89.38
317.607	91.38
317.836	86.38
318.065	92.38
318.295	63.38
318.524	84.38
318.753	91.38
318.983	89.38
319.212	72.38
319.441	82.38
319.67	82.38
319.9	75.38
320.129	96.38
320.358	87.38
320.587	78.38
320.816	81.38
321.046	82.38
321.275	79.38
321.504	87.38
321.733	80.38
321.962	82.38
322.191	69.38
322.42	94.38
322.649	82.38
322.878	86.38
323.108	95.38
323.337	73.38
323.566	88.38
323.795	88.38
324.024	94.38
324.253	86.38
324.482	79.38
324.71	81.38
324.939	87.38
325.168	70.38
325.397	81.38
325.626	90.38
325.855	81.38
326.084	85.38
326.313	89.38
326.542	81.38
326.77	83.38
326.999	96.38
327.228	86.38
327.457	76.38
327.686	89.38
327.914	87.38
328.143	84.38
328.372	79.38
328.6	77.38
328.829	89.38
329.058	82.38
329.287	79.38
329.515	86.38
329.744	88.38
329.972	69.38
330.201	75.38
330.43	81.38
330.658	98.38
330.887	74.38
331.115	88.38
331.344	82.38
331.572	93.38
331.801	94.38
332.03	90.38
332.258	90.38
332.486	82.38
332.715	84.38
332.943	100.38
333.172	73.38
333.4	94.38
333.629	81.38
333.857	89.38
334.085	88.38
334.314	90.38
334.542	82.38
334.771	88.38
334.999	70.38
335.227	81.38
335.455	88.38
335.684	88.38
335.912	81.38
336.14	77.38
336.369	92.38
336.597	58.38
336.825	73.38
337.053	97.38
337.281	70.38
337.51	96.38
337.738	78.38
337.966	70.38
338.194	80.38
338.422	82.38
338.65	78.38
338.878	86.38
339.106	98.38
339.334	90.38
339.562	86.38
339.79	81.38
340.018	85.38
340.246	90.38
340.474	77.38
340.702	70.38
340.93	77.38
341.158	80.38
341.386	70.38
341.614	86.38
341.842	84.38
342.07	81.38
342.298	84.38
342.526	95.38
342.754	84.38
342.981	103.38
343.209	89.38
343.437	76.38
343.665	84.38
343.893	85.38
344.12	96.38
344.348	77.38
344.576	83.38
344.804	69.38
345.031	76.38
345.259	92.38
345.487	91.38
345.714	80.38
345.942	90.38
346.17	84.38
346.397	95.38
346.625	84.38
346.853	88.38
347.08	84.38
347.308	84.38
347.535	80.38
347.763	84.38
347.99	79.38
348.218	82.38
348.445	91.38
348.673	87.38
348.9	94.38
349.128	91.38
349.355	85.38
349.583	84.38
349.81	83.38
350.037	79.38
350.265	78.38
350.492	89.38
350.72	71.38
350.947	75.38
351.174	81.38
351.402	85.38
351.629	89.38
351.856	97.38
352.083	84.38
352.311	94.38
352.538	86.38
352.765	83.38
352.992	87.38
353.22	81.38
353.447	91.38
353.674	70.38
353.901	88.38
354.128	82.38
354.355	91.38
354.583	83.38
354.81	62.38
355.037	86.38
355.264	84.38
355.491	68.38
355.718	97.38
355.945	92.38
356.172	91.38
356.399	86.38
356.626	75.38
356.853	105.38
357.08	93.38
357.307	84.38
357.534	73.38
357.761	84.38
357.988	82.38
358.215	83.38
358.441	100.38
358.668	84.38
358.895	83.38
359.122	89.38
359.349	76.38
359.576	77.38
359.802	80.38
360.029	89.38
360.256	90.38
360.483	74.38
360.709	81.38
360.936	92.38
361.163	90.38
361.39	79.38
361.616	87.38
361.843	82.38
362.07	89.38
362.296	75.38
362.523	93.38
362.749	92.38
362.976	84.38
363.203	87.38
363.429	75.38
363.656	75.38
363.882	77.38
364.109	91.38
364.335	78.38
364.562	82.38
364.788	80.38
365.015	95.38
365.241	66.38
365.468	84.38
365.694	80.38
365.92	89.38
366.147	90.38
366.373	90.38
366.599	85.38
366.826	84.38
367.052	98.38
367.278	97.38
367.505	90.38
367.731	82.38
367.957	92.38
368.184	87.38
368.41	78.38
368.636	87.38
368.862	84.38
369.089	87.38
369.315	68.38
369.541	90.38
369.767	91.38
369.993	103.38
370.219	89.38
370.445	93.38
370.672	92.38
370.898	87.38
371.124	96.38
371.35	94.38
371.576	79.38
371.802	87.38
372.028	84.38
372.254	97.38
372.48	87.38
372.706	95.38
372.932	83.38
373.158	85.38
373.384	80.38
373.61	79.38
373.835	104.38
374.061	106.38
374.287	79.38
374.513	86.38
374.739	84.38
374.965	86.38
375.191	102.38
375.416	82.38
375.642	82.38
375.868	100.38
376.094	94.38
376.319	92.38
376.545	86.38
376.771	90.38
376.997	86.38
377.222	88.38
377.448	102.38
377.674	101.38
377.899	92.38
378.125	91.38
378.35	98.38
378.576	99.38
378.802	87.38
379.027	95.38
379.253	93.38
379.478	93.38
379.704	76.38
379.929	97.38
380.155	84.38
380.38	99.38
380.606	98.38
380.831	87.38
381.057	100.38
381.282	92.38
381.507	95.38
381.733	89.38
381.958	96.38
382.184	91.38
382.409	95.38
382.634	108.38
382.86	101.38
383.085	102.38
383.31	100.38
383.535	118.38
383.761	100.38
383.986	106.38
384.211	100.38
384.436	98.38
384.662	103.38
384.887	109.38
385.112	86.38
385.337	90.38
385.562	99.38
385.787	101.38
386.013	90.38
386.238	104.38
386.463	92.38
386.688	100.38
386.913	101.38
387.138	92.38
387.363	96.38
387.588	107.38
387.813	100.38
388.038	82.38
388.263	90.38
388.488	78.38
388.713	82.38
388.938	100.38
389.163	94.38
389.387	94.38
389.612	117.38
389.837	115.38
390.062	114.38
390.287	87.38
390.512	96.38
390.736	106.38
390.961	105.38
391.186	95.38
391.411	100.38
391.636	111.38
391.86	102.38
392.085	103.38
392.31	97.38
392.534	118.38
392.759	104.38
392.984	101.38
393.208	95.38
393.433	112.38
393.658	106.38
393.882	107.38
394.107	102.38
394.331	101.38
394.556	100.38
394.78	103.38
395.005	103.38
395.229	108.38
395.454	111.38
395.678	94.38
395.903	100.38
396.127	97.38
396.352	107.38
396.576	106.38
396.801	91.38
397.025	104.38
397.249	110.38
397.474	110.38
397.698	97.38
397.922	111.38
398.147	102.38
398.371	114.38
398.595	104.38
398.82	117.38
399.044	93.38
399.268	96.38
399.492	117.38
399.717	114.38
399.941	118.38
400.165	116.38
400.389	126.38
400.613	113.38
400.837	105.38
401.062	100.38
401.286	111.38
401.51	103.38
401.734	97.38
401.958	98.38
402.182	111.38
402.406	105.38
402.63	108.38
402.854	116.38
403.078	123.38
403.302	125.38
403.526	102.38
403.75	105.38
403.974	113.38
404.198	97.38
404.422	117.38
404.645	122.38
404.869	115.38
405.093	104.38
405.317	110.38
405.541	134.38
405.765	99.38
405.988	120.38
406.212	110.38
406.436	112.38
406.66	117.38
406.883	118.38
407.107	113.38
407.331	105.38
407.555	112.38
407.778	107.38
408.002	113.38
408.226	111.38
408.449	123.38
408.673	120.38
408.896	116.38
409.12	127.38
409.344	118.38
409.567	101.38
409.791	128.38
410.014	119.38
410.238	117.38
410.461	124.38
410.685	119.38
410.908	120.38
411.132	122.38
411.355	115.38
411.578	111.38
411.802	132.38
412.025	102.38
412.249	112.38
412.472	122.38
412.695	124.38
412.919	113.38
413.142	100.38
413.365	109.38
413.589	117.38
413.812	109.38
414.035	117.38
414.258	111.38
414.482	116.38
414.705	113.38
414.928	101.38
415.151	105.38
415.374	128.38
415.597	134.38
415.821	120.38
416.044	114.38
416.267	119.38
416.49	125.38
416.713	114.38
416.936	106.38
417.159	113.38
417.382	116.38
417.605	126.38
417.828	131.38
418.051	126.38
418.274	130.38
418.497	134.38
418.72	141.38
418.943	130.38
419.166	132.38
419.389	123.38
419.611	130.38
419.834	121.38
420.057	125.38
420.28	128.38
420.503	126.38
420.726	120.38
420.948	124.38
421.171	122.38
421.394	130.38
421.617	126.38
421.839	133.38
422.062	130.38
422.285	126.38
422.507	130.38
422.73	128.38
422.953	124.38
423.175	116.38
423.398	114.38
423.621	140.38
423.843	130.38
424.066	140.38
424.288	120.38
424.511	153.38
424.733	126.38
424.956	137.38
425.178	142.38
425.401	114.38
425.623	124.38
425.846	121.38
426.068	130.38
426.291	115.38
426.513	127.38
426.735	124.38
426.958	126.38
427.18	125.38
427.402	136.38
427.625	130.38
427.847	121.38
428.069	134.38
428.292	122.38
428.514	107.38
428.736	115.38
428.958	131.38
429.181	122.38
429.403	130.38
429.625	121.38
429.847	132.38
430.069	126.38
430.292	122.38
430.514	119.38
430.736	134.38
430.958	134.38
431.18	125.38
431.402	130.38
431.624	128.38
431.846	114.38
432.068	104.38
432.29	110.38
432.512	102.38
432.734	107.38
432.956	127.38
433.178	137.38
433.4	136.38
433.622	117.38
433.844	130.38
434.066	132.38
434.287	108.38
434.509	88.38
434.731	109.38
434.953	111.38
435.175	115.38
435.397	126.38
435.618	119.38
435.84	92.38
436.062	113.38
436.284	130.38
436.505	115.38
436.727	134.38
436.949	132.38
437.17	111.38
437.392	134.38
437.614	118.38
437.835	111.38
438.057	124.38
438.278	120.38
438.5	98.38
438.721	144.38
438.943	140.38
439.165	128.38
439.386	130.38
439.608	136.38
439.829	140.38
440.05	150.38
440.272	140.38
440.493	143.38
440.715	140.38
440.936	153.38
441.158	148.38
441.379	150.38
441.6	145.38
441.822	144.38
442.043	128.38
442.264	131.38
442.486	129.38
442.707	122.38
442.928	122.38
443.149	149.38
443.371	127.38
443.592	135.38
443.813	121.38
444.034	139.38
444.255	140.38
444.476	127.38
444.698	134.38
444.919	126.38
445.14	274.38
445.361	203.38
445.582	154.38
445.803	160.38
446.024	149.38
446.245	145.38
446.466	148.38
446.687	150.38
446.908	140.38
447.129	153.38
447.35	136.38
447.571	139.38
447.792	139.38
448.013	151.38
448.234	124.38
448.455	137.38
448.675	129.38
448.896	129.38
449.117	125.38
449.338	139.38
449.559	129.38
449.779	138.38
450	128.38
450.221	133.38
450.442	138.38
450.662	122.38
450.883	132.38
451.104	134.38
451.324	134.38
451.545	123.38
451.766	124.38
451.986	113.38
452.207	121.38
452.428	114.38
452.648	113.38
452.869	126.38
453.089	107.38
453.31	107.38
453.53	112.38
453.751	107.38
453.971	108.38
454.192	97.38
454.412	103.38
454.633	117.38
454.853	122.38
455.073	132.38
455.294	126.38
455.514	129.38
455.734	106.38
455.955	112.38
456.175	120.38
456.395	104.38
456.616	114.38
456.836	108.38
457.056	114.38
457.276	94.38
457.497	91.38
457.717	98.38
457.937	93.38
458.157	88.38
458.377	106.38
458.598	96.38
458.818	87.38
459.038	102.38
459.258	79.38
459.478	81.38
459.698	98.38
459.918	95.38
460.138	104.38
460.358	116.38
460.578	118.38
460.798	114.38
461.018	106.38
461.238	110.38
461.458	112.38
461.678	117.38
461.898	120.38
462.118	119.38
462.338	97.38
462.558	118.38
462.777	98.38
462.997	100.38
463.217	94.38
463.437	110.38
463.657	110.38
463.876	112.38
464.096	99.38
464.316	98.38
464.536	113.38
464.755	106.38
464.975	100.38
465.195	122.38
465.414	118.38
465.634	114.38
465.854	119.38
466.073	116.38
466.293	123.38
466.512	119.38
466.732	112.38
466.951	140.38
467.171	146.38
467.391	139.38
467.61	124.38
467.829	123.38
468.049	150.38
468.268	123.38
468.488	137.38
468.707	124.38
468.927	134.38
469.146	132.38
469.365	144.38
469.585	133.38
469.804	127.38
470.023	138.38
470.243	140.38
470.462	129.38
470.681	145.38
470.901	137.38
471.12	139.38
471.339	123.38
471.558	139.38
471.777	124.38
471.997	138.38
472.216	114.38
472.435	108.38
472.654	103.38
472.873	112.38
473.092	109.38
473.311	121.38
473.53	123.38
473.749	127.38
473.968	126.38
474.187	118.38
474.406	118.38
474.625	125.38
474.844	138.38
475.063	135.38
475.282	119.38
475.501	131.38
475.72	129.38
475.939	123.38
476.158	125.38
476.377	105.38
476.596	107.38
476.814	110.38
477.033	101.38
477.252	107.38
477.471	119.38
477.69	128.38
477.908	135.38
478.127	127.38
478.346	127.38
478.564	121.38
478.783	132.38
479.002	135.38
479.22	141.38
479.439	134.38
479.658	129.38
479.876	118.38
480.095	103.38
480.313	124.38
480.532	118.38
480.751	106.38
480.969	102.38
481.188	106.38
481.406	96.38
481.624	95.38
481.843	88.38
482.061	105.38
482.28	110.38
482.498	118.38
482.717	105.38
482.935	121.38
483.153	129.38
483.372	151.38
483.59	137.38
483.808	150.38
484.027	131.38
484.245	122.38
484.463	135.38
484.681	161.38
484.9	166.38
485.118	128.38
485.336	122.38
485.554	108.38
485.772	103.38
485.99	111.38
486.209	88.38
486.427	117.38
486.645	122.38
486.863	141.38
487.081	119.38
487.299	130.38
487.517	140.38
487.735	151.38
487.953	183.38
488.171	171.38
488.389	163.38
488.607	158.38
488.825	146.38
489.043	126.38
489.261	120.38
489.479	116.38
489.696	138.38
489.914	148.38
490.132	124.38
490.35	137.38
490.568	137.38
490.786	167.38
491.003	177.38
491.221	183.38
491.439	167.38
491.657	184.38
491.874	204.38
492.092	216.38
492.31	229.38
492.527	216.38
492.745	194.38
492.963	188.38
493.18	186.38
493.398	175.38
493.615	177.38
493.833	170.38
494.05	178.38
494.268	171.38
494.485	164.38
494.703	185.38
494.92	166.38
495.138	156.38
495.355	150.38
495.573	147.38
495.79	150.38
496.008	159.38
496.225	170.38
496.442	164.38
496.66	165.38
496.877	161.38
497.094	152.38
497.312	145.38
497.529	156.38
497.746	153.38
497.963	144.38
498.181	123.38
498.398	131.38
498.615	116.38
498.832	116.38
499.049	127.38
499.267	113.38
499.484	125.38
499.701	124.38
499.918	126.38
500.135	135.38
500.352	131.38
500.569	151.38
500.786	144.38
501.003	137.38
501.22	142.38
501.437	139.38
501.654	128.38
501.871	108.38
502.088	129.38
502.305	134.38
502.522	123.38
502.739	132.38
502.956	129.38
503.172	121.38
503.389	119.38
503.606	122.38
503.823	133.38
504.04	112.38
504.256	116.38
504.473	102.38
504.69	110.38
504.907	119.38
505.123	125.38
505.34	110.38
505.557	131.38
505.773	126.38
505.99	105.38
506.207	101.38
506.423	126.38
506.64	106.38
506.856	116.38
507.073	116.38
507.289	116.38
507.506	106.38
507.722	110.38
507.939	114.38
508.155	118.38
508.372	113.38
508.588	98.38
508.805	115.38
509.021	117.38
509.238	116.38
509.454	102.38
509.67	114.38
509.887	98.38
510.103	97.38
510.319	84.38
510.536	90.38
510.752	78.38
510.968	70.38
511.184	88.38
511.401	80.38
511.617	86.38
511.833	89.38
512.049	86.38
512.265	81.38
512.481	98.38
512.698	80.38
512.914	101.38
513.13	88.38
513.346	80.38
513.562	93.38
513.778	78.38
513.994	95.38
514.21	91.38
514.426	80.38
514.642	79.38
514.858	87.38
515.074	85.38
515.29	92.38
515.506	99.38
515.721	96.38
515.937	102.38
516.153	85.38
516.369	87.38
516.585	87.38
516.801	87.38
517.016	92.38
517.232	92.38
517.448	101.38
517.664	98.38
517.879	90.38
518.095	88.38
518.311	92.38
518.527	103.38
518.742	82.38
518.958	83.38
519.173	118.38
519.389	106.38
519.605	102.38
519.82	107.38
520.036	92.38
520.251	90.38
520.467	112.38
520.682	84.38
520.898	92.38
521.113	99.38
521.329	77.38
521.544	85.38
521.76	89.38
521.975	99.38
522.19	97.38
522.406	104.38
522.621	105.38
522.836	102.38
523.052	111.38
523.267	97.38
523.482	103.38
523.698	114.38
523.913	108.38
524.128	121.38
524.343	134.38
524.559	122.38
524.774	117.38
524.989	127.38
525.204	110.38
525.419	114.38
525.634	115.38
525.849	110.38
526.064	101.38
526.28	111.38
526.495	88.38
526.71	96.38
526.925	72.38
527.14	80.38
527.355	76.38
527.57	87.38
527.785	82.38
527.999	97.38
528.214	94.38
528.429	117.38
528.644	115.38
528.859	117.38
529.074	141.38
529.289	156.38
529.503	155.38
529.718	146.38
529.933	112.38
530.148	107.38
530.363	111.38
530.577	104.38
530.792	82.38
531.007	81.38
531.221	82.38
531.436	87.38
531.651	90.38
531.865	88.38
532.08	92.38
532.295	87.38
532.509	67.38
532.724	90.38
532.938	94.38
533.153	99.38
533.367	123.38
533.582	121.38
533.796	104.38
534.011	113.38
534.225	94.38
534.44	92.38
534.654	107.38
534.868	97.38
535.083	116.38
535.297	106.38
535.511	97.38
535.726	109.38
535.94	107.38
536.154	72.38
536.369	89.38
536.583	78.38
536.797	86.38
537.011	83.38
537.225	97.38
537.44	82.38
537.654	84.38
537.868	98.38
538.082	100.38
538.296	89.38
538.51	98.38
538.724	105.38
538.938	131.38
539.153	113.38
539.367	115.38
539.581	113.38
539.795	116.38
540.009	96.38
540.222	96.38
540.436	92.38
540.65	114.38
540.864	120.38
541.078	137.38
541.292	162.38
541.506	146.38
541.72	172.38
541.934	178.38
542.147	176.38
542.361	176.38
542.575	158.38
542.789	153.38
543.002	140.38
543.216	123.38
543.43	132.38
543.644	126.38
543.857	138.38
544.071	155.38
544.285	167.38
544.498	154.38
544.712	144.38
544.925	157.38
545.139	151.38
545.352	150.38
545.566	160.38
545.779	157.38
545.993	151.38
546.206	148.38
546.42	149.38
546.633	137.38
546.847	149.38
547.06	160.38
547.274	174.38
547.487	162.38
547.7	171.38
547.914	184.38
548.127	144.38
548.34	129.38
548.554	134.38
548.767	145.38
548.98	149.38
549.193	151.38
549.407	154.38
549.62	152.38
549.833	145.38
550.046	143.38
550.259	138.38
550.473	151.38
550.686	142.38
550.899	143.38
551.112	131.38
551.325	132.38
551.538	154.38
551.751	119.38
551.964	124.38
552.177	144.38
552.39	132.38
552.603	135.38
552.816	140.38
553.029	149.38
553.242	159.38
553.455	140.38
553.667	152.38
553.88	145.38
554.093	151.38
554.306	158.38
554.519	159.38
554.732	142.38
554.944	155.38
555.157	140.38
555.37	142.38
555.583	128.38
555.795	140.38
556.008	139.38
556.221	123.38
556.433	141.38
556.646	122.38
556.859	128.38
557.071	142.38
557.284	136.38
557.496	148.38
557.709	138.38
557.921	146.38
558.134	125.38
558.346	129.38
558.559	134.38
558.771	130.38
558.984	117.38
559.196	136.38
559.409	132.38
559.621	120.38
559.833	101.38
560.046	114.38
560.258	121.38
560.47	127.38
560.683	142.38
560.895	135.38
561.107	132.38
561.32	119.38
561.532	122.38
561.744	149.38
561.956	144.38
562.168	136.38
562.381	129.38
562.593	118.38
562.805	122.38
563.017	125.38
563.229	130.38
563.441	105.38
563.653	106.38
563.865	131.38
564.077	128.38
564.289	123.38
564.501	124.38
564.713	108.38
564.925	128.38
565.137	114.38
565.349	128.38
565.561	114.38
565.773	139.38
565.985	123.38
566.197	115.38
566.408	113.38
566.62	112.38
566.832	119.38
567.044	117.38
567.255	119.38
567.467	113.38
567.679	119.38
567.891	101.38
568.102	99.38
568.314	91.38
568.526	101.38
568.737	98.38
568.949	101.38
569.161	72.38
569.372	75.38
569.584	86.38
569.795	83.38
570.007	86.38
570.218	84.38
570.43	89.38
570.641	96.38
570.853	98.38
571.064	82.38
571.276	104.38
571.487	104.38
571.698	91.38
571.91	99.38
572.121	103.38
572.333	96.38
572.544	96.38
572.755	95.38
572.966	99.38
573.178	86.38
573.389	88.38
573.6	86.38
573.811	91.38
574.023	85.38
574.234	97.38
574.445	93.38
574.656	99.38
574.867	113.38
575.078	90.38
575.289	82.38
575.501	107.38
575.712	90.38
575.923	95.38
576.134	110.38
576.345	105.38
576.556	89.38
576.767	99.38
576.978	90.38
577.188	93.38
577.399	98.38
577.61	99.38
577.821	92.38
578.032	91.38
578.243	104.38
578.454	91.38
578.665	99.38
578.875	80.38
579.086	94.38
579.297	82.38
579.508	82.38
579.718	93.38
579.929	81.38
580.14	74.38
580.35	82.38
580.561	86.38
580.772	73.38
580.982	89.38
581.193	74.38
581.403	83.38
581.614	98.38
581.825	93.38
582.035	95.38
582.246	87.38
582.456	77.38
582.667	91.38
582.877	93.38
583.087	101.38
583.298	94.38
583.508	91.38
583.719	83.38
583.929	89.38
584.139	80.38
584.35	75.38
584.56	94.38
584.77	80.38
584.981	93.38
585.191	95.38
585.401	72.38
585.611	95.38
585.821	79.38
586.032	79.38
586.242	80.38
586.452	86.38
586.662	75.38
586.872	82.38
587.082	89.38
587.292	81.38
587.502	84.38
587.713	93.38
587.923	95.38
588.133	88.38
588.343	83.38
588.553	79.38
588.762	86.38
588.972	88.38
589.182	88.38
589.392	96.38
589.602	87.38
589.812	93.38
590.022	86.38
590.232	83.38
590.441	91.38
590.651	76.38
590.861	85.38
591.071	91.38
591.281	85.38
591.49	90.38
591.7	89.38
591.91	86.38
592.119	90.38
592.329	71.38
592.539	83.38
592.748	77.38
592.958	92.38
593.167	95.38
593.377	87.38
593.587	99.38
593.796	96.38
594.006	83.38
594.215	95.38
594.424	90.38
594.634	84.38
594.843	85.38
595.053	96.38
595.262	88.38
595.472	86.38
595.681	89.38
595.89	97.38
596.1	105.38
596.309	91.38
596.518	89.38
596.727	94.38
596.937	95.38
597.146	90.38
597.355	100.38
597.564	93.38
597.774	84.38
597.983	96.38
598.192	61.38
598.401	91.38
598.61	100.38
598.819	88.38
599.028	97.38
599.237	102.38
599.446	92.38
599.655	88.38
599.864	76.38
600.073	87.38
600.282	107.38
600.491	80.38
600.7	100.38
600.909	99.38
601.118	94.38
601.327	112.38
601.536	82.38
601.745	105.38
601.953	118.38
602.162	115.38
602.371	112.38
602.58	95.38
602.789	104.38
602.997	104.38
603.206	108.38
603.415	99.38
603.623	103.38
603.832	108.38
604.041	99.38
604.249	99.38
604.458	106.38
604.666	104.38
604.875	90.38
605.084	104.38
605.292	112.38
605.501	114.38
605.709	108.38
605.918	102.38
606.126	105.38
606.334	112.38
606.543	107.38
606.751	124.38
606.96	110.38
607.168	105.38
607.376	106.38
607.585	109.38
607.793	95.38
608.001	112.38
608.21	112.38
608.418	119.38
608.626	110.38
608.834	116.38
609.043	117.38
609.251	103.38
609.459	110.38
609.667	109.38
609.875	109.38
610.083	122.38
610.291	121.38
610.499	114.38
610.707	107.38
610.916	124.38
611.124	112.38
611.332	119.38
611.54	110.38
611.748	106.38
611.955	104.38
612.163	120.38
612.371	115.38
612.579	115.38
612.787	123.38
612.995	107.38
613.203	124.38
613.411	98.38
613.618	110.38
613.826	92.38
614.034	95.38
614.242	114.38
614.449	110.38
614.657	121.38
614.865	121.38
615.072	109.38
615.28	107.38
615.488	105.38
615.695	115.38
615.903	120.38
616.111	114.38
616.318	123.38
616.526	119.38
616.733	122.38
616.941	112.38
617.148	106.38
617.356	110.38
617.563	126.38
617.771	103.38
617.978	107.38
618.185	105.38
618.393	119.38
618.6	107.38
618.807	108.38
619.015	109.38
619.222	112.38
619.429	115.38
619.637	96.38
619.844	104.38
620.051	95.38
620.258	91.38
620.466	112.38
620.673	106.38
620.88	97.38
621.087	106.38
621.294	105.38
621.501	105.38
621.708	112.38
621.915	97.38
622.122	110.38
622.329	114.38
622.536	108.38
622.743	106.38
622.95	116.38
623.157	95.38
623.364	103.38
623.571	93.38
623.778	113.38
623.985	114.38
624.192	104.38
624.399	82.38
624.606	100.38
624.812	107.38
625.019	110.38
625.226	110.38
625.433	98.38
625.639	95.38
625.846	96.38
626.053	93.38
626.259	97.38
626.466	111.38
626.673	96.38
626.879	95.38
627.086	94.38
627.293	98.38
627.499	115.38
627.706	99.38
627.912	114.38
628.119	91.38
628.325	111.38
628.532	106.38
628.738	93.38
628.945	99.38
629.151	102.38
629.357	94.38
629.564	86.38
629.77	104.38
629.976	100.38
630.183	87.38
630.389	99.38
630.595	110.38
630.802	95.38
631.008	102.38
631.214	96.38
631.42	97.38
631.627	102.38
631.833	91.38
632.039	101.38
632.245	83.38
632.451	98.38
632.657	104.38
632.863	99.38
633.069	102.38
633.275	99.38
633.481	99.38
633.688	94.38
633.893	97.38
634.099	104.38
634.305	100.38
634.511	116.38
634.717	95.38
634.923	116.38
635.129	80.38
635.335	92.38
635.541	99.38
635.747	82.38
635.952	104.38
636.158	100.38
636.364	94.38
636.57	120.38
636.775	113.38
636.981	98.38
637.187	102.38
637.392	90.38
637.598	87.38
637.804	108.38
638.009	109.38
638.215	112.38
638.421	97.38
638.626	107.38
638.832	106.38
639.037	98.38
639.243	104.38
639.448	100.38
639.654	87.38
639.859	103.38
640.065	100.38
640.27	85.38
640.475	106.38
640.681	101.38
640.886	98.38
641.091	96.38
641.297	91.38
641.502	99.38
641.707	89.38
641.913	105.38
642.118	83.38
642.323	97.38
642.528	110.38
642.733	104.38
642.939	91.38
643.144	95.38
643.349	94.38
643.554	117.38
643.759	86.38
643.964	91.38
644.169	111.38
644.374	104.38
644.579	95.38
644.784	86.38
644.989	102.38
645.194	89.38
645.399	96.38
645.604	100.38
645.809	105.38
646.014	90.38
646.219	108.38
646.423	89.38
646.628	99.38
646.833	105.38
647.038	100.38
647.243	103.38
647.447	112.38
647.652	100.38
647.857	91.38
648.062	86.38
648.266	84.38
648.471	87.38
648.676	94.38
648.88	109.38
649.085	90.38
649.289	86.38
649.494	91.38
649.698	98.38
649.903	98.38
650.107	94.38
650.312	105.38
650.516	108.38
650.721	94.38
650.925	89.38
651.13	89.38
651.334	91.38
651.539	102.38
651.743	99.38
651.947	81.38
652.152	96.38
652.356	98.38
652.56	93.38
652.764	82.38
652.969	107.38
653.173	99.38
653.377	92.38
653.581	82.38
653.785	84.38
653.99	102.38
654.194	100.38
654.398	84.38
654.602	99.38
654.806	92.38
655.01	87.38
655.214	86.38
655.418	72.38
655.622	92.38
655.826	98.38
656.03	84.38
656.234	87.38
656.438	81.38
656.642	89.38
656.846	93.38
657.049	94.38
657.253	92.38
657.457	81.38
657.661	95.38
657.865	82.38
658.068	73.38
658.272	74.38
658.476	87.38
658.68	97.38
658.883	84.38
659.087	89.38
659.291	88.38
659.494	87.38
659.698	77.38
659.901	83.38
660.105	80.38
660.309	71.38
660.512	80.38
660.716	85.38
660.919	80.38
661.123	82.38
661.326	83.38
661.53	74.38
661.733	75.38
661.936	84.38
662.14	83.38
662.343	73.38
662.546	91.38
662.75	87.38
662.953	91.38
663.156	75.38
663.36	71.38
663.563	84.38
663.766	73.38
663.969	76.38
664.173	80.38
664.376	67.38
664.579	97.38
664.782	73.38
664.985	99.38
665.188	84.38
665.391	95.38
665.594	94.38
665.797	83.38
666	97.38
666.203	84.38
666.406	79.38
666.609	88.38
666.812	79.38
667.015	86.38
667.218	84.38
667.421	82.38
667.624	87.38
667.827	88.38
668.03	71.38
668.232	78.38
668.435	75.38
668.638	72.38
668.841	79.38
669.043	78.38
669.246	75.38
669.449	75.38
669.651	87.38
669.854	84.38
670.057	81.38
670.259	65.38
670.462	82.38
670.665	86.38
670.867	78.38
671.07	74.38
671.272	72.38
671.475	90.38
671.677	71.38
671.88	86.38
672.082	85.38
672.284	70.38
672.487	77.38
672.689	71.38
672.892	72.38
