Data from Location4.07152019.Energy5.Lamp.07192019.3%Agarose_HRD10591_16-19-46-926.txt Node
Date: Fri Jul 19 16:19:46 EDT 2019
User: cochatt
Spectrometer: HR+D1059
Trigger mode: 1
Integration Time (sec): 1.000000E-1
Scans to average: 1
Electric dark correction enabled: true
Nonlinearity correction enabled: false
Boxcar width: 0
XAxis mode: Wavelengths
Number of Pixels in Spectrum: 2048
>>>>>Begin Spectral Data<<<<<
223.165	-17.31
223.4	-17.31
223.635	-17.31
223.869	-11.31
224.104	-30.31
224.338	-1.31
224.573	-9.31
224.808	-11.31
225.042	-0.31
225.277	-6.31
225.511	-5.31
225.746	10.69
225.98	4.69
226.215	4.69
226.449	7.69
226.683	21.69
226.918	23.69
227.152	19.69
227.387	18.69
227.621	37.69
227.856	42.69
228.09	47.69
228.324	45.69
228.559	51.69
228.793	63.69
229.027	47.69
229.262	62.69
229.496	63.69
229.73	75.69
229.964	60.69
230.199	80.69
230.433	71.69
230.667	66.69
230.901	87.69
231.136	78.69
231.37	60.69
231.604	87.69
231.838	73.69
232.072	81.69
232.306	92.69
232.541	85.69
232.775	75.69
233.009	73.69
233.243	80.69
233.477	67.69
233.711	86.69
233.945	71.69
234.179	86.69
234.413	80.69
234.647	75.69
234.881	89.69
235.115	87.69
235.349	88.69
235.583	78.69
235.817	74.69
236.051	77.69
236.285	84.69
236.519	76.69
236.753	88.69
236.987	69.69
237.221	70.69
237.455	79.69
237.689	73.69
237.922	76.69
238.156	65.69
238.39	72.69
238.624	83.69
238.858	75.69
239.091	75.69
239.325	62.69
239.559	77.69
239.793	77.69
240.027	77.69
240.26	89.69
240.494	74.69
240.728	74.69
240.961	85.69
241.195	76.69
241.429	75.69
241.662	81.69
241.896	83.69
242.13	92.69
242.363	93.69
242.597	71.69
242.83	70.69
243.064	75.69
243.298	76.69
243.531	78.69
243.765	89.69
243.998	73.69
244.232	76.69
244.465	88.69
244.699	77.69
244.932	69.69
245.166	84.69
245.399	94.69
245.633	78.69
245.866	83.69
246.099	82.69
246.333	77.69
246.566	74.69
246.8	82.69
247.033	85.69
247.266	84.69
247.5	73.69
247.733	76.69
247.966	72.69
248.2	68.69
248.433	71.69
248.666	95.69
248.899	83.69
249.133	75.69
249.366	84.69
249.599	86.69
249.832	86.69
250.066	72.69
250.299	63.69
250.532	74.69
250.765	69.69
250.998	86.69
251.231	78.69
251.465	73.69
251.698	84.69
251.931	73.69
252.164	74.69
252.397	89.69
252.63	90.69
252.863	75.69
253.096	77.69
253.329	79.69
253.562	63.69
253.795	74.69
254.028	69.69
254.261	75.69
254.494	95.69
254.727	97.69
254.96	85.69
255.193	75.69
255.426	81.69
255.659	80.69
255.892	73.69
256.124	75.69
256.357	86.69
256.59	82.69
256.823	79.69
257.056	75.69
257.289	77.69
257.521	74.69
257.754	90.69
257.987	80.69
258.22	85.69
258.452	94.69
258.685	88.69
258.918	83.69
259.151	95.69
259.383	89.69
259.616	73.69
259.849	75.69
260.081	81.69
260.314	82.69
260.547	77.69
260.779	75.69
261.012	94.69
261.244	74.69
261.477	84.69
261.71	77.69
261.942	93.69
262.175	66.69
262.407	66.69
262.64	89.69
262.872	86.69
263.105	80.69
263.337	89.69
263.57	93.69
263.802	81.69
264.035	80.69
264.267	83.69
264.499	67.69
264.732	95.69
264.964	84.69
265.197	87.69
265.429	80.69
265.661	84.69
265.894	82.69
266.126	78.69
266.358	86.69
266.591	80.69
266.823	79.69
267.055	86.69
267.287	80.69
267.52	87.69
267.752	102.69
267.984	82.69
268.216	80.69
268.448	84.69
268.681	81.69
268.913	71.69
269.145	81.69
269.377	82.69
269.609	90.69
269.841	83.69
270.073	75.69
270.306	94.69
270.538	77.69
270.77	87.69
271.002	88.69
271.234	103.69
271.466	73.69
271.698	90.69
271.93	91.69
272.162	96.69
272.394	82.69
272.626	76.69
272.858	87.69
273.09	81.69
273.322	76.69
273.553	94.69
273.785	90.69
274.017	81.69
274.249	87.69
274.481	74.69
274.713	91.69
274.945	80.69
275.176	75.69
275.408	84.69
275.64	79.69
275.872	87.69
276.104	81.69
276.335	82.69
276.567	83.69
276.799	87.69
277.031	83.69
277.262	94.69
277.494	82.69
277.726	91.69
277.957	95.69
278.189	78.69
278.421	86.69
278.652	87.69
278.884	92.69
279.115	90.69
279.347	95.69
279.579	68.69
279.81	93.69
280.042	92.69
280.273	83.69
280.505	94.69
280.736	82.69
280.968	90.69
281.199	96.69
281.431	87.69
281.662	87.69
281.894	81.69
282.125	71.69
282.356	85.69
282.588	87.69
282.819	91.69
283.051	84.69
283.282	77.69
283.513	86.69
283.745	95.69
283.976	107.69
284.207	90.69
284.439	98.69
284.67	87.69
284.901	89.69
285.132	98.69
285.364	86.69
285.595	85.69
285.826	82.69
286.057	95.69
286.288	74.69
286.52	82.69
286.751	86.69
286.982	90.69
287.213	76.69
287.444	78.69
287.675	85.69
287.906	85.69
288.138	75.69
288.369	76.69
288.6	78.69
288.831	74.69
289.062	100.69
289.293	81.69
289.524	73.69
289.755	91.69
289.986	85.69
290.217	103.69
290.448	90.69
290.679	88.69
290.91	81.69
291.141	91.69
291.371	102.69
291.602	85.69
291.833	86.69
292.064	92.69
292.295	85.69
292.526	87.69
292.757	79.69
292.987	98.69
293.218	74.69
293.449	82.69
293.68	80.69
293.91	77.69
294.141	83.69
294.372	83.69
294.603	81.69
294.833	76.69
295.064	79.69
295.295	89.69
295.525	82.69
295.756	93.69
295.987	96.69
296.217	87.69
296.448	83.69
296.679	74.69
296.909	83.69
297.14	80.69
297.37	105.69
297.601	87.69
297.831	85.69
298.062	82.69
298.292	84.69
298.523	94.69
298.753	76.69
298.984	93.69
299.214	94.69
299.445	89.69
299.675	82.69
299.905	82.69
300.136	75.69
300.366	87.69
300.597	85.69
300.827	84.69
301.057	91.69
301.288	73.69
301.518	87.69
301.748	92.69
301.979	82.69
302.209	90.69
302.439	100.69
302.669	87.69
302.9	78.69
303.13	79.69
303.36	67.69
303.59	75.69
303.82	78.69
304.051	101.69
304.281	89.69
304.511	86.69
304.741	73.69
304.971	82.69
305.201	64.69
305.431	78.69
305.661	77.69
305.891	94.69
306.121	89.69
306.352	84.69
306.582	84.69
306.812	91.69
307.042	80.69
307.272	75.69
307.502	79.69
307.731	78.69
307.961	90.69
308.191	81.69
308.421	87.69
308.651	83.69
308.881	104.69
309.111	91.69
309.341	74.69
309.571	88.69
309.8	88.69
310.03	80.69
310.26	70.69
310.49	91.69
310.72	80.69
310.949	91.69
311.179	88.69
311.409	94.69
311.639	77.69
311.868	82.69
312.098	85.69
312.328	83.69
312.557	72.69
312.787	82.69
313.017	82.69
313.246	105.69
313.476	83.69
313.706	79.69
313.935	85.69
314.165	85.69
314.394	88.69
314.624	94.69
314.853	95.69
315.083	86.69
315.312	82.69
315.542	91.69
315.771	90.69
316.001	82.69
316.23	81.69
316.46	95.69
316.689	87.69
316.919	92.69
317.148	85.69
317.377	87.69
317.607	90.69
317.836	92.69
318.065	94.69
318.295	87.69
318.524	79.69
318.753	72.69
318.983	84.69
319.212	70.69
319.441	85.69
319.67	86.69
319.9	86.69
320.129	93.69
320.358	100.69
320.587	89.69
320.816	82.69
321.046	83.69
321.275	90.69
321.504	98.69
321.733	104.69
321.962	83.69
322.191	80.69
322.42	82.69
322.649	82.69
322.878	77.69
323.108	99.69
323.337	80.69
323.566	87.69
323.795	75.69
324.024	81.69
324.253	82.69
324.482	90.69
324.71	89.69
324.939	76.69
325.168	87.69
325.397	73.69
325.626	92.69
325.855	96.69
326.084	90.69
326.313	80.69
326.542	82.69
326.77	91.69
326.999	81.69
327.228	71.69
327.457	91.69
327.686	92.69
327.914	95.69
328.143	83.69
328.372	75.69
328.6	94.69
328.829	75.69
329.058	86.69
329.287	86.69
329.515	83.69
329.744	80.69
329.972	71.69
330.201	90.69
330.43	80.69
330.658	91.69
330.887	84.69
331.115	80.69
331.344	87.69
331.572	88.69
331.801	104.69
332.03	88.69
332.258	73.69
332.486	82.69
332.715	79.69
332.943	79.69
333.172	85.69
333.4	83.69
333.629	91.69
333.857	97.69
334.085	84.69
334.314	73.69
334.542	91.69
334.771	74.69
334.999	75.69
335.227	82.69
335.455	82.69
335.684	92.69
335.912	96.69
336.14	72.69
336.369	89.69
336.597	73.69
336.825	80.69
337.053	86.69
337.281	85.69
337.51	79.69
337.738	96.69
337.966	91.69
338.194	85.69
338.422	77.69
338.65	84.69
338.878	77.69
339.106	88.69
339.334	97.69
339.562	85.69
339.79	80.69
340.018	75.69
340.246	88.69
340.474	78.69
340.702	89.69
340.93	84.69
341.158	94.69
341.386	81.69
341.614	87.69
341.842	91.69
342.07	71.69
342.298	82.69
342.526	90.69
342.754	80.69
342.981	81.69
343.209	84.69
343.437	91.69
343.665	83.69
343.893	70.69
344.12	99.69
344.348	88.69
344.576	87.69
344.804	96.69
345.031	84.69
345.259	75.69
345.487	88.69
345.714	102.69
345.942	87.69
346.17	81.69
346.397	83.69
346.625	77.69
346.853	86.69
347.08	91.69
347.308	86.69
347.535	87.69
347.763	83.69
347.99	78.69
348.218	86.69
348.445	82.69
348.673	88.69
348.9	100.69
349.128	87.69
349.355	71.69
349.583	88.69
349.81	74.69
350.037	100.69
350.265	84.69
350.492	83.69
350.72	89.69
350.947	80.69
351.174	76.69
351.402	99.69
351.629	80.69
351.856	89.69
352.083	88.69
352.311	98.69
352.538	84.69
352.765	87.69
352.992	83.69
353.22	64.69
353.447	89.69
353.674	94.69
353.901	91.69
354.128	76.69
354.355	88.69
354.583	71.69
354.81	93.69
355.037	92.69
355.264	85.69
355.491	82.69
355.718	74.69
355.945	91.69
356.172	98.69
356.399	90.69
356.626	89.69
356.853	74.69
357.08	88.69
357.307	80.69
357.534	81.69
357.761	78.69
357.988	94.69
358.215	87.69
358.441	94.69
358.668	94.69
358.895	93.69
359.122	94.69
359.349	81.69
359.576	101.69
359.802	76.69
360.029	90.69
360.256	69.69
360.483	80.69
360.709	86.69
360.936	86.69
361.163	87.69
361.39	90.69
361.616	88.69
361.843	85.69
362.07	95.69
362.296	73.69
362.523	80.69
362.749	80.69
362.976	86.69
363.203	88.69
363.429	78.69
363.656	78.69
363.882	86.69
364.109	90.69
364.335	77.69
364.562	88.69
364.788	85.69
365.015	80.69
365.241	82.69
365.468	88.69
365.694	92.69
365.92	80.69
366.147	85.69
366.373	82.69
366.599	95.69
366.826	102.69
367.052	85.69
367.278	80.69
367.505	83.69
367.731	77.69
367.957	94.69
368.184	87.69
368.41	83.69
368.636	73.69
368.862	95.69
369.089	86.69
369.315	83.69
369.541	79.69
369.767	84.69
369.993	92.69
370.219	91.69
370.445	100.69
370.672	86.69
370.898	90.69
371.124	89.69
371.35	104.69
371.576	86.69
371.802	88.69
372.028	95.69
372.254	94.69
372.48	101.69
372.706	88.69
372.932	82.69
373.158	82.69
373.384	86.69
373.61	98.69
373.835	87.69
374.061	88.69
374.287	90.69
374.513	94.69
374.739	89.69
374.965	96.69
375.191	82.69
375.416	87.69
375.642	91.69
375.868	86.69
376.094	87.69
376.319	92.69
376.545	87.69
376.771	94.69
376.997	102.69
377.222	93.69
377.448	91.69
377.674	90.69
377.899	87.69
378.125	91.69
378.35	99.69
378.576	98.69
378.802	90.69
379.027	102.69
379.253	99.69
379.478	101.69
379.704	79.69
379.929	86.69
380.155	112.69
380.38	96.69
380.606	99.69
380.831	95.69
381.057	99.69
381.282	77.69
381.507	104.69
381.733	94.69
381.958	98.69
382.184	88.69
382.409	81.69
382.634	92.69
382.86	111.69
383.085	92.69
383.31	104.69
383.535	113.69
383.761	109.69
383.986	80.69
384.211	94.69
384.436	93.69
384.662	93.69
384.887	95.69
385.112	89.69
385.337	99.69
385.562	100.69
385.787	92.69
386.013	96.69
386.238	96.69
386.463	95.69
386.688	93.69
386.913	86.69
387.138	81.69
387.363	106.69
387.588	97.69
387.813	96.69
388.038	98.69
388.263	99.69
388.488	103.69
388.713	98.69
388.938	103.69
389.163	104.69
389.387	86.69
389.612	90.69
389.837	103.69
390.062	95.69
390.287	112.69
390.512	96.69
390.736	87.69
390.961	91.69
391.186	97.69
391.411	100.69
391.636	104.69
391.86	104.69
392.085	115.69
392.31	92.69
392.534	99.69
392.759	116.69
392.984	109.69
393.208	90.69
393.433	104.69
393.658	95.69
393.882	110.69
394.107	89.69
394.331	109.69
394.556	102.69
394.78	94.69
395.005	122.69
395.229	101.69
395.454	92.69
395.678	98.69
395.903	103.69
396.127	112.69
396.352	126.69
396.576	117.69
396.801	108.69
397.025	113.69
397.249	110.69
397.474	126.69
397.698	110.69
397.922	119.69
398.147	105.69
398.371	106.69
398.595	105.69
398.82	113.69
399.044	118.69
399.268	113.69
399.492	102.69
399.717	121.69
399.941	102.69
400.165	114.69
400.389	117.69
400.613	108.69
400.837	120.69
401.062	130.69
401.286	110.69
401.51	113.69
401.734	114.69
401.958	99.69
402.182	97.69
402.406	104.69
402.63	103.69
402.854	103.69
403.078	109.69
403.302	122.69
403.526	116.69
403.75	119.69
403.974	121.69
404.198	105.69
404.422	109.69
404.645	122.69
404.869	110.69
405.093	112.69
405.317	112.69
405.541	116.69
405.765	125.69
405.988	123.69
406.212	108.69
406.436	103.69
406.66	128.69
406.883	115.69
407.107	115.69
407.331	110.69
407.555	113.69
407.778	111.69
408.002	132.69
408.226	112.69
408.449	111.69
408.673	124.69
408.896	112.69
409.12	129.69
409.344	121.69
409.567	129.69
409.791	127.69
410.014	115.69
410.238	105.69
410.461	116.69
410.685	126.69
410.908	116.69
411.132	128.69
411.355	126.69
411.578	124.69
411.802	106.69
412.025	113.69
412.249	118.69
412.472	117.69
412.695	105.69
412.919	130.69
413.142	123.69
413.365	117.69
413.589	133.69
413.812	129.69
414.035	122.69
414.258	111.69
414.482	111.69
414.705	119.69
414.928	123.69
415.151	117.69
415.374	131.69
415.597	112.69
415.821	123.69
416.044	112.69
416.267	124.69
416.49	112.69
416.713	105.69
416.936	130.69
417.159	134.69
417.382	123.69
417.605	120.69
417.828	110.69
418.051	131.69
418.274	124.69
418.497	118.69
418.72	120.69
418.943	127.69
419.166	125.69
419.389	145.69
419.611	134.69
419.834	118.69
420.057	127.69
420.28	132.69
420.503	126.69
420.726	133.69
420.948	134.69
421.171	151.69
421.394	137.69
421.617	133.69
421.839	145.69
422.062	130.69
422.285	123.69
422.507	128.69
422.73	127.69
422.953	116.69
423.175	130.69
423.398	124.69
423.621	138.69
423.843	139.69
424.066	136.69
424.288	130.69
424.511	119.69
424.733	132.69
424.956	137.69
425.178	125.69
425.401	138.69
425.623	137.69
425.846	126.69
426.068	123.69
426.291	117.69
426.513	139.69
426.735	95.69
426.958	136.69
427.18	125.69
427.402	140.69
427.625	135.69
427.847	122.69
428.069	133.69
428.292	126.69
428.514	145.69
428.736	116.69
428.958	139.69
429.181	135.69
429.403	138.69
429.625	126.69
429.847	124.69
430.069	134.69
430.292	134.69
430.514	120.69
430.736	121.69
430.958	110.69
431.18	123.69
431.402	118.69
431.624	118.69
431.846	104.69
432.068	90.69
432.29	86.69
432.512	116.69
432.734	124.69
432.956	130.69
433.178	122.69
433.4	130.69
433.622	140.69
433.844	127.69
434.066	122.69
434.287	105.69
434.509	95.69
434.731	104.69
434.953	114.69
435.175	118.69
435.397	117.69
435.618	105.69
435.84	110.69
436.062	122.69
436.284	115.69
436.505	108.69
436.727	115.69
436.949	126.69
437.17	138.69
437.392	126.69
437.614	120.69
437.835	99.69
438.057	114.69
438.278	119.69
438.5	126.69
438.721	130.69
438.943	118.69
439.165	139.69
439.386	135.69
439.608	129.69
439.829	140.69
440.05	150.69
440.272	147.69
440.493	127.69
440.715	124.69
440.936	123.69
441.158	134.69
441.379	141.69
441.6	149.69
441.822	135.69
442.043	123.69
442.264	150.69
442.486	138.69
442.707	153.69
442.928	131.69
443.149	128.69
443.371	129.69
443.592	128.69
443.813	130.69
444.034	118.69
444.255	133.69
444.476	120.69
444.698	140.69
444.919	134.69
445.14	261.69
445.361	202.69
445.582	140.69
445.803	150.69
446.024	145.69
446.245	143.69
446.466	134.69
446.687	144.69
446.908	151.69
447.129	158.69
447.35	140.69
447.571	148.69
447.792	131.69
448.013	143.69
448.234	133.69
448.455	134.69
448.675	130.69
448.896	131.69
449.117	137.69
449.338	129.69
449.559	129.69
449.779	147.69
450	141.69
450.221	144.69
450.442	134.69
450.662	137.69
450.883	144.69
451.104	138.69
451.324	133.69
451.545	115.69
451.766	128.69
451.986	132.69
452.207	121.69
452.428	125.69
452.648	126.69
452.869	116.69
453.089	126.69
453.31	114.69
453.53	110.69
453.751	100.69
453.971	114.69
454.192	116.69
454.412	117.69
454.633	101.69
454.853	116.69
455.073	126.69
455.294	120.69
455.514	118.69
455.734	119.69
455.955	112.69
456.175	114.69
456.395	116.69
456.616	120.69
456.836	107.69
457.056	105.69
457.276	119.69
457.497	114.69
457.717	98.69
457.937	121.69
458.157	103.69
458.377	98.69
458.598	87.69
458.818	86.69
459.038	91.69
459.258	93.69
459.478	86.69
459.698	95.69
459.918	92.69
460.138	96.69
460.358	110.69
460.578	118.69
460.798	115.69
461.018	121.69
461.238	128.69
461.458	112.69
461.678	98.69
461.898	120.69
462.118	104.69
462.338	115.69
462.558	113.69
462.777	127.69
462.997	119.69
463.217	115.69
463.437	92.69
463.657	105.69
463.876	100.69
464.096	111.69
464.316	112.69
464.536	107.69
464.755	108.69
464.975	103.69
465.195	128.69
465.414	114.69
465.634	121.69
465.854	115.69
466.073	100.69
466.293	119.69
466.512	104.69
466.732	130.69
466.951	135.69
467.171	128.69
467.391	137.69
467.61	126.69
467.829	144.69
468.049	126.69
468.268	147.69
468.488	123.69
468.707	123.69
468.927	139.69
469.146	141.69
469.365	150.69
469.585	137.69
469.804	142.69
470.023	138.69
470.243	137.69
470.462	147.69
470.681	148.69
470.901	150.69
471.12	138.69
471.339	152.69
471.558	135.69
471.777	124.69
471.997	132.69
472.216	121.69
472.435	115.69
472.654	113.69
472.873	108.69
473.092	105.69
473.311	117.69
473.53	116.69
473.749	134.69
473.968	127.69
474.187	130.69
474.406	121.69
474.625	139.69
474.844	126.69
475.063	134.69
475.282	113.69
475.501	129.69
475.72	118.69
475.939	136.69
476.158	135.69
476.377	135.69
476.596	118.69
476.814	119.69
477.033	107.69
477.252	110.69
477.471	131.69
477.69	136.69
477.908	141.69
478.127	120.69
478.346	139.69
478.564	130.69
478.783	124.69
479.002	139.69
479.22	139.69
479.439	126.69
479.658	123.69
479.876	101.69
480.095	107.69
480.313	117.69
480.532	109.69
480.751	114.69
480.969	99.69
481.188	81.69
481.406	99.69
481.624	79.69
481.843	82.69
482.061	101.69
482.28	102.69
482.498	111.69
482.717	108.69
482.935	123.69
483.153	141.69
483.372	175.69
483.59	144.69
483.808	151.69
484.027	123.69
484.245	133.69
484.463	157.69
484.681	150.69
484.9	146.69
485.118	145.69
485.336	130.69
485.554	105.69
485.772	105.69
485.99	92.69
486.209	116.69
486.427	120.69
486.645	107.69
486.863	131.69
487.081	144.69
487.299	128.69
487.517	130.69
487.735	156.69
487.953	186.69
488.171	188.69
488.389	176.69
488.607	144.69
488.825	128.69
489.043	148.69
489.261	139.69
489.479	147.69
489.696	137.69
489.914	128.69
490.132	148.69
490.35	156.69
490.568	157.69
490.786	170.69
491.003	178.69
491.221	176.69
491.439	183.69
491.657	178.69
491.874	190.69
492.092	223.69
492.31	232.69
492.527	229.69
492.745	207.69
492.963	182.69
493.18	174.69
493.398	169.69
493.615	156.69
493.833	180.69
494.05	184.69
494.268	161.69
494.485	173.69
494.703	164.69
494.92	163.69
495.138	173.69
495.355	162.69
495.573	176.69
495.79	172.69
496.008	162.69
496.225	164.69
496.442	185.69
496.66	161.69
496.877	169.69
497.094	149.69
497.312	150.69
497.529	154.69
497.746	159.69
497.963	129.69
498.181	134.69
498.398	129.69
498.615	114.69
498.832	108.69
499.049	132.69
499.267	123.69
499.484	117.69
499.701	127.69
499.918	135.69
500.135	142.69
500.352	143.69
500.569	119.69
500.786	133.69
501.003	130.69
501.22	127.69
501.437	143.69
501.654	155.69
501.871	134.69
502.088	123.69
502.305	122.69
502.522	117.69
502.739	130.69
502.956	138.69
503.172	135.69
503.389	124.69
503.606	122.69
503.823	119.69
504.04	118.69
504.256	126.69
504.473	101.69
504.69	117.69
504.907	118.69
505.123	118.69
505.34	123.69
505.557	123.69
505.773	141.69
505.99	134.69
506.207	124.69
506.423	126.69
506.64	124.69
506.856	122.69
507.073	114.69
507.289	118.69
507.506	121.69
507.722	110.69
507.939	118.69
508.155	130.69
508.372	124.69
508.588	114.69
508.805	110.69
509.021	99.69
509.238	108.69
509.454	106.69
509.67	92.69
509.887	94.69
510.103	107.69
510.319	94.69
510.536	106.69
510.752	93.69
510.968	79.69
511.184	78.69
511.401	78.69
511.617	89.69
511.833	93.69
512.049	98.69
512.265	83.69
512.481	96.69
512.698	100.69
512.914	88.69
513.13	83.69
513.346	82.69
513.562	80.69
513.778	80.69
513.994	99.69
514.21	104.69
514.426	90.69
514.642	106.69
514.858	95.69
515.074	89.69
515.29	94.69
515.506	79.69
515.721	78.69
515.937	94.69
516.153	87.69
516.369	92.69
516.585	96.69
516.801	100.69
517.016	107.69
517.232	90.69
517.448	98.69
517.664	88.69
517.879	86.69
518.095	90.69
518.311	90.69
518.527	93.69
518.742	90.69
518.958	105.69
519.173	106.69
519.389	106.69
519.605	109.69
519.82	89.69
520.036	122.69
520.251	107.69
520.467	102.69
520.682	91.69
520.898	91.69
521.113	90.69
521.329	94.69
521.544	92.69
521.76	86.69
521.975	86.69
522.19	91.69
522.406	101.69
522.621	103.69
522.836	117.69
523.052	103.69
523.267	112.69
523.482	104.69
523.698	105.69
523.913	113.69
524.128	113.69
524.343	114.69
524.559	116.69
524.774	117.69
524.989	124.69
525.204	129.69
525.419	112.69
525.634	105.69
525.849	99.69
526.064	119.69
526.28	96.69
526.495	97.69
526.71	77.69
526.925	97.69
527.14	81.69
527.355	104.69
527.57	80.69
527.785	95.69
527.999	91.69
528.214	113.69
528.429	100.69
528.644	115.69
528.859	133.69
529.074	137.69
529.289	160.69
529.503	161.69
529.718	146.69
529.933	127.69
530.148	90.69
530.363	97.69
530.577	84.69
530.792	84.69
531.007	89.69
531.221	76.69
531.436	91.69
531.651	80.69
531.865	80.69
532.08	82.69
532.295	81.69
532.509	87.69
532.724	101.69
532.938	92.69
533.153	98.69
533.367	107.69
533.582	134.69
533.796	132.69
534.011	116.69
534.225	98.69
534.44	91.69
534.654	94.69
534.868	106.69
535.083	83.69
535.297	100.69
535.511	103.69
535.726	102.69
535.94	118.69
536.154	98.69
536.369	86.69
536.583	97.69
536.797	94.69
537.011	83.69
537.225	76.69
537.44	90.69
537.654	85.69
537.868	96.69
538.082	90.69
538.296	93.69
538.51	88.69
538.724	104.69
538.938	116.69
539.153	129.69
539.367	121.69
539.581	128.69
539.795	115.69
540.009	108.69
540.222	101.69
540.436	106.69
540.65	122.69
540.864	120.69
541.078	136.69
541.292	138.69
541.506	146.69
541.72	152.69
541.934	185.69
542.147	184.69
542.361	185.69
542.575	169.69
542.789	134.69
543.002	150.69
543.216	122.69
543.43	122.69
543.644	108.69
543.857	148.69
544.071	162.69
544.285	165.69
544.498	154.69
544.712	152.69
544.925	155.69
545.139	152.69
545.352	160.69
545.566	165.69
545.779	151.69
545.993	148.69
546.206	157.69
546.42	168.69
546.633	157.69
546.847	156.69
547.06	147.69
547.274	150.69
547.487	171.69
547.7	182.69
547.914	152.69
548.127	152.69
548.34	148.69
548.554	150.69
548.767	163.69
548.98	169.69
549.193	167.69
549.407	150.69
549.62	154.69
549.833	137.69
550.046	152.69
550.259	147.69
550.473	146.69
550.686	158.69
550.899	156.69
551.112	138.69
551.325	143.69
551.538	144.69
551.751	126.69
551.964	125.69
552.177	134.69
552.39	137.69
552.603	144.69
552.816	134.69
553.029	145.69
553.242	151.69
553.455	154.69
553.667	144.69
553.88	149.69
554.093	148.69
554.306	155.69
554.519	146.69
554.732	141.69
554.944	132.69
555.157	136.69
555.37	139.69
555.583	132.69
555.795	149.69
556.008	125.69
556.221	117.69
556.433	139.69
556.646	132.69
556.859	127.69
557.071	125.69
557.284	135.69
557.496	144.69
557.709	139.69
557.921	138.69
558.134	134.69
558.346	134.69
558.559	139.69
558.771	139.69
558.984	143.69
559.196	114.69
559.409	119.69
559.621	123.69
559.833	115.69
560.046	138.69
560.258	137.69
560.47	124.69
560.683	133.69
560.895	125.69
561.107	130.69
561.32	138.69
561.532	129.69
561.744	140.69
561.956	130.69
562.168	139.69
562.381	135.69
562.593	125.69
562.805	124.69
563.017	129.69
563.229	118.69
563.441	121.69
563.653	113.69
563.865	111.69
564.077	115.69
564.289	119.69
564.501	107.69
564.713	120.69
564.925	130.69
565.137	126.69
565.349	115.69
565.561	133.69
565.773	114.69
565.985	114.69
566.197	113.69
566.408	122.69
566.62	127.69
566.832	109.69
567.044	121.69
567.255	128.69
567.467	114.69
567.679	115.69
567.891	100.69
568.102	113.69
568.314	97.69
568.526	83.69
568.737	95.69
568.949	84.69
569.161	91.69
569.372	87.69
569.584	90.69
569.795	78.69
570.007	80.69
570.218	92.69
570.43	83.69
570.641	83.69
570.853	114.69
571.064	105.69
571.276	114.69
571.487	98.69
571.698	115.69
571.91	116.69
572.121	97.69
572.333	108.69
572.544	95.69
572.755	79.69
572.966	88.69
573.178	100.69
573.389	96.69
573.6	86.69
573.811	88.69
574.023	90.69
574.234	77.69
574.445	84.69
574.656	76.69
574.867	94.69
575.078	103.69
575.289	93.69
575.501	100.69
575.712	110.69
575.923	100.69
576.134	87.69
576.345	106.69
576.556	121.69
576.767	107.69
576.978	103.69
577.188	106.69
577.399	77.69
577.61	95.69
577.821	86.69
578.032	111.69
578.243	98.69
578.454	91.69
578.665	99.69
578.875	76.69
579.086	92.69
579.297	88.69
579.508	87.69
579.718	77.69
579.929	76.69
580.14	86.69
580.35	84.69
580.561	93.69
580.772	96.69
580.982	87.69
581.193	99.69
581.403	84.69
581.614	85.69
581.825	99.69
582.035	86.69
582.246	100.69
582.456	93.69
582.667	86.69
582.877	95.69
583.087	102.69
583.298	84.69
583.508	89.69
583.719	87.69
583.929	93.69
584.139	76.69
584.35	84.69
584.56	89.69
584.77	77.69
584.981	90.69
585.191	103.69
585.401	87.69
585.611	95.69
585.821	83.69
586.032	76.69
586.242	81.69
586.452	76.69
586.662	86.69
586.872	78.69
587.082	84.69
587.292	91.69
587.502	89.69
587.713	88.69
587.923	83.69
588.133	76.69
588.343	91.69
588.553	81.69
588.762	89.69
588.972	88.69
589.182	74.69
589.392	61.69
589.602	80.69
589.812	95.69
590.022	86.69
590.232	77.69
590.441	86.69
590.651	71.69
590.861	95.69
591.071	87.69
591.281	87.69
591.49	90.69
591.7	85.69
591.91	77.69
592.119	87.69
592.329	69.69
592.539	86.69
592.748	82.69
592.958	94.69
593.167	83.69
593.377	91.69
593.587	97.69
593.796	90.69
594.006	85.69
594.215	91.69
594.424	97.69
594.634	104.69
594.843	82.69
595.053	84.69
595.262	87.69
595.472	95.69
595.681	86.69
595.89	87.69
596.1	90.69
596.309	102.69
596.518	105.69
596.727	108.69
596.937	84.69
597.146	107.69
597.355	99.69
597.564	93.69
597.774	92.69
597.983	100.69
598.192	84.69
598.401	76.69
598.61	80.69
598.819	91.69
599.028	94.69
599.237	83.69
599.446	114.69
599.655	100.69
599.864	85.69
600.073	94.69
600.282	96.69
600.491	102.69
600.7	87.69
600.909	100.69
601.118	110.69
601.327	93.69
601.536	106.69
601.745	99.69
601.953	97.69
602.162	99.69
602.371	96.69
602.58	118.69
602.789	100.69
602.997	103.69
603.206	117.69
603.415	104.69
603.623	104.69
603.832	108.69
604.041	96.69
604.249	96.69
604.458	90.69
604.666	106.69
604.875	108.69
605.084	105.69
605.292	106.69
605.501	112.69
605.709	105.69
605.918	100.69
606.126	118.69
606.334	118.69
606.543	114.69
606.751	120.69
606.96	120.69
607.168	113.69
607.376	111.69
607.585	104.69
607.793	117.69
608.001	106.69
608.21	105.69
608.418	112.69
608.626	98.69
608.834	116.69
609.043	120.69
609.251	116.69
609.459	137.69
609.667	114.69
609.875	113.69
610.083	116.69
610.291	119.69
610.499	111.69
610.707	107.69
610.916	115.69
611.124	116.69
611.332	121.69
611.54	128.69
611.748	120.69
611.955	122.69
612.163	92.69
612.371	107.69
612.579	113.69
612.787	114.69
612.995	115.69
613.203	115.69
613.411	113.69
613.618	114.69
613.826	110.69
614.034	108.69
614.242	100.69
614.449	110.69
614.657	112.69
614.865	110.69
615.072	127.69
615.28	106.69
615.488	112.69
615.695	112.69
615.903	102.69
616.111	118.69
616.318	112.69
616.526	106.69
616.733	122.69
616.941	121.69
617.148	115.69
617.356	106.69
617.563	116.69
617.771	106.69
617.978	113.69
618.185	107.69
618.393	127.69
618.6	109.69
618.807	110.69
619.015	113.69
619.222	101.69
619.429	92.69
619.637	116.69
619.844	110.69
620.051	101.69
620.258	114.69
620.466	97.69
620.673	103.69
620.88	106.69
621.087	106.69
621.294	105.69
621.501	104.69
621.708	96.69
621.915	87.69
622.122	114.69
622.329	106.69
622.536	99.69
622.743	107.69
622.95	101.69
623.157	114.69
623.364	100.69
623.571	101.69
623.778	109.69
623.985	97.69
624.192	111.69
624.399	107.69
624.606	102.69
624.812	120.69
625.019	110.69
625.226	98.69
625.433	104.69
625.639	112.69
625.846	97.69
626.053	113.69
626.259	95.69
626.466	83.69
626.673	98.69
626.879	86.69
627.086	106.69
627.293	102.69
627.499	89.69
627.706	119.69
627.912	104.69
628.119	111.69
628.325	99.69
628.532	94.69
628.738	84.69
628.945	107.69
629.151	95.69
629.357	102.69
629.564	99.69
629.77	118.69
629.976	90.69
630.183	111.69
630.389	102.69
630.595	107.69
630.802	104.69
631.008	98.69
631.214	104.69
631.42	116.69
631.627	106.69
631.833	102.69
632.039	101.69
632.245	98.69
632.451	110.69
632.657	103.69
632.863	110.69
633.069	114.69
633.275	91.69
633.481	103.69
633.688	100.69
633.893	94.69
634.099	90.69
634.305	101.69
634.511	95.69
634.717	107.69
634.923	109.69
635.129	81.69
635.335	99.69
635.541	95.69
635.747	76.69
635.952	85.69
636.158	94.69
636.364	107.69
636.57	103.69
636.775	107.69
636.981	92.69
637.187	112.69
637.392	107.69
637.598	113.69
637.804	90.69
638.009	93.69
638.215	92.69
638.421	95.69
638.626	110.69
638.832	101.69
639.037	106.69
639.243	106.69
639.448	109.69
639.654	106.69
639.859	96.69
640.065	112.69
640.27	114.69
640.475	99.69
640.681	100.69
640.886	111.69
641.091	107.69
641.297	114.69
641.502	96.69
641.707	106.69
641.913	106.69
642.118	96.69
642.323	92.69
642.528	105.69
642.733	107.69
642.939	88.69
643.144	86.69
643.349	98.69
643.554	101.69
643.759	91.69
643.964	104.69
644.169	88.69
644.374	94.69
644.579	103.69
644.784	104.69
644.989	107.69
645.194	96.69
645.399	102.69
645.604	95.69
645.809	97.69
646.014	98.69
646.219	99.69
646.423	101.69
646.628	97.69
646.833	95.69
647.038	94.69
647.243	97.69
647.447	103.69
647.652	91.69
647.857	86.69
648.062	90.69
648.266	91.69
648.471	95.69
648.676	81.69
648.88	79.69
649.085	102.69
649.289	92.69
649.494	98.69
649.698	94.69
649.903	103.69
650.107	88.69
650.312	108.69
650.516	101.69
650.721	107.69
650.925	99.69
651.13	85.69
651.334	92.69
651.539	94.69
651.743	102.69
651.947	100.69
652.152	88.69
652.356	86.69
652.56	95.69
652.764	90.69
652.969	89.69
653.173	103.69
653.377	90.69
653.581	86.69
653.785	102.69
653.99	98.69
654.194	85.69
654.398	92.69
654.602	97.69
654.806	100.69
655.01	99.69
655.214	75.69
655.418	80.69
655.622	103.69
655.826	83.69
656.03	92.69
656.234	84.69
656.438	86.69
656.642	71.69
656.846	94.69
657.049	90.69
657.253	80.69
657.457	87.69
657.661	88.69
657.865	86.69
658.068	100.69
658.272	91.69
658.476	97.69
658.68	92.69
658.883	78.69
659.087	84.69
659.291	96.69
659.494	86.69
659.698	83.69
659.901	93.69
660.105	86.69
660.309	83.69
660.512	90.69
660.716	83.69
660.919	83.69
661.123	89.69
661.326	90.69
661.53	77.69
661.733	83.69
661.936	89.69
662.14	79.69
662.343	77.69
662.546	72.69
662.75	66.69
662.953	93.69
663.156	79.69
663.36	79.69
663.563	100.69
663.766	87.69
663.969	80.69
664.173	68.69
664.376	85.69
664.579	97.69
664.782	70.69
664.985	87.69
665.188	86.69
665.391	80.69
665.594	68.69
665.797	81.69
666	102.69
666.203	79.69
666.406	78.69
666.609	84.69
666.812	101.69
667.015	83.69
667.218	88.69
667.421	84.69
667.624	72.69
667.827	85.69
668.03	81.69
668.232	89.69
668.435	82.69
668.638	85.69
668.841	75.69
669.043	91.69
669.246	75.69
669.449	82.69
669.651	88.69
669.854	83.69
670.057	88.69
670.259	76.69
670.462	90.69
670.665	72.69
670.867	80.69
671.07	57.69
671.272	85.69
671.475	82.69
671.677	78.69
671.88	79.69
672.082	80.69
672.284	80.69
672.487	91.69
672.689	104.69
672.892	86.69
