Data from Location4.07152019.Energy5.Lamp.07192019.3%Agarose_HRD10591_16-21-21-926.txt Node
Date: Fri Jul 19 16:21:21 EDT 2019
User: cochatt
Spectrometer: HR+D1059
Trigger mode: 1
Integration Time (sec): 1.000000E-1
Scans to average: 1
Electric dark correction enabled: true
Nonlinearity correction enabled: false
Boxcar width: 0
XAxis mode: Wavelengths
Number of Pixels in Spectrum: 2048
>>>>>Begin Spectral Data<<<<<
223.165	-10.31
223.4	-10.31
223.635	-10.31
223.869	-14.31
224.104	-12.31
224.338	-15.31
224.573	-20.31
224.808	-19.31
225.042	-1.31
225.277	-14.31
225.511	-17.31
225.746	-1.31
225.98	8.69
226.215	15.69
226.449	19.69
226.683	29.69
226.918	19.69
227.152	32.69
227.387	40.69
227.621	41.69
227.856	51.69
228.09	45.69
228.324	57.69
228.559	62.69
228.793	57.69
229.027	63.69
229.262	67.69
229.496	76.69
229.73	63.69
229.964	66.69
230.199	85.69
230.433	59.69
230.667	72.69
230.901	76.69
231.136	82.69
231.37	76.69
231.604	83.69
231.838	69.69
232.072	75.69
232.306	94.69
232.541	100.69
232.775	96.69
233.009	93.69
233.243	78.69
233.477	85.69
233.711	76.69
233.945	88.69
234.179	74.69
234.413	75.69
234.647	96.69
234.881	81.69
235.115	81.69
235.349	91.69
235.583	84.69
235.817	73.69
236.051	85.69
236.285	86.69
236.519	68.69
236.753	74.69
236.987	69.69
237.221	79.69
237.455	93.69
237.689	93.69
237.922	82.69
238.156	86.69
238.39	75.69
238.624	82.69
238.858	75.69
239.091	71.69
239.325	90.69
239.559	80.69
239.793	87.69
240.027	79.69
240.26	81.69
240.494	68.69
240.728	67.69
240.961	83.69
241.195	95.69
241.429	63.69
241.662	65.69
241.896	76.69
242.13	78.69
242.363	83.69
242.597	85.69
242.83	85.69
243.064	79.69
243.298	89.69
243.531	90.69
243.765	75.69
243.998	68.69
244.232	79.69
244.465	82.69
244.699	83.69
244.932	79.69
245.166	75.69
245.399	83.69
245.633	90.69
245.866	72.69
246.099	73.69
246.333	85.69
246.566	68.69
246.8	66.69
247.033	93.69
247.266	75.69
247.5	74.69
247.733	86.69
247.966	84.69
248.2	82.69
248.433	84.69
248.666	79.69
248.899	77.69
249.133	69.69
249.366	82.69
249.599	75.69
249.832	79.69
250.066	79.69
250.299	82.69
250.532	69.69
250.765	87.69
250.998	91.69
251.231	82.69
251.465	85.69
251.698	82.69
251.931	78.69
252.164	75.69
252.397	70.69
252.63	83.69
252.863	91.69
253.096	85.69
253.329	83.69
253.562	81.69
253.795	95.69
254.028	85.69
254.261	71.69
254.494	77.69
254.727	82.69
254.96	75.69
255.193	78.69
255.426	100.69
255.659	61.69
255.892	77.69
256.124	99.69
256.357	88.69
256.59	75.69
256.823	91.69
257.056	90.69
257.289	81.69
257.521	77.69
257.754	87.69
257.987	85.69
258.22	86.69
258.452	87.69
258.685	85.69
258.918	77.69
259.151	74.69
259.383	82.69
259.616	88.69
259.849	75.69
260.081	81.69
260.314	73.69
260.547	76.69
260.779	82.69
261.012	100.69
261.244	94.69
261.477	87.69
261.71	91.69
261.942	82.69
262.175	92.69
262.407	79.69
262.64	74.69
262.872	81.69
263.105	91.69
263.337	89.69
263.57	76.69
263.802	75.69
264.035	85.69
264.267	78.69
264.499	81.69
264.732	95.69
264.964	84.69
265.197	74.69
265.429	92.69
265.661	78.69
265.894	80.69
266.126	80.69
266.358	86.69
266.591	84.69
266.823	81.69
267.055	92.69
267.287	81.69
267.52	82.69
267.752	72.69
267.984	90.69
268.216	83.69
268.448	78.69
268.681	73.69
268.913	85.69
269.145	73.69
269.377	76.69
269.609	70.69
269.841	79.69
270.073	84.69
270.306	100.69
270.538	74.69
270.77	83.69
271.002	98.69
271.234	74.69
271.466	95.69
271.698	85.69
271.93	78.69
272.162	77.69
272.394	79.69
272.626	87.69
272.858	85.69
273.09	90.69
273.322	90.69
273.553	84.69
273.785	92.69
274.017	73.69
274.249	95.69
274.481	83.69
274.713	95.69
274.945	89.69
275.176	92.69
275.408	70.69
275.64	76.69
275.872	85.69
276.104	83.69
276.335	97.69
276.567	93.69
276.799	89.69
277.031	91.69
277.262	79.69
277.494	95.69
277.726	89.69
277.957	93.69
278.189	76.69
278.421	112.69
278.652	80.69
278.884	82.69
279.115	86.69
279.347	83.69
279.579	85.69
279.81	98.69
280.042	88.69
280.273	84.69
280.505	88.69
280.736	79.69
280.968	84.69
281.199	94.69
281.431	89.69
281.662	91.69
281.894	83.69
282.125	78.69
282.356	99.69
282.588	90.69
282.819	104.69
283.051	86.69
283.282	87.69
283.513	101.69
283.745	84.69
283.976	91.69
284.207	66.69
284.439	77.69
284.67	79.69
284.901	76.69
285.132	75.69
285.364	92.69
285.595	90.69
285.826	80.69
286.057	92.69
286.288	95.69
286.52	83.69
286.751	72.69
286.982	92.69
287.213	81.69
287.444	72.69
287.675	82.69
287.906	79.69
288.138	84.69
288.369	77.69
288.6	77.69
288.831	86.69
289.062	79.69
289.293	97.69
289.524	81.69
289.755	86.69
289.986	75.69
290.217	85.69
290.448	77.69
290.679	89.69
290.91	97.69
291.141	92.69
291.371	99.69
291.602	95.69
291.833	83.69
292.064	87.69
292.295	89.69
292.526	87.69
292.757	93.69
292.987	93.69
293.218	82.69
293.449	79.69
293.68	76.69
293.91	93.69
294.141	81.69
294.372	102.69
294.603	94.69
294.833	90.69
295.064	95.69
295.295	78.69
295.525	81.69
295.756	94.69
295.987	82.69
296.217	94.69
296.448	87.69
296.679	99.69
296.909	97.69
297.14	87.69
297.37	86.69
297.601	101.69
297.831	90.69
298.062	83.69
298.292	83.69
298.523	76.69
298.753	94.69
298.984	92.69
299.214	83.69
299.445	87.69
299.675	85.69
299.905	102.69
300.136	80.69
300.366	82.69
300.597	80.69
300.827	76.69
301.057	79.69
301.288	77.69
301.518	86.69
301.748	77.69
301.979	79.69
302.209	83.69
302.439	91.69
302.669	85.69
302.9	101.69
303.13	85.69
303.36	85.69
303.59	81.69
303.82	92.69
304.051	77.69
304.281	97.69
304.511	78.69
304.741	90.69
304.971	86.69
305.201	88.69
305.431	70.69
305.661	95.69
305.891	99.69
306.121	88.69
306.352	89.69
306.582	92.69
306.812	90.69
307.042	81.69
307.272	74.69
307.502	101.69
307.731	79.69
307.961	85.69
308.191	100.69
308.421	90.69
308.651	79.69
308.881	88.69
309.111	81.69
309.341	99.69
309.571	87.69
309.8	80.69
310.03	82.69
310.26	95.69
310.49	78.69
310.72	96.69
310.949	78.69
311.179	91.69
311.409	87.69
311.639	82.69
311.868	95.69
312.098	99.69
312.328	82.69
312.557	97.69
312.787	95.69
313.017	95.69
313.246	94.69
313.476	91.69
313.706	85.69
313.935	87.69
314.165	77.69
314.394	101.69
314.624	89.69
314.853	100.69
315.083	98.69
315.312	85.69
315.542	74.69
315.771	81.69
316.001	83.69
316.23	76.69
316.46	86.69
316.689	74.69
316.919	84.69
317.148	79.69
317.377	87.69
317.607	93.69
317.836	105.69
318.065	91.69
318.295	77.69
318.524	75.69
318.753	90.69
318.983	68.69
319.212	91.69
319.441	95.69
319.67	87.69
319.9	71.69
320.129	86.69
320.358	74.69
320.587	92.69
320.816	85.69
321.046	81.69
321.275	91.69
321.504	82.69
321.733	71.69
321.962	74.69
322.191	87.69
322.42	85.69
322.649	91.69
322.878	87.69
323.108	82.69
323.337	89.69
323.566	89.69
323.795	88.69
324.024	106.69
324.253	82.69
324.482	94.69
324.71	76.69
324.939	74.69
325.168	92.69
325.397	78.69
325.626	92.69
325.855	91.69
326.084	93.69
326.313	77.69
326.542	100.69
326.77	79.69
326.999	86.69
327.228	91.69
327.457	83.69
327.686	95.69
327.914	89.69
328.143	90.69
328.372	91.69
328.6	82.69
328.829	92.69
329.058	79.69
329.287	77.69
329.515	77.69
329.744	87.69
329.972	84.69
330.201	90.69
330.43	94.69
330.658	87.69
330.887	78.69
331.115	95.69
331.344	84.69
331.572	86.69
331.801	88.69
332.03	86.69
332.258	83.69
332.486	87.69
332.715	86.69
332.943	87.69
333.172	84.69
333.4	74.69
333.629	96.69
333.857	91.69
334.085	87.69
334.314	82.69
334.542	84.69
334.771	81.69
334.999	92.69
335.227	100.69
335.455	81.69
335.684	82.69
335.912	82.69
336.14	95.69
336.369	91.69
336.597	86.69
336.825	88.69
337.053	83.69
337.281	91.69
337.51	95.69
337.738	99.69
337.966	90.69
338.194	85.69
338.422	75.69
338.65	90.69
338.878	81.69
339.106	86.69
339.334	92.69
339.562	92.69
339.79	98.69
340.018	89.69
340.246	80.69
340.474	79.69
340.702	88.69
340.93	85.69
341.158	89.69
341.386	79.69
341.614	82.69
341.842	95.69
342.07	102.69
342.298	93.69
342.526	89.69
342.754	85.69
342.981	83.69
343.209	81.69
343.437	86.69
343.665	84.69
343.893	90.69
344.12	90.69
344.348	104.69
344.576	89.69
344.804	78.69
345.031	86.69
345.259	87.69
345.487	99.69
345.714	84.69
345.942	91.69
346.17	99.69
346.397	102.69
346.625	78.69
346.853	99.69
347.08	95.69
347.308	95.69
347.535	88.69
347.763	79.69
347.99	82.69
348.218	74.69
348.445	86.69
348.673	86.69
348.9	89.69
349.128	94.69
349.355	78.69
349.583	90.69
349.81	86.69
350.037	86.69
350.265	84.69
350.492	87.69
350.72	97.69
350.947	83.69
351.174	98.69
351.402	85.69
351.629	89.69
351.856	80.69
352.083	77.69
352.311	68.69
352.538	103.69
352.765	89.69
352.992	83.69
353.22	78.69
353.447	93.69
353.674	86.69
353.901	86.69
354.128	82.69
354.355	74.69
354.583	91.69
354.81	91.69
355.037	79.69
355.264	90.69
355.491	97.69
355.718	93.69
355.945	96.69
356.172	76.69
356.399	89.69
356.626	79.69
356.853	91.69
357.08	76.69
357.307	79.69
357.534	78.69
357.761	80.69
357.988	73.69
358.215	86.69
358.441	90.69
358.668	87.69
358.895	88.69
359.122	85.69
359.349	95.69
359.576	91.69
359.802	85.69
360.029	82.69
360.256	93.69
360.483	101.69
360.709	81.69
360.936	101.69
361.163	85.69
361.39	90.69
361.616	101.69
361.843	91.69
362.07	90.69
362.296	86.69
362.523	103.69
362.749	95.69
362.976	82.69
363.203	92.69
363.429	91.69
363.656	80.69
363.882	99.69
364.109	87.69
364.335	90.69
364.562	85.69
364.788	83.69
365.015	94.69
365.241	90.69
365.468	105.69
365.694	87.69
365.92	101.69
366.147	90.69
366.373	94.69
366.599	77.69
366.826	92.69
367.052	85.69
367.278	85.69
367.505	81.69
367.731	86.69
367.957	87.69
368.184	93.69
368.41	84.69
368.636	90.69
368.862	101.69
369.089	81.69
369.315	97.69
369.541	97.69
369.767	92.69
369.993	88.69
370.219	90.69
370.445	94.69
370.672	101.69
370.898	93.69
371.124	97.69
371.35	86.69
371.576	80.69
371.802	91.69
372.028	82.69
372.254	89.69
372.48	109.69
372.706	76.69
372.932	90.69
373.158	84.69
373.384	94.69
373.61	113.69
373.835	91.69
374.061	91.69
374.287	93.69
374.513	86.69
374.739	110.69
374.965	96.69
375.191	104.69
375.416	94.69
375.642	102.69
375.868	91.69
376.094	101.69
376.319	97.69
376.545	108.69
376.771	90.69
376.997	84.69
377.222	73.69
377.448	107.69
377.674	94.69
377.899	108.69
378.125	100.69
378.35	90.69
378.576	89.69
378.802	110.69
379.027	85.69
379.253	94.69
379.478	85.69
379.704	98.69
379.929	98.69
380.155	81.69
380.38	86.69
380.606	93.69
380.831	89.69
381.057	100.69
381.282	89.69
381.507	89.69
381.733	100.69
381.958	118.69
382.184	100.69
382.409	100.69
382.634	100.69
382.86	87.69
383.085	92.69
383.31	111.69
383.535	99.69
383.761	99.69
383.986	89.69
384.211	111.69
384.436	102.69
384.662	102.69
384.887	87.69
385.112	87.69
385.337	99.69
385.562	97.69
385.787	99.69
386.013	117.69
386.238	101.69
386.463	95.69
386.688	102.69
386.913	86.69
387.138	108.69
387.363	90.69
387.588	106.69
387.813	98.69
388.038	97.69
388.263	89.69
388.488	102.69
388.713	109.69
388.938	114.69
389.163	97.69
389.387	91.69
389.612	108.69
389.837	89.69
390.062	109.69
390.287	98.69
390.512	99.69
390.736	116.69
390.961	111.69
391.186	96.69
391.411	103.69
391.636	102.69
391.86	116.69
392.085	105.69
392.31	100.69
392.534	85.69
392.759	109.69
392.984	110.69
393.208	92.69
393.433	108.69
393.658	115.69
393.882	99.69
394.107	106.69
394.331	118.69
394.556	99.69
394.78	106.69
395.005	108.69
395.229	110.69
395.454	91.69
395.678	101.69
395.903	108.69
396.127	111.69
396.352	112.69
396.576	101.69
396.801	101.69
397.025	97.69
397.249	107.69
397.474	128.69
397.698	105.69
397.922	118.69
398.147	111.69
398.371	105.69
398.595	113.69
398.82	113.69
399.044	111.69
399.268	99.69
399.492	107.69
399.717	115.69
399.941	117.69
400.165	111.69
400.389	109.69
400.613	116.69
400.837	96.69
401.062	110.69
401.286	109.69
401.51	103.69
401.734	112.69
401.958	111.69
402.182	123.69
402.406	117.69
402.63	103.69
402.854	108.69
403.078	101.69
403.302	121.69
403.526	117.69
403.75	115.69
403.974	123.69
404.198	126.69
404.422	117.69
404.645	129.69
404.869	128.69
405.093	126.69
405.317	114.69
405.541	115.69
405.765	116.69
405.988	122.69
406.212	131.69
406.436	113.69
406.66	120.69
406.883	117.69
407.107	119.69
407.331	125.69
407.555	130.69
407.778	114.69
408.002	115.69
408.226	128.69
408.449	119.69
408.673	104.69
408.896	116.69
409.12	125.69
409.344	124.69
409.567	136.69
409.791	123.69
410.014	123.69
410.238	122.69
410.461	109.69
410.685	124.69
410.908	127.69
411.132	134.69
411.355	129.69
411.578	119.69
411.802	126.69
412.025	138.69
412.249	117.69
412.472	107.69
412.695	124.69
412.919	127.69
413.142	126.69
413.365	116.69
413.589	119.69
413.812	135.69
414.035	125.69
414.258	119.69
414.482	117.69
414.705	122.69
414.928	125.69
415.151	123.69
415.374	111.69
415.597	119.69
415.821	126.69
416.044	121.69
416.267	132.69
416.49	129.69
416.713	130.69
416.936	110.69
417.159	116.69
417.382	117.69
417.605	122.69
417.828	145.69
418.051	126.69
418.274	117.69
418.497	130.69
418.72	127.69
418.943	134.69
419.166	140.69
419.389	149.69
419.611	137.69
419.834	129.69
420.057	138.69
420.28	127.69
420.503	125.69
420.726	129.69
420.948	126.69
421.171	133.69
421.394	125.69
421.617	125.69
421.839	139.69
422.062	149.69
422.285	131.69
422.507	134.69
422.73	126.69
422.953	146.69
423.175	140.69
423.398	127.69
423.621	130.69
423.843	143.69
424.066	126.69
424.288	151.69
424.511	156.69
424.733	153.69
424.956	132.69
425.178	147.69
425.401	131.69
425.623	149.69
425.846	121.69
426.068	122.69
426.291	126.69
426.513	127.69
426.735	133.69
426.958	128.69
427.18	121.69
427.402	140.69
427.625	125.69
427.847	123.69
428.069	122.69
428.292	134.69
428.514	130.69
428.736	123.69
428.958	130.69
429.181	127.69
429.403	126.69
429.625	124.69
429.847	125.69
430.069	146.69
430.292	132.69
430.514	129.69
430.736	129.69
430.958	133.69
431.18	126.69
431.402	116.69
431.624	120.69
431.846	120.69
432.068	104.69
432.29	103.69
432.512	106.69
432.734	124.69
432.956	123.69
433.178	120.69
433.4	133.69
433.622	146.69
433.844	141.69
434.066	143.69
434.287	114.69
434.509	111.69
434.731	107.69
434.953	124.69
435.175	117.69
435.397	126.69
435.618	117.69
435.84	108.69
436.062	104.69
436.284	122.69
436.505	119.69
436.727	114.69
436.949	131.69
437.17	135.69
437.392	114.69
437.614	122.69
437.835	104.69
438.057	95.69
438.278	101.69
438.5	113.69
438.721	126.69
438.943	148.69
439.165	129.69
439.386	142.69
439.608	153.69
439.829	139.69
440.05	133.69
440.272	150.69
440.493	137.69
440.715	146.69
440.936	152.69
441.158	139.69
441.379	138.69
441.6	142.69
441.822	140.69
442.043	129.69
442.264	135.69
442.486	131.69
442.707	136.69
442.928	151.69
443.149	137.69
443.371	135.69
443.592	135.69
443.813	144.69
444.034	119.69
444.255	150.69
444.476	135.69
444.698	140.69
444.919	138.69
445.14	253.69
445.361	181.69
445.582	154.69
445.803	133.69
446.024	138.69
446.245	142.69
446.466	156.69
446.687	169.69
446.908	157.69
447.129	162.69
447.35	144.69
447.571	139.69
447.792	142.69
448.013	141.69
448.234	133.69
448.455	135.69
448.675	145.69
448.896	137.69
449.117	149.69
449.338	136.69
449.559	132.69
449.779	135.69
450	133.69
450.221	127.69
450.442	134.69
450.662	137.69
450.883	137.69
451.104	139.69
451.324	138.69
451.545	131.69
451.766	135.69
451.986	135.69
452.207	142.69
452.428	131.69
452.648	114.69
452.869	129.69
453.089	116.69
453.31	118.69
453.53	118.69
453.751	99.69
453.971	110.69
454.192	116.69
454.412	119.69
454.633	124.69
454.853	114.69
455.073	123.69
455.294	132.69
455.514	133.69
455.734	117.69
455.955	107.69
456.175	121.69
456.395	113.69
456.616	105.69
456.836	117.69
457.056	114.69
457.276	101.69
457.497	122.69
457.717	109.69
457.937	106.69
458.157	117.69
458.377	95.69
458.598	99.69
458.818	94.69
459.038	93.69
459.258	89.69
459.478	107.69
459.698	103.69
459.918	101.69
460.138	95.69
460.358	114.69
460.578	109.69
460.798	117.69
461.018	119.69
461.238	119.69
461.458	108.69
461.678	106.69
461.898	104.69
462.118	118.69
462.338	121.69
462.558	114.69
462.777	106.69
462.997	93.69
463.217	118.69
463.437	125.69
463.657	115.69
463.876	123.69
464.096	105.69
464.316	105.69
464.536	125.69
464.755	107.69
464.975	124.69
465.195	108.69
465.414	99.69
465.634	130.69
465.854	123.69
466.073	128.69
466.293	129.69
466.512	135.69
466.732	133.69
466.951	138.69
467.171	132.69
467.391	117.69
467.61	134.69
467.829	142.69
468.049	148.69
468.268	154.69
468.488	140.69
468.707	135.69
468.927	135.69
469.146	149.69
469.365	157.69
469.585	138.69
469.804	140.69
470.023	137.69
470.243	130.69
470.462	134.69
470.681	152.69
470.901	140.69
471.12	135.69
471.339	140.69
471.558	133.69
471.777	142.69
471.997	133.69
472.216	126.69
472.435	131.69
472.654	108.69
472.873	109.69
473.092	113.69
473.311	117.69
473.53	127.69
473.749	116.69
473.968	129.69
474.187	125.69
474.406	107.69
474.625	129.69
474.844	127.69
475.063	134.69
475.282	126.69
475.501	124.69
475.72	134.69
475.939	121.69
476.158	137.69
476.377	137.69
476.596	138.69
476.814	125.69
477.033	119.69
477.252	126.69
477.471	126.69
477.69	132.69
477.908	133.69
478.127	144.69
478.346	140.69
478.564	147.69
478.783	131.69
479.002	140.69
479.22	142.69
479.439	138.69
479.658	124.69
479.876	119.69
480.095	123.69
480.313	133.69
480.532	113.69
480.751	106.69
480.969	99.69
481.188	85.69
481.406	86.69
481.624	97.69
481.843	98.69
482.061	98.69
482.28	104.69
482.498	113.69
482.717	113.69
482.935	131.69
483.153	158.69
483.372	149.69
483.59	155.69
483.808	141.69
484.027	125.69
484.245	139.69
484.463	141.69
484.681	158.69
484.9	155.69
485.118	147.69
485.336	135.69
485.554	111.69
485.772	119.69
485.99	110.69
486.209	102.69
486.427	118.69
486.645	118.69
486.863	133.69
487.081	141.69
487.299	154.69
487.517	155.69
487.735	173.69
487.953	188.69
488.171	187.69
488.389	162.69
488.607	159.69
488.825	154.69
489.043	140.69
489.261	141.69
489.479	133.69
489.696	141.69
489.914	148.69
490.132	149.69
490.35	147.69
490.568	153.69
490.786	167.69
491.003	170.69
491.221	175.69
491.439	189.69
491.657	179.69
491.874	226.69
492.092	219.69
492.31	226.69
492.527	222.69
492.745	209.69
492.963	179.69
493.18	188.69
493.398	187.69
493.615	169.69
493.833	177.69
494.05	168.69
494.268	171.69
494.485	178.69
494.703	177.69
494.92	180.69
495.138	158.69
495.355	164.69
495.573	158.69
495.79	167.69
496.008	170.69
496.225	165.69
496.442	151.69
496.66	167.69
496.877	159.69
497.094	186.69
497.312	158.69
497.529	165.69
497.746	149.69
497.963	123.69
498.181	123.69
498.398	139.69
498.615	128.69
498.832	122.69
499.049	117.69
499.267	117.69
499.484	133.69
499.701	128.69
499.918	145.69
500.135	129.69
500.352	153.69
500.569	139.69
500.786	143.69
501.003	145.69
501.22	134.69
501.437	135.69
501.654	138.69
501.871	117.69
502.088	135.69
502.305	139.69
502.522	139.69
502.739	133.69
502.956	137.69
503.172	131.69
503.389	123.69
503.606	129.69
503.823	128.69
504.04	114.69
504.256	114.69
504.473	122.69
504.69	128.69
504.907	127.69
505.123	137.69
505.34	116.69
505.557	122.69
505.773	123.69
505.99	125.69
506.207	121.69
506.423	109.69
506.64	124.69
506.856	137.69
507.073	119.69
507.289	134.69
507.506	125.69
507.722	124.69
507.939	115.69
508.155	122.69
508.372	121.69
508.588	127.69
508.805	123.69
509.021	110.69
509.238	109.69
509.454	104.69
509.67	105.69
509.887	80.69
510.103	88.69
510.319	90.69
510.536	113.69
510.752	105.69
510.968	90.69
511.184	80.69
511.401	92.69
511.617	85.69
511.833	108.69
512.049	94.69
512.265	101.69
512.481	111.69
512.698	103.69
512.914	110.69
513.13	99.69
513.346	94.69
513.562	94.69
513.778	91.69
513.994	79.69
514.21	79.69
514.426	106.69
514.642	108.69
514.858	98.69
515.074	88.69
515.29	91.69
515.506	81.69
515.721	97.69
515.937	86.69
516.153	86.69
516.369	93.69
516.585	67.69
516.801	101.69
517.016	100.69
517.232	94.69
517.448	89.69
517.664	92.69
517.879	106.69
518.095	94.69
518.311	100.69
518.527	104.69
518.742	95.69
518.958	93.69
519.173	102.69
519.389	105.69
519.605	110.69
519.82	127.69
520.036	108.69
520.251	99.69
520.467	91.69
520.682	115.69
520.898	100.69
521.113	97.69
521.329	97.69
521.544	90.69
521.76	104.69
521.975	110.69
522.19	91.69
522.406	93.69
522.621	100.69
522.836	96.69
523.052	115.69
523.267	117.69
523.482	110.69
523.698	125.69
523.913	118.69
524.128	106.69
524.343	125.69
524.559	127.69
524.774	115.69
524.989	125.69
525.204	120.69
525.419	120.69
525.634	89.69
525.849	108.69
526.064	114.69
526.28	92.69
526.495	92.69
526.71	93.69
526.925	81.69
527.14	84.69
527.355	92.69
527.57	100.69
527.785	95.69
527.999	105.69
528.214	108.69
528.429	126.69
528.644	110.69
528.859	131.69
529.074	154.69
529.289	180.69
529.503	158.69
529.718	151.69
529.933	104.69
530.148	109.69
530.363	106.69
530.577	92.69
530.792	85.69
531.007	93.69
531.221	89.69
531.436	92.69
531.651	81.69
531.865	83.69
532.08	98.69
532.295	86.69
532.509	88.69
532.724	88.69
532.938	89.69
533.153	97.69
533.367	110.69
533.582	125.69
533.796	102.69
534.011	118.69
534.225	104.69
534.44	89.69
534.654	104.69
534.868	92.69
535.083	96.69
535.297	109.69
535.511	98.69
535.726	106.69
535.94	107.69
536.154	99.69
536.369	97.69
536.583	95.69
536.797	96.69
537.011	95.69
537.225	79.69
537.44	83.69
537.654	105.69
537.868	103.69
538.082	96.69
538.296	101.69
538.51	96.69
538.724	119.69
538.938	128.69
539.153	123.69
539.367	125.69
539.581	114.69
539.795	106.69
540.009	99.69
540.222	85.69
540.436	109.69
540.65	110.69
540.864	136.69
541.078	125.69
541.292	147.69
541.506	162.69
541.72	177.69
541.934	184.69
542.147	190.69
542.361	165.69
542.575	152.69
542.789	144.69
543.002	137.69
543.216	141.69
543.43	141.69
543.644	132.69
543.857	147.69
544.071	166.69
544.285	172.69
544.498	166.69
544.712	161.69
544.925	156.69
545.139	156.69
545.352	164.69
545.566	154.69
545.779	173.69
545.993	164.69
546.206	149.69
546.42	154.69
546.633	167.69
546.847	161.69
547.06	162.69
547.274	166.69
547.487	163.69
547.7	187.69
547.914	171.69
548.127	170.69
548.34	162.69
548.554	152.69
548.767	154.69
548.98	165.69
549.193	157.69
549.407	161.69
549.62	151.69
549.833	143.69
550.046	146.69
550.259	153.69
550.473	140.69
550.686	144.69
550.899	133.69
551.112	151.69
551.325	124.69
551.538	142.69
551.751	139.69
551.964	134.69
552.177	109.69
552.39	155.69
552.603	158.69
552.816	154.69
553.029	135.69
553.242	151.69
553.455	142.69
553.667	174.69
553.88	150.69
554.093	145.69
554.306	136.69
554.519	145.69
554.732	141.69
554.944	141.69
555.157	150.69
555.37	154.69
555.583	148.69
555.795	143.69
556.008	139.69
556.221	130.69
556.433	135.69
556.646	132.69
556.859	138.69
557.071	136.69
557.284	129.69
557.496	142.69
557.709	141.69
557.921	134.69
558.134	151.69
558.346	126.69
558.559	134.69
558.771	140.69
558.984	129.69
559.196	133.69
559.409	123.69
559.621	130.69
559.833	131.69
560.046	132.69
560.258	133.69
560.47	143.69
560.683	133.69
560.895	150.69
561.107	144.69
561.32	123.69
561.532	136.69
561.744	124.69
561.956	118.69
562.168	132.69
562.381	125.69
562.593	137.69
562.805	129.69
563.017	125.69
563.229	127.69
563.441	128.69
563.653	123.69
563.865	122.69
564.077	131.69
564.289	122.69
564.501	114.69
564.713	122.69
564.925	127.69
565.137	111.69
565.349	122.69
565.561	118.69
565.773	107.69
565.985	124.69
566.197	126.69
566.408	127.69
566.62	136.69
566.832	108.69
567.044	111.69
567.255	107.69
567.467	106.69
567.679	112.69
567.891	116.69
568.102	96.69
568.314	102.69
568.526	88.69
568.737	97.69
568.949	110.69
569.161	86.69
569.372	75.69
569.584	91.69
569.795	84.69
570.007	99.69
570.218	101.69
570.43	93.69
570.641	96.69
570.853	103.69
571.064	105.69
571.276	103.69
571.487	111.69
571.698	103.69
571.91	106.69
572.121	107.69
572.333	98.69
572.544	111.69
572.755	95.69
572.966	87.69
573.178	80.69
573.389	97.69
573.6	89.69
573.811	91.69
574.023	79.69
574.234	82.69
574.445	90.69
574.656	86.69
574.867	100.69
575.078	98.69
575.289	100.69
575.501	115.69
575.712	93.69
575.923	93.69
576.134	101.69
576.345	94.69
576.556	83.69
576.767	106.69
576.978	112.69
577.188	89.69
577.399	95.69
577.61	101.69
577.821	99.69
578.032	118.69
578.243	89.69
578.454	82.69
578.665	80.69
578.875	94.69
579.086	83.69
579.297	86.69
579.508	89.69
579.718	86.69
579.929	89.69
580.14	94.69
580.35	87.69
580.561	97.69
580.772	98.69
580.982	105.69
581.193	97.69
581.403	76.69
581.614	99.69
581.825	84.69
582.035	89.69
582.246	103.69
582.456	104.69
582.667	89.69
582.877	108.69
583.087	100.69
583.298	91.69
583.508	86.69
583.719	83.69
583.929	94.69
584.139	91.69
584.35	84.69
584.56	79.69
584.77	93.69
584.981	80.69
585.191	105.69
585.401	75.69
585.611	100.69
585.821	97.69
586.032	82.69
586.242	83.69
586.452	92.69
586.662	77.69
586.872	75.69
587.082	88.69
587.292	78.69
587.502	82.69
587.713	102.69
587.923	85.69
588.133	87.69
588.343	90.69
588.553	79.69
588.762	91.69
588.972	91.69
589.182	83.69
589.392	89.69
589.602	83.69
589.812	89.69
590.022	93.69
590.232	91.69
590.441	84.69
590.651	93.69
590.861	91.69
591.071	79.69
591.281	81.69
591.49	93.69
591.7	80.69
591.91	86.69
592.119	86.69
592.329	86.69
592.539	88.69
592.748	88.69
592.958	95.69
593.167	90.69
593.377	81.69
593.587	88.69
593.796	86.69
594.006	90.69
594.215	92.69
594.424	84.69
594.634	77.69
594.843	106.69
595.053	96.69
595.262	89.69
595.472	89.69
595.681	99.69
595.89	107.69
596.1	93.69
596.309	106.69
596.518	102.69
596.727	97.69
596.937	82.69
597.146	90.69
597.355	106.69
597.564	89.69
597.774	88.69
597.983	102.69
598.192	106.69
598.401	100.69
598.61	100.69
598.819	90.69
599.028	90.69
599.237	92.69
599.446	89.69
599.655	92.69
599.864	92.69
600.073	79.69
600.282	79.69
600.491	84.69
600.7	89.69
600.909	90.69
601.118	95.69
601.327	121.69
601.536	103.69
601.745	113.69
601.953	102.69
602.162	105.69
602.371	119.69
602.58	91.69
602.789	115.69
602.997	116.69
603.206	122.69
603.415	118.69
603.623	114.69
603.832	116.69
604.041	106.69
604.249	97.69
604.458	97.69
604.666	115.69
604.875	107.69
605.084	109.69
605.292	105.69
605.501	111.69
605.709	106.69
605.918	112.69
606.126	126.69
606.334	118.69
606.543	106.69
606.751	115.69
606.96	112.69
607.168	109.69
607.376	91.69
607.585	120.69
607.793	98.69
608.001	106.69
608.21	113.69
608.418	108.69
608.626	115.69
608.834	115.69
609.043	121.69
609.251	117.69
609.459	115.69
609.667	114.69
609.875	115.69
610.083	136.69
610.291	110.69
610.499	117.69
610.707	117.69
610.916	111.69
611.124	133.69
611.332	108.69
611.54	112.69
611.748	120.69
611.955	114.69
612.163	122.69
612.371	137.69
612.579	117.69
612.787	107.69
612.995	110.69
613.203	121.69
613.411	119.69
613.618	107.69
613.826	112.69
614.034	93.69
614.242	116.69
614.449	101.69
614.657	115.69
614.865	119.69
615.072	116.69
615.28	115.69
615.488	112.69
615.695	110.69
615.903	120.69
616.111	117.69
616.318	115.69
616.526	120.69
616.733	100.69
616.941	116.69
617.148	121.69
617.356	120.69
617.563	120.69
617.771	122.69
617.978	118.69
618.185	116.69
618.393	108.69
618.6	120.69
618.807	117.69
619.015	107.69
619.222	103.69
619.429	102.69
619.637	118.69
619.844	110.69
620.051	126.69
620.258	135.69
620.466	115.69
620.673	102.69
620.88	97.69
621.087	111.69
621.294	106.69
621.501	112.69
621.708	100.69
621.915	116.69
622.122	103.69
622.329	101.69
622.536	113.69
622.743	104.69
622.95	110.69
623.157	109.69
623.364	90.69
623.571	104.69
623.778	110.69
623.985	113.69
624.192	101.69
624.399	101.69
624.606	119.69
624.812	119.69
625.019	103.69
625.226	113.69
625.433	108.69
625.639	112.69
625.846	98.69
626.053	95.69
626.259	102.69
626.466	108.69
626.673	86.69
626.879	101.69
627.086	89.69
627.293	103.69
627.499	114.69
627.706	104.69
627.912	109.69
628.119	123.69
628.325	99.69
628.532	113.69
628.738	116.69
628.945	93.69
629.151	94.69
629.357	90.69
629.564	119.69
629.77	99.69
629.976	99.69
630.183	104.69
630.389	110.69
630.595	109.69
630.802	93.69
631.008	100.69
631.214	108.69
631.42	105.69
631.627	111.69
631.833	100.69
632.039	109.69
632.245	102.69
632.451	106.69
632.657	81.69
632.863	96.69
633.069	113.69
633.275	100.69
633.481	105.69
633.688	110.69
633.893	101.69
634.099	113.69
634.305	102.69
634.511	100.69
634.717	101.69
634.923	94.69
635.129	93.69
635.335	86.69
635.541	111.69
635.747	88.69
635.952	106.69
636.158	113.69
636.364	101.69
636.57	98.69
636.775	106.69
636.981	99.69
637.187	106.69
637.392	103.69
637.598	87.69
637.804	115.69
638.009	110.69
638.215	102.69
638.421	107.69
638.626	108.69
638.832	108.69
639.037	99.69
639.243	108.69
639.448	113.69
639.654	105.69
639.859	108.69
640.065	107.69
640.27	111.69
640.475	113.69
640.681	104.69
640.886	102.69
641.091	96.69
641.297	93.69
641.502	117.69
641.707	101.69
641.913	111.69
642.118	109.69
642.323	103.69
642.528	116.69
642.733	93.69
642.939	101.69
643.144	100.69
643.349	104.69
643.554	95.69
643.759	94.69
643.964	93.69
644.169	94.69
644.374	100.69
644.579	102.69
644.784	114.69
644.989	103.69
645.194	109.69
645.399	102.69
645.604	103.69
645.809	100.69
646.014	100.69
646.219	98.69
646.423	101.69
646.628	104.69
646.833	103.69
647.038	102.69
647.243	101.69
647.447	95.69
647.652	90.69
647.857	103.69
648.062	101.69
648.266	105.69
648.471	107.69
648.676	114.69
648.88	89.69
649.085	99.69
649.289	99.69
649.494	105.69
649.698	102.69
649.903	102.69
650.107	100.69
650.312	103.69
650.516	101.69
650.721	89.69
650.925	98.69
651.13	96.69
651.334	108.69
651.539	101.69
651.743	90.69
651.947	104.69
652.152	107.69
652.356	101.69
652.56	83.69
652.764	88.69
652.969	95.69
653.173	94.69
653.377	81.69
653.581	92.69
653.785	93.69
653.99	93.69
654.194	95.69
654.398	82.69
654.602	97.69
654.806	105.69
655.01	82.69
655.214	98.69
655.418	94.69
655.622	93.69
655.826	94.69
656.03	93.69
656.234	77.69
656.438	82.69
656.642	91.69
656.846	92.69
657.049	109.69
657.253	91.69
657.457	99.69
657.661	91.69
657.865	89.69
658.068	87.69
658.272	86.69
658.476	82.69
658.68	91.69
658.883	101.69
659.087	83.69
659.291	102.69
659.494	93.69
659.698	82.69
659.901	102.69
660.105	81.69
660.309	80.69
660.512	96.69
660.716	87.69
660.919	87.69
661.123	92.69
661.326	87.69
661.53	102.69
661.733	90.69
661.936	93.69
662.14	89.69
662.343	85.69
662.546	91.69
662.75	76.69
662.953	89.69
663.156	114.69
663.36	71.69
663.563	80.69
663.766	109.69
663.969	82.69
664.173	68.69
664.376	90.69
664.579	86.69
664.782	90.69
664.985	85.69
665.188	81.69
665.391	86.69
665.594	79.69
665.797	77.69
666	103.69
666.203	86.69
666.406	85.69
666.609	91.69
666.812	76.69
667.015	81.69
667.218	90.69
667.421	79.69
667.624	71.69
667.827	84.69
668.03	81.69
668.232	88.69
668.435	98.69
668.638	88.69
668.841	85.69
669.043	91.69
669.246	93.69
669.449	74.69
669.651	86.69
669.854	76.69
670.057	73.69
670.259	81.69
670.462	81.69
670.665	95.69
670.867	90.69
671.07	81.69
671.272	81.69
671.475	84.69
671.677	67.69
671.88	85.69
672.082	77.69
672.284	82.69
672.487	90.69
672.689	87.69
672.892	85.69
