Data from Location4.07152019.Energy5.Lamp.07192019.3%Agarose_HRD10591_16-20-54-926.txt Node
Date: Fri Jul 19 16:20:54 EDT 2019
User: cochatt
Spectrometer: HR+D1059
Trigger mode: 1
Integration Time (sec): 1.000000E-1
Scans to average: 1
Electric dark correction enabled: true
Nonlinearity correction enabled: false
Boxcar width: 0
XAxis mode: Wavelengths
Number of Pixels in Spectrum: 2048
>>>>>Begin Spectral Data<<<<<
223.165	-9.19
223.4	-9.19
223.635	-9.19
223.869	-24.19
224.104	0.81
224.338	-19.19
224.573	-18.19
224.808	-14.19
225.042	-11.19
225.277	-3.19
225.511	4.81
225.746	2.81
225.98	4.81
226.215	12.81
226.449	21.81
226.683	9.81
226.918	15.81
227.152	25.81
227.387	38.81
227.621	41.81
227.856	38.81
228.09	58.81
228.324	54.81
228.559	54.81
228.793	60.81
229.027	68.81
229.262	53.81
229.496	67.81
229.73	71.81
229.964	68.81
230.199	76.81
230.433	82.81
230.667	78.81
230.901	83.81
231.136	79.81
231.37	93.81
231.604	75.81
231.838	68.81
232.072	80.81
232.306	71.81
232.541	77.81
232.775	77.81
233.009	91.81
233.243	90.81
233.477	81.81
233.711	72.81
233.945	78.81
234.179	79.81
234.413	84.81
234.647	82.81
234.881	89.81
235.115	62.81
235.349	80.81
235.583	85.81
235.817	75.81
236.051	78.81
236.285	85.81
236.519	81.81
236.753	95.81
236.987	68.81
237.221	64.81
237.455	97.81
237.689	82.81
237.922	75.81
238.156	77.81
238.39	90.81
238.624	82.81
238.858	82.81
239.091	73.81
239.325	78.81
239.559	80.81
239.793	82.81
240.027	74.81
240.26	73.81
240.494	80.81
240.728	82.81
240.961	82.81
241.195	74.81
241.429	77.81
241.662	68.81
241.896	77.81
242.13	64.81
242.363	83.81
242.597	77.81
242.83	88.81
243.064	76.81
243.298	85.81
243.531	66.81
243.765	75.81
243.998	79.81
244.232	87.81
244.465	68.81
244.699	68.81
244.932	83.81
245.166	61.81
245.399	74.81
245.633	76.81
245.866	87.81
246.099	92.81
246.333	84.81
246.566	89.81
246.8	80.81
247.033	82.81
247.266	65.81
247.5	70.81
247.733	78.81
247.966	71.81
248.2	76.81
248.433	86.81
248.666	75.81
248.899	74.81
249.133	92.81
249.366	78.81
249.599	92.81
249.832	84.81
250.066	93.81
250.299	80.81
250.532	88.81
250.765	77.81
250.998	64.81
251.231	79.81
251.465	72.81
251.698	89.81
251.931	76.81
252.164	69.81
252.397	81.81
252.63	80.81
252.863	84.81
253.096	84.81
253.329	81.81
253.562	75.81
253.795	87.81
254.028	90.81
254.261	90.81
254.494	94.81
254.727	77.81
254.96	79.81
255.193	73.81
255.426	56.81
255.659	83.81
255.892	81.81
256.124	77.81
256.357	84.81
256.59	82.81
256.823	97.81
257.056	71.81
257.289	81.81
257.521	82.81
257.754	77.81
257.987	85.81
258.22	89.81
258.452	85.81
258.685	78.81
258.918	94.81
259.151	77.81
259.383	77.81
259.616	77.81
259.849	70.81
260.081	65.81
260.314	83.81
260.547	91.81
260.779	92.81
261.012	89.81
261.244	76.81
261.477	95.81
261.71	86.81
261.942	87.81
262.175	84.81
262.407	80.81
262.64	76.81
262.872	78.81
263.105	74.81
263.337	73.81
263.57	78.81
263.802	88.81
264.035	74.81
264.267	86.81
264.499	70.81
264.732	77.81
264.964	80.81
265.197	81.81
265.429	97.81
265.661	80.81
265.894	85.81
266.126	89.81
266.358	90.81
266.591	73.81
266.823	84.81
267.055	76.81
267.287	90.81
267.52	74.81
267.752	87.81
267.984	90.81
268.216	76.81
268.448	101.81
268.681	93.81
268.913	67.81
269.145	88.81
269.377	88.81
269.609	78.81
269.841	88.81
270.073	83.81
270.306	78.81
270.538	96.81
270.77	77.81
271.002	88.81
271.234	99.81
271.466	81.81
271.698	77.81
271.93	77.81
272.162	83.81
272.394	96.81
272.626	86.81
272.858	80.81
273.09	82.81
273.322	90.81
273.553	75.81
273.785	90.81
274.017	85.81
274.249	76.81
274.481	74.81
274.713	71.81
274.945	71.81
275.176	81.81
275.408	92.81
275.64	89.81
275.872	71.81
276.104	60.81
276.335	87.81
276.567	89.81
276.799	75.81
277.031	79.81
277.262	73.81
277.494	75.81
277.726	93.81
277.957	94.81
278.189	99.81
278.421	74.81
278.652	84.81
278.884	87.81
279.115	75.81
279.347	68.81
279.579	78.81
279.81	82.81
280.042	83.81
280.273	83.81
280.505	74.81
280.736	76.81
280.968	77.81
281.199	86.81
281.431	97.81
281.662	72.81
281.894	79.81
282.125	82.81
282.356	101.81
282.588	89.81
282.819	85.81
283.051	97.81
283.282	88.81
283.513	89.81
283.745	106.81
283.976	78.81
284.207	84.81
284.439	78.81
284.67	96.81
284.901	81.81
285.132	79.81
285.364	94.81
285.595	83.81
285.826	78.81
286.057	85.81
286.288	71.81
286.52	82.81
286.751	83.81
286.982	89.81
287.213	88.81
287.444	85.81
287.675	87.81
287.906	83.81
288.138	99.81
288.369	108.81
288.6	80.81
288.831	88.81
289.062	68.81
289.293	64.81
289.524	81.81
289.755	76.81
289.986	72.81
290.217	86.81
290.448	107.81
290.679	66.81
290.91	92.81
291.141	83.81
291.371	84.81
291.602	101.81
291.833	93.81
292.064	82.81
292.295	69.81
292.526	92.81
292.757	82.81
292.987	76.81
293.218	87.81
293.449	87.81
293.68	83.81
293.91	89.81
294.141	63.81
294.372	83.81
294.603	73.81
294.833	89.81
295.064	82.81
295.295	89.81
295.525	75.81
295.756	90.81
295.987	97.81
296.217	93.81
296.448	86.81
296.679	90.81
296.909	85.81
297.14	78.81
297.37	87.81
297.601	83.81
297.831	87.81
298.062	82.81
298.292	88.81
298.523	92.81
298.753	68.81
298.984	93.81
299.214	77.81
299.445	90.81
299.675	88.81
299.905	90.81
300.136	79.81
300.366	91.81
300.597	74.81
300.827	88.81
301.057	86.81
301.288	80.81
301.518	82.81
301.748	95.81
301.979	77.81
302.209	83.81
302.439	89.81
302.669	84.81
302.9	95.81
303.13	93.81
303.36	82.81
303.59	90.81
303.82	87.81
304.051	75.81
304.281	78.81
304.511	83.81
304.741	81.81
304.971	76.81
305.201	78.81
305.431	82.81
305.661	99.81
305.891	83.81
306.121	96.81
306.352	94.81
306.582	78.81
306.812	76.81
307.042	81.81
307.272	92.81
307.502	87.81
307.731	87.81
307.961	73.81
308.191	91.81
308.421	82.81
308.651	81.81
308.881	94.81
309.111	96.81
309.341	77.81
309.571	75.81
309.8	85.81
310.03	92.81
310.26	74.81
310.49	76.81
310.72	79.81
310.949	72.81
311.179	80.81
311.409	92.81
311.639	91.81
311.868	93.81
312.098	87.81
312.328	85.81
312.557	93.81
312.787	83.81
313.017	88.81
313.246	81.81
313.476	71.81
313.706	83.81
313.935	92.81
314.165	75.81
314.394	77.81
314.624	97.81
314.853	93.81
315.083	84.81
315.312	74.81
315.542	80.81
315.771	86.81
316.001	89.81
316.23	93.81
316.46	84.81
316.689	87.81
316.919	90.81
317.148	75.81
317.377	84.81
317.607	79.81
317.836	83.81
318.065	78.81
318.295	91.81
318.524	90.81
318.753	88.81
318.983	78.81
319.212	83.81
319.441	94.81
319.67	89.81
319.9	83.81
320.129	96.81
320.358	91.81
320.587	85.81
320.816	83.81
321.046	89.81
321.275	83.81
321.504	78.81
321.733	84.81
321.962	84.81
322.191	76.81
322.42	70.81
322.649	86.81
322.878	90.81
323.108	85.81
323.337	87.81
323.566	84.81
323.795	81.81
324.024	74.81
324.253	78.81
324.482	92.81
324.71	83.81
324.939	91.81
325.168	79.81
325.397	90.81
325.626	91.81
325.855	82.81
326.084	81.81
326.313	94.81
326.542	88.81
326.77	93.81
326.999	93.81
327.228	93.81
327.457	100.81
327.686	86.81
327.914	89.81
328.143	84.81
328.372	101.81
328.6	89.81
328.829	86.81
329.058	74.81
329.287	91.81
329.515	80.81
329.744	83.81
329.972	100.81
330.201	73.81
330.43	72.81
330.658	81.81
330.887	77.81
331.115	82.81
331.344	82.81
331.572	87.81
331.801	91.81
332.03	89.81
332.258	75.81
332.486	86.81
332.715	85.81
332.943	81.81
333.172	97.81
333.4	91.81
333.629	86.81
333.857	92.81
334.085	96.81
334.314	79.81
334.542	98.81
334.771	101.81
334.999	78.81
335.227	71.81
335.455	86.81
335.684	96.81
335.912	90.81
336.14	89.81
336.369	91.81
336.597	84.81
336.825	84.81
337.053	88.81
337.281	75.81
337.51	82.81
337.738	71.81
337.966	85.81
338.194	77.81
338.422	97.81
338.65	86.81
338.878	84.81
339.106	93.81
339.334	83.81
339.562	85.81
339.79	84.81
340.018	92.81
340.246	79.81
340.474	84.81
340.702	74.81
340.93	91.81
341.158	84.81
341.386	96.81
341.614	94.81
341.842	86.81
342.07	75.81
342.298	93.81
342.526	84.81
342.754	77.81
342.981	80.81
343.209	81.81
343.437	83.81
343.665	72.81
343.893	76.81
344.12	88.81
344.348	79.81
344.576	88.81
344.804	91.81
345.031	77.81
345.259	82.81
345.487	91.81
345.714	100.81
345.942	76.81
346.17	79.81
346.397	87.81
346.625	81.81
346.853	79.81
347.08	77.81
347.308	88.81
347.535	88.81
347.763	76.81
347.99	77.81
348.218	82.81
348.445	95.81
348.673	83.81
348.9	80.81
349.128	98.81
349.355	79.81
349.583	99.81
349.81	94.81
350.037	83.81
350.265	81.81
350.492	80.81
350.72	77.81
350.947	94.81
351.174	81.81
351.402	83.81
351.629	91.81
351.856	85.81
352.083	73.81
352.311	82.81
352.538	73.81
352.765	92.81
352.992	89.81
353.22	85.81
353.447	88.81
353.674	82.81
353.901	90.81
354.128	89.81
354.355	99.81
354.583	89.81
354.81	85.81
355.037	100.81
355.264	72.81
355.491	81.81
355.718	84.81
355.945	91.81
356.172	78.81
356.399	79.81
356.626	93.81
356.853	86.81
357.08	89.81
357.307	87.81
357.534	90.81
357.761	79.81
357.988	89.81
358.215	98.81
358.441	90.81
358.668	87.81
358.895	99.81
359.122	88.81
359.349	91.81
359.576	90.81
359.802	84.81
360.029	89.81
360.256	88.81
360.483	87.81
360.709	75.81
360.936	85.81
361.163	80.81
361.39	75.81
361.616	63.81
361.843	82.81
362.07	89.81
362.296	92.81
362.523	84.81
362.749	89.81
362.976	83.81
363.203	104.81
363.429	83.81
363.656	91.81
363.882	89.81
364.109	83.81
364.335	81.81
364.562	89.81
364.788	90.81
365.015	78.81
365.241	78.81
365.468	89.81
365.694	76.81
365.92	95.81
366.147	74.81
366.373	93.81
366.599	94.81
366.826	83.81
367.052	92.81
367.278	73.81
367.505	87.81
367.731	87.81
367.957	99.81
368.184	73.81
368.41	96.81
368.636	88.81
368.862	100.81
369.089	91.81
369.315	90.81
369.541	101.81
369.767	91.81
369.993	97.81
370.219	84.81
370.445	86.81
370.672	90.81
370.898	88.81
371.124	99.81
371.35	92.81
371.576	95.81
371.802	90.81
372.028	96.81
372.254	93.81
372.48	84.81
372.706	117.81
372.932	99.81
373.158	84.81
373.384	83.81
373.61	91.81
373.835	86.81
374.061	99.81
374.287	105.81
374.513	85.81
374.739	100.81
374.965	100.81
375.191	108.81
375.416	90.81
375.642	102.81
375.868	88.81
376.094	90.81
376.319	99.81
376.545	99.81
376.771	88.81
376.997	95.81
377.222	86.81
377.448	87.81
377.674	104.81
377.899	94.81
378.125	103.81
378.35	97.81
378.576	97.81
378.802	110.81
379.027	98.81
379.253	109.81
379.478	100.81
379.704	106.81
379.929	101.81
380.155	94.81
380.38	88.81
380.606	93.81
380.831	87.81
381.057	117.81
381.282	98.81
381.507	112.81
381.733	87.81
381.958	100.81
382.184	92.81
382.409	102.81
382.634	88.81
382.86	123.81
383.085	119.81
383.31	97.81
383.535	100.81
383.761	99.81
383.986	85.81
384.211	97.81
384.436	104.81
384.662	99.81
384.887	113.81
385.112	100.81
385.337	82.81
385.562	104.81
385.787	87.81
386.013	107.81
386.238	85.81
386.463	90.81
386.688	94.81
386.913	108.81
387.138	117.81
387.363	98.81
387.588	105.81
387.813	99.81
388.038	100.81
388.263	92.81
388.488	93.81
388.713	93.81
388.938	96.81
389.163	108.81
389.387	105.81
389.612	108.81
389.837	110.81
390.062	122.81
390.287	89.81
390.512	116.81
390.736	109.81
390.961	97.81
391.186	96.81
391.411	105.81
391.636	102.81
391.86	120.81
392.085	125.81
392.31	106.81
392.534	94.81
392.759	110.81
392.984	97.81
393.208	95.81
393.433	109.81
393.658	110.81
393.882	106.81
394.107	95.81
394.331	110.81
394.556	104.81
394.78	122.81
395.005	105.81
395.229	105.81
395.454	108.81
395.678	99.81
395.903	96.81
396.127	104.81
396.352	106.81
396.576	104.81
396.801	105.81
397.025	102.81
397.249	112.81
397.474	123.81
397.698	107.81
397.922	98.81
398.147	108.81
398.371	121.81
398.595	110.81
398.82	121.81
399.044	100.81
399.268	116.81
399.492	109.81
399.717	119.81
399.941	98.81
400.165	109.81
400.389	102.81
400.613	114.81
400.837	120.81
401.062	104.81
401.286	109.81
401.51	110.81
401.734	102.81
401.958	107.81
402.182	89.81
402.406	114.81
402.63	115.81
402.854	108.81
403.078	112.81
403.302	107.81
403.526	120.81
403.75	116.81
403.974	122.81
404.198	116.81
404.422	117.81
404.645	119.81
404.869	102.81
405.093	123.81
405.317	120.81
405.541	106.81
405.765	109.81
405.988	123.81
406.212	120.81
406.436	116.81
406.66	125.81
406.883	117.81
407.107	118.81
407.331	108.81
407.555	117.81
407.778	126.81
408.002	113.81
408.226	109.81
408.449	125.81
408.673	124.81
408.896	124.81
409.12	118.81
409.344	130.81
409.567	123.81
409.791	123.81
410.014	109.81
410.238	120.81
410.461	124.81
410.685	106.81
410.908	120.81
411.132	136.81
411.355	104.81
411.578	108.81
411.802	110.81
412.025	120.81
412.249	128.81
412.472	135.81
412.695	125.81
412.919	118.81
413.142	117.81
413.365	125.81
413.589	115.81
413.812	113.81
414.035	108.81
414.258	124.81
414.482	120.81
414.705	123.81
414.928	126.81
415.151	116.81
415.374	124.81
415.597	125.81
415.821	122.81
416.044	108.81
416.267	130.81
416.49	130.81
416.713	121.81
416.936	120.81
417.159	125.81
417.382	122.81
417.605	130.81
417.828	123.81
418.051	130.81
418.274	134.81
418.497	124.81
418.72	138.81
418.943	128.81
419.166	125.81
419.389	136.81
419.611	136.81
419.834	126.81
420.057	124.81
420.28	123.81
420.503	142.81
420.726	125.81
420.948	134.81
421.171	138.81
421.394	138.81
421.617	150.81
421.839	142.81
422.062	149.81
422.285	123.81
422.507	132.81
422.73	136.81
422.953	129.81
423.175	125.81
423.398	137.81
423.621	132.81
423.843	137.81
424.066	129.81
424.288	139.81
424.511	148.81
424.733	146.81
424.956	135.81
425.178	151.81
425.401	139.81
425.623	133.81
425.846	121.81
426.068	132.81
426.291	137.81
426.513	131.81
426.735	122.81
426.958	140.81
427.18	132.81
427.402	139.81
427.625	136.81
427.847	132.81
428.069	133.81
428.292	136.81
428.514	134.81
428.736	125.81
428.958	133.81
429.181	118.81
429.403	135.81
429.625	136.81
429.847	125.81
430.069	130.81
430.292	125.81
430.514	130.81
430.736	112.81
430.958	140.81
431.18	121.81
431.402	118.81
431.624	114.81
431.846	111.81
432.068	105.81
432.29	105.81
432.512	121.81
432.734	120.81
432.956	117.81
433.178	134.81
433.4	138.81
433.622	126.81
433.844	128.81
434.066	123.81
434.287	112.81
434.509	98.81
434.731	104.81
434.953	113.81
435.175	116.81
435.397	122.81
435.618	119.81
435.84	108.81
436.062	128.81
436.284	120.81
436.505	124.81
436.727	121.81
436.949	128.81
437.17	131.81
437.392	126.81
437.614	123.81
437.835	117.81
438.057	106.81
438.278	112.81
438.5	113.81
438.721	110.81
438.943	140.81
439.165	124.81
439.386	133.81
439.608	136.81
439.829	139.81
440.05	140.81
440.272	148.81
440.493	134.81
440.715	147.81
440.936	133.81
441.158	147.81
441.379	146.81
441.6	140.81
441.822	145.81
442.043	138.81
442.264	148.81
442.486	138.81
442.707	141.81
442.928	140.81
443.149	119.81
443.371	123.81
443.592	141.81
443.813	122.81
444.034	126.81
444.255	131.81
444.476	149.81
444.698	139.81
444.919	152.81
445.14	279.81
445.361	205.81
445.582	145.81
445.803	128.81
446.024	152.81
446.245	164.81
446.466	158.81
446.687	160.81
446.908	162.81
447.129	140.81
447.35	146.81
447.571	140.81
447.792	161.81
448.013	146.81
448.234	151.81
448.455	118.81
448.675	136.81
448.896	124.81
449.117	144.81
449.338	119.81
449.559	128.81
449.779	138.81
450	145.81
450.221	134.81
450.442	122.81
450.662	143.81
450.883	116.81
451.104	128.81
451.324	136.81
451.545	123.81
451.766	134.81
451.986	136.81
452.207	128.81
452.428	125.81
452.648	128.81
452.869	140.81
453.089	116.81
453.31	103.81
453.53	108.81
453.751	103.81
453.971	102.81
454.192	118.81
454.412	110.81
454.633	113.81
454.853	109.81
455.073	113.81
455.294	109.81
455.514	132.81
455.734	128.81
455.955	102.81
456.175	109.81
456.395	121.81
456.616	109.81
456.836	109.81
457.056	103.81
457.276	114.81
457.497	96.81
457.717	114.81
457.937	125.81
458.157	118.81
458.377	114.81
458.598	101.81
458.818	106.81
459.038	98.81
459.258	85.81
459.478	93.81
459.698	90.81
459.918	104.81
460.138	115.81
460.358	117.81
460.578	121.81
460.798	118.81
461.018	113.81
461.238	135.81
461.458	115.81
461.678	124.81
461.898	126.81
462.118	110.81
462.338	111.81
462.558	121.81
462.777	102.81
462.997	107.81
463.217	115.81
463.437	112.81
463.657	113.81
463.876	112.81
464.096	113.81
464.316	98.81
464.536	100.81
464.755	120.81
464.975	122.81
465.195	122.81
465.414	129.81
465.634	123.81
465.854	125.81
466.073	125.81
466.293	135.81
466.512	120.81
466.732	128.81
466.951	136.81
467.171	135.81
467.391	138.81
467.61	135.81
467.829	122.81
468.049	131.81
468.268	133.81
468.488	143.81
468.707	132.81
468.927	132.81
469.146	137.81
469.365	122.81
469.585	127.81
469.804	124.81
470.023	148.81
470.243	123.81
470.462	134.81
470.681	125.81
470.901	122.81
471.12	136.81
471.339	140.81
471.558	138.81
471.777	132.81
471.997	146.81
472.216	127.81
472.435	114.81
472.654	108.81
472.873	114.81
473.092	115.81
473.311	136.81
473.53	128.81
473.749	139.81
473.968	121.81
474.187	116.81
474.406	101.81
474.625	122.81
474.844	126.81
475.063	130.81
475.282	122.81
475.501	126.81
475.72	136.81
475.939	123.81
476.158	127.81
476.377	117.81
476.596	119.81
476.814	128.81
477.033	117.81
477.252	118.81
477.471	114.81
477.69	126.81
477.908	150.81
478.127	134.81
478.346	134.81
478.564	123.81
478.783	139.81
479.002	143.81
479.22	139.81
479.439	134.81
479.658	120.81
479.876	112.81
480.095	121.81
480.313	105.81
480.532	116.81
480.751	118.81
480.969	92.81
481.188	86.81
481.406	88.81
481.624	90.81
481.843	79.81
482.061	98.81
482.28	112.81
482.498	109.81
482.717	124.81
482.935	120.81
483.153	144.81
483.372	146.81
483.59	140.81
483.808	128.81
484.027	123.81
484.245	132.81
484.463	145.81
484.681	153.81
484.9	146.81
485.118	151.81
485.336	132.81
485.554	114.81
485.772	94.81
485.99	114.81
486.209	116.81
486.427	116.81
486.645	114.81
486.863	144.81
487.081	151.81
487.299	136.81
487.517	138.81
487.735	166.81
487.953	169.81
488.171	176.81
488.389	172.81
488.607	162.81
488.825	147.81
489.043	141.81
489.261	134.81
489.479	152.81
489.696	160.81
489.914	138.81
490.132	136.81
490.35	149.81
490.568	142.81
490.786	163.81
491.003	177.81
491.221	206.81
491.439	181.81
491.657	196.81
491.874	203.81
492.092	224.81
492.31	228.81
492.527	217.81
492.745	202.81
492.963	193.81
493.18	185.81
493.398	162.81
493.615	172.81
493.833	170.81
494.05	169.81
494.268	169.81
494.485	181.81
494.703	173.81
494.92	162.81
495.138	145.81
495.355	177.81
495.573	183.81
495.79	147.81
496.008	165.81
496.225	160.81
496.442	157.81
496.66	150.81
496.877	160.81
497.094	166.81
497.312	157.81
497.529	188.81
497.746	140.81
497.963	125.81
498.181	131.81
498.398	121.81
498.615	121.81
498.832	117.81
499.049	124.81
499.267	118.81
499.484	125.81
499.701	130.81
499.918	134.81
500.135	132.81
500.352	137.81
500.569	155.81
500.786	146.81
501.003	132.81
501.22	152.81
501.437	125.81
501.654	139.81
501.871	143.81
502.088	153.81
502.305	135.81
502.522	139.81
502.739	123.81
502.956	124.81
503.172	135.81
503.389	126.81
503.606	124.81
503.823	124.81
504.04	120.81
504.256	95.81
504.473	124.81
504.69	130.81
504.907	136.81
505.123	128.81
505.34	119.81
505.557	130.81
505.773	138.81
505.99	118.81
506.207	117.81
506.423	121.81
506.64	122.81
506.856	116.81
507.073	110.81
507.289	112.81
507.506	104.81
507.722	124.81
507.939	122.81
508.155	103.81
508.372	127.81
508.588	119.81
508.805	116.81
509.021	95.81
509.238	96.81
509.454	106.81
509.67	88.81
509.887	92.81
510.103	103.81
510.319	99.81
510.536	98.81
510.752	93.81
510.968	88.81
511.184	84.81
511.401	91.81
511.617	82.81
511.833	88.81
512.049	91.81
512.265	90.81
512.481	103.81
512.698	93.81
512.914	87.81
513.13	94.81
513.346	87.81
513.562	105.81
513.778	86.81
513.994	86.81
514.21	94.81
514.426	105.81
514.642	103.81
514.858	98.81
515.074	70.81
515.29	88.81
515.506	92.81
515.721	99.81
515.937	107.81
516.153	87.81
516.369	81.81
516.585	90.81
516.801	89.81
517.016	92.81
517.232	85.81
517.448	103.81
517.664	100.81
517.879	91.81
518.095	93.81
518.311	93.81
518.527	89.81
518.742	95.81
518.958	103.81
519.173	105.81
519.389	110.81
519.605	108.81
519.82	108.81
520.036	106.81
520.251	114.81
520.467	98.81
520.682	118.81
520.898	99.81
521.113	99.81
521.329	93.81
521.544	99.81
521.76	102.81
521.975	85.81
522.19	104.81
522.406	97.81
522.621	102.81
522.836	113.81
523.052	107.81
523.267	96.81
523.482	107.81
523.698	120.81
523.913	108.81
524.128	109.81
524.343	109.81
524.559	115.81
524.774	116.81
524.989	121.81
525.204	121.81
525.419	106.81
525.634	105.81
525.849	103.81
526.064	106.81
526.28	99.81
526.495	85.81
526.71	97.81
526.925	91.81
527.14	91.81
527.355	87.81
527.57	76.81
527.785	84.81
527.999	106.81
528.214	105.81
528.429	103.81
528.644	120.81
528.859	119.81
529.074	153.81
529.289	186.81
529.503	159.81
529.718	143.81
529.933	132.81
530.148	95.81
530.363	107.81
530.577	78.81
530.792	71.81
531.007	72.81
531.221	92.81
531.436	82.81
531.651	81.81
531.865	84.81
532.08	87.81
532.295	94.81
532.509	87.81
532.724	86.81
532.938	86.81
533.153	113.81
533.367	102.81
533.582	116.81
533.796	123.81
534.011	128.81
534.225	98.81
534.44	73.81
534.654	94.81
534.868	95.81
535.083	102.81
535.297	97.81
535.511	110.81
535.726	113.81
535.94	92.81
536.154	92.81
536.369	79.81
536.583	94.81
536.797	86.81
537.011	82.81
537.225	89.81
537.44	96.81
537.654	95.81
537.868	97.81
538.082	90.81
538.296	92.81
538.51	115.81
538.724	101.81
538.938	125.81
539.153	120.81
539.367	122.81
539.581	115.81
539.795	98.81
540.009	100.81
540.222	82.81
540.436	114.81
540.65	123.81
540.864	147.81
541.078	141.81
541.292	141.81
541.506	133.81
541.72	181.81
541.934	177.81
542.147	184.81
542.361	188.81
542.575	154.81
542.789	147.81
543.002	152.81
543.216	127.81
543.43	124.81
543.644	124.81
543.857	139.81
544.071	164.81
544.285	161.81
544.498	156.81
544.712	168.81
544.925	155.81
545.139	152.81
545.352	157.81
545.566	134.81
545.779	167.81
545.993	155.81
546.206	152.81
546.42	183.81
546.633	164.81
546.847	150.81
547.06	162.81
547.274	173.81
547.487	164.81
547.7	173.81
547.914	176.81
548.127	167.81
548.34	162.81
548.554	150.81
548.767	154.81
548.98	158.81
549.193	149.81
549.407	157.81
549.62	140.81
549.833	143.81
550.046	145.81
550.259	157.81
550.473	165.81
550.686	152.81
550.899	147.81
551.112	141.81
551.325	141.81
551.538	137.81
551.751	139.81
551.964	120.81
552.177	137.81
552.39	140.81
552.603	145.81
552.816	139.81
553.029	144.81
553.242	143.81
553.455	148.81
553.667	153.81
553.88	148.81
554.093	145.81
554.306	144.81
554.519	141.81
554.732	141.81
554.944	138.81
555.157	146.81
555.37	142.81
555.583	132.81
555.795	142.81
556.008	148.81
556.221	133.81
556.433	134.81
556.646	140.81
556.859	140.81
557.071	145.81
557.284	143.81
557.496	137.81
557.709	135.81
557.921	133.81
558.134	143.81
558.346	140.81
558.559	136.81
558.771	131.81
558.984	119.81
559.196	143.81
559.409	136.81
559.621	125.81
559.833	121.81
560.046	138.81
560.258	138.81
560.47	134.81
560.683	125.81
560.895	139.81
561.107	129.81
561.32	139.81
561.532	129.81
561.744	123.81
561.956	132.81
562.168	132.81
562.381	129.81
562.593	140.81
562.805	127.81
563.017	137.81
563.229	117.81
563.441	117.81
563.653	128.81
563.865	126.81
564.077	128.81
564.289	111.81
564.501	143.81
564.713	116.81
564.925	122.81
565.137	117.81
565.349	115.81
565.561	104.81
565.773	114.81
565.985	134.81
566.197	126.81
566.408	126.81
566.62	118.81
566.832	119.81
567.044	118.81
567.255	114.81
567.467	117.81
567.679	107.81
567.891	101.81
568.102	103.81
568.314	101.81
568.526	87.81
568.737	86.81
568.949	90.81
569.161	102.81
569.372	90.81
569.584	97.81
569.795	88.81
570.007	79.81
570.218	88.81
570.43	86.81
570.641	86.81
570.853	92.81
571.064	95.81
571.276	110.81
571.487	97.81
571.698	110.81
571.91	114.81
572.121	97.81
572.333	107.81
572.544	102.81
572.755	93.81
572.966	100.81
573.178	92.81
573.389	89.81
573.6	88.81
573.811	94.81
574.023	95.81
574.234	102.81
574.445	106.81
574.656	93.81
574.867	103.81
575.078	96.81
575.289	102.81
575.501	90.81
575.712	99.81
575.923	93.81
576.134	108.81
576.345	107.81
576.556	117.81
576.767	114.81
576.978	97.81
577.188	95.81
577.399	99.81
577.61	88.81
577.821	85.81
578.032	83.81
578.243	100.81
578.454	120.81
578.665	86.81
578.875	98.81
579.086	94.81
579.297	96.81
579.508	89.81
579.718	93.81
579.929	87.81
580.14	83.81
580.35	64.81
580.561	79.81
580.772	93.81
580.982	98.81
581.193	86.81
581.403	95.81
581.614	82.81
581.825	94.81
582.035	92.81
582.246	92.81
582.456	90.81
582.667	92.81
582.877	82.81
583.087	98.81
583.298	83.81
583.508	89.81
583.719	81.81
583.929	89.81
584.139	97.81
584.35	91.81
584.56	93.81
584.77	78.81
584.981	89.81
585.191	83.81
585.401	92.81
585.611	86.81
585.821	91.81
586.032	94.81
586.242	81.81
586.452	82.81
586.662	81.81
586.872	93.81
587.082	85.81
587.292	75.81
587.502	91.81
587.713	91.81
587.923	78.81
588.133	89.81
588.343	91.81
588.553	97.81
588.762	98.81
588.972	88.81
589.182	73.81
589.392	83.81
589.602	74.81
589.812	100.81
590.022	90.81
590.232	89.81
590.441	82.81
590.651	87.81
590.861	87.81
591.071	87.81
591.281	93.81
591.49	77.81
591.7	96.81
591.91	85.81
592.119	85.81
592.329	81.81
592.539	97.81
592.748	96.81
592.958	85.81
593.167	101.81
593.377	79.81
593.587	103.81
593.796	93.81
594.006	89.81
594.215	92.81
594.424	98.81
594.634	88.81
594.843	99.81
595.053	98.81
595.262	84.81
595.472	86.81
595.681	104.81
595.89	86.81
596.1	81.81
596.309	90.81
596.518	94.81
596.727	114.81
596.937	107.81
597.146	104.81
597.355	95.81
597.564	83.81
597.774	80.81
597.983	99.81
598.192	77.81
598.401	89.81
598.61	100.81
598.819	95.81
599.028	91.81
599.237	101.81
599.446	76.81
599.655	99.81
599.864	89.81
600.073	91.81
600.282	88.81
600.491	108.81
600.7	104.81
600.909	85.81
601.118	114.81
601.327	118.81
601.536	115.81
601.745	90.81
601.953	106.81
602.162	96.81
602.371	98.81
602.58	103.81
602.789	103.81
602.997	104.81
603.206	116.81
603.415	114.81
603.623	108.81
603.832	124.81
604.041	101.81
604.249	105.81
604.458	91.81
604.666	96.81
604.875	107.81
605.084	107.81
605.292	103.81
605.501	100.81
605.709	117.81
605.918	109.81
606.126	122.81
606.334	100.81
606.543	124.81
606.751	108.81
606.96	124.81
607.168	114.81
607.376	104.81
607.585	126.81
607.793	114.81
608.001	121.81
608.21	114.81
608.418	117.81
608.626	122.81
608.834	119.81
609.043	104.81
609.251	114.81
609.459	117.81
609.667	116.81
609.875	104.81
610.083	111.81
610.291	101.81
610.499	123.81
610.707	110.81
610.916	118.81
611.124	116.81
611.332	122.81
611.54	105.81
611.748	114.81
611.955	107.81
612.163	106.81
612.371	117.81
612.579	116.81
612.787	119.81
612.995	123.81
613.203	96.81
613.411	119.81
613.618	95.81
613.826	108.81
614.034	108.81
614.242	119.81
614.449	109.81
614.657	106.81
614.865	113.81
615.072	97.81
615.28	114.81
615.488	112.81
615.695	108.81
615.903	106.81
616.111	109.81
616.318	113.81
616.526	119.81
616.733	101.81
616.941	106.81
617.148	123.81
617.356	116.81
617.563	123.81
617.771	127.81
617.978	98.81
618.185	105.81
618.393	117.81
618.6	106.81
618.807	114.81
619.015	127.81
619.222	106.81
619.429	112.81
619.637	103.81
619.844	100.81
620.051	104.81
620.258	102.81
620.466	108.81
620.673	106.81
620.88	106.81
621.087	98.81
621.294	109.81
621.501	97.81
621.708	101.81
621.915	106.81
622.122	102.81
622.329	113.81
622.536	115.81
622.743	124.81
622.95	115.81
623.157	104.81
623.364	108.81
623.571	120.81
623.778	106.81
623.985	112.81
624.192	114.81
624.399	106.81
624.606	92.81
624.812	115.81
625.019	106.81
625.226	103.81
625.433	115.81
625.639	93.81
625.846	98.81
626.053	93.81
626.259	95.81
626.466	104.81
626.673	89.81
626.879	108.81
627.086	124.81
627.293	110.81
627.499	130.81
627.706	100.81
627.912	114.81
628.119	104.81
628.325	106.81
628.532	108.81
628.738	96.81
628.945	98.81
629.151	121.81
629.357	114.81
629.564	98.81
629.77	102.81
629.976	121.81
630.183	102.81
630.389	98.81
630.595	92.81
630.802	105.81
631.008	102.81
631.214	93.81
631.42	100.81
631.627	96.81
631.833	96.81
632.039	97.81
632.245	104.81
632.451	101.81
632.657	92.81
632.863	91.81
633.069	102.81
633.275	100.81
633.481	100.81
633.688	99.81
633.893	104.81
634.099	104.81
634.305	100.81
634.511	85.81
634.717	85.81
634.923	94.81
635.129	102.81
635.335	101.81
635.541	104.81
635.747	101.81
635.952	126.81
636.158	107.81
636.364	113.81
636.57	91.81
636.775	117.81
636.981	117.81
637.187	118.81
637.392	100.81
637.598	107.81
637.804	114.81
638.009	117.81
638.215	124.81
638.421	105.81
638.626	103.81
638.832	107.81
639.037	92.81
639.243	88.81
639.448	112.81
639.654	93.81
639.859	104.81
640.065	91.81
640.27	97.81
640.475	95.81
640.681	100.81
640.886	92.81
641.091	95.81
641.297	103.81
641.502	105.81
641.707	115.81
641.913	124.81
642.118	109.81
642.323	89.81
642.528	102.81
642.733	109.81
642.939	107.81
643.144	94.81
643.349	107.81
643.554	109.81
643.759	101.81
643.964	96.81
644.169	103.81
644.374	90.81
644.579	107.81
644.784	108.81
644.989	103.81
645.194	87.81
645.399	97.81
645.604	83.81
645.809	98.81
646.014	101.81
646.219	109.81
646.423	105.81
646.628	92.81
646.833	90.81
647.038	97.81
647.243	98.81
647.447	105.81
647.652	93.81
647.857	97.81
648.062	102.81
648.266	86.81
648.471	96.81
648.676	96.81
648.88	83.81
649.085	86.81
649.289	87.81
649.494	86.81
649.698	116.81
649.903	109.81
650.107	94.81
650.312	109.81
650.516	74.81
650.721	115.81
650.925	100.81
651.13	88.81
651.334	98.81
651.539	115.81
651.743	100.81
651.947	105.81
652.152	95.81
652.356	97.81
652.56	85.81
652.764	104.81
652.969	102.81
653.173	91.81
653.377	104.81
653.581	97.81
653.785	105.81
653.99	90.81
654.194	113.81
654.398	85.81
654.602	89.81
654.806	86.81
655.01	106.81
655.214	93.81
655.418	87.81
655.622	108.81
655.826	101.81
656.03	108.81
656.234	100.81
656.438	80.81
656.642	86.81
656.846	97.81
657.049	92.81
657.253	99.81
657.457	83.81
657.661	88.81
657.865	89.81
658.068	72.81
658.272	78.81
658.476	86.81
658.68	80.81
658.883	92.81
659.087	87.81
659.291	83.81
659.494	87.81
659.698	95.81
659.901	71.81
660.105	90.81
660.309	76.81
660.512	89.81
660.716	93.81
660.919	87.81
661.123	95.81
661.326	96.81
661.53	79.81
661.733	91.81
661.936	84.81
662.14	95.81
662.343	97.81
662.546	95.81
662.75	90.81
662.953	84.81
663.156	78.81
663.36	76.81
663.563	77.81
663.766	101.81
663.969	94.81
664.173	78.81
664.376	83.81
664.579	80.81
664.782	84.81
664.985	84.81
665.188	94.81
665.391	103.81
665.594	92.81
665.797	80.81
666	74.81
666.203	86.81
666.406	82.81
666.609	95.81
666.812	92.81
667.015	80.81
667.218	89.81
667.421	88.81
667.624	89.81
667.827	72.81
668.03	90.81
668.232	85.81
668.435	82.81
668.638	82.81
668.841	96.81
669.043	90.81
669.246	78.81
669.449	82.81
669.651	90.81
669.854	85.81
670.057	78.81
670.259	88.81
670.462	77.81
670.665	85.81
670.867	88.81
671.07	90.81
671.272	83.81
671.475	85.81
671.677	78.81
671.88	81.81
672.082	78.81
672.284	99.81
672.487	89.81
672.689	74.81
672.892	79.81
