Data from Location4.07152019.Energy5.Lamp.07192019.3%Agarose_HRD10591_16-21-09-926.txt Node
Date: Fri Jul 19 16:21:09 EDT 2019
User: cochatt
Spectrometer: HR+D1059
Trigger mode: 1
Integration Time (sec): 1.000000E-1
Scans to average: 1
Electric dark correction enabled: true
Nonlinearity correction enabled: false
Boxcar width: 0
XAxis mode: Wavelengths
Number of Pixels in Spectrum: 2048
>>>>>Begin Spectral Data<<<<<
223.165	-21.31
223.4	-21.31
223.635	-21.31
223.869	-4.31
224.104	-20.31
224.338	-11.31
224.573	-15.31
224.808	-12.31
225.042	-15.31
225.277	1.69
225.511	-7.31
225.746	13.69
225.98	7.69
226.215	9.69
226.449	16.69
226.683	9.69
226.918	26.69
227.152	21.69
227.387	26.69
227.621	45.69
227.856	61.69
228.09	36.69
228.324	38.69
228.559	48.69
228.793	44.69
229.027	54.69
229.262	63.69
229.496	63.69
229.73	67.69
229.964	59.69
230.199	52.69
230.433	80.69
230.667	88.69
230.901	71.69
231.136	75.69
231.37	79.69
231.604	81.69
231.838	70.69
232.072	73.69
232.306	76.69
232.541	68.69
232.775	67.69
233.009	69.69
233.243	60.69
233.477	80.69
233.711	84.69
233.945	70.69
234.179	85.69
234.413	75.69
234.647	69.69
234.881	76.69
235.115	75.69
235.349	72.69
235.583	77.69
235.817	71.69
236.051	82.69
236.285	75.69
236.519	77.69
236.753	83.69
236.987	79.69
237.221	61.69
237.455	70.69
237.689	86.69
237.922	71.69
238.156	60.69
238.39	62.69
238.624	74.69
238.858	70.69
239.091	62.69
239.325	82.69
239.559	79.69
239.793	66.69
240.027	82.69
240.26	69.69
240.494	66.69
240.728	63.69
240.961	63.69
241.195	71.69
241.429	73.69
241.662	78.69
241.896	79.69
242.13	74.69
242.363	77.69
242.597	65.69
242.83	79.69
243.064	87.69
243.298	71.69
243.531	73.69
243.765	76.69
243.998	82.69
244.232	76.69
244.465	82.69
244.699	84.69
244.932	70.69
245.166	73.69
245.399	75.69
245.633	68.69
245.866	59.69
246.099	76.69
246.333	80.69
246.566	84.69
246.8	72.69
247.033	82.69
247.266	78.69
247.5	74.69
247.733	77.69
247.966	65.69
248.2	72.69
248.433	78.69
248.666	61.69
248.899	67.69
249.133	76.69
249.366	70.69
249.599	67.69
249.832	79.69
250.066	75.69
250.299	70.69
250.532	85.69
250.765	70.69
250.998	70.69
251.231	70.69
251.465	82.69
251.698	84.69
251.931	84.69
252.164	56.69
252.397	83.69
252.63	71.69
252.863	67.69
253.096	71.69
253.329	78.69
253.562	72.69
253.795	75.69
254.028	87.69
254.261	76.69
254.494	70.69
254.727	91.69
254.96	82.69
255.193	74.69
255.426	75.69
255.659	67.69
255.892	69.69
256.124	76.69
256.357	69.69
256.59	71.69
256.823	77.69
257.056	60.69
257.289	63.69
257.521	62.69
257.754	72.69
257.987	74.69
258.22	83.69
258.452	69.69
258.685	76.69
258.918	80.69
259.151	69.69
259.383	78.69
259.616	71.69
259.849	80.69
260.081	83.69
260.314	78.69
260.547	79.69
260.779	77.69
261.012	81.69
261.244	81.69
261.477	80.69
261.71	80.69
261.942	83.69
262.175	76.69
262.407	75.69
262.64	86.69
262.872	87.69
263.105	84.69
263.337	76.69
263.57	71.69
263.802	83.69
264.035	73.69
264.267	66.69
264.499	80.69
264.732	69.69
264.964	76.69
265.197	77.69
265.429	76.69
265.661	70.69
265.894	83.69
266.126	85.69
266.358	86.69
266.591	69.69
266.823	64.69
267.055	75.69
267.287	73.69
267.52	91.69
267.752	76.69
267.984	84.69
268.216	84.69
268.448	80.69
268.681	78.69
268.913	80.69
269.145	83.69
269.377	78.69
269.609	65.69
269.841	86.69
270.073	85.69
270.306	76.69
270.538	74.69
270.77	65.69
271.002	85.69
271.234	79.69
271.466	84.69
271.698	86.69
271.93	76.69
272.162	75.69
272.394	90.69
272.626	81.69
272.858	81.69
273.09	84.69
273.322	73.69
273.553	77.69
273.785	78.69
274.017	61.69
274.249	82.69
274.481	88.69
274.713	83.69
274.945	76.69
275.176	86.69
275.408	69.69
275.64	79.69
275.872	79.69
276.104	77.69
276.335	82.69
276.567	71.69
276.799	95.69
277.031	83.69
277.262	73.69
277.494	73.69
277.726	88.69
277.957	78.69
278.189	70.69
278.421	71.69
278.652	63.69
278.884	83.69
279.115	74.69
279.347	85.69
279.579	81.69
279.81	84.69
280.042	87.69
280.273	83.69
280.505	73.69
280.736	72.69
280.968	94.69
281.199	79.69
281.431	99.69
281.662	72.69
281.894	90.69
282.125	91.69
282.356	95.69
282.588	80.69
282.819	76.69
283.051	79.69
283.282	80.69
283.513	79.69
283.745	78.69
283.976	82.69
284.207	69.69
284.439	68.69
284.67	80.69
284.901	79.69
285.132	77.69
285.364	77.69
285.595	56.69
285.826	77.69
286.057	84.69
286.288	80.69
286.52	76.69
286.751	80.69
286.982	76.69
287.213	65.69
287.444	83.69
287.675	77.69
287.906	74.69
288.138	66.69
288.369	78.69
288.6	73.69
288.831	78.69
289.062	81.69
289.293	84.69
289.524	65.69
289.755	78.69
289.986	73.69
290.217	78.69
290.448	93.69
290.679	80.69
290.91	84.69
291.141	96.69
291.371	76.69
291.602	76.69
291.833	77.69
292.064	75.69
292.295	93.69
292.526	70.69
292.757	71.69
292.987	76.69
293.218	80.69
293.449	72.69
293.68	91.69
293.91	73.69
294.141	70.69
294.372	81.69
294.603	80.69
294.833	79.69
295.064	76.69
295.295	77.69
295.525	81.69
295.756	80.69
295.987	70.69
296.217	73.69
296.448	87.69
296.679	65.69
296.909	77.69
297.14	64.69
297.37	78.69
297.601	77.69
297.831	87.69
298.062	76.69
298.292	79.69
298.523	80.69
298.753	71.69
298.984	76.69
299.214	78.69
299.445	73.69
299.675	77.69
299.905	91.69
300.136	83.69
300.366	68.69
300.597	75.69
300.827	67.69
301.057	82.69
301.288	75.69
301.518	74.69
301.748	82.69
301.979	69.69
302.209	70.69
302.439	83.69
302.669	83.69
302.9	84.69
303.13	79.69
303.36	80.69
303.59	76.69
303.82	71.69
304.051	83.69
304.281	81.69
304.511	81.69
304.741	94.69
304.971	71.69
305.201	73.69
305.431	81.69
305.661	77.69
305.891	89.69
306.121	87.69
306.352	93.69
306.582	88.69
306.812	69.69
307.042	94.69
307.272	74.69
307.502	84.69
307.731	81.69
307.961	94.69
308.191	87.69
308.421	78.69
308.651	89.69
308.881	88.69
309.111	71.69
309.341	80.69
309.571	81.69
309.8	79.69
310.03	87.69
310.26	86.69
310.49	84.69
310.72	72.69
310.949	78.69
311.179	84.69
311.409	83.69
311.639	79.69
311.868	83.69
312.098	83.69
312.328	72.69
312.557	89.69
312.787	79.69
313.017	69.69
313.246	76.69
313.476	73.69
313.706	78.69
313.935	82.69
314.165	84.69
314.394	94.69
314.624	74.69
314.853	78.69
315.083	76.69
315.312	87.69
315.542	85.69
315.771	81.69
316.001	86.69
316.23	79.69
316.46	71.69
316.689	70.69
316.919	82.69
317.148	67.69
317.377	72.69
317.607	74.69
317.836	87.69
318.065	81.69
318.295	92.69
318.524	86.69
318.753	79.69
318.983	91.69
319.212	70.69
319.441	77.69
319.67	63.69
319.9	68.69
320.129	72.69
320.358	83.69
320.587	82.69
320.816	84.69
321.046	71.69
321.275	78.69
321.504	79.69
321.733	84.69
321.962	77.69
322.191	67.69
322.42	71.69
322.649	69.69
322.878	85.69
323.108	82.69
323.337	84.69
323.566	84.69
323.795	83.69
324.024	92.69
324.253	71.69
324.482	79.69
324.71	84.69
324.939	78.69
325.168	71.69
325.397	78.69
325.626	72.69
325.855	62.69
326.084	73.69
326.313	68.69
326.542	73.69
326.77	71.69
326.999	83.69
327.228	81.69
327.457	71.69
327.686	69.69
327.914	87.69
328.143	78.69
328.372	91.69
328.6	73.69
328.829	81.69
329.058	80.69
329.287	82.69
329.515	81.69
329.744	94.69
329.972	83.69
330.201	87.69
330.43	82.69
330.658	76.69
330.887	75.69
331.115	85.69
331.344	83.69
331.572	76.69
331.801	75.69
332.03	76.69
332.258	78.69
332.486	77.69
332.715	73.69
332.943	85.69
333.172	76.69
333.4	68.69
333.629	77.69
333.857	85.69
334.085	75.69
334.314	78.69
334.542	87.69
334.771	72.69
334.999	73.69
335.227	78.69
335.455	74.69
335.684	74.69
335.912	74.69
336.14	82.69
336.369	93.69
336.597	80.69
336.825	83.69
337.053	82.69
337.281	72.69
337.51	76.69
337.738	94.69
337.966	71.69
338.194	87.69
338.422	85.69
338.65	73.69
338.878	71.69
339.106	81.69
339.334	79.69
339.562	80.69
339.79	82.69
340.018	77.69
340.246	74.69
340.474	74.69
340.702	79.69
340.93	77.69
341.158	99.69
341.386	84.69
341.614	73.69
341.842	68.69
342.07	72.69
342.298	84.69
342.526	80.69
342.754	71.69
342.981	87.69
343.209	67.69
343.437	75.69
343.665	87.69
343.893	87.69
344.12	63.69
344.348	75.69
344.576	77.69
344.804	79.69
345.031	85.69
345.259	90.69
345.487	92.69
345.714	70.69
345.942	82.69
346.17	94.69
346.397	73.69
346.625	84.69
346.853	79.69
347.08	68.69
347.308	79.69
347.535	66.69
347.763	80.69
347.99	76.69
348.218	76.69
348.445	64.69
348.673	72.69
348.9	82.69
349.128	88.69
349.355	77.69
349.583	82.69
349.81	83.69
350.037	73.69
350.265	72.69
350.492	80.69
350.72	86.69
350.947	81.69
351.174	73.69
351.402	75.69
351.629	78.69
351.856	80.69
352.083	92.69
352.311	75.69
352.538	72.69
352.765	67.69
352.992	78.69
353.22	78.69
353.447	68.69
353.674	72.69
353.901	76.69
354.128	91.69
354.355	79.69
354.583	73.69
354.81	71.69
355.037	80.69
355.264	73.69
355.491	72.69
355.718	80.69
355.945	71.69
356.172	83.69
356.399	75.69
356.626	76.69
356.853	71.69
357.08	86.69
357.307	85.69
357.534	88.69
357.761	69.69
357.988	75.69
358.215	82.69
358.441	72.69
358.668	82.69
358.895	71.69
359.122	71.69
359.349	80.69
359.576	82.69
359.802	91.69
360.029	91.69
360.256	84.69
360.483	81.69
360.709	98.69
360.936	79.69
361.163	73.69
361.39	76.69
361.616	84.69
361.843	78.69
362.07	83.69
362.296	87.69
362.523	79.69
362.749	86.69
362.976	71.69
363.203	88.69
363.429	80.69
363.656	82.69
363.882	79.69
364.109	79.69
364.335	74.69
364.562	85.69
364.788	83.69
365.015	78.69
365.241	85.69
365.468	65.69
365.694	97.69
365.92	94.69
366.147	85.69
366.373	85.69
366.599	86.69
366.826	63.69
367.052	81.69
367.278	83.69
367.505	87.69
367.731	84.69
367.957	86.69
368.184	89.69
368.41	94.69
368.636	86.69
368.862	83.69
369.089	78.69
369.315	77.69
369.541	89.69
369.767	84.69
369.993	78.69
370.219	77.69
370.445	85.69
370.672	81.69
370.898	72.69
371.124	90.69
371.35	94.69
371.576	87.69
371.802	73.69
372.028	85.69
372.254	93.69
372.48	90.69
372.706	80.69
372.932	89.69
373.158	95.69
373.384	85.69
373.61	78.69
373.835	83.69
374.061	90.69
374.287	76.69
374.513	74.69
374.739	82.69
374.965	97.69
375.191	95.69
375.416	84.69
375.642	83.69
375.868	89.69
376.094	95.69
376.319	85.69
376.545	79.69
376.771	92.69
376.997	88.69
377.222	84.69
377.448	76.69
377.674	77.69
377.899	88.69
378.125	80.69
378.35	86.69
378.576	85.69
378.802	109.69
379.027	69.69
379.253	82.69
379.478	81.69
379.704	77.69
379.929	85.69
380.155	87.69
380.38	85.69
380.606	80.69
380.831	89.69
381.057	92.69
381.282	101.69
381.507	95.69
381.733	86.69
381.958	91.69
382.184	72.69
382.409	82.69
382.634	93.69
382.86	78.69
383.085	96.69
383.31	85.69
383.535	95.69
383.761	68.69
383.986	87.69
384.211	88.69
384.436	79.69
384.662	80.69
384.887	80.69
385.112	82.69
385.337	80.69
385.562	77.69
385.787	100.69
386.013	105.69
386.238	88.69
386.463	92.69
386.688	104.69
386.913	81.69
387.138	98.69
387.363	91.69
387.588	87.69
387.813	88.69
388.038	102.69
388.263	83.69
388.488	84.69
388.713	94.69
388.938	89.69
389.163	103.69
389.387	88.69
389.612	103.69
389.837	102.69
390.062	110.69
390.287	93.69
390.512	96.69
390.736	90.69
390.961	93.69
391.186	96.69
391.411	101.69
391.636	108.69
391.86	91.69
392.085	100.69
392.31	101.69
392.534	91.69
392.759	113.69
392.984	83.69
393.208	98.69
393.433	84.69
393.658	94.69
393.882	86.69
394.107	93.69
394.331	104.69
394.556	99.69
394.78	89.69
395.005	101.69
395.229	101.69
395.454	112.69
395.678	100.69
395.903	89.69
396.127	107.69
396.352	99.69
396.576	98.69
396.801	102.69
397.025	104.69
397.249	105.69
397.474	112.69
397.698	107.69
397.922	77.69
398.147	94.69
398.371	94.69
398.595	87.69
398.82	86.69
399.044	103.69
399.268	99.69
399.492	115.69
399.717	111.69
399.941	108.69
400.165	102.69
400.389	102.69
400.613	103.69
400.837	106.69
401.062	109.69
401.286	100.69
401.51	84.69
401.734	100.69
401.958	111.69
402.182	108.69
402.406	114.69
402.63	130.69
402.854	104.69
403.078	109.69
403.302	117.69
403.526	108.69
403.75	99.69
403.974	121.69
404.198	108.69
404.422	113.69
404.645	113.69
404.869	124.69
405.093	103.69
405.317	95.69
405.541	109.69
405.765	115.69
405.988	108.69
406.212	117.69
406.436	103.69
406.66	119.69
406.883	104.69
407.107	126.69
407.331	108.69
407.555	111.69
407.778	103.69
408.002	111.69
408.226	102.69
408.449	110.69
408.673	116.69
408.896	115.69
409.12	107.69
409.344	112.69
409.567	113.69
409.791	109.69
410.014	114.69
410.238	96.69
410.461	113.69
410.685	95.69
410.908	121.69
411.132	120.69
411.355	128.69
411.578	123.69
411.802	126.69
412.025	97.69
412.249	104.69
412.472	110.69
412.695	119.69
412.919	127.69
413.142	118.69
413.365	116.69
413.589	104.69
413.812	103.69
414.035	119.69
414.258	117.69
414.482	119.69
414.705	116.69
414.928	126.69
415.151	119.69
415.374	116.69
415.597	110.69
415.821	115.69
416.044	113.69
416.267	125.69
416.49	122.69
416.713	104.69
416.936	110.69
417.159	113.69
417.382	128.69
417.605	123.69
417.828	132.69
418.051	117.69
418.274	107.69
418.497	123.69
418.72	133.69
418.943	152.69
419.166	129.69
419.389	123.69
419.611	130.69
419.834	125.69
420.057	126.69
420.28	123.69
420.503	131.69
420.726	128.69
420.948	117.69
421.171	136.69
421.394	141.69
421.617	122.69
421.839	129.69
422.062	130.69
422.285	116.69
422.507	125.69
422.73	108.69
422.953	115.69
423.175	115.69
423.398	118.69
423.621	114.69
423.843	125.69
424.066	129.69
424.288	144.69
424.511	143.69
424.733	124.69
424.956	145.69
425.178	138.69
425.401	135.69
425.623	143.69
425.846	125.69
426.068	103.69
426.291	121.69
426.513	121.69
426.735	136.69
426.958	119.69
427.18	131.69
427.402	128.69
427.625	126.69
427.847	132.69
428.069	115.69
428.292	133.69
428.514	120.69
428.736	123.69
428.958	119.69
429.181	138.69
429.403	129.69
429.625	124.69
429.847	123.69
430.069	119.69
430.292	127.69
430.514	109.69
430.736	118.69
430.958	134.69
431.18	118.69
431.402	116.69
431.624	127.69
431.846	115.69
432.068	105.69
432.29	93.69
432.512	108.69
432.734	122.69
432.956	127.69
433.178	129.69
433.4	120.69
433.622	131.69
433.844	124.69
434.066	114.69
434.287	98.69
434.509	99.69
434.731	82.69
434.953	109.69
435.175	110.69
435.397	112.69
435.618	108.69
435.84	117.69
436.062	120.69
436.284	114.69
436.505	117.69
436.727	126.69
436.949	119.69
437.17	127.69
437.392	123.69
437.614	97.69
437.835	113.69
438.057	112.69
438.278	125.69
438.5	115.69
438.721	127.69
438.943	119.69
439.165	134.69
439.386	131.69
439.608	141.69
439.829	122.69
440.05	132.69
440.272	141.69
440.493	142.69
440.715	119.69
440.936	136.69
441.158	123.69
441.379	121.69
441.6	139.69
441.822	140.69
442.043	143.69
442.264	130.69
442.486	127.69
442.707	139.69
442.928	129.69
443.149	127.69
443.371	139.69
443.592	133.69
443.813	122.69
444.034	128.69
444.255	125.69
444.476	106.69
444.698	140.69
444.919	128.69
445.14	252.69
445.361	179.69
445.582	139.69
445.803	147.69
446.024	132.69
446.245	143.69
446.466	147.69
446.687	146.69
446.908	136.69
447.129	145.69
447.35	144.69
447.571	149.69
447.792	127.69
448.013	136.69
448.234	129.69
448.455	135.69
448.675	117.69
448.896	121.69
449.117	143.69
449.338	128.69
449.559	124.69
449.779	140.69
450	140.69
450.221	120.69
450.442	120.69
450.662	136.69
450.883	128.69
451.104	121.69
451.324	115.69
451.545	129.69
451.766	133.69
451.986	126.69
452.207	118.69
452.428	120.69
452.648	119.69
452.869	110.69
453.089	120.69
453.31	110.69
453.53	98.69
453.751	98.69
453.971	95.69
454.192	84.69
454.412	99.69
454.633	99.69
454.853	121.69
455.073	110.69
455.294	94.69
455.514	126.69
455.734	120.69
455.955	120.69
456.175	101.69
456.395	117.69
456.616	99.69
456.836	111.69
457.056	113.69
457.276	92.69
457.497	102.69
457.717	90.69
457.937	93.69
458.157	96.69
458.377	96.69
458.598	94.69
458.818	93.69
459.038	76.69
459.258	73.69
459.478	86.69
459.698	88.69
459.918	92.69
460.138	108.69
460.358	110.69
460.578	112.69
460.798	109.69
461.018	111.69
461.238	110.69
461.458	109.69
461.678	110.69
461.898	110.69
462.118	112.69
462.338	112.69
462.558	117.69
462.777	100.69
462.997	113.69
463.217	105.69
463.437	111.69
463.657	115.69
463.876	119.69
464.096	98.69
464.316	91.69
464.536	109.69
464.755	106.69
464.975	115.69
465.195	101.69
465.414	95.69
465.634	116.69
465.854	116.69
466.073	122.69
466.293	116.69
466.512	120.69
466.732	117.69
466.951	117.69
467.171	119.69
467.391	127.69
467.61	131.69
467.829	121.69
468.049	126.69
468.268	128.69
468.488	134.69
468.707	124.69
468.927	139.69
469.146	135.69
469.365	130.69
469.585	144.69
469.804	125.69
470.023	136.69
470.243	126.69
470.462	126.69
470.681	137.69
470.901	135.69
471.12	128.69
471.339	143.69
471.558	124.69
471.777	138.69
471.997	119.69
472.216	131.69
472.435	111.69
472.654	116.69
472.873	102.69
473.092	111.69
473.311	125.69
473.53	115.69
473.749	120.69
473.968	127.69
474.187	122.69
474.406	117.69
474.625	116.69
474.844	125.69
475.063	121.69
475.282	98.69
475.501	125.69
475.72	125.69
475.939	129.69
476.158	132.69
476.377	116.69
476.596	117.69
476.814	109.69
477.033	109.69
477.252	119.69
477.471	109.69
477.69	120.69
477.908	129.69
478.127	127.69
478.346	130.69
478.564	128.69
478.783	129.69
479.002	138.69
479.22	126.69
479.439	132.69
479.658	113.69
479.876	120.69
480.095	108.69
480.313	100.69
480.532	121.69
480.751	112.69
480.969	116.69
481.188	87.69
481.406	95.69
481.624	91.69
481.843	93.69
482.061	103.69
482.28	97.69
482.498	101.69
482.717	102.69
482.935	117.69
483.153	122.69
483.372	126.69
483.59	150.69
483.808	141.69
484.027	143.69
484.245	129.69
484.463	161.69
484.681	155.69
484.9	145.69
485.118	133.69
485.336	122.69
485.554	97.69
485.772	88.69
485.99	97.69
486.209	111.69
486.427	107.69
486.645	118.69
486.863	130.69
487.081	143.69
487.299	143.69
487.517	143.69
487.735	159.69
487.953	166.69
488.171	182.69
488.389	177.69
488.607	146.69
488.825	151.69
489.043	124.69
489.261	121.69
489.479	129.69
489.696	140.69
489.914	130.69
490.132	129.69
490.35	137.69
490.568	135.69
490.786	157.69
491.003	171.69
491.221	176.69
491.439	175.69
491.657	196.69
491.874	194.69
492.092	225.69
492.31	228.69
492.527	211.69
492.745	211.69
492.963	194.69
493.18	175.69
493.398	200.69
493.615	176.69
493.833	172.69
494.05	159.69
494.268	168.69
494.485	164.69
494.703	165.69
494.92	165.69
495.138	169.69
495.355	172.69
495.573	163.69
495.79	165.69
496.008	156.69
496.225	143.69
496.442	150.69
496.66	166.69
496.877	152.69
497.094	169.69
497.312	150.69
497.529	147.69
497.746	139.69
497.963	135.69
498.181	130.69
498.398	117.69
498.615	122.69
498.832	103.69
499.049	119.69
499.267	95.69
499.484	129.69
499.701	127.69
499.918	128.69
500.135	149.69
500.352	128.69
500.569	131.69
500.786	140.69
501.003	129.69
501.22	134.69
501.437	124.69
501.654	129.69
501.871	121.69
502.088	134.69
502.305	117.69
502.522	122.69
502.739	105.69
502.956	123.69
503.172	127.69
503.389	114.69
503.606	104.69
503.823	114.69
504.04	114.69
504.256	101.69
504.473	115.69
504.69	119.69
504.907	119.69
505.123	112.69
505.34	112.69
505.557	105.69
505.773	131.69
505.99	113.69
506.207	102.69
506.423	114.69
506.64	120.69
506.856	112.69
507.073	118.69
507.289	129.69
507.506	114.69
507.722	105.69
507.939	112.69
508.155	124.69
508.372	117.69
508.588	112.69
508.805	113.69
509.021	96.69
509.238	100.69
509.454	100.69
509.67	99.69
509.887	96.69
510.103	81.69
510.319	94.69
510.536	72.69
510.752	89.69
510.968	87.69
511.184	78.69
511.401	93.69
511.617	76.69
511.833	72.69
512.049	91.69
512.265	88.69
512.481	89.69
512.698	108.69
512.914	92.69
513.13	104.69
513.346	94.69
513.562	87.69
513.778	90.69
513.994	99.69
514.21	89.69
514.426	79.69
514.642	89.69
514.858	105.69
515.074	102.69
515.29	93.69
515.506	79.69
515.721	92.69
515.937	96.69
516.153	77.69
516.369	84.69
516.585	80.69
516.801	88.69
517.016	94.69
517.232	99.69
517.448	86.69
517.664	88.69
517.879	78.69
518.095	99.69
518.311	79.69
518.527	84.69
518.742	75.69
518.958	86.69
519.173	108.69
519.389	107.69
519.605	107.69
519.82	116.69
520.036	93.69
520.251	104.69
520.467	91.69
520.682	87.69
520.898	99.69
521.113	98.69
521.329	95.69
521.544	91.69
521.76	77.69
521.975	83.69
522.19	84.69
522.406	77.69
522.621	92.69
522.836	111.69
523.052	122.69
523.267	101.69
523.482	118.69
523.698	98.69
523.913	107.69
524.128	104.69
524.343	125.69
524.559	121.69
524.774	111.69
524.989	111.69
525.204	104.69
525.419	118.69
525.634	103.69
525.849	103.69
526.064	109.69
526.28	90.69
526.495	80.69
526.71	78.69
526.925	68.69
527.14	71.69
527.355	84.69
527.57	78.69
527.785	86.69
527.999	102.69
528.214	97.69
528.429	101.69
528.644	121.69
528.859	128.69
529.074	136.69
529.289	163.69
529.503	162.69
529.718	121.69
529.933	109.69
530.148	117.69
530.363	96.69
530.577	83.69
530.792	73.69
531.007	78.69
531.221	86.69
531.436	82.69
531.651	94.69
531.865	86.69
532.08	85.69
532.295	86.69
532.509	85.69
532.724	83.69
532.938	83.69
533.153	76.69
533.367	94.69
533.582	97.69
533.796	131.69
534.011	111.69
534.225	88.69
534.44	86.69
534.654	79.69
534.868	102.69
535.083	92.69
535.297	98.69
535.511	96.69
535.726	105.69
535.94	110.69
536.154	95.69
536.369	73.69
536.583	86.69
536.797	85.69
537.011	89.69
537.225	83.69
537.44	79.69
537.654	78.69
537.868	84.69
538.082	96.69
538.296	99.69
538.51	101.69
538.724	115.69
538.938	116.69
539.153	123.69
539.367	118.69
539.581	127.69
539.795	96.69
540.009	97.69
540.222	76.69
540.436	105.69
540.65	120.69
540.864	127.69
541.078	111.69
541.292	147.69
541.506	139.69
541.72	160.69
541.934	190.69
542.147	191.69
542.361	178.69
542.575	153.69
542.789	151.69
543.002	131.69
543.216	124.69
543.43	119.69
543.644	129.69
543.857	151.69
544.071	143.69
544.285	150.69
544.498	147.69
544.712	151.69
544.925	157.69
545.139	155.69
545.352	156.69
545.566	147.69
545.779	151.69
545.993	156.69
546.206	168.69
546.42	178.69
546.633	177.69
546.847	159.69
547.06	158.69
547.274	156.69
547.487	149.69
547.7	178.69
547.914	149.69
548.127	163.69
548.34	139.69
548.554	144.69
548.767	153.69
548.98	138.69
549.193	141.69
549.407	149.69
549.62	140.69
549.833	160.69
550.046	149.69
550.259	141.69
550.473	142.69
550.686	130.69
550.899	154.69
551.112	138.69
551.325	144.69
551.538	132.69
551.751	130.69
551.964	114.69
552.177	111.69
552.39	134.69
552.603	126.69
552.816	150.69
553.029	133.69
553.242	152.69
553.455	135.69
553.667	152.69
553.88	142.69
554.093	137.69
554.306	135.69
554.519	137.69
554.732	145.69
554.944	155.69
555.157	142.69
555.37	138.69
555.583	134.69
555.795	143.69
556.008	118.69
556.221	139.69
556.433	127.69
556.646	126.69
556.859	127.69
557.071	134.69
557.284	131.69
557.496	135.69
557.709	130.69
557.921	132.69
558.134	128.69
558.346	138.69
558.559	133.69
558.771	126.69
558.984	125.69
559.196	119.69
559.409	118.69
559.621	113.69
559.833	112.69
560.046	127.69
560.258	134.69
560.47	121.69
560.683	121.69
560.895	121.69
561.107	125.69
561.32	113.69
561.532	119.69
561.744	125.69
561.956	137.69
562.168	124.69
562.381	137.69
562.593	114.69
562.805	119.69
563.017	128.69
563.229	125.69
563.441	124.69
563.653	116.69
563.865	111.69
564.077	110.69
564.289	114.69
564.501	120.69
564.713	112.69
564.925	108.69
565.137	127.69
565.349	118.69
565.561	103.69
565.773	113.69
565.985	113.69
566.197	111.69
566.408	122.69
566.62	115.69
566.832	112.69
567.044	107.69
567.255	117.69
567.467	98.69
567.679	95.69
567.891	97.69
568.102	101.69
568.314	98.69
568.526	86.69
568.737	79.69
568.949	73.69
569.161	72.69
569.372	81.69
569.584	98.69
569.795	85.69
570.007	88.69
570.218	86.69
570.43	80.69
570.641	92.69
570.853	88.69
571.064	94.69
571.276	83.69
571.487	103.69
571.698	119.69
571.91	106.69
572.121	94.69
572.333	100.69
572.544	102.69
572.755	110.69
572.966	70.69
573.178	87.69
573.389	98.69
573.6	90.69
573.811	85.69
574.023	86.69
574.234	96.69
574.445	85.69
574.656	81.69
574.867	107.69
575.078	91.69
575.289	93.69
575.501	84.69
575.712	87.69
575.923	96.69
576.134	93.69
576.345	105.69
576.556	110.69
576.767	98.69
576.978	91.69
577.188	102.69
577.399	90.69
577.61	102.69
577.821	84.69
578.032	79.69
578.243	86.69
578.454	86.69
578.665	84.69
578.875	85.69
579.086	75.69
579.297	79.69
579.508	96.69
579.718	72.69
579.929	72.69
580.14	81.69
580.35	91.69
580.561	81.69
580.772	95.69
580.982	77.69
581.193	84.69
581.403	92.69
581.614	87.69
581.825	98.69
582.035	102.69
582.246	89.69
582.456	75.69
582.667	87.69
582.877	76.69
583.087	81.69
583.298	74.69
583.508	88.69
583.719	93.69
583.929	75.69
584.139	89.69
584.35	80.69
584.56	92.69
584.77	73.69
584.981	82.69
585.191	90.69
585.401	75.69
585.611	83.69
585.821	94.69
586.032	88.69
586.242	90.69
586.452	79.69
586.662	83.69
586.872	70.69
587.082	73.69
587.292	66.69
587.502	82.69
587.713	73.69
587.923	90.69
588.133	87.69
588.343	105.69
588.553	79.69
588.762	80.69
588.972	82.69
589.182	86.69
589.392	96.69
589.602	68.69
589.812	68.69
590.022	86.69
590.232	84.69
590.441	84.69
590.651	84.69
590.861	94.69
591.071	72.69
591.281	78.69
591.49	84.69
591.7	85.69
591.91	91.69
592.119	83.69
592.329	73.69
592.539	91.69
592.748	99.69
592.958	76.69
593.167	86.69
593.377	81.69
593.587	70.69
593.796	77.69
594.006	80.69
594.215	83.69
594.424	78.69
594.634	90.69
594.843	89.69
595.053	100.69
595.262	93.69
595.472	90.69
595.681	87.69
595.89	103.69
596.1	80.69
596.309	73.69
596.518	86.69
596.727	79.69
596.937	83.69
597.146	100.69
597.355	95.69
597.564	93.69
597.774	84.69
597.983	85.69
598.192	86.69
598.401	80.69
598.61	89.69
598.819	84.69
599.028	104.69
599.237	84.69
599.446	82.69
599.655	95.69
599.864	98.69
600.073	95.69
600.282	107.69
600.491	93.69
600.7	104.69
600.909	95.69
601.118	102.69
601.327	111.69
601.536	104.69
601.745	97.69
601.953	103.69
602.162	96.69
602.371	107.69
602.58	102.69
602.789	107.69
602.997	95.69
603.206	86.69
603.415	119.69
603.623	110.69
603.832	104.69
604.041	107.69
604.249	85.69
604.458	99.69
604.666	86.69
604.875	97.69
605.084	105.69
605.292	104.69
605.501	108.69
605.709	91.69
605.918	104.69
606.126	122.69
606.334	109.69
606.543	120.69
606.751	114.69
606.96	121.69
607.168	115.69
607.376	97.69
607.585	104.69
607.793	115.69
608.001	111.69
608.21	120.69
608.418	115.69
608.626	118.69
608.834	111.69
609.043	99.69
609.251	103.69
609.459	112.69
609.667	113.69
609.875	113.69
610.083	104.69
610.291	113.69
610.499	102.69
610.707	101.69
610.916	100.69
611.124	124.69
611.332	105.69
611.54	109.69
611.748	99.69
611.955	118.69
612.163	115.69
612.371	103.69
612.579	97.69
612.787	116.69
612.995	107.69
613.203	121.69
613.411	111.69
613.618	109.69
613.826	113.69
614.034	94.69
614.242	93.69
614.449	115.69
614.657	95.69
614.865	111.69
615.072	117.69
615.28	102.69
615.488	110.69
615.695	95.69
615.903	92.69
616.111	99.69
616.318	121.69
616.526	107.69
616.733	92.69
616.941	100.69
617.148	97.69
617.356	109.69
617.563	102.69
617.771	106.69
617.978	90.69
618.185	93.69
618.393	113.69
618.6	103.69
618.807	110.69
619.015	97.69
619.222	94.69
619.429	100.69
619.637	115.69
619.844	100.69
620.051	102.69
620.258	109.69
620.466	112.69
620.673	111.69
620.88	81.69
621.087	93.69
621.294	109.69
621.501	96.69
621.708	99.69
621.915	102.69
622.122	89.69
622.329	90.69
622.536	104.69
622.743	114.69
622.95	93.69
623.157	111.69
623.364	117.69
623.571	99.69
623.778	108.69
623.985	85.69
624.192	107.69
624.399	101.69
624.606	107.69
624.812	96.69
625.019	111.69
625.226	105.69
625.433	121.69
625.639	88.69
625.846	105.69
626.053	86.69
626.259	93.69
626.466	96.69
626.673	95.69
626.879	92.69
627.086	97.69
627.293	98.69
627.499	92.69
627.706	93.69
627.912	102.69
628.119	101.69
628.325	90.69
628.532	101.69
628.738	92.69
628.945	89.69
629.151	92.69
629.357	107.69
629.564	104.69
629.77	117.69
629.976	103.69
630.183	93.69
630.389	90.69
630.595	87.69
630.802	90.69
631.008	100.69
631.214	84.69
631.42	102.69
631.627	99.69
631.833	98.69
632.039	94.69
632.245	93.69
632.451	90.69
632.657	110.69
632.863	92.69
633.069	84.69
633.275	105.69
633.481	92.69
633.688	100.69
633.893	110.69
634.099	92.69
634.305	89.69
634.511	106.69
634.717	87.69
634.923	92.69
635.129	84.69
635.335	84.69
635.541	88.69
635.747	96.69
635.952	94.69
636.158	112.69
636.364	95.69
636.57	94.69
636.775	105.69
636.981	83.69
637.187	92.69
637.392	99.69
637.598	99.69
637.804	108.69
638.009	97.69
638.215	104.69
638.421	101.69
638.626	88.69
638.832	89.69
639.037	102.69
639.243	97.69
639.448	98.69
639.654	98.69
639.859	100.69
640.065	89.69
640.27	109.69
640.475	113.69
640.681	93.69
640.886	107.69
641.091	83.69
641.297	104.69
641.502	90.69
641.707	96.69
641.913	84.69
642.118	92.69
642.323	93.69
642.528	105.69
642.733	91.69
642.939	96.69
643.144	98.69
643.349	97.69
643.554	94.69
643.759	76.69
643.964	97.69
644.169	81.69
644.374	95.69
644.579	99.69
644.784	87.69
644.989	98.69
645.194	94.69
645.399	104.69
645.604	111.69
645.809	79.69
646.014	85.69
646.219	84.69
646.423	92.69
646.628	98.69
646.833	107.69
647.038	85.69
647.243	107.69
647.447	93.69
647.652	91.69
647.857	102.69
648.062	89.69
648.266	95.69
648.471	87.69
648.676	95.69
648.88	91.69
649.085	98.69
649.289	82.69
649.494	84.69
649.698	94.69
649.903	92.69
650.107	77.69
650.312	100.69
650.516	99.69
650.721	93.69
650.925	91.69
651.13	83.69
651.334	98.69
651.539	76.69
651.743	81.69
651.947	102.69
652.152	99.69
652.356	94.69
652.56	106.69
652.764	87.69
652.969	85.69
653.173	89.69
653.377	90.69
653.581	87.69
653.785	80.69
653.99	85.69
654.194	75.69
654.398	92.69
654.602	96.69
654.806	74.69
655.01	80.69
655.214	69.69
655.418	81.69
655.622	87.69
655.826	86.69
656.03	68.69
656.234	85.69
656.438	81.69
656.642	100.69
656.846	86.69
657.049	89.69
657.253	96.69
657.457	78.69
657.661	86.69
657.865	92.69
658.068	72.69
658.272	86.69
658.476	101.69
658.68	89.69
658.883	74.69
659.087	83.69
659.291	73.69
659.494	84.69
659.698	79.69
659.901	70.69
660.105	74.69
660.309	77.69
660.512	82.69
660.716	93.69
660.919	84.69
661.123	92.69
661.326	81.69
661.53	71.69
661.733	76.69
661.936	69.69
662.14	81.69
662.343	83.69
662.546	60.69
662.75	84.69
662.953	75.69
663.156	74.69
663.36	66.69
663.563	63.69
663.766	76.69
663.969	83.69
664.173	81.69
664.376	85.69
664.579	72.69
664.782	71.69
664.985	76.69
665.188	86.69
665.391	84.69
665.594	82.69
665.797	69.69
666	79.69
666.203	78.69
666.406	68.69
666.609	83.69
666.812	75.69
667.015	71.69
667.218	66.69
667.421	73.69
667.624	80.69
667.827	95.69
668.03	71.69
668.232	79.69
668.435	71.69
668.638	77.69
668.841	82.69
669.043	72.69
669.246	63.69
669.449	71.69
669.651	87.69
669.854	73.69
670.057	79.69
670.259	73.69
670.462	80.69
670.665	77.69
670.867	69.69
671.07	76.69
671.272	74.69
671.475	69.69
671.677	66.69
671.88	81.69
672.082	78.69
672.284	82.69
672.487	62.69
672.689	75.69
672.892	85.69
