Data from Location4.07152019.Energy5.Lamp.07192019.3%Agarose_HRD10591_16-21-20-926.txt Node
Date: Fri Jul 19 16:21:20 EDT 2019
User: cochatt
Spectrometer: HR+D1059
Trigger mode: 1
Integration Time (sec): 1.000000E-1
Scans to average: 1
Electric dark correction enabled: true
Nonlinearity correction enabled: false
Boxcar width: 0
XAxis mode: Wavelengths
Number of Pixels in Spectrum: 2048
>>>>>Begin Spectral Data<<<<<
223.165	-14.62
223.4	-14.62
223.635	-14.62
223.869	-16.62
224.104	-10.62
224.338	-16.62
224.573	-14.62
224.808	-27.62
225.042	-13.62
225.277	-5.62
225.511	-0.62
225.746	-14.62
225.98	15.38
226.215	16.38
226.449	23.38
226.683	28.38
226.918	17.38
227.152	34.38
227.387	28.38
227.621	28.38
227.856	27.38
228.09	39.38
228.324	53.38
228.559	78.38
228.793	56.38
229.027	64.38
229.262	74.38
229.496	64.38
229.73	50.38
229.964	73.38
230.199	70.38
230.433	73.38
230.667	74.38
230.901	59.38
231.136	69.38
231.37	59.38
231.604	78.38
231.838	94.38
232.072	60.38
232.306	67.38
232.541	75.38
232.775	73.38
233.009	78.38
233.243	84.38
233.477	81.38
233.711	86.38
233.945	81.38
234.179	79.38
234.413	74.38
234.647	84.38
234.881	85.38
235.115	87.38
235.349	72.38
235.583	85.38
235.817	67.38
236.051	62.38
236.285	85.38
236.519	85.38
236.753	70.38
236.987	60.38
237.221	82.38
237.455	72.38
237.689	75.38
237.922	69.38
238.156	71.38
238.39	74.38
238.624	81.38
238.858	66.38
239.091	65.38
239.325	72.38
239.559	85.38
239.793	81.38
240.027	86.38
240.26	76.38
240.494	63.38
240.728	74.38
240.961	53.38
241.195	67.38
241.429	74.38
241.662	81.38
241.896	80.38
242.13	73.38
242.363	87.38
242.597	61.38
242.83	87.38
243.064	67.38
243.298	83.38
243.531	90.38
243.765	75.38
243.998	67.38
244.232	70.38
244.465	81.38
244.699	69.38
244.932	72.38
245.166	77.38
245.399	80.38
245.633	78.38
245.866	69.38
246.099	72.38
246.333	79.38
246.566	73.38
246.8	70.38
247.033	65.38
247.266	80.38
247.5	70.38
247.733	71.38
247.966	68.38
248.2	84.38
248.433	82.38
248.666	77.38
248.899	74.38
249.133	81.38
249.366	80.38
249.599	73.38
249.832	82.38
250.066	74.38
250.299	72.38
250.532	76.38
250.765	73.38
250.998	70.38
251.231	68.38
251.465	87.38
251.698	72.38
251.931	73.38
252.164	89.38
252.397	73.38
252.63	69.38
252.863	81.38
253.096	83.38
253.329	76.38
253.562	83.38
253.795	85.38
254.028	101.38
254.261	78.38
254.494	70.38
254.727	72.38
254.96	70.38
255.193	69.38
255.426	77.38
255.659	73.38
255.892	77.38
256.124	86.38
256.357	88.38
256.59	69.38
256.823	92.38
257.056	64.38
257.289	72.38
257.521	72.38
257.754	83.38
257.987	72.38
258.22	77.38
258.452	61.38
258.685	82.38
258.918	73.38
259.151	71.38
259.383	78.38
259.616	70.38
259.849	68.38
260.081	77.38
260.314	88.38
260.547	70.38
260.779	78.38
261.012	88.38
261.244	74.38
261.477	76.38
261.71	71.38
261.942	74.38
262.175	76.38
262.407	76.38
262.64	83.38
262.872	71.38
263.105	75.38
263.337	77.38
263.57	73.38
263.802	79.38
264.035	62.38
264.267	89.38
264.499	63.38
264.732	85.38
264.964	76.38
265.197	79.38
265.429	71.38
265.661	93.38
265.894	80.38
266.126	72.38
266.358	89.38
266.591	74.38
266.823	78.38
267.055	75.38
267.287	87.38
267.52	79.38
267.752	60.38
267.984	72.38
268.216	87.38
268.448	84.38
268.681	71.38
268.913	69.38
269.145	82.38
269.377	87.38
269.609	93.38
269.841	71.38
270.073	73.38
270.306	79.38
270.538	72.38
270.77	96.38
271.002	86.38
271.234	78.38
271.466	95.38
271.698	63.38
271.93	74.38
272.162	74.38
272.394	80.38
272.626	85.38
272.858	99.38
273.09	88.38
273.322	74.38
273.553	78.38
273.785	76.38
274.017	91.38
274.249	69.38
274.481	71.38
274.713	68.38
274.945	76.38
275.176	70.38
275.408	70.38
275.64	81.38
275.872	68.38
276.104	85.38
276.335	77.38
276.567	74.38
276.799	83.38
277.031	80.38
277.262	85.38
277.494	78.38
277.726	82.38
277.957	73.38
278.189	81.38
278.421	84.38
278.652	82.38
278.884	80.38
279.115	73.38
279.347	75.38
279.579	78.38
279.81	79.38
280.042	77.38
280.273	66.38
280.505	76.38
280.736	69.38
280.968	94.38
281.199	81.38
281.431	79.38
281.662	81.38
281.894	89.38
282.125	88.38
282.356	81.38
282.588	76.38
282.819	80.38
283.051	57.38
283.282	79.38
283.513	68.38
283.745	67.38
283.976	77.38
284.207	80.38
284.439	76.38
284.67	97.38
284.901	83.38
285.132	92.38
285.364	86.38
285.595	79.38
285.826	74.38
286.057	84.38
286.288	81.38
286.52	97.38
286.751	83.38
286.982	85.38
287.213	78.38
287.444	74.38
287.675	77.38
287.906	100.38
288.138	79.38
288.369	84.38
288.6	76.38
288.831	86.38
289.062	97.38
289.293	80.38
289.524	74.38
289.755	80.38
289.986	84.38
290.217	78.38
290.448	77.38
290.679	73.38
290.91	84.38
291.141	82.38
291.371	78.38
291.602	92.38
291.833	70.38
292.064	82.38
292.295	80.38
292.526	79.38
292.757	81.38
292.987	84.38
293.218	83.38
293.449	87.38
293.68	80.38
293.91	79.38
294.141	62.38
294.372	74.38
294.603	69.38
294.833	85.38
295.064	74.38
295.295	86.38
295.525	86.38
295.756	80.38
295.987	75.38
296.217	90.38
296.448	76.38
296.679	86.38
296.909	80.38
297.14	83.38
297.37	80.38
297.601	70.38
297.831	85.38
298.062	85.38
298.292	87.38
298.523	85.38
298.753	75.38
298.984	78.38
299.214	87.38
299.445	89.38
299.675	83.38
299.905	91.38
300.136	91.38
300.366	81.38
300.597	83.38
300.827	75.38
301.057	83.38
301.288	66.38
301.518	77.38
301.748	79.38
301.979	74.38
302.209	83.38
302.439	72.38
302.669	81.38
302.9	79.38
303.13	73.38
303.36	80.38
303.59	68.38
303.82	85.38
304.051	72.38
304.281	80.38
304.511	75.38
304.741	84.38
304.971	79.38
305.201	93.38
305.431	90.38
305.661	83.38
305.891	76.38
306.121	76.38
306.352	95.38
306.582	82.38
306.812	84.38
307.042	88.38
307.272	89.38
307.502	85.38
307.731	88.38
307.961	77.38
308.191	75.38
308.421	93.38
308.651	86.38
308.881	79.38
309.111	74.38
309.341	82.38
309.571	83.38
309.8	78.38
310.03	87.38
310.26	75.38
310.49	71.38
310.72	85.38
310.949	85.38
311.179	92.38
311.409	73.38
311.639	87.38
311.868	87.38
312.098	86.38
312.328	81.38
312.557	89.38
312.787	85.38
313.017	72.38
313.246	84.38
313.476	73.38
313.706	73.38
313.935	70.38
314.165	74.38
314.394	82.38
314.624	77.38
314.853	80.38
315.083	76.38
315.312	82.38
315.542	87.38
315.771	86.38
316.001	88.38
316.23	81.38
316.46	68.38
316.689	74.38
316.919	85.38
317.148	87.38
317.377	84.38
317.607	84.38
317.836	78.38
318.065	85.38
318.295	77.38
318.524	82.38
318.753	78.38
318.983	71.38
319.212	81.38
319.441	82.38
319.67	77.38
319.9	78.38
320.129	69.38
320.358	66.38
320.587	88.38
320.816	72.38
321.046	79.38
321.275	96.38
321.504	81.38
321.733	80.38
321.962	89.38
322.191	89.38
322.42	75.38
322.649	76.38
322.878	67.38
323.108	83.38
323.337	80.38
323.566	72.38
323.795	86.38
324.024	70.38
324.253	66.38
324.482	97.38
324.71	73.38
324.939	90.38
325.168	73.38
325.397	73.38
325.626	78.38
325.855	84.38
326.084	83.38
326.313	69.38
326.542	71.38
326.77	81.38
326.999	84.38
327.228	88.38
327.457	89.38
327.686	88.38
327.914	81.38
328.143	81.38
328.372	90.38
328.6	82.38
328.829	87.38
329.058	88.38
329.287	83.38
329.515	72.38
329.744	98.38
329.972	85.38
330.201	72.38
330.43	86.38
330.658	54.38
330.887	79.38
331.115	82.38
331.344	88.38
331.572	88.38
331.801	78.38
332.03	96.38
332.258	80.38
332.486	81.38
332.715	71.38
332.943	73.38
333.172	69.38
333.4	84.38
333.629	78.38
333.857	76.38
334.085	75.38
334.314	63.38
334.542	88.38
334.771	88.38
334.999	81.38
335.227	81.38
335.455	65.38
335.684	80.38
335.912	76.38
336.14	79.38
336.369	81.38
336.597	78.38
336.825	80.38
337.053	78.38
337.281	69.38
337.51	81.38
337.738	79.38
337.966	80.38
338.194	73.38
338.422	74.38
338.65	103.38
338.878	84.38
339.106	88.38
339.334	80.38
339.562	89.38
339.79	65.38
340.018	80.38
340.246	87.38
340.474	87.38
340.702	76.38
340.93	77.38
341.158	66.38
341.386	83.38
341.614	78.38
341.842	79.38
342.07	74.38
342.298	69.38
342.526	86.38
342.754	82.38
342.981	77.38
343.209	81.38
343.437	90.38
343.665	86.38
343.893	84.38
344.12	79.38
344.348	77.38
344.576	84.38
344.804	83.38
345.031	71.38
345.259	68.38
345.487	74.38
345.714	92.38
345.942	70.38
346.17	68.38
346.397	74.38
346.625	72.38
346.853	77.38
347.08	80.38
347.308	73.38
347.535	81.38
347.763	76.38
347.99	86.38
348.218	85.38
348.445	79.38
348.673	86.38
348.9	84.38
349.128	85.38
349.355	72.38
349.583	80.38
349.81	78.38
350.037	91.38
350.265	70.38
350.492	87.38
350.72	88.38
350.947	82.38
351.174	90.38
351.402	82.38
351.629	78.38
351.856	91.38
352.083	75.38
352.311	75.38
352.538	86.38
352.765	75.38
352.992	76.38
353.22	93.38
353.447	77.38
353.674	90.38
353.901	76.38
354.128	92.38
354.355	81.38
354.583	88.38
354.81	70.38
355.037	85.38
355.264	76.38
355.491	78.38
355.718	78.38
355.945	80.38
356.172	80.38
356.399	90.38
356.626	81.38
356.853	73.38
357.08	93.38
357.307	68.38
357.534	70.38
357.761	83.38
357.988	76.38
358.215	85.38
358.441	96.38
358.668	82.38
358.895	72.38
359.122	66.38
359.349	90.38
359.576	86.38
359.802	65.38
360.029	75.38
360.256	83.38
360.483	81.38
360.709	92.38
360.936	88.38
361.163	96.38
361.39	76.38
361.616	77.38
361.843	83.38
362.07	86.38
362.296	85.38
362.523	89.38
362.749	94.38
362.976	86.38
363.203	97.38
363.429	77.38
363.656	82.38
363.882	95.38
364.109	79.38
364.335	86.38
364.562	80.38
364.788	75.38
365.015	81.38
365.241	71.38
365.468	90.38
365.694	82.38
365.92	77.38
366.147	81.38
366.373	81.38
366.599	78.38
366.826	72.38
367.052	69.38
367.278	80.38
367.505	78.38
367.731	79.38
367.957	78.38
368.184	86.38
368.41	68.38
368.636	95.38
368.862	103.38
369.089	88.38
369.315	77.38
369.541	81.38
369.767	80.38
369.993	74.38
370.219	90.38
370.445	81.38
370.672	89.38
370.898	81.38
371.124	84.38
371.35	81.38
371.576	83.38
371.802	80.38
372.028	93.38
372.254	87.38
372.48	96.38
372.706	87.38
372.932	87.38
373.158	93.38
373.384	88.38
373.61	70.38
373.835	78.38
374.061	90.38
374.287	93.38
374.513	89.38
374.739	87.38
374.965	96.38
375.191	81.38
375.416	96.38
375.642	86.38
375.868	93.38
376.094	80.38
376.319	81.38
376.545	84.38
376.771	84.38
376.997	77.38
377.222	84.38
377.448	87.38
377.674	74.38
377.899	86.38
378.125	96.38
378.35	81.38
378.576	91.38
378.802	72.38
379.027	85.38
379.253	102.38
379.478	79.38
379.704	93.38
379.929	90.38
380.155	95.38
380.38	96.38
380.606	88.38
380.831	93.38
381.057	99.38
381.282	80.38
381.507	88.38
381.733	91.38
381.958	88.38
382.184	93.38
382.409	88.38
382.634	82.38
382.86	92.38
383.085	97.38
383.31	100.38
383.535	112.38
383.761	98.38
383.986	92.38
384.211	92.38
384.436	89.38
384.662	97.38
384.887	89.38
385.112	93.38
385.337	84.38
385.562	108.38
385.787	96.38
386.013	88.38
386.238	109.38
386.463	81.38
386.688	90.38
386.913	94.38
387.138	97.38
387.363	117.38
387.588	95.38
387.813	104.38
388.038	87.38
388.263	117.38
388.488	80.38
388.713	94.38
388.938	105.38
389.163	77.38
389.387	87.38
389.612	114.38
389.837	79.38
390.062	100.38
390.287	101.38
390.512	102.38
390.736	91.38
390.961	90.38
391.186	99.38
391.411	98.38
391.636	95.38
391.86	108.38
392.085	103.38
392.31	108.38
392.534	98.38
392.759	88.38
392.984	99.38
393.208	92.38
393.433	89.38
393.658	95.38
393.882	95.38
394.107	94.38
394.331	92.38
394.556	89.38
394.78	114.38
395.005	99.38
395.229	97.38
395.454	88.38
395.678	101.38
395.903	93.38
396.127	99.38
396.352	100.38
396.576	103.38
396.801	105.38
397.025	109.38
397.249	112.38
397.474	107.38
397.698	106.38
397.922	101.38
398.147	104.38
398.371	117.38
398.595	109.38
398.82	100.38
399.044	108.38
399.268	117.38
399.492	103.38
399.717	112.38
399.941	103.38
400.165	96.38
400.389	120.38
400.613	101.38
400.837	96.38
401.062	125.38
401.286	118.38
401.51	112.38
401.734	111.38
401.958	114.38
402.182	106.38
402.406	108.38
402.63	114.38
402.854	118.38
403.078	113.38
403.302	110.38
403.526	124.38
403.75	101.38
403.974	114.38
404.198	108.38
404.422	93.38
404.645	98.38
404.869	109.38
405.093	124.38
405.317	101.38
405.541	113.38
405.765	110.38
405.988	93.38
406.212	120.38
406.436	113.38
406.66	113.38
406.883	119.38
407.107	123.38
407.331	114.38
407.555	118.38
407.778	118.38
408.002	116.38
408.226	110.38
408.449	101.38
408.673	110.38
408.896	115.38
409.12	121.38
409.344	109.38
409.567	120.38
409.791	108.38
410.014	107.38
410.238	122.38
410.461	119.38
410.685	116.38
410.908	111.38
411.132	112.38
411.355	120.38
411.578	117.38
411.802	113.38
412.025	115.38
412.249	112.38
412.472	111.38
412.695	113.38
412.919	119.38
413.142	118.38
413.365	125.38
413.589	97.38
413.812	106.38
414.035	118.38
414.258	111.38
414.482	108.38
414.705	114.38
414.928	109.38
415.151	118.38
415.374	120.38
415.597	123.38
415.821	132.38
416.044	132.38
416.267	127.38
416.49	120.38
416.713	128.38
416.936	120.38
417.159	125.38
417.382	108.38
417.605	126.38
417.828	122.38
418.051	109.38
418.274	122.38
418.497	117.38
418.72	122.38
418.943	140.38
419.166	131.38
419.389	136.38
419.611	126.38
419.834	129.38
420.057	121.38
420.28	137.38
420.503	122.38
420.726	135.38
420.948	126.38
421.171	124.38
421.394	127.38
421.617	136.38
421.839	136.38
422.062	126.38
422.285	139.38
422.507	124.38
422.73	119.38
422.953	121.38
423.175	120.38
423.398	129.38
423.621	118.38
423.843	119.38
424.066	140.38
424.288	136.38
424.511	130.38
424.733	119.38
424.956	138.38
425.178	125.38
425.401	121.38
425.623	131.38
425.846	130.38
426.068	121.38
426.291	122.38
426.513	133.38
426.735	127.38
426.958	121.38
427.18	116.38
427.402	127.38
427.625	115.38
427.847	120.38
428.069	123.38
428.292	119.38
428.514	129.38
428.736	120.38
428.958	129.38
429.181	124.38
429.403	130.38
429.625	106.38
429.847	130.38
430.069	129.38
430.292	124.38
430.514	131.38
430.736	121.38
430.958	117.38
431.18	133.38
431.402	109.38
431.624	118.38
431.846	110.38
432.068	98.38
432.29	96.38
432.512	120.38
432.734	109.38
432.956	120.38
433.178	128.38
433.4	137.38
433.622	127.38
433.844	125.38
434.066	110.38
434.287	109.38
434.509	89.38
434.731	89.38
434.953	124.38
435.175	110.38
435.397	117.38
435.618	122.38
435.84	113.38
436.062	99.38
436.284	111.38
436.505	101.38
436.727	116.38
436.949	110.38
437.17	117.38
437.392	121.38
437.614	126.38
437.835	96.38
438.057	98.38
438.278	109.38
438.5	118.38
438.721	122.38
438.943	136.38
439.165	121.38
439.386	146.38
439.608	135.38
439.829	121.38
440.05	137.38
440.272	134.38
440.493	134.38
440.715	147.38
440.936	134.38
441.158	142.38
441.379	123.38
441.6	141.38
441.822	145.38
442.043	128.38
442.264	124.38
442.486	126.38
442.707	143.38
442.928	126.38
443.149	135.38
443.371	155.38
443.592	148.38
443.813	138.38
444.034	119.38
444.255	132.38
444.476	134.38
444.698	130.38
444.919	138.38
445.14	246.38
445.361	196.38
445.582	137.38
445.803	137.38
446.024	146.38
446.245	149.38
446.466	150.38
446.687	138.38
446.908	144.38
447.129	150.38
447.35	153.38
447.571	139.38
447.792	143.38
448.013	151.38
448.234	137.38
448.455	152.38
448.675	136.38
448.896	134.38
449.117	137.38
449.338	157.38
449.559	150.38
449.779	140.38
450	131.38
450.221	126.38
450.442	130.38
450.662	124.38
450.883	148.38
451.104	126.38
451.324	139.38
451.545	121.38
451.766	137.38
451.986	119.38
452.207	127.38
452.428	131.38
452.648	129.38
452.869	105.38
453.089	105.38
453.31	121.38
453.53	98.38
453.751	112.38
453.971	99.38
454.192	107.38
454.412	112.38
454.633	110.38
454.853	120.38
455.073	117.38
455.294	127.38
455.514	117.38
455.734	119.38
455.955	99.38
456.175	115.38
456.395	105.38
456.616	100.38
456.836	104.38
457.056	102.38
457.276	105.38
457.497	101.38
457.717	101.38
457.937	101.38
458.157	109.38
458.377	88.38
458.598	89.38
458.818	94.38
459.038	103.38
459.258	90.38
459.478	101.38
459.698	103.38
459.918	92.38
460.138	116.38
460.358	100.38
460.578	121.38
460.798	115.38
461.018	110.38
461.238	106.38
461.458	111.38
461.678	110.38
461.898	90.38
462.118	117.38
462.338	109.38
462.558	109.38
462.777	105.38
462.997	106.38
463.217	97.38
463.437	102.38
463.657	95.38
463.876	116.38
464.096	102.38
464.316	93.38
464.536	105.38
464.755	118.38
464.975	100.38
465.195	118.38
465.414	119.38
465.634	104.38
465.854	121.38
466.073	110.38
466.293	116.38
466.512	118.38
466.732	117.38
466.951	138.38
467.171	118.38
467.391	144.38
467.61	127.38
467.829	137.38
468.049	133.38
468.268	124.38
468.488	137.38
468.707	126.38
468.927	130.38
469.146	148.38
469.365	133.38
469.585	146.38
469.804	120.38
470.023	124.38
470.243	136.38
470.462	142.38
470.681	140.38
470.901	137.38
471.12	131.38
471.339	143.38
471.558	137.38
471.777	140.38
471.997	132.38
472.216	121.38
472.435	111.38
472.654	97.38
472.873	110.38
473.092	112.38
473.311	126.38
473.53	112.38
473.749	124.38
473.968	144.38
474.187	107.38
474.406	95.38
474.625	120.38
474.844	124.38
475.063	129.38
475.282	121.38
475.501	136.38
475.72	116.38
475.939	128.38
476.158	120.38
476.377	121.38
476.596	118.38
476.814	109.38
477.033	104.38
477.252	95.38
477.471	136.38
477.69	144.38
477.908	133.38
478.127	142.38
478.346	132.38
478.564	129.38
478.783	130.38
479.002	125.38
479.22	137.38
479.439	138.38
479.658	106.38
479.876	110.38
480.095	95.38
480.313	116.38
480.532	122.38
480.751	104.38
480.969	98.38
481.188	87.38
481.406	98.38
481.624	90.38
481.843	88.38
482.061	106.38
482.28	119.38
482.498	118.38
482.717	112.38
482.935	126.38
483.153	139.38
483.372	147.38
483.59	137.38
483.808	132.38
484.027	112.38
484.245	145.38
484.463	148.38
484.681	163.38
484.9	152.38
485.118	134.38
485.336	128.38
485.554	110.38
485.772	92.38
485.99	98.38
486.209	103.38
486.427	114.38
486.645	124.38
486.863	130.38
487.081	132.38
487.299	134.38
487.517	128.38
487.735	152.38
487.953	163.38
488.171	163.38
488.389	169.38
488.607	147.38
488.825	141.38
489.043	135.38
489.261	138.38
489.479	125.38
489.696	135.38
489.914	142.38
490.132	146.38
490.35	150.38
490.568	162.38
490.786	162.38
491.003	189.38
491.221	150.38
491.439	180.38
491.657	177.38
491.874	198.38
492.092	217.38
492.31	224.38
492.527	219.38
492.745	206.38
492.963	192.38
493.18	181.38
493.398	179.38
493.615	172.38
493.833	175.38
494.05	177.38
494.268	173.38
494.485	153.38
494.703	164.38
494.92	160.38
495.138	158.38
495.355	169.38
495.573	170.38
495.79	135.38
496.008	162.38
496.225	153.38
496.442	170.38
496.66	157.38
496.877	162.38
497.094	152.38
497.312	150.38
497.529	156.38
497.746	148.38
497.963	153.38
498.181	129.38
498.398	109.38
498.615	121.38
498.832	117.38
499.049	113.38
499.267	127.38
499.484	139.38
499.701	121.38
499.918	154.38
500.135	127.38
500.352	137.38
500.569	136.38
500.786	132.38
501.003	136.38
501.22	140.38
501.437	117.38
501.654	135.38
501.871	118.38
502.088	128.38
502.305	130.38
502.522	118.38
502.739	124.38
502.956	122.38
503.172	127.38
503.389	108.38
503.606	116.38
503.823	112.38
504.04	113.38
504.256	120.38
504.473	116.38
504.69	116.38
504.907	119.38
505.123	127.38
505.34	111.38
505.557	120.38
505.773	119.38
505.99	112.38
506.207	117.38
506.423	119.38
506.64	114.38
506.856	112.38
507.073	119.38
507.289	105.38
507.506	132.38
507.722	102.38
507.939	102.38
508.155	112.38
508.372	124.38
508.588	119.38
508.805	113.38
509.021	99.38
509.238	88.38
509.454	92.38
509.67	100.38
509.887	82.38
510.103	114.38
510.319	91.38
510.536	82.38
510.752	99.38
510.968	83.38
511.184	84.38
511.401	77.38
511.617	100.38
511.833	103.38
512.049	103.38
512.265	101.38
512.481	103.38
512.698	101.38
512.914	98.38
513.13	81.38
513.346	95.38
513.562	87.38
513.778	86.38
513.994	87.38
514.21	100.38
514.426	91.38
514.642	85.38
514.858	90.38
515.074	81.38
515.29	94.38
515.506	86.38
515.721	83.38
515.937	97.38
516.153	73.38
516.369	98.38
516.585	86.38
516.801	77.38
517.016	81.38
517.232	101.38
517.448	96.38
517.664	92.38
517.879	89.38
518.095	84.38
518.311	83.38
518.527	92.38
518.742	106.38
518.958	98.38
519.173	101.38
519.389	109.38
519.605	104.38
519.82	98.38
520.036	97.38
520.251	93.38
520.467	100.38
520.682	88.38
520.898	95.38
521.113	86.38
521.329	88.38
521.544	92.38
521.76	89.38
521.975	78.38
522.19	111.38
522.406	101.38
522.621	106.38
522.836	102.38
523.052	100.38
523.267	108.38
523.482	104.38
523.698	116.38
523.913	113.38
524.128	116.38
524.343	96.38
524.559	112.38
524.774	114.38
524.989	111.38
525.204	118.38
525.419	99.38
525.634	101.38
525.849	114.38
526.064	109.38
526.28	93.38
526.495	97.38
526.71	84.38
526.925	82.38
527.14	72.38
527.355	83.38
527.57	92.38
527.785	86.38
527.999	100.38
528.214	108.38
528.429	112.38
528.644	125.38
528.859	134.38
529.074	156.38
529.289	158.38
529.503	137.38
529.718	147.38
529.933	109.38
530.148	104.38
530.363	100.38
530.577	93.38
530.792	78.38
531.007	88.38
531.221	80.38
531.436	73.38
531.651	78.38
531.865	79.38
532.08	89.38
532.295	91.38
532.509	88.38
532.724	101.38
532.938	98.38
533.153	106.38
533.367	97.38
533.582	105.38
533.796	120.38
534.011	126.38
534.225	110.38
534.44	96.38
534.654	93.38
534.868	97.38
535.083	112.38
535.297	92.38
535.511	82.38
535.726	118.38
535.94	100.38
536.154	99.38
536.369	88.38
536.583	92.38
536.797	91.38
537.011	83.38
537.225	73.38
537.44	89.38
537.654	95.38
537.868	90.38
538.082	78.38
538.296	104.38
538.51	105.38
538.724	122.38
538.938	111.38
539.153	124.38
539.367	115.38
539.581	104.38
539.795	101.38
540.009	108.38
540.222	96.38
540.436	98.38
540.65	110.38
540.864	119.38
541.078	146.38
541.292	138.38
541.506	160.38
541.72	167.38
541.934	170.38
542.147	199.38
542.361	174.38
542.575	163.38
542.789	134.38
543.002	128.38
543.216	116.38
543.43	122.38
543.644	127.38
543.857	132.38
544.071	159.38
544.285	148.38
544.498	154.38
544.712	162.38
544.925	152.38
545.139	165.38
545.352	144.38
545.566	159.38
545.779	162.38
545.993	157.38
546.206	172.38
546.42	150.38
546.633	157.38
546.847	165.38
547.06	160.38
547.274	158.38
547.487	163.38
547.7	167.38
547.914	151.38
548.127	149.38
548.34	153.38
548.554	148.38
548.767	138.38
548.98	145.38
549.193	149.38
549.407	149.38
549.62	144.38
549.833	141.38
550.046	142.38
550.259	155.38
550.473	157.38
550.686	143.38
550.899	145.38
551.112	153.38
551.325	155.38
551.538	134.38
551.751	109.38
551.964	119.38
552.177	126.38
552.39	142.38
552.603	143.38
552.816	159.38
553.029	153.38
553.242	160.38
553.455	152.38
553.667	144.38
553.88	134.38
554.093	143.38
554.306	136.38
554.519	146.38
554.732	136.38
554.944	140.38
555.157	138.38
555.37	136.38
555.583	130.38
555.795	137.38
556.008	115.38
556.221	128.38
556.433	134.38
556.646	130.38
556.859	135.38
557.071	126.38
557.284	134.38
557.496	117.38
557.709	133.38
557.921	118.38
558.134	126.38
558.346	138.38
558.559	131.38
558.771	138.38
558.984	146.38
559.196	151.38
559.409	144.38
559.621	137.38
559.833	137.38
560.046	119.38
560.258	129.38
560.47	129.38
560.683	109.38
560.895	128.38
561.107	122.38
561.32	119.38
561.532	129.38
561.744	134.38
561.956	131.38
562.168	135.38
562.381	119.38
562.593	126.38
562.805	124.38
563.017	126.38
563.229	118.38
563.441	129.38
563.653	119.38
563.865	114.38
564.077	120.38
564.289	124.38
564.501	118.38
564.713	124.38
564.925	108.38
565.137	113.38
565.349	118.38
565.561	106.38
565.773	103.38
565.985	102.38
566.197	108.38
566.408	118.38
566.62	107.38
566.832	113.38
567.044	114.38
567.255	124.38
567.467	116.38
567.679	95.38
567.891	116.38
568.102	95.38
568.314	90.38
568.526	90.38
568.737	94.38
568.949	70.38
569.161	72.38
569.372	82.38
569.584	90.38
569.795	86.38
570.007	92.38
570.218	89.38
570.43	95.38
570.641	87.38
570.853	92.38
571.064	104.38
571.276	80.38
571.487	87.38
571.698	99.38
571.91	99.38
572.121	110.38
572.333	100.38
572.544	94.38
572.755	95.38
572.966	77.38
573.178	81.38
573.389	76.38
573.6	78.38
573.811	75.38
574.023	77.38
574.234	87.38
574.445	99.38
574.656	110.38
574.867	92.38
575.078	84.38
575.289	100.38
575.501	82.38
575.712	85.38
575.923	82.38
576.134	103.38
576.345	100.38
576.556	85.38
576.767	89.38
576.978	96.38
577.188	96.38
577.399	95.38
577.61	101.38
577.821	97.38
578.032	80.38
578.243	88.38
578.454	84.38
578.665	90.38
578.875	78.38
579.086	85.38
579.297	88.38
579.508	71.38
579.718	91.38
579.929	73.38
580.14	82.38
580.35	101.38
580.561	74.38
580.772	69.38
580.982	77.38
581.193	89.38
581.403	94.38
581.614	98.38
581.825	87.38
582.035	96.38
582.246	82.38
582.456	76.38
582.667	92.38
582.877	95.38
583.087	85.38
583.298	76.38
583.508	90.38
583.719	73.38
583.929	81.38
584.139	80.38
584.35	86.38
584.56	84.38
584.77	84.38
584.981	75.38
585.191	93.38
585.401	74.38
585.611	81.38
585.821	85.38
586.032	98.38
586.242	87.38
586.452	71.38
586.662	66.38
586.872	83.38
587.082	87.38
587.292	74.38
587.502	85.38
587.713	70.38
587.923	73.38
588.133	78.38
588.343	74.38
588.553	73.38
588.762	93.38
588.972	87.38
589.182	82.38
589.392	84.38
589.602	83.38
589.812	85.38
590.022	74.38
590.232	81.38
590.441	77.38
590.651	83.38
590.861	84.38
591.071	82.38
591.281	94.38
591.49	95.38
591.7	74.38
591.91	75.38
592.119	67.38
592.329	101.38
592.539	81.38
592.748	78.38
592.958	85.38
593.167	87.38
593.377	90.38
593.587	95.38
593.796	83.38
594.006	81.38
594.215	87.38
594.424	92.38
594.634	90.38
594.843	93.38
595.053	88.38
595.262	90.38
595.472	79.38
595.681	86.38
595.89	102.38
596.1	89.38
596.309	81.38
596.518	95.38
596.727	104.38
596.937	84.38
597.146	95.38
597.355	90.38
597.564	94.38
597.774	96.38
597.983	86.38
598.192	83.38
598.401	91.38
598.61	93.38
598.819	79.38
599.028	98.38
599.237	99.38
599.446	96.38
599.655	93.38
599.864	89.38
600.073	82.38
600.282	88.38
600.491	89.38
600.7	104.38
600.909	87.38
601.118	82.38
601.327	97.38
601.536	90.38
601.745	100.38
601.953	102.38
602.162	98.38
602.371	103.38
602.58	104.38
602.789	105.38
602.997	99.38
603.206	112.38
603.415	112.38
603.623	99.38
603.832	108.38
604.041	105.38
604.249	109.38
604.458	107.38
604.666	94.38
604.875	94.38
605.084	101.38
605.292	106.38
605.501	106.38
605.709	102.38
605.918	101.38
606.126	105.38
606.334	94.38
606.543	102.38
606.751	113.38
606.96	107.38
607.168	101.38
607.376	108.38
607.585	103.38
607.793	104.38
608.001	105.38
608.21	93.38
608.418	95.38
608.626	108.38
608.834	110.38
609.043	104.38
609.251	109.38
609.459	110.38
609.667	118.38
609.875	112.38
610.083	111.38
610.291	97.38
610.499	106.38
610.707	103.38
610.916	108.38
611.124	105.38
611.332	105.38
611.54	116.38
611.748	98.38
611.955	110.38
612.163	118.38
612.371	111.38
612.579	105.38
612.787	116.38
612.995	106.38
613.203	120.38
613.411	94.38
613.618	109.38
613.826	117.38
614.034	104.38
614.242	106.38
614.449	109.38
614.657	97.38
614.865	104.38
615.072	110.38
615.28	116.38
615.488	100.38
615.695	93.38
615.903	114.38
616.111	112.38
616.318	109.38
616.526	114.38
616.733	114.38
616.941	108.38
617.148	104.38
617.356	107.38
617.563	119.38
617.771	98.38
617.978	97.38
618.185	113.38
618.393	110.38
618.6	110.38
618.807	102.38
619.015	106.38
619.222	102.38
619.429	102.38
619.637	101.38
619.844	101.38
620.051	95.38
620.258	95.38
620.466	96.38
620.673	108.38
620.88	97.38
621.087	98.38
621.294	84.38
621.501	97.38
621.708	116.38
621.915	105.38
622.122	105.38
622.329	105.38
622.536	100.38
622.743	95.38
622.95	109.38
623.157	90.38
623.364	113.38
623.571	110.38
623.778	93.38
623.985	99.38
624.192	120.38
624.399	113.38
624.606	118.38
624.812	102.38
625.019	103.38
625.226	101.38
625.433	93.38
625.639	97.38
625.846	90.38
626.053	89.38
626.259	85.38
626.466	89.38
626.673	91.38
626.879	84.38
627.086	99.38
627.293	86.38
627.499	92.38
627.706	109.38
627.912	99.38
628.119	113.38
628.325	100.38
628.532	105.38
628.738	96.38
628.945	110.38
629.151	95.38
629.357	99.38
629.564	103.38
629.77	104.38
629.976	96.38
630.183	101.38
630.389	104.38
630.595	99.38
630.802	98.38
631.008	104.38
631.214	90.38
631.42	101.38
631.627	111.38
631.833	104.38
632.039	95.38
632.245	99.38
632.451	100.38
632.657	105.38
632.863	100.38
633.069	99.38
633.275	91.38
633.481	92.38
633.688	97.38
633.893	98.38
634.099	93.38
634.305	102.38
634.511	93.38
634.717	85.38
634.923	97.38
635.129	89.38
635.335	86.38
635.541	89.38
635.747	111.38
635.952	108.38
636.158	95.38
636.364	94.38
636.57	97.38
636.775	93.38
636.981	104.38
637.187	84.38
637.392	94.38
637.598	82.38
637.804	101.38
638.009	98.38
638.215	100.38
638.421	87.38
638.626	90.38
638.832	91.38
639.037	90.38
639.243	92.38
639.448	93.38
639.654	109.38
639.859	98.38
640.065	92.38
640.27	96.38
640.475	84.38
640.681	96.38
640.886	91.38
641.091	105.38
641.297	109.38
641.502	92.38
641.707	101.38
641.913	100.38
642.118	112.38
642.323	102.38
642.528	66.38
642.733	89.38
642.939	108.38
643.144	100.38
643.349	95.38
643.554	105.38
643.759	110.38
643.964	90.38
644.169	87.38
644.374	96.38
644.579	100.38
644.784	97.38
644.989	82.38
645.194	98.38
645.399	85.38
645.604	96.38
645.809	88.38
646.014	95.38
646.219	101.38
646.423	103.38
646.628	113.38
646.833	101.38
647.038	86.38
647.243	102.38
647.447	98.38
647.652	79.38
647.857	91.38
648.062	88.38
648.266	100.38
648.471	85.38
648.676	94.38
648.88	94.38
649.085	80.38
649.289	81.38
649.494	101.38
649.698	85.38
649.903	92.38
650.107	96.38
650.312	109.38
650.516	97.38
650.721	104.38
650.925	94.38
651.13	85.38
651.334	76.38
651.539	89.38
651.743	99.38
651.947	86.38
652.152	93.38
652.356	90.38
652.56	94.38
652.764	104.38
652.969	97.38
653.173	88.38
653.377	75.38
653.581	100.38
653.785	93.38
653.99	73.38
654.194	77.38
654.398	108.38
654.602	92.38
654.806	88.38
655.01	95.38
655.214	85.38
655.418	90.38
655.622	75.38
655.826	83.38
656.03	72.38
656.234	86.38
656.438	86.38
656.642	76.38
656.846	95.38
657.049	84.38
657.253	82.38
657.457	75.38
657.661	84.38
657.865	78.38
658.068	101.38
658.272	88.38
658.476	78.38
658.68	102.38
658.883	83.38
659.087	70.38
659.291	77.38
659.494	89.38
659.698	82.38
659.901	89.38
660.105	77.38
660.309	77.38
660.512	86.38
660.716	77.38
660.919	74.38
661.123	80.38
661.326	77.38
661.53	74.38
661.733	72.38
661.936	98.38
662.14	81.38
662.343	87.38
662.546	88.38
662.75	82.38
662.953	87.38
663.156	91.38
663.36	83.38
663.563	78.38
663.766	65.38
663.969	76.38
664.173	81.38
664.376	78.38
664.579	93.38
664.782	77.38
664.985	80.38
665.188	80.38
665.391	78.38
665.594	70.38
665.797	72.38
666	87.38
666.203	61.38
666.406	78.38
666.609	76.38
666.812	85.38
667.015	90.38
667.218	85.38
667.421	79.38
667.624	57.38
667.827	83.38
668.03	82.38
668.232	66.38
668.435	70.38
668.638	74.38
668.841	73.38
669.043	74.38
669.246	76.38
669.449	78.38
669.651	85.38
669.854	92.38
670.057	93.38
670.259	82.38
670.462	65.38
670.665	76.38
670.867	70.38
671.07	66.38
671.272	71.38
671.475	79.38
671.677	78.38
671.88	82.38
672.082	74.38
672.284	77.38
672.487	73.38
672.689	75.38
672.892	72.38
