Data from Location4.07152019.Energy5.Lamp.07192019.3%Agarose_HRD10591_16-19-25-925.txt Node
Date: Fri Jul 19 16:19:25 EDT 2019
User: cochatt
Spectrometer: HR+D1059
Trigger mode: 1
Integration Time (sec): 1.000000E-1
Scans to average: 1
Electric dark correction enabled: true
Nonlinearity correction enabled: false
Boxcar width: 0
XAxis mode: Wavelengths
Number of Pixels in Spectrum: 2048
>>>>>Begin Spectral Data<<<<<
223.165	-25.31
223.4	-25.31
223.635	-25.31
223.869	-25.31
224.104	-13.31
224.338	-18.31
224.573	-24.31
224.808	-14.31
225.042	-7.31
225.277	-11.31
225.511	0.69
225.746	22.69
225.98	5.69
226.215	14.69
226.449	7.69
226.683	27.69
226.918	24.69
227.152	35.69
227.387	28.69
227.621	33.69
227.856	32.69
228.09	40.69
228.324	37.69
228.559	45.69
228.793	57.69
229.027	56.69
229.262	56.69
229.496	52.69
229.73	63.69
229.964	69.69
230.199	66.69
230.433	68.69
230.667	87.69
230.901	71.69
231.136	79.69
231.37	69.69
231.604	80.69
231.838	72.69
232.072	71.69
232.306	72.69
232.541	83.69
232.775	78.69
233.009	87.69
233.243	90.69
233.477	76.69
233.711	84.69
233.945	74.69
234.179	85.69
234.413	82.69
234.647	76.69
234.881	83.69
235.115	91.69
235.349	86.69
235.583	79.69
235.817	85.69
236.051	69.69
236.285	74.69
236.519	79.69
236.753	66.69
236.987	76.69
237.221	69.69
237.455	58.69
237.689	80.69
237.922	79.69
238.156	72.69
238.39	73.69
238.624	61.69
238.858	74.69
239.091	73.69
239.325	71.69
239.559	78.69
239.793	78.69
240.027	83.69
240.26	74.69
240.494	64.69
240.728	82.69
240.961	71.69
241.195	93.69
241.429	64.69
241.662	64.69
241.896	74.69
242.13	85.69
242.363	82.69
242.597	81.69
242.83	75.69
243.064	70.69
243.298	74.69
243.531	77.69
243.765	80.69
243.998	87.69
244.232	81.69
244.465	64.69
244.699	74.69
244.932	68.69
245.166	89.69
245.399	57.69
245.633	68.69
245.866	84.69
246.099	67.69
246.333	69.69
246.566	80.69
246.8	82.69
247.033	62.69
247.266	85.69
247.5	70.69
247.733	73.69
247.966	65.69
248.2	67.69
248.433	73.69
248.666	66.69
248.899	77.69
249.133	92.69
249.366	82.69
249.599	78.69
249.832	74.69
250.066	73.69
250.299	77.69
250.532	88.69
250.765	73.69
250.998	62.69
251.231	88.69
251.465	84.69
251.698	81.69
251.931	89.69
252.164	64.69
252.397	68.69
252.63	71.69
252.863	85.69
253.096	77.69
253.329	78.69
253.562	78.69
253.795	82.69
254.028	69.69
254.261	91.69
254.494	70.69
254.727	75.69
254.96	67.69
255.193	86.69
255.426	76.69
255.659	90.69
255.892	83.69
256.124	64.69
256.357	70.69
256.59	69.69
256.823	87.69
257.056	83.69
257.289	79.69
257.521	72.69
257.754	71.69
257.987	84.69
258.22	88.69
258.452	93.69
258.685	83.69
258.918	77.69
259.151	72.69
259.383	86.69
259.616	88.69
259.849	69.69
260.081	80.69
260.314	87.69
260.547	80.69
260.779	79.69
261.012	79.69
261.244	68.69
261.477	67.69
261.71	72.69
261.942	89.69
262.175	80.69
262.407	88.69
262.64	84.69
262.872	72.69
263.105	72.69
263.337	88.69
263.57	83.69
263.802	76.69
264.035	76.69
264.267	78.69
264.499	80.69
264.732	84.69
264.964	74.69
265.197	81.69
265.429	73.69
265.661	85.69
265.894	83.69
266.126	73.69
266.358	83.69
266.591	82.69
266.823	84.69
267.055	88.69
267.287	82.69
267.52	80.69
267.752	80.69
267.984	81.69
268.216	83.69
268.448	75.69
268.681	95.69
268.913	97.69
269.145	92.69
269.377	71.69
269.609	78.69
269.841	91.69
270.073	71.69
270.306	80.69
270.538	94.69
270.77	84.69
271.002	76.69
271.234	77.69
271.466	75.69
271.698	84.69
271.93	79.69
272.162	76.69
272.394	89.69
272.626	78.69
272.858	82.69
273.09	82.69
273.322	77.69
273.553	74.69
273.785	92.69
274.017	79.69
274.249	79.69
274.481	72.69
274.713	83.69
274.945	90.69
275.176	77.69
275.408	84.69
275.64	83.69
275.872	74.69
276.104	82.69
276.335	76.69
276.567	77.69
276.799	79.69
277.031	75.69
277.262	83.69
277.494	86.69
277.726	78.69
277.957	70.69
278.189	92.69
278.421	88.69
278.652	72.69
278.884	90.69
279.115	75.69
279.347	84.69
279.579	72.69
279.81	74.69
280.042	78.69
280.273	88.69
280.505	71.69
280.736	71.69
280.968	82.69
281.199	91.69
281.431	87.69
281.662	81.69
281.894	88.69
282.125	80.69
282.356	91.69
282.588	90.69
282.819	74.69
283.051	100.69
283.282	82.69
283.513	85.69
283.745	91.69
283.976	80.69
284.207	88.69
284.439	92.69
284.67	89.69
284.901	80.69
285.132	68.69
285.364	91.69
285.595	90.69
285.826	70.69
286.057	84.69
286.288	84.69
286.52	77.69
286.751	97.69
286.982	73.69
287.213	84.69
287.444	70.69
287.675	89.69
287.906	86.69
288.138	86.69
288.369	97.69
288.6	78.69
288.831	70.69
289.062	81.69
289.293	72.69
289.524	84.69
289.755	79.69
289.986	83.69
290.217	83.69
290.448	99.69
290.679	79.69
290.91	80.69
291.141	77.69
291.371	75.69
291.602	92.69
291.833	78.69
292.064	82.69
292.295	80.69
292.526	83.69
292.757	91.69
292.987	92.69
293.218	87.69
293.449	85.69
293.68	89.69
293.91	101.69
294.141	76.69
294.372	88.69
294.603	93.69
294.833	79.69
295.064	89.69
295.295	81.69
295.525	70.69
295.756	85.69
295.987	82.69
296.217	79.69
296.448	73.69
296.679	91.69
296.909	93.69
297.14	77.69
297.37	86.69
297.601	75.69
297.831	82.69
298.062	93.69
298.292	78.69
298.523	79.69
298.753	93.69
298.984	84.69
299.214	75.69
299.445	81.69
299.675	81.69
299.905	86.69
300.136	74.69
300.366	89.69
300.597	85.69
300.827	57.69
301.057	82.69
301.288	77.69
301.518	73.69
301.748	79.69
301.979	81.69
302.209	80.69
302.439	78.69
302.669	81.69
302.9	72.69
303.13	74.69
303.36	67.69
303.59	94.69
303.82	78.69
304.051	90.69
304.281	89.69
304.511	93.69
304.741	74.69
304.971	84.69
305.201	87.69
305.431	82.69
305.661	87.69
305.891	78.69
306.121	81.69
306.352	94.69
306.582	89.69
306.812	77.69
307.042	84.69
307.272	89.69
307.502	77.69
307.731	88.69
307.961	66.69
308.191	86.69
308.421	100.69
308.651	73.69
308.881	77.69
309.111	78.69
309.341	69.69
309.571	68.69
309.8	66.69
310.03	81.69
310.26	87.69
310.49	82.69
310.72	82.69
310.949	68.69
311.179	73.69
311.409	83.69
311.639	95.69
311.868	86.69
312.098	74.69
312.328	86.69
312.557	84.69
312.787	70.69
313.017	80.69
313.246	78.69
313.476	84.69
313.706	79.69
313.935	78.69
314.165	98.69
314.394	60.69
314.624	66.69
314.853	86.69
315.083	91.69
315.312	100.69
315.542	91.69
315.771	86.69
316.001	80.69
316.23	83.69
316.46	67.69
316.689	69.69
316.919	77.69
317.148	78.69
317.377	77.69
317.607	70.69
317.836	82.69
318.065	93.69
318.295	92.69
318.524	71.69
318.753	86.69
318.983	73.69
319.212	73.69
319.441	81.69
319.67	81.69
319.9	81.69
320.129	75.69
320.358	82.69
320.587	71.69
320.816	93.69
321.046	70.69
321.275	82.69
321.504	72.69
321.733	89.69
321.962	91.69
322.191	81.69
322.42	73.69
322.649	80.69
322.878	86.69
323.108	96.69
323.337	93.69
323.566	81.69
323.795	81.69
324.024	77.69
324.253	70.69
324.482	82.69
324.71	87.69
324.939	85.69
325.168	85.69
325.397	84.69
325.626	86.69
325.855	97.69
326.084	86.69
326.313	99.69
326.542	82.69
326.77	72.69
326.999	89.69
327.228	80.69
327.457	86.69
327.686	89.69
327.914	68.69
328.143	90.69
328.372	70.69
328.6	67.69
328.829	73.69
329.058	77.69
329.287	83.69
329.515	93.69
329.744	76.69
329.972	81.69
330.201	79.69
330.43	66.69
330.658	74.69
330.887	79.69
331.115	82.69
331.344	70.69
331.572	84.69
331.801	91.69
332.03	77.69
332.258	85.69
332.486	90.69
332.715	83.69
332.943	92.69
333.172	82.69
333.4	84.69
333.629	81.69
333.857	78.69
334.085	76.69
334.314	88.69
334.542	87.69
334.771	80.69
334.999	87.69
335.227	69.69
335.455	66.69
335.684	80.69
335.912	78.69
336.14	89.69
336.369	84.69
336.597	86.69
336.825	83.69
337.053	64.69
337.281	79.69
337.51	79.69
337.738	68.69
337.966	72.69
338.194	84.69
338.422	70.69
338.65	93.69
338.878	82.69
339.106	80.69
339.334	88.69
339.562	81.69
339.79	82.69
340.018	85.69
340.246	80.69
340.474	85.69
340.702	88.69
340.93	69.69
341.158	86.69
341.386	68.69
341.614	73.69
341.842	85.69
342.07	71.69
342.298	85.69
342.526	83.69
342.754	78.69
342.981	87.69
343.209	93.69
343.437	104.69
343.665	78.69
343.893	69.69
344.12	83.69
344.348	94.69
344.576	79.69
344.804	80.69
345.031	82.69
345.259	86.69
345.487	64.69
345.714	84.69
345.942	71.69
346.17	79.69
346.397	84.69
346.625	75.69
346.853	81.69
347.08	83.69
347.308	68.69
347.535	79.69
347.763	76.69
347.99	74.69
348.218	81.69
348.445	79.69
348.673	86.69
348.9	86.69
349.128	86.69
349.355	77.69
349.583	81.69
349.81	77.69
350.037	75.69
350.265	74.69
350.492	79.69
350.72	77.69
350.947	90.69
351.174	91.69
351.402	79.69
351.629	83.69
351.856	89.69
352.083	86.69
352.311	80.69
352.538	84.69
352.765	72.69
352.992	82.69
353.22	84.69
353.447	70.69
353.674	90.69
353.901	92.69
354.128	78.69
354.355	90.69
354.583	87.69
354.81	84.69
355.037	83.69
355.264	80.69
355.491	66.69
355.718	88.69
355.945	84.69
356.172	79.69
356.399	83.69
356.626	86.69
356.853	72.69
357.08	83.69
357.307	84.69
357.534	73.69
357.761	71.69
357.988	82.69
358.215	83.69
358.441	74.69
358.668	86.69
358.895	86.69
359.122	77.69
359.349	73.69
359.576	85.69
359.802	89.69
360.029	90.69
360.256	86.69
360.483	79.69
360.709	71.69
360.936	95.69
361.163	85.69
361.39	79.69
361.616	77.69
361.843	82.69
362.07	71.69
362.296	67.69
362.523	74.69
362.749	79.69
362.976	78.69
363.203	92.69
363.429	78.69
363.656	82.69
363.882	84.69
364.109	84.69
364.335	83.69
364.562	95.69
364.788	82.69
365.015	68.69
365.241	82.69
365.468	80.69
365.694	74.69
365.92	93.69
366.147	66.69
366.373	78.69
366.599	67.69
366.826	73.69
367.052	79.69
367.278	79.69
367.505	79.69
367.731	94.69
367.957	94.69
368.184	78.69
368.41	85.69
368.636	74.69
368.862	89.69
369.089	85.69
369.315	99.69
369.541	82.69
369.767	79.69
369.993	88.69
370.219	81.69
370.445	84.69
370.672	85.69
370.898	100.69
371.124	93.69
371.35	98.69
371.576	94.69
371.802	97.69
372.028	87.69
372.254	85.69
372.48	89.69
372.706	85.69
372.932	77.69
373.158	98.69
373.384	77.69
373.61	86.69
373.835	90.69
374.061	95.69
374.287	80.69
374.513	89.69
374.739	72.69
374.965	98.69
375.191	107.69
375.416	88.69
375.642	95.69
375.868	75.69
376.094	99.69
376.319	92.69
376.545	101.69
376.771	87.69
376.997	90.69
377.222	86.69
377.448	94.69
377.674	78.69
377.899	89.69
378.125	87.69
378.35	88.69
378.576	86.69
378.802	88.69
379.027	94.69
379.253	93.69
379.478	95.69
379.704	80.69
379.929	82.69
380.155	89.69
380.38	93.69
380.606	84.69
380.831	80.69
381.057	98.69
381.282	90.69
381.507	91.69
381.733	106.69
381.958	99.69
382.184	98.69
382.409	86.69
382.634	96.69
382.86	89.69
383.085	101.69
383.31	93.69
383.535	101.69
383.761	84.69
383.986	86.69
384.211	99.69
384.436	84.69
384.662	82.69
384.887	92.69
385.112	105.69
385.337	101.69
385.562	93.69
385.787	94.69
386.013	100.69
386.238	102.69
386.463	83.69
386.688	90.69
386.913	80.69
387.138	114.69
387.363	96.69
387.588	82.69
387.813	86.69
388.038	98.69
388.263	101.69
388.488	97.69
388.713	103.69
388.938	89.69
389.163	100.69
389.387	101.69
389.612	95.69
389.837	75.69
390.062	96.69
390.287	109.69
390.512	92.69
390.736	95.69
390.961	96.69
391.186	97.69
391.411	111.69
391.636	99.69
391.86	101.69
392.085	101.69
392.31	97.69
392.534	113.69
392.759	118.69
392.984	101.69
393.208	93.69
393.433	90.69
393.658	92.69
393.882	105.69
394.107	116.69
394.331	89.69
394.556	100.69
394.78	96.69
395.005	92.69
395.229	117.69
395.454	105.69
395.678	110.69
395.903	97.69
396.127	94.69
396.352	109.69
396.576	104.69
396.801	99.69
397.025	98.69
397.249	103.69
397.474	114.69
397.698	110.69
397.922	109.69
398.147	96.69
398.371	117.69
398.595	92.69
398.82	101.69
399.044	98.69
399.268	105.69
399.492	103.69
399.717	104.69
399.941	97.69
400.165	114.69
400.389	89.69
400.613	105.69
400.837	91.69
401.062	112.69
401.286	103.69
401.51	108.69
401.734	98.69
401.958	97.69
402.182	112.69
402.406	105.69
402.63	103.69
402.854	108.69
403.078	101.69
403.302	90.69
403.526	100.69
403.75	102.69
403.974	114.69
404.198	96.69
404.422	110.69
404.645	111.69
404.869	108.69
405.093	120.69
405.317	109.69
405.541	119.69
405.765	121.69
405.988	118.69
406.212	122.69
406.436	117.69
406.66	115.69
406.883	118.69
407.107	106.69
407.331	116.69
407.555	124.69
407.778	106.69
408.002	112.69
408.226	104.69
408.449	103.69
408.673	101.69
408.896	121.69
409.12	117.69
409.344	117.69
409.567	119.69
409.791	109.69
410.014	130.69
410.238	108.69
410.461	121.69
410.685	111.69
410.908	112.69
411.132	131.69
411.355	110.69
411.578	132.69
411.802	103.69
412.025	106.69
412.249	112.69
412.472	103.69
412.695	102.69
412.919	111.69
413.142	96.69
413.365	120.69
413.589	121.69
413.812	112.69
414.035	114.69
414.258	118.69
414.482	117.69
414.705	109.69
414.928	113.69
415.151	104.69
415.374	116.69
415.597	114.69
415.821	100.69
416.044	111.69
416.267	109.69
416.49	116.69
416.713	128.69
416.936	147.69
417.159	138.69
417.382	99.69
417.605	113.69
417.828	139.69
418.051	144.69
418.274	128.69
418.497	134.69
418.72	121.69
418.943	118.69
419.166	120.69
419.389	136.69
419.611	129.69
419.834	117.69
420.057	144.69
420.28	132.69
420.503	126.69
420.726	126.69
420.948	119.69
421.171	134.69
421.394	129.69
421.617	132.69
421.839	140.69
422.062	129.69
422.285	128.69
422.507	140.69
422.73	124.69
422.953	126.69
423.175	119.69
423.398	137.69
423.621	112.69
423.843	120.69
424.066	134.69
424.288	130.69
424.511	117.69
424.733	126.69
424.956	139.69
425.178	144.69
425.401	153.69
425.623	124.69
425.846	117.69
426.068	117.69
426.291	108.69
426.513	124.69
426.735	123.69
426.958	120.69
427.18	129.69
427.402	122.69
427.625	121.69
427.847	128.69
428.069	120.69
428.292	123.69
428.514	127.69
428.736	120.69
428.958	124.69
429.181	131.69
429.403	134.69
429.625	132.69
429.847	118.69
430.069	114.69
430.292	121.69
430.514	110.69
430.736	122.69
430.958	142.69
431.18	127.69
431.402	112.69
431.624	116.69
431.846	105.69
432.068	101.69
432.29	100.69
432.512	101.69
432.734	114.69
432.956	134.69
433.178	129.69
433.4	130.69
433.622	135.69
433.844	129.69
434.066	110.69
434.287	99.69
434.509	104.69
434.731	97.69
434.953	117.69
435.175	124.69
435.397	126.69
435.618	102.69
435.84	120.69
436.062	116.69
436.284	130.69
436.505	110.69
436.727	136.69
436.949	124.69
437.17	137.69
437.392	135.69
437.614	98.69
437.835	108.69
438.057	101.69
438.278	104.69
438.5	112.69
438.721	140.69
438.943	135.69
439.165	135.69
439.386	135.69
439.608	137.69
439.829	134.69
440.05	151.69
440.272	140.69
440.493	121.69
440.715	146.69
440.936	139.69
441.158	134.69
441.379	121.69
441.6	123.69
441.822	130.69
442.043	145.69
442.264	143.69
442.486	130.69
442.707	128.69
442.928	138.69
443.149	146.69
443.371	145.69
443.592	128.69
443.813	135.69
444.034	116.69
444.255	130.69
444.476	134.69
444.698	118.69
444.919	136.69
445.14	264.69
445.361	192.69
445.582	146.69
445.803	132.69
446.024	145.69
446.245	153.69
446.466	140.69
446.687	148.69
446.908	153.69
447.129	138.69
447.35	134.69
447.571	144.69
447.792	143.69
448.013	141.69
448.234	118.69
448.455	139.69
448.675	136.69
448.896	124.69
449.117	121.69
449.338	128.69
449.559	139.69
449.779	130.69
450	132.69
450.221	126.69
450.442	134.69
450.662	141.69
450.883	113.69
451.104	128.69
451.324	121.69
451.545	118.69
451.766	110.69
451.986	136.69
452.207	121.69
452.428	130.69
452.648	136.69
452.869	126.69
453.089	113.69
453.31	120.69
453.53	116.69
453.751	93.69
453.971	96.69
454.192	115.69
454.412	102.69
454.633	94.69
454.853	115.69
455.073	122.69
455.294	119.69
455.514	131.69
455.734	118.69
455.955	126.69
456.175	105.69
456.395	116.69
456.616	108.69
456.836	115.69
457.056	105.69
457.276	103.69
457.497	102.69
457.717	95.69
457.937	101.69
458.157	90.69
458.377	110.69
458.598	99.69
458.818	100.69
459.038	95.69
459.258	77.69
459.478	84.69
459.698	100.69
459.918	88.69
460.138	113.69
460.358	113.69
460.578	115.69
460.798	113.69
461.018	97.69
461.238	124.69
461.458	121.69
461.678	130.69
461.898	119.69
462.118	109.69
462.338	102.69
462.558	109.69
462.777	113.69
462.997	114.69
463.217	89.69
463.437	124.69
463.657	92.69
463.876	105.69
464.096	110.69
464.316	100.69
464.536	114.69
464.755	118.69
464.975	120.69
465.195	111.69
465.414	121.69
465.634	113.69
465.854	93.69
466.073	108.69
466.293	119.69
466.512	121.69
466.732	110.69
466.951	122.69
467.171	120.69
467.391	128.69
467.61	117.69
467.829	128.69
468.049	134.69
468.268	121.69
468.488	131.69
468.707	130.69
468.927	120.69
469.146	124.69
469.365	138.69
469.585	121.69
469.804	136.69
470.023	126.69
470.243	136.69
470.462	128.69
470.681	144.69
470.901	124.69
471.12	131.69
471.339	133.69
471.558	138.69
471.777	131.69
471.997	131.69
472.216	124.69
472.435	110.69
472.654	105.69
472.873	96.69
473.092	116.69
473.311	99.69
473.53	118.69
473.749	126.69
473.968	111.69
474.187	124.69
474.406	110.69
474.625	119.69
474.844	125.69
475.063	124.69
475.282	126.69
475.501	127.69
475.72	114.69
475.939	117.69
476.158	128.69
476.377	124.69
476.596	104.69
476.814	102.69
477.033	110.69
477.252	99.69
477.471	120.69
477.69	132.69
477.908	133.69
478.127	139.69
478.346	120.69
478.564	121.69
478.783	126.69
479.002	126.69
479.22	118.69
479.439	126.69
479.658	123.69
479.876	118.69
480.095	120.69
480.313	119.69
480.532	120.69
480.751	104.69
480.969	95.69
481.188	81.69
481.406	95.69
481.624	94.69
481.843	96.69
482.061	94.69
482.28	115.69
482.498	111.69
482.717	104.69
482.935	120.69
483.153	142.69
483.372	135.69
483.59	165.69
483.808	132.69
484.027	126.69
484.245	142.69
484.463	134.69
484.681	156.69
484.9	150.69
485.118	140.69
485.336	122.69
485.554	102.69
485.772	91.69
485.99	98.69
486.209	100.69
486.427	103.69
486.645	128.69
486.863	139.69
487.081	134.69
487.299	122.69
487.517	121.69
487.735	162.69
487.953	173.69
488.171	179.69
488.389	166.69
488.607	168.69
488.825	136.69
489.043	124.69
489.261	137.69
489.479	126.69
489.696	135.69
489.914	140.69
490.132	118.69
490.35	144.69
490.568	146.69
490.786	154.69
491.003	168.69
491.221	161.69
491.439	167.69
491.657	195.69
491.874	193.69
492.092	212.69
492.31	242.69
492.527	213.69
492.745	189.69
492.963	196.69
493.18	189.69
493.398	166.69
493.615	168.69
493.833	159.69
494.05	176.69
494.268	160.69
494.485	161.69
494.703	169.69
494.92	165.69
495.138	161.69
495.355	150.69
495.573	163.69
495.79	138.69
496.008	159.69
496.225	141.69
496.442	152.69
496.66	148.69
496.877	165.69
497.094	152.69
497.312	158.69
497.529	150.69
497.746	151.69
497.963	139.69
498.181	130.69
498.398	121.69
498.615	117.69
498.832	122.69
499.049	113.69
499.267	119.69
499.484	128.69
499.701	122.69
499.918	127.69
500.135	136.69
500.352	140.69
500.569	141.69
500.786	124.69
501.003	123.69
501.22	129.69
501.437	129.69
501.654	134.69
501.871	129.69
502.088	132.69
502.305	136.69
502.522	118.69
502.739	123.69
502.956	119.69
503.172	130.69
503.389	117.69
503.606	112.69
503.823	112.69
504.04	121.69
504.256	112.69
504.473	113.69
504.69	122.69
504.907	124.69
505.123	114.69
505.34	127.69
505.557	130.69
505.773	116.69
505.99	119.69
506.207	110.69
506.423	124.69
506.64	112.69
506.856	111.69
507.073	116.69
507.289	121.69
507.506	103.69
507.722	124.69
507.939	113.69
508.155	109.69
508.372	105.69
508.588	112.69
508.805	99.69
509.021	116.69
509.238	105.69
509.454	117.69
509.67	89.69
509.887	113.69
510.103	91.69
510.319	75.69
510.536	94.69
510.752	90.69
510.968	73.69
511.184	86.69
511.401	80.69
511.617	93.69
511.833	85.69
512.049	85.69
512.265	100.69
512.481	85.69
512.698	84.69
512.914	99.69
513.13	89.69
513.346	93.69
513.562	87.69
513.778	82.69
513.994	101.69
514.21	97.69
514.426	100.69
514.642	89.69
514.858	93.69
515.074	92.69
515.29	92.69
515.506	95.69
515.721	86.69
515.937	86.69
516.153	103.69
516.369	63.69
516.585	71.69
516.801	70.69
517.016	85.69
517.232	88.69
517.448	81.69
517.664	91.69
517.879	94.69
518.095	104.69
518.311	85.69
518.527	93.69
518.742	103.69
518.958	98.69
519.173	93.69
519.389	92.69
519.605	108.69
519.82	112.69
520.036	110.69
520.251	112.69
520.467	93.69
520.682	79.69
520.898	84.69
521.113	90.69
521.329	92.69
521.544	88.69
521.76	97.69
521.975	81.69
522.19	92.69
522.406	89.69
522.621	95.69
522.836	104.69
523.052	106.69
523.267	101.69
523.482	104.69
523.698	106.69
523.913	113.69
524.128	124.69
524.343	113.69
524.559	109.69
524.774	112.69
524.989	111.69
525.204	117.69
525.419	109.69
525.634	105.69
525.849	106.69
526.064	96.69
526.28	91.69
526.495	91.69
526.71	87.69
526.925	81.69
527.14	72.69
527.355	92.69
527.57	85.69
527.785	93.69
527.999	88.69
528.214	104.69
528.429	121.69
528.644	126.69
528.859	135.69
529.074	144.69
529.289	151.69
529.503	151.69
529.718	134.69
529.933	108.69
530.148	104.69
530.363	90.69
530.577	69.69
530.792	88.69
531.007	84.69
531.221	89.69
531.436	98.69
531.651	95.69
531.865	90.69
532.08	86.69
532.295	86.69
532.509	83.69
532.724	81.69
532.938	75.69
533.153	111.69
533.367	102.69
533.582	122.69
533.796	123.69
534.011	118.69
534.225	92.69
534.44	78.69
534.654	94.69
534.868	79.69
535.083	97.69
535.297	86.69
535.511	97.69
535.726	99.69
535.94	97.69
536.154	99.69
536.369	86.69
536.583	76.69
536.797	86.69
537.011	70.69
537.225	88.69
537.44	85.69
537.654	93.69
537.868	83.69
538.082	88.69
538.296	96.69
538.51	88.69
538.724	101.69
538.938	120.69
539.153	113.69
539.367	128.69
539.581	122.69
539.795	95.69
540.009	101.69
540.222	93.69
540.436	100.69
540.65	114.69
540.864	116.69
541.078	135.69
541.292	135.69
541.506	145.69
541.72	162.69
541.934	176.69
542.147	185.69
542.361	175.69
542.575	154.69
542.789	134.69
543.002	131.69
543.216	113.69
543.43	124.69
543.644	141.69
543.857	139.69
544.071	136.69
544.285	152.69
544.498	147.69
544.712	152.69
544.925	156.69
545.139	148.69
545.352	156.69
545.566	148.69
545.779	147.69
545.993	151.69
546.206	149.69
546.42	152.69
546.633	160.69
546.847	156.69
547.06	165.69
547.274	166.69
547.487	174.69
547.7	165.69
547.914	166.69
548.127	150.69
548.34	144.69
548.554	167.69
548.767	156.69
548.98	136.69
549.193	155.69
549.407	137.69
549.62	144.69
549.833	155.69
550.046	151.69
550.259	144.69
550.473	162.69
550.686	151.69
550.899	138.69
551.112	133.69
551.325	136.69
551.538	129.69
551.751	121.69
551.964	122.69
552.177	132.69
552.39	151.69
552.603	143.69
552.816	141.69
553.029	159.69
553.242	132.69
553.455	159.69
553.667	144.69
553.88	134.69
554.093	144.69
554.306	150.69
554.519	145.69
554.732	136.69
554.944	144.69
555.157	150.69
555.37	144.69
555.583	139.69
555.795	138.69
556.008	139.69
556.221	124.69
556.433	130.69
556.646	145.69
556.859	124.69
557.071	124.69
557.284	143.69
557.496	150.69
557.709	138.69
557.921	138.69
558.134	140.69
558.346	136.69
558.559	149.69
558.771	134.69
558.984	140.69
559.196	131.69
559.409	110.69
559.621	124.69
559.833	124.69
560.046	123.69
560.258	129.69
560.47	134.69
560.683	122.69
560.895	113.69
561.107	120.69
561.32	122.69
561.532	126.69
561.744	124.69
561.956	129.69
562.168	138.69
562.381	138.69
562.593	120.69
562.805	143.69
563.017	111.69
563.229	113.69
563.441	123.69
563.653	115.69
563.865	112.69
564.077	120.69
564.289	116.69
564.501	108.69
564.713	119.69
564.925	127.69
565.137	119.69
565.349	110.69
565.561	98.69
565.773	111.69
565.985	106.69
566.197	115.69
566.408	120.69
566.62	109.69
566.832	104.69
567.044	108.69
567.255	126.69
567.467	105.69
567.679	104.69
567.891	108.69
568.102	101.69
568.314	81.69
568.526	97.69
568.737	84.69
568.949	80.69
569.161	90.69
569.372	79.69
569.584	103.69
569.795	74.69
570.007	92.69
570.218	80.69
570.43	100.69
570.641	89.69
570.853	86.69
571.064	95.69
571.276	94.69
571.487	99.69
571.698	112.69
571.91	103.69
572.121	91.69
572.333	95.69
572.544	91.69
572.755	90.69
572.966	93.69
573.178	88.69
573.389	83.69
573.6	91.69
573.811	76.69
574.023	72.69
574.234	81.69
574.445	96.69
574.656	79.69
574.867	97.69
575.078	97.69
575.289	103.69
575.501	93.69
575.712	92.69
575.923	111.69
576.134	100.69
576.345	97.69
576.556	103.69
576.767	103.69
576.978	87.69
577.188	101.69
577.399	83.69
577.61	83.69
577.821	89.69
578.032	77.69
578.243	93.69
578.454	84.69
578.665	92.69
578.875	88.69
579.086	89.69
579.297	86.69
579.508	88.69
579.718	88.69
579.929	75.69
580.14	92.69
580.35	89.69
580.561	104.69
580.772	101.69
580.982	99.69
581.193	96.69
581.403	95.69
581.614	83.69
581.825	78.69
582.035	98.69
582.246	85.69
582.456	90.69
582.667	97.69
582.877	93.69
583.087	90.69
583.298	80.69
583.508	73.69
583.719	80.69
583.929	91.69
584.139	90.69
584.35	74.69
584.56	85.69
584.77	93.69
584.981	105.69
585.191	96.69
585.401	78.69
585.611	90.69
585.821	86.69
586.032	97.69
586.242	82.69
586.452	100.69
586.662	81.69
586.872	91.69
587.082	82.69
587.292	86.69
587.502	73.69
587.713	74.69
587.923	87.69
588.133	87.69
588.343	90.69
588.553	79.69
588.762	78.69
588.972	85.69
589.182	76.69
589.392	74.69
589.602	84.69
589.812	71.69
590.022	77.69
590.232	82.69
590.441	74.69
590.651	91.69
590.861	82.69
591.071	81.69
591.281	83.69
591.49	77.69
591.7	82.69
591.91	84.69
592.119	85.69
592.329	90.69
592.539	88.69
592.748	81.69
592.958	80.69
593.167	93.69
593.377	84.69
593.587	92.69
593.796	74.69
594.006	88.69
594.215	87.69
594.424	76.69
594.634	103.69
594.843	91.69
595.053	94.69
595.262	86.69
595.472	93.69
595.681	88.69
595.89	89.69
596.1	82.69
596.309	87.69
596.518	92.69
596.727	92.69
596.937	89.69
597.146	94.69
597.355	86.69
597.564	79.69
597.774	78.69
597.983	71.69
598.192	86.69
598.401	85.69
598.61	84.69
598.819	81.69
599.028	88.69
599.237	93.69
599.446	96.69
599.655	102.69
599.864	91.69
600.073	95.69
600.282	95.69
600.491	102.69
600.7	84.69
600.909	89.69
601.118	98.69
601.327	94.69
601.536	104.69
601.745	84.69
601.953	112.69
602.162	105.69
602.371	119.69
602.58	102.69
602.789	110.69
602.997	103.69
603.206	113.69
603.415	103.69
603.623	106.69
603.832	114.69
604.041	90.69
604.249	105.69
604.458	95.69
604.666	90.69
604.875	102.69
605.084	100.69
605.292	112.69
605.501	106.69
605.709	120.69
605.918	109.69
606.126	113.69
606.334	125.69
606.543	110.69
606.751	114.69
606.96	102.69
607.168	124.69
607.376	107.69
607.585	100.69
607.793	103.69
608.001	120.69
608.21	98.69
608.418	95.69
608.626	111.69
608.834	120.69
609.043	113.69
609.251	110.69
609.459	105.69
609.667	105.69
609.875	98.69
610.083	123.69
610.291	110.69
610.499	108.69
610.707	104.69
610.916	103.69
611.124	115.69
611.332	111.69
611.54	94.69
611.748	108.69
611.955	111.69
612.163	115.69
612.371	110.69
612.579	106.69
612.787	114.69
612.995	102.69
613.203	109.69
613.411	106.69
613.618	104.69
613.826	103.69
614.034	109.69
614.242	111.69
614.449	106.69
614.657	114.69
614.865	128.69
615.072	112.69
615.28	109.69
615.488	110.69
615.695	121.69
615.903	110.69
616.111	102.69
616.318	118.69
616.526	122.69
616.733	115.69
616.941	108.69
617.148	118.69
617.356	104.69
617.563	120.69
617.771	82.69
617.978	97.69
618.185	103.69
618.393	101.69
618.6	114.69
618.807	99.69
619.015	117.69
619.222	111.69
619.429	107.69
619.637	118.69
619.844	113.69
620.051	110.69
620.258	94.69
620.466	96.69
620.673	102.69
620.88	109.69
621.087	122.69
621.294	94.69
621.501	101.69
621.708	97.69
621.915	95.69
622.122	92.69
622.329	115.69
622.536	82.69
622.743	105.69
622.95	104.69
623.157	106.69
623.364	121.69
623.571	124.69
623.778	117.69
623.985	100.69
624.192	94.69
624.399	105.69
624.606	110.69
624.812	103.69
625.019	102.69
625.226	113.69
625.433	104.69
625.639	82.69
625.846	100.69
626.053	86.69
626.259	90.69
626.466	92.69
626.673	80.69
626.879	88.69
627.086	93.69
627.293	112.69
627.499	110.69
627.706	105.69
627.912	94.69
628.119	105.69
628.325	99.69
628.532	93.69
628.738	102.69
628.945	83.69
629.151	118.69
629.357	99.69
629.564	95.69
629.77	104.69
629.976	112.69
630.183	98.69
630.389	104.69
630.595	106.69
630.802	102.69
631.008	105.69
631.214	100.69
631.42	118.69
631.627	97.69
631.833	79.69
632.039	94.69
632.245	100.69
632.451	104.69
632.657	93.69
632.863	105.69
633.069	94.69
633.275	109.69
633.481	93.69
633.688	97.69
633.893	97.69
634.099	100.69
634.305	96.69
634.511	99.69
634.717	94.69
634.923	107.69
635.129	90.69
635.335	92.69
635.541	83.69
635.747	86.69
635.952	97.69
636.158	81.69
636.364	94.69
636.57	96.69
636.775	109.69
636.981	103.69
637.187	92.69
637.392	89.69
637.598	103.69
637.804	94.69
638.009	89.69
638.215	95.69
638.421	115.69
638.626	105.69
638.832	95.69
639.037	97.69
639.243	95.69
639.448	106.69
639.654	112.69
639.859	100.69
640.065	91.69
640.27	98.69
640.475	96.69
640.681	93.69
640.886	95.69
641.091	95.69
641.297	110.69
641.502	83.69
641.707	91.69
641.913	94.69
642.118	96.69
642.323	100.69
642.528	100.69
642.733	96.69
642.939	96.69
643.144	104.69
643.349	98.69
643.554	103.69
643.759	90.69
643.964	78.69
644.169	105.69
644.374	92.69
644.579	93.69
644.784	105.69
644.989	87.69
645.194	98.69
645.399	103.69
645.604	117.69
645.809	108.69
646.014	92.69
646.219	97.69
646.423	92.69
646.628	106.69
646.833	88.69
647.038	98.69
647.243	101.69
647.447	103.69
647.652	106.69
647.857	95.69
648.062	74.69
648.266	82.69
648.471	92.69
648.676	89.69
648.88	98.69
649.085	89.69
649.289	102.69
649.494	115.69
649.698	99.69
649.903	102.69
650.107	116.69
650.312	95.69
650.516	88.69
650.721	85.69
650.925	92.69
651.13	80.69
651.334	82.69
651.539	94.69
651.743	100.69
651.947	102.69
652.152	91.69
652.356	106.69
652.56	93.69
652.764	86.69
652.969	87.69
653.173	90.69
653.377	95.69
653.581	102.69
653.785	80.69
653.99	103.69
654.194	84.69
654.398	85.69
654.602	87.69
654.806	98.69
655.01	99.69
655.214	89.69
655.418	79.69
655.622	84.69
655.826	92.69
656.03	89.69
656.234	84.69
656.438	80.69
656.642	93.69
656.846	88.69
657.049	81.69
657.253	88.69
657.457	95.69
657.661	99.69
657.865	87.69
658.068	86.69
658.272	77.69
658.476	81.69
658.68	89.69
658.883	86.69
659.087	83.69
659.291	86.69
659.494	101.69
659.698	100.69
659.901	94.69
660.105	79.69
660.309	82.69
660.512	87.69
660.716	72.69
660.919	92.69
661.123	93.69
661.326	77.69
661.53	80.69
661.733	88.69
661.936	95.69
662.14	85.69
662.343	78.69
662.546	60.69
662.75	83.69
662.953	81.69
663.156	84.69
663.36	75.69
663.563	71.69
663.766	76.69
663.969	81.69
664.173	95.69
664.376	88.69
664.579	91.69
664.782	85.69
664.985	91.69
665.188	81.69
665.391	75.69
665.594	81.69
665.797	90.69
666	87.69
666.203	89.69
666.406	85.69
666.609	77.69
666.812	78.69
667.015	78.69
667.218	82.69
667.421	101.69
667.624	83.69
667.827	77.69
668.03	95.69
668.232	85.69
668.435	80.69
668.638	79.69
668.841	78.69
669.043	80.69
669.246	78.69
669.449	76.69
669.651	76.69
669.854	75.69
670.057	76.69
670.259	80.69
670.462	70.69
670.665	68.69
670.867	76.69
671.07	68.69
671.272	78.69
671.475	98.69
671.677	86.69
671.88	73.69
672.082	77.69
672.284	91.69
672.487	66.69
672.689	82.69
672.892	87.69
