Data from Location4.07152019.Energy5.Lamp.07192019.3%Agarose_HRD10591_16-20-30-925.txt Node
Date: Fri Jul 19 16:20:30 EDT 2019
User: cochatt
Spectrometer: HR+D1059
Trigger mode: 1
Integration Time (sec): 1.000000E-1
Scans to average: 1
Electric dark correction enabled: true
Nonlinearity correction enabled: false
Boxcar width: 0
XAxis mode: Wavelengths
Number of Pixels in Spectrum: 2048
>>>>>Begin Spectral Data<<<<<
223.165	-15.62
223.4	-15.62
223.635	-15.62
223.869	-15.62
224.104	-8.62
224.338	-9.62
224.573	-6.62
224.808	0.38
225.042	-10.62
225.277	-2.62
225.511	0.38
225.746	-18.62
225.98	5.38
226.215	16.38
226.449	18.38
226.683	10.38
226.918	14.38
227.152	22.38
227.387	32.38
227.621	54.38
227.856	43.38
228.09	59.38
228.324	60.38
228.559	64.38
228.793	66.38
229.027	66.38
229.262	68.38
229.496	52.38
229.73	64.38
229.964	75.38
230.199	90.38
230.433	84.38
230.667	80.38
230.901	81.38
231.136	86.38
231.37	79.38
231.604	87.38
231.838	83.38
232.072	92.38
232.306	97.38
232.541	87.38
232.775	99.38
233.009	80.38
233.243	82.38
233.477	90.38
233.711	83.38
233.945	97.38
234.179	81.38
234.413	85.38
234.647	87.38
234.881	80.38
235.115	89.38
235.349	83.38
235.583	76.38
235.817	82.38
236.051	87.38
236.285	83.38
236.519	76.38
236.753	80.38
236.987	78.38
237.221	71.38
237.455	85.38
237.689	83.38
237.922	71.38
238.156	76.38
238.39	78.38
238.624	81.38
238.858	77.38
239.091	73.38
239.325	72.38
239.559	88.38
239.793	96.38
240.027	84.38
240.26	88.38
240.494	80.38
240.728	75.38
240.961	73.38
241.195	72.38
241.429	92.38
241.662	80.38
241.896	78.38
242.13	84.38
242.363	89.38
242.597	76.38
242.83	87.38
243.064	91.38
243.298	76.38
243.531	90.38
243.765	85.38
243.998	85.38
244.232	86.38
244.465	79.38
244.699	90.38
244.932	75.38
245.166	83.38
245.399	82.38
245.633	76.38
245.866	81.38
246.099	86.38
246.333	87.38
246.566	83.38
246.8	89.38
247.033	76.38
247.266	79.38
247.5	79.38
247.733	66.38
247.966	86.38
248.2	78.38
248.433	92.38
248.666	67.38
248.899	81.38
249.133	95.38
249.366	89.38
249.599	80.38
249.832	75.38
250.066	74.38
250.299	69.38
250.532	86.38
250.765	94.38
250.998	90.38
251.231	82.38
251.465	77.38
251.698	80.38
251.931	81.38
252.164	89.38
252.397	76.38
252.63	85.38
252.863	71.38
253.096	83.38
253.329	96.38
253.562	78.38
253.795	75.38
254.028	98.38
254.261	89.38
254.494	76.38
254.727	92.38
254.96	80.38
255.193	79.38
255.426	105.38
255.659	83.38
255.892	96.38
256.124	80.38
256.357	89.38
256.59	79.38
256.823	89.38
257.056	83.38
257.289	77.38
257.521	86.38
257.754	81.38
257.987	88.38
258.22	77.38
258.452	74.38
258.685	80.38
258.918	87.38
259.151	77.38
259.383	78.38
259.616	86.38
259.849	82.38
260.081	77.38
260.314	79.38
260.547	73.38
260.779	86.38
261.012	94.38
261.244	77.38
261.477	103.38
261.71	89.38
261.942	86.38
262.175	86.38
262.407	75.38
262.64	83.38
262.872	92.38
263.105	81.38
263.337	89.38
263.57	84.38
263.802	83.38
264.035	71.38
264.267	81.38
264.499	98.38
264.732	91.38
264.964	77.38
265.197	92.38
265.429	91.38
265.661	90.38
265.894	80.38
266.126	96.38
266.358	81.38
266.591	71.38
266.823	85.38
267.055	91.38
267.287	90.38
267.52	86.38
267.752	66.38
267.984	77.38
268.216	87.38
268.448	88.38
268.681	86.38
268.913	92.38
269.145	94.38
269.377	98.38
269.609	79.38
269.841	89.38
270.073	77.38
270.306	92.38
270.538	66.38
270.77	86.38
271.002	91.38
271.234	77.38
271.466	94.38
271.698	84.38
271.93	87.38
272.162	81.38
272.394	95.38
272.626	85.38
272.858	86.38
273.09	84.38
273.322	88.38
273.553	95.38
273.785	93.38
274.017	81.38
274.249	86.38
274.481	89.38
274.713	79.38
274.945	93.38
275.176	88.38
275.408	86.38
275.64	88.38
275.872	84.38
276.104	84.38
276.335	91.38
276.567	76.38
276.799	100.38
277.031	94.38
277.262	105.38
277.494	76.38
277.726	88.38
277.957	86.38
278.189	91.38
278.421	90.38
278.652	84.38
278.884	87.38
279.115	83.38
279.347	76.38
279.579	85.38
279.81	93.38
280.042	85.38
280.273	91.38
280.505	102.38
280.736	93.38
280.968	94.38
281.199	84.38
281.431	82.38
281.662	79.38
281.894	95.38
282.125	90.38
282.356	91.38
282.588	91.38
282.819	80.38
283.051	86.38
283.282	102.38
283.513	105.38
283.745	88.38
283.976	88.38
284.207	92.38
284.439	85.38
284.67	81.38
284.901	76.38
285.132	101.38
285.364	92.38
285.595	82.38
285.826	82.38
286.057	88.38
286.288	98.38
286.52	96.38
286.751	78.38
286.982	85.38
287.213	77.38
287.444	101.38
287.675	86.38
287.906	102.38
288.138	82.38
288.369	76.38
288.6	93.38
288.831	94.38
289.062	80.38
289.293	80.38
289.524	79.38
289.755	90.38
289.986	82.38
290.217	94.38
290.448	83.38
290.679	88.38
290.91	99.38
291.141	88.38
291.371	106.38
291.602	86.38
291.833	84.38
292.064	82.38
292.295	83.38
292.526	81.38
292.757	86.38
292.987	88.38
293.218	83.38
293.449	89.38
293.68	80.38
293.91	101.38
294.141	103.38
294.372	87.38
294.603	86.38
294.833	108.38
295.064	81.38
295.295	86.38
295.525	95.38
295.756	97.38
295.987	81.38
296.217	77.38
296.448	89.38
296.679	103.38
296.909	88.38
297.14	97.38
297.37	89.38
297.601	90.38
297.831	99.38
298.062	73.38
298.292	79.38
298.523	97.38
298.753	101.38
298.984	111.38
299.214	93.38
299.445	92.38
299.675	88.38
299.905	103.38
300.136	90.38
300.366	89.38
300.597	105.38
300.827	102.38
301.057	82.38
301.288	94.38
301.518	91.38
301.748	105.38
301.979	90.38
302.209	100.38
302.439	86.38
302.669	87.38
302.9	104.38
303.13	94.38
303.36	86.38
303.59	94.38
303.82	90.38
304.051	98.38
304.281	91.38
304.511	79.38
304.741	89.38
304.971	97.38
305.201	109.38
305.431	88.38
305.661	86.38
305.891	82.38
306.121	100.38
306.352	99.38
306.582	96.38
306.812	85.38
307.042	87.38
307.272	86.38
307.502	102.38
307.731	90.38
307.961	95.38
308.191	104.38
308.421	82.38
308.651	92.38
308.881	78.38
309.111	83.38
309.341	96.38
309.571	92.38
309.8	96.38
310.03	92.38
310.26	73.38
310.49	83.38
310.72	85.38
310.949	80.38
311.179	94.38
311.409	79.38
311.639	93.38
311.868	89.38
312.098	74.38
312.328	75.38
312.557	92.38
312.787	81.38
313.017	107.38
313.246	85.38
313.476	110.38
313.706	91.38
313.935	87.38
314.165	81.38
314.394	83.38
314.624	76.38
314.853	88.38
315.083	87.38
315.312	91.38
315.542	88.38
315.771	88.38
316.001	85.38
316.23	85.38
316.46	77.38
316.689	88.38
316.919	90.38
317.148	90.38
317.377	94.38
317.607	93.38
317.836	96.38
318.065	92.38
318.295	89.38
318.524	97.38
318.753	87.38
318.983	93.38
319.212	100.38
319.441	94.38
319.67	94.38
319.9	95.38
320.129	88.38
320.358	84.38
320.587	86.38
320.816	82.38
321.046	81.38
321.275	89.38
321.504	93.38
321.733	88.38
321.962	97.38
322.191	94.38
322.42	81.38
322.649	90.38
322.878	97.38
323.108	93.38
323.337	92.38
323.566	98.38
323.795	85.38
324.024	96.38
324.253	87.38
324.482	96.38
324.71	87.38
324.939	83.38
325.168	90.38
325.397	105.38
325.626	81.38
325.855	92.38
326.084	107.38
326.313	92.38
326.542	89.38
326.77	86.38
326.999	99.38
327.228	96.38
327.457	81.38
327.686	78.38
327.914	96.38
328.143	94.38
328.372	100.38
328.6	93.38
328.829	77.38
329.058	89.38
329.287	87.38
329.515	74.38
329.744	85.38
329.972	85.38
330.201	91.38
330.43	87.38
330.658	82.38
330.887	87.38
331.115	93.38
331.344	86.38
331.572	98.38
331.801	92.38
332.03	76.38
332.258	85.38
332.486	75.38
332.715	81.38
332.943	89.38
333.172	90.38
333.4	95.38
333.629	93.38
333.857	95.38
334.085	88.38
334.314	105.38
334.542	91.38
334.771	93.38
334.999	95.38
335.227	104.38
335.455	90.38
335.684	97.38
335.912	76.38
336.14	84.38
336.369	81.38
336.597	88.38
336.825	94.38
337.053	76.38
337.281	87.38
337.51	101.38
337.738	80.38
337.966	90.38
338.194	89.38
338.422	86.38
338.65	89.38
338.878	86.38
339.106	98.38
339.334	90.38
339.562	91.38
339.79	79.38
340.018	98.38
340.246	106.38
340.474	89.38
340.702	81.38
340.93	90.38
341.158	97.38
341.386	85.38
341.614	92.38
341.842	95.38
342.07	83.38
342.298	81.38
342.526	86.38
342.754	89.38
342.981	80.38
343.209	82.38
343.437	88.38
343.665	95.38
343.893	100.38
344.12	93.38
344.348	92.38
344.576	95.38
344.804	104.38
345.031	100.38
345.259	85.38
345.487	82.38
345.714	86.38
345.942	91.38
346.17	92.38
346.397	87.38
346.625	75.38
346.853	102.38
347.08	79.38
347.308	100.38
347.535	91.38
347.763	80.38
347.99	102.38
348.218	89.38
348.445	77.38
348.673	80.38
348.9	82.38
349.128	97.38
349.355	93.38
349.583	89.38
349.81	76.38
350.037	81.38
350.265	109.38
350.492	85.38
350.72	80.38
350.947	92.38
351.174	91.38
351.402	97.38
351.629	86.38
351.856	80.38
352.083	77.38
352.311	91.38
352.538	94.38
352.765	81.38
352.992	95.38
353.22	86.38
353.447	89.38
353.674	80.38
353.901	95.38
354.128	84.38
354.355	86.38
354.583	85.38
354.81	87.38
355.037	81.38
355.264	93.38
355.491	88.38
355.718	90.38
355.945	90.38
356.172	89.38
356.399	94.38
356.626	82.38
356.853	91.38
357.08	93.38
357.307	78.38
357.534	83.38
357.761	92.38
357.988	94.38
358.215	80.38
358.441	94.38
358.668	93.38
358.895	81.38
359.122	89.38
359.349	84.38
359.576	77.38
359.802	90.38
360.029	83.38
360.256	87.38
360.483	103.38
360.709	93.38
360.936	78.38
361.163	96.38
361.39	79.38
361.616	79.38
361.843	101.38
362.07	92.38
362.296	87.38
362.523	93.38
362.749	78.38
362.976	92.38
363.203	85.38
363.429	73.38
363.656	101.38
363.882	73.38
364.109	85.38
364.335	88.38
364.562	85.38
364.788	86.38
365.015	95.38
365.241	93.38
365.468	96.38
365.694	105.38
365.92	88.38
366.147	88.38
366.373	83.38
366.599	91.38
366.826	92.38
367.052	82.38
367.278	88.38
367.505	108.38
367.731	79.38
367.957	99.38
368.184	97.38
368.41	99.38
368.636	94.38
368.862	98.38
369.089	91.38
369.315	75.38
369.541	111.38
369.767	105.38
369.993	103.38
370.219	100.38
370.445	89.38
370.672	104.38
370.898	88.38
371.124	94.38
371.35	102.38
371.576	92.38
371.802	106.38
372.028	95.38
372.254	102.38
372.48	80.38
372.706	87.38
372.932	93.38
373.158	85.38
373.384	98.38
373.61	99.38
373.835	86.38
374.061	77.38
374.287	105.38
374.513	97.38
374.739	97.38
374.965	100.38
375.191	96.38
375.416	91.38
375.642	97.38
375.868	110.38
376.094	92.38
376.319	104.38
376.545	95.38
376.771	85.38
376.997	100.38
377.222	88.38
377.448	101.38
377.674	87.38
377.899	89.38
378.125	97.38
378.35	111.38
378.576	108.38
378.802	100.38
379.027	91.38
379.253	98.38
379.478	105.38
379.704	111.38
379.929	96.38
380.155	94.38
380.38	100.38
380.606	108.38
380.831	102.38
381.057	120.38
381.282	105.38
381.507	103.38
381.733	90.38
381.958	88.38
382.184	100.38
382.409	92.38
382.634	99.38
382.86	107.38
383.085	110.38
383.31	102.38
383.535	102.38
383.761	88.38
383.986	117.38
384.211	91.38
384.436	94.38
384.662	95.38
384.887	88.38
385.112	92.38
385.337	99.38
385.562	105.38
385.787	101.38
386.013	102.38
386.238	98.38
386.463	117.38
386.688	100.38
386.913	108.38
387.138	94.38
387.363	100.38
387.588	99.38
387.813	90.38
388.038	96.38
388.263	101.38
388.488	108.38
388.713	97.38
388.938	109.38
389.163	110.38
389.387	103.38
389.612	98.38
389.837	109.38
390.062	110.38
390.287	95.38
390.512	107.38
390.736	111.38
390.961	100.38
391.186	102.38
391.411	88.38
391.636	94.38
391.86	106.38
392.085	113.38
392.31	96.38
392.534	103.38
392.759	96.38
392.984	106.38
393.208	107.38
393.433	103.38
393.658	118.38
393.882	121.38
394.107	113.38
394.331	102.38
394.556	102.38
394.78	110.38
395.005	98.38
395.229	109.38
395.454	102.38
395.678	112.38
395.903	113.38
396.127	104.38
396.352	101.38
396.576	98.38
396.801	103.38
397.025	107.38
397.249	102.38
397.474	121.38
397.698	104.38
397.922	118.38
398.147	101.38
398.371	103.38
398.595	111.38
398.82	102.38
399.044	108.38
399.268	114.38
399.492	108.38
399.717	108.38
399.941	118.38
400.165	97.38
400.389	108.38
400.613	117.38
400.837	120.38
401.062	124.38
401.286	118.38
401.51	115.38
401.734	114.38
401.958	103.38
402.182	119.38
402.406	105.38
402.63	112.38
402.854	101.38
403.078	113.38
403.302	111.38
403.526	100.38
403.75	118.38
403.974	118.38
404.198	128.38
404.422	114.38
404.645	102.38
404.869	119.38
405.093	118.38
405.317	128.38
405.541	103.38
405.765	138.38
405.988	127.38
406.212	127.38
406.436	117.38
406.66	132.38
406.883	118.38
407.107	118.38
407.331	133.38
407.555	108.38
407.778	120.38
408.002	113.38
408.226	121.38
408.449	116.38
408.673	112.38
408.896	109.38
409.12	133.38
409.344	118.38
409.567	113.38
409.791	121.38
410.014	114.38
410.238	112.38
410.461	113.38
410.685	116.38
410.908	118.38
411.132	125.38
411.355	109.38
411.578	134.38
411.802	120.38
412.025	125.38
412.249	126.38
412.472	123.38
412.695	107.38
412.919	136.38
413.142	136.38
413.365	125.38
413.589	112.38
413.812	124.38
414.035	129.38
414.258	126.38
414.482	114.38
414.705	121.38
414.928	117.38
415.151	125.38
415.374	130.38
415.597	120.38
415.821	117.38
416.044	117.38
416.267	124.38
416.49	128.38
416.713	125.38
416.936	142.38
417.159	128.38
417.382	125.38
417.605	144.38
417.828	126.38
418.051	128.38
418.274	122.38
418.497	126.38
418.72	130.38
418.943	139.38
419.166	132.38
419.389	130.38
419.611	153.38
419.834	134.38
420.057	135.38
420.28	115.38
420.503	123.38
420.726	127.38
420.948	145.38
421.171	120.38
421.394	147.38
421.617	144.38
421.839	144.38
422.062	141.38
422.285	131.38
422.507	125.38
422.73	129.38
422.953	138.38
423.175	127.38
423.398	119.38
423.621	143.38
423.843	136.38
424.066	132.38
424.288	146.38
424.511	151.38
424.733	144.38
424.956	138.38
425.178	137.38
425.401	143.38
425.623	128.38
425.846	135.38
426.068	160.38
426.291	117.38
426.513	125.38
426.735	112.38
426.958	130.38
427.18	128.38
427.402	140.38
427.625	112.38
427.847	127.38
428.069	123.38
428.292	125.38
428.514	132.38
428.736	120.38
428.958	127.38
429.181	128.38
429.403	138.38
429.625	128.38
429.847	145.38
430.069	132.38
430.292	135.38
430.514	135.38
430.736	135.38
430.958	117.38
431.18	129.38
431.402	134.38
431.624	126.38
431.846	105.38
432.068	101.38
432.29	96.38
432.512	110.38
432.734	130.38
432.956	138.38
433.178	128.38
433.4	126.38
433.622	147.38
433.844	132.38
434.066	124.38
434.287	109.38
434.509	108.38
434.731	107.38
434.953	116.38
435.175	128.38
435.397	124.38
435.618	118.38
435.84	116.38
436.062	118.38
436.284	122.38
436.505	121.38
436.727	143.38
436.949	124.38
437.17	129.38
437.392	129.38
437.614	123.38
437.835	121.38
438.057	120.38
438.278	121.38
438.5	138.38
438.721	140.38
438.943	140.38
439.165	134.38
439.386	143.38
439.608	142.38
439.829	162.38
440.05	152.38
440.272	136.38
440.493	143.38
440.715	142.38
440.936	154.38
441.158	149.38
441.379	157.38
441.6	158.38
441.822	126.38
442.043	132.38
442.264	145.38
442.486	140.38
442.707	135.38
442.928	153.38
443.149	125.38
443.371	116.38
443.592	144.38
443.813	146.38
444.034	136.38
444.255	139.38
444.476	146.38
444.698	139.38
444.919	130.38
445.14	272.38
445.361	204.38
445.582	143.38
445.803	140.38
446.024	152.38
446.245	140.38
446.466	160.38
446.687	142.38
446.908	156.38
447.129	144.38
447.35	147.38
447.571	137.38
447.792	155.38
448.013	134.38
448.234	133.38
448.455	141.38
448.675	135.38
448.896	128.38
449.117	145.38
449.338	131.38
449.559	130.38
449.779	136.38
450	141.38
450.221	138.38
450.442	136.38
450.662	140.38
450.883	136.38
451.104	137.38
451.324	130.38
451.545	124.38
451.766	135.38
451.986	133.38
452.207	140.38
452.428	131.38
452.648	126.38
452.869	131.38
453.089	113.38
453.31	120.38
453.53	108.38
453.751	105.38
453.971	102.38
454.192	122.38
454.412	123.38
454.633	120.38
454.853	123.38
455.073	121.38
455.294	132.38
455.514	110.38
455.734	112.38
455.955	117.38
456.175	126.38
456.395	119.38
456.616	126.38
456.836	118.38
457.056	108.38
457.276	95.38
457.497	113.38
457.717	111.38
457.937	114.38
458.157	123.38
458.377	107.38
458.598	105.38
458.818	89.38
459.038	100.38
459.258	92.38
459.478	98.38
459.698	94.38
459.918	105.38
460.138	109.38
460.358	113.38
460.578	137.38
460.798	114.38
461.018	134.38
461.238	131.38
461.458	128.38
461.678	115.38
461.898	130.38
462.118	113.38
462.338	104.38
462.558	108.38
462.777	109.38
462.997	116.38
463.217	106.38
463.437	110.38
463.657	115.38
463.876	109.38
464.096	112.38
464.316	113.38
464.536	116.38
464.755	121.38
464.975	124.38
465.195	113.38
465.414	116.38
465.634	130.38
465.854	120.38
466.073	117.38
466.293	121.38
466.512	117.38
466.732	147.38
466.951	128.38
467.171	139.38
467.391	132.38
467.61	122.38
467.829	139.38
468.049	145.38
468.268	138.38
468.488	131.38
468.707	124.38
468.927	136.38
469.146	128.38
469.365	127.38
469.585	129.38
469.804	133.38
470.023	151.38
470.243	146.38
470.462	155.38
470.681	141.38
470.901	146.38
471.12	139.38
471.339	125.38
471.558	131.38
471.777	134.38
471.997	136.38
472.216	133.38
472.435	123.38
472.654	105.38
472.873	123.38
473.092	109.38
473.311	133.38
473.53	116.38
473.749	130.38
473.968	128.38
474.187	129.38
474.406	124.38
474.625	134.38
474.844	129.38
475.063	136.38
475.282	112.38
475.501	107.38
475.72	133.38
475.939	127.38
476.158	128.38
476.377	122.38
476.596	119.38
476.814	123.38
477.033	116.38
477.252	120.38
477.471	134.38
477.69	132.38
477.908	117.38
478.127	146.38
478.346	130.38
478.564	131.38
478.783	140.38
479.002	134.38
479.22	146.38
479.439	142.38
479.658	119.38
479.876	116.38
480.095	112.38
480.313	122.38
480.532	117.38
480.751	114.38
480.969	98.38
481.188	97.38
481.406	89.38
481.624	86.38
481.843	88.38
482.061	108.38
482.28	102.38
482.498	114.38
482.717	104.38
482.935	126.38
483.153	141.38
483.372	153.38
483.59	151.38
483.808	156.38
484.027	139.38
484.245	131.38
484.463	150.38
484.681	165.38
484.9	146.38
485.118	148.38
485.336	152.38
485.554	121.38
485.772	104.38
485.99	103.38
486.209	95.38
486.427	119.38
486.645	111.38
486.863	128.38
487.081	143.38
487.299	125.38
487.517	132.38
487.735	170.38
487.953	181.38
488.171	192.38
488.389	177.38
488.607	146.38
488.825	146.38
489.043	139.38
489.261	145.38
489.479	138.38
489.696	152.38
489.914	146.38
490.132	154.38
490.35	147.38
490.568	161.38
490.786	181.38
491.003	188.38
491.221	172.38
491.439	168.38
491.657	175.38
491.874	188.38
492.092	224.38
492.31	251.38
492.527	220.38
492.745	203.38
492.963	194.38
493.18	174.38
493.398	175.38
493.615	184.38
493.833	191.38
494.05	172.38
494.268	169.38
494.485	165.38
494.703	166.38
494.92	165.38
495.138	174.38
495.355	160.38
495.573	164.38
495.79	173.38
496.008	180.38
496.225	146.38
496.442	171.38
496.66	170.38
496.877	177.38
497.094	184.38
497.312	166.38
497.529	162.38
497.746	165.38
497.963	134.38
498.181	143.38
498.398	128.38
498.615	117.38
498.832	109.38
499.049	117.38
499.267	130.38
499.484	112.38
499.701	148.38
499.918	136.38
500.135	142.38
500.352	142.38
500.569	143.38
500.786	171.38
501.003	157.38
501.22	151.38
501.437	134.38
501.654	148.38
501.871	144.38
502.088	138.38
502.305	133.38
502.522	136.38
502.739	144.38
502.956	133.38
503.172	133.38
503.389	128.38
503.606	109.38
503.823	118.38
504.04	105.38
504.256	126.38
504.473	128.38
504.69	138.38
504.907	122.38
505.123	131.38
505.34	121.38
505.557	125.38
505.773	135.38
505.99	139.38
506.207	124.38
506.423	117.38
506.64	129.38
506.856	118.38
507.073	132.38
507.289	128.38
507.506	127.38
507.722	116.38
507.939	123.38
508.155	121.38
508.372	117.38
508.588	120.38
508.805	102.38
509.021	115.38
509.238	109.38
509.454	97.38
509.67	102.38
509.887	92.38
510.103	99.38
510.319	105.38
510.536	96.38
510.752	97.38
510.968	102.38
511.184	86.38
511.401	88.38
511.617	89.38
511.833	90.38
512.049	107.38
512.265	110.38
512.481	101.38
512.698	98.38
512.914	93.38
513.13	103.38
513.346	99.38
513.562	96.38
513.778	93.38
513.994	100.38
514.21	99.38
514.426	88.38
514.642	90.38
514.858	93.38
515.074	88.38
515.29	96.38
515.506	91.38
515.721	97.38
515.937	90.38
516.153	94.38
516.369	94.38
516.585	90.38
516.801	93.38
517.016	96.38
517.232	97.38
517.448	93.38
517.664	100.38
517.879	97.38
518.095	97.38
518.311	99.38
518.527	100.38
518.742	96.38
518.958	97.38
519.173	101.38
519.389	108.38
519.605	107.38
519.82	100.38
520.036	116.38
520.251	110.38
520.467	106.38
520.682	105.38
520.898	88.38
521.113	92.38
521.329	116.38
521.544	102.38
521.76	96.38
521.975	96.38
522.19	93.38
522.406	102.38
522.621	106.38
522.836	100.38
523.052	116.38
523.267	111.38
523.482	105.38
523.698	112.38
523.913	122.38
524.128	111.38
524.343	117.38
524.559	118.38
524.774	113.38
524.989	122.38
525.204	138.38
525.419	117.38
525.634	118.38
525.849	109.38
526.064	110.38
526.28	108.38
526.495	95.38
526.71	83.38
526.925	90.38
527.14	82.38
527.355	96.38
527.57	72.38
527.785	104.38
527.999	95.38
528.214	96.38
528.429	120.38
528.644	118.38
528.859	133.38
529.074	156.38
529.289	171.38
529.503	157.38
529.718	144.38
529.933	121.38
530.148	110.38
530.363	101.38
530.577	92.38
530.792	88.38
531.007	83.38
531.221	94.38
531.436	92.38
531.651	92.38
531.865	89.38
532.08	94.38
532.295	87.38
532.509	95.38
532.724	90.38
532.938	97.38
533.153	94.38
533.367	103.38
533.582	122.38
533.796	124.38
534.011	121.38
534.225	98.38
534.44	87.38
534.654	113.38
534.868	104.38
535.083	91.38
535.297	100.38
535.511	115.38
535.726	112.38
535.94	109.38
536.154	108.38
536.369	101.38
536.583	90.38
536.797	90.38
537.011	91.38
537.225	78.38
537.44	82.38
537.654	93.38
537.868	95.38
538.082	100.38
538.296	90.38
538.51	117.38
538.724	128.38
538.938	128.38
539.153	124.38
539.367	128.38
539.581	111.38
539.795	117.38
540.009	102.38
540.222	93.38
540.436	112.38
540.65	114.38
540.864	130.38
541.078	143.38
541.292	146.38
541.506	164.38
541.72	173.38
541.934	217.38
542.147	188.38
542.361	188.38
542.575	170.38
542.789	144.38
543.002	144.38
543.216	124.38
543.43	133.38
543.644	142.38
543.857	143.38
544.071	154.38
544.285	156.38
544.498	150.38
544.712	158.38
544.925	151.38
545.139	156.38
545.352	146.38
545.566	164.38
545.779	174.38
545.993	168.38
546.206	157.38
546.42	166.38
546.633	163.38
546.847	168.38
547.06	168.38
547.274	167.38
547.487	183.38
547.7	189.38
547.914	173.38
548.127	170.38
548.34	160.38
548.554	163.38
548.767	158.38
548.98	152.38
549.193	154.38
549.407	155.38
549.62	145.38
549.833	152.38
550.046	167.38
550.259	142.38
550.473	146.38
550.686	151.38
550.899	134.38
551.112	147.38
551.325	152.38
551.538	147.38
551.751	128.38
551.964	134.38
552.177	133.38
552.39	120.38
552.603	158.38
552.816	149.38
553.029	152.38
553.242	168.38
553.455	160.38
553.667	160.38
553.88	152.38
554.093	141.38
554.306	157.38
554.519	142.38
554.732	138.38
554.944	147.38
555.157	150.38
555.37	145.38
555.583	141.38
555.795	150.38
556.008	145.38
556.221	138.38
556.433	145.38
556.646	127.38
556.859	139.38
557.071	138.38
557.284	138.38
557.496	136.38
557.709	142.38
557.921	143.38
558.134	140.38
558.346	132.38
558.559	135.38
558.771	129.38
558.984	129.38
559.196	133.38
559.409	141.38
559.621	132.38
559.833	131.38
560.046	125.38
560.258	138.38
560.47	143.38
560.683	128.38
560.895	134.38
561.107	132.38
561.32	141.38
561.532	141.38
561.744	145.38
561.956	157.38
562.168	132.38
562.381	135.38
562.593	128.38
562.805	128.38
563.017	135.38
563.229	117.38
563.441	122.38
563.653	128.38
563.865	125.38
564.077	108.38
564.289	111.38
564.501	129.38
564.713	119.38
564.925	116.38
565.137	126.38
565.349	117.38
565.561	121.38
565.773	131.38
565.985	120.38
566.197	120.38
566.408	113.38
566.62	116.38
566.832	122.38
567.044	125.38
567.255	114.38
567.467	128.38
567.679	111.38
567.891	120.38
568.102	106.38
568.314	102.38
568.526	103.38
568.737	84.38
568.949	85.38
569.161	101.38
569.372	81.38
569.584	96.38
569.795	93.38
570.007	85.38
570.218	86.38
570.43	116.38
570.641	91.38
570.853	111.38
571.064	121.38
571.276	103.38
571.487	114.38
571.698	108.38
571.91	105.38
572.121	102.38
572.333	116.38
572.544	109.38
572.755	100.38
572.966	104.38
573.178	88.38
573.389	91.38
573.6	104.38
573.811	87.38
574.023	85.38
574.234	93.38
574.445	86.38
574.656	103.38
574.867	80.38
575.078	102.38
575.289	107.38
575.501	103.38
575.712	93.38
575.923	96.38
576.134	96.38
576.345	110.38
576.556	103.38
576.767	96.38
576.978	107.38
577.188	103.38
577.399	92.38
577.61	92.38
577.821	111.38
578.032	98.38
578.243	100.38
578.454	108.38
578.665	96.38
578.875	111.38
579.086	111.38
579.297	83.38
579.508	114.38
579.718	93.38
579.929	97.38
580.14	95.38
580.35	86.38
580.561	98.38
580.772	104.38
580.982	93.38
581.193	92.38
581.403	86.38
581.614	94.38
581.825	101.38
582.035	93.38
582.246	95.38
582.456	99.38
582.667	99.38
582.877	94.38
583.087	96.38
583.298	95.38
583.508	94.38
583.719	97.38
583.929	90.38
584.139	90.38
584.35	82.38
584.56	95.38
584.77	80.38
584.981	93.38
585.191	78.38
585.401	83.38
585.611	89.38
585.821	84.38
586.032	93.38
586.242	97.38
586.452	95.38
586.662	95.38
586.872	98.38
587.082	81.38
587.292	97.38
587.502	93.38
587.713	89.38
587.923	98.38
588.133	80.38
588.343	92.38
588.553	76.38
588.762	96.38
588.972	113.38
589.182	93.38
589.392	94.38
589.602	82.38
589.812	78.38
590.022	102.38
590.232	91.38
590.441	94.38
590.651	86.38
590.861	96.38
591.071	96.38
591.281	97.38
591.49	81.38
591.7	95.38
591.91	89.38
592.119	89.38
592.329	79.38
592.539	92.38
592.748	89.38
592.958	82.38
593.167	89.38
593.377	78.38
593.587	100.38
593.796	103.38
594.006	80.38
594.215	72.38
594.424	95.38
594.634	90.38
594.843	88.38
595.053	111.38
595.262	105.38
595.472	103.38
595.681	96.38
595.89	98.38
596.1	96.38
596.309	95.38
596.518	91.38
596.727	89.38
596.937	90.38
597.146	112.38
597.355	109.38
597.564	115.38
597.774	105.38
597.983	104.38
598.192	115.38
598.401	90.38
598.61	109.38
598.819	83.38
599.028	106.38
599.237	96.38
599.446	97.38
599.655	94.38
599.864	109.38
600.073	93.38
600.282	107.38
600.491	101.38
600.7	98.38
600.909	101.38
601.118	95.38
601.327	111.38
601.536	105.38
601.745	113.38
601.953	111.38
602.162	97.38
602.371	109.38
602.58	111.38
602.789	117.38
602.997	115.38
603.206	106.38
603.415	121.38
603.623	118.38
603.832	120.38
604.041	117.38
604.249	104.38
604.458	116.38
604.666	92.38
604.875	113.38
605.084	100.38
605.292	111.38
605.501	122.38
605.709	130.38
605.918	121.38
606.126	115.38
606.334	108.38
606.543	104.38
606.751	129.38
606.96	125.38
607.168	120.38
607.376	120.38
607.585	109.38
607.793	121.38
608.001	104.38
608.21	118.38
608.418	111.38
608.626	106.38
608.834	122.38
609.043	116.38
609.251	125.38
609.459	114.38
609.667	116.38
609.875	122.38
610.083	117.38
610.291	129.38
610.499	109.38
610.707	123.38
610.916	112.38
611.124	110.38
611.332	122.38
611.54	124.38
611.748	116.38
611.955	126.38
612.163	114.38
612.371	114.38
612.579	119.38
612.787	119.38
612.995	117.38
613.203	133.38
613.411	126.38
613.618	113.38
613.826	103.38
614.034	112.38
614.242	112.38
614.449	128.38
614.657	123.38
614.865	105.38
615.072	100.38
615.28	112.38
615.488	135.38
615.695	122.38
615.903	135.38
616.111	112.38
616.318	122.38
616.526	114.38
616.733	119.38
616.941	132.38
617.148	116.38
617.356	128.38
617.563	112.38
617.771	107.38
617.978	112.38
618.185	112.38
618.393	117.38
618.6	127.38
618.807	126.38
619.015	121.38
619.222	116.38
619.429	96.38
619.637	109.38
619.844	111.38
620.051	112.38
620.258	112.38
620.466	113.38
620.673	110.38
620.88	113.38
621.087	103.38
621.294	112.38
621.501	108.38
621.708	86.38
621.915	117.38
622.122	98.38
622.329	104.38
622.536	103.38
622.743	117.38
622.95	102.38
623.157	111.38
623.364	110.38
623.571	118.38
623.778	113.38
623.985	128.38
624.192	116.38
624.399	110.38
624.606	118.38
624.812	104.38
625.019	114.38
625.226	105.38
625.433	101.38
625.639	107.38
625.846	101.38
626.053	89.38
626.259	98.38
626.466	94.38
626.673	95.38
626.879	92.38
627.086	111.38
627.293	110.38
627.499	103.38
627.706	113.38
627.912	109.38
628.119	120.38
628.325	106.38
628.532	116.38
628.738	114.38
628.945	98.38
629.151	106.38
629.357	104.38
629.564	103.38
629.77	103.38
629.976	105.38
630.183	111.38
630.389	111.38
630.595	104.38
630.802	97.38
631.008	105.38
631.214	120.38
631.42	106.38
631.627	103.38
631.833	105.38
632.039	102.38
632.245	112.38
632.451	97.38
632.657	118.38
632.863	112.38
633.069	95.38
633.275	100.38
633.481	111.38
633.688	98.38
633.893	102.38
634.099	106.38
634.305	110.38
634.511	104.38
634.717	95.38
634.923	109.38
635.129	91.38
635.335	103.38
635.541	106.38
635.747	105.38
635.952	110.38
636.158	122.38
636.364	93.38
636.57	110.38
636.775	124.38
636.981	104.38
637.187	102.38
637.392	117.38
637.598	113.38
637.804	100.38
638.009	108.38
638.215	108.38
638.421	106.38
638.626	120.38
638.832	113.38
639.037	107.38
639.243	103.38
639.448	101.38
639.654	103.38
639.859	96.38
640.065	90.38
640.27	110.38
640.475	101.38
640.681	104.38
640.886	109.38
641.091	108.38
641.297	104.38
641.502	101.38
641.707	85.38
641.913	106.38
642.118	111.38
642.323	120.38
642.528	119.38
642.733	118.38
642.939	108.38
643.144	101.38
643.349	100.38
643.554	111.38
643.759	106.38
643.964	105.38
644.169	109.38
644.374	106.38
644.579	105.38
644.784	112.38
644.989	100.38
645.194	98.38
645.399	104.38
645.604	108.38
645.809	102.38
646.014	107.38
646.219	102.38
646.423	98.38
646.628	104.38
646.833	118.38
647.038	102.38
647.243	93.38
647.447	91.38
647.652	96.38
647.857	103.38
648.062	109.38
648.266	105.38
648.471	111.38
648.676	105.38
648.88	96.38
649.085	88.38
649.289	86.38
649.494	93.38
649.698	112.38
649.903	88.38
650.107	95.38
650.312	103.38
650.516	108.38
650.721	101.38
650.925	93.38
651.13	96.38
651.334	110.38
651.539	97.38
651.743	98.38
651.947	110.38
652.152	101.38
652.356	88.38
652.56	109.38
652.764	105.38
652.969	102.38
653.173	93.38
653.377	101.38
653.581	75.38
653.785	89.38
653.99	94.38
654.194	97.38
654.398	85.38
654.602	91.38
654.806	93.38
655.01	91.38
655.214	87.38
655.418	91.38
655.622	89.38
655.826	97.38
656.03	92.38
656.234	103.38
656.438	91.38
656.642	96.38
656.846	98.38
657.049	93.38
657.253	92.38
657.457	79.38
657.661	86.38
657.865	111.38
658.068	105.38
658.272	97.38
658.476	75.38
658.68	81.38
658.883	86.38
659.087	88.38
659.291	85.38
659.494	89.38
659.698	79.38
659.901	90.38
660.105	99.38
660.309	93.38
660.512	87.38
660.716	89.38
660.919	97.38
661.123	86.38
661.326	87.38
661.53	105.38
661.733	92.38
661.936	82.38
662.14	90.38
662.343	97.38
662.546	81.38
662.75	86.38
662.953	77.38
663.156	86.38
663.36	86.38
663.563	97.38
663.766	88.38
663.969	90.38
664.173	74.38
664.376	93.38
664.579	80.38
664.782	84.38
664.985	97.38
665.188	88.38
665.391	75.38
665.594	85.38
665.797	93.38
666	88.38
666.203	90.38
666.406	87.38
666.609	76.38
666.812	88.38
667.015	87.38
667.218	89.38
667.421	86.38
667.624	73.38
667.827	84.38
668.03	80.38
668.232	75.38
668.435	79.38
668.638	91.38
668.841	83.38
669.043	84.38
669.246	100.38
669.449	98.38
669.651	85.38
669.854	75.38
670.057	72.38
670.259	87.38
670.462	94.38
670.665	88.38
670.867	86.38
671.07	80.38
671.272	92.38
671.475	72.38
671.677	93.38
671.88	86.38
672.082	72.38
672.284	75.38
672.487	83.38
672.689	90.38
672.892	85.38
