Data from Location4.07152019.Energy5.Lamp.07192019.3%Agarose_HRD10591_16-18-31-924.txt Node
Date: Fri Jul 19 16:18:31 EDT 2019
User: cochatt
Spectrometer: HR+D1059
Trigger mode: 1
Integration Time (sec): 1.000000E-1
Scans to average: 1
Electric dark correction enabled: true
Nonlinearity correction enabled: false
Boxcar width: 0
XAxis mode: Wavelengths
Number of Pixels in Spectrum: 2048
>>>>>Begin Spectral Data<<<<<
223.165	-16.62
223.4	-16.62
223.635	-16.62
223.869	-6.62
224.104	-22.62
224.338	-12.62
224.573	-9.62
224.808	-12.62
225.042	-7.62
225.277	-1.62
225.511	-12.62
225.746	-4.62
225.98	8.38
226.215	6.38
226.449	19.38
226.683	15.38
226.918	28.38
227.152	29.38
227.387	31.38
227.621	32.38
227.856	52.38
228.09	52.38
228.324	54.38
228.559	52.38
228.793	45.38
229.027	62.38
229.262	62.38
229.496	64.38
229.73	85.38
229.964	68.38
230.199	78.38
230.433	72.38
230.667	55.38
230.901	74.38
231.136	84.38
231.37	79.38
231.604	88.38
231.838	78.38
232.072	80.38
232.306	93.38
232.541	85.38
232.775	75.38
233.009	90.38
233.243	86.38
233.477	88.38
233.711	78.38
233.945	80.38
234.179	79.38
234.413	87.38
234.647	74.38
234.881	84.38
235.115	70.38
235.349	69.38
235.583	81.38
235.817	66.38
236.051	69.38
236.285	94.38
236.519	76.38
236.753	81.38
236.987	79.38
237.221	73.38
237.455	90.38
237.689	80.38
237.922	78.38
238.156	66.38
238.39	70.38
238.624	69.38
238.858	88.38
239.091	73.38
239.325	85.38
239.559	65.38
239.793	79.38
240.027	103.38
240.26	85.38
240.494	82.38
240.728	68.38
240.961	75.38
241.195	84.38
241.429	74.38
241.662	89.38
241.896	76.38
242.13	80.38
242.363	67.38
242.597	76.38
242.83	68.38
243.064	87.38
243.298	74.38
243.531	78.38
243.765	80.38
243.998	85.38
244.232	61.38
244.465	80.38
244.699	88.38
244.932	75.38
245.166	74.38
245.399	82.38
245.633	75.38
245.866	77.38
246.099	70.38
246.333	79.38
246.566	95.38
246.8	83.38
247.033	68.38
247.266	78.38
247.5	67.38
247.733	78.38
247.966	83.38
248.2	78.38
248.433	77.38
248.666	74.38
248.899	77.38
249.133	82.38
249.366	78.38
249.599	74.38
249.832	77.38
250.066	84.38
250.299	82.38
250.532	90.38
250.765	89.38
250.998	84.38
251.231	74.38
251.465	70.38
251.698	64.38
251.931	87.38
252.164	83.38
252.397	74.38
252.63	79.38
252.863	73.38
253.096	75.38
253.329	79.38
253.562	89.38
253.795	86.38
254.028	98.38
254.261	72.38
254.494	87.38
254.727	79.38
254.96	67.38
255.193	74.38
255.426	64.38
255.659	84.38
255.892	91.38
256.124	80.38
256.357	93.38
256.59	82.38
256.823	71.38
257.056	68.38
257.289	80.38
257.521	88.38
257.754	85.38
257.987	76.38
258.22	88.38
258.452	96.38
258.685	74.38
258.918	80.38
259.151	78.38
259.383	80.38
259.616	78.38
259.849	63.38
260.081	84.38
260.314	85.38
260.547	83.38
260.779	77.38
261.012	79.38
261.244	79.38
261.477	81.38
261.71	78.38
261.942	80.38
262.175	82.38
262.407	75.38
262.64	67.38
262.872	72.38
263.105	86.38
263.337	78.38
263.57	79.38
263.802	87.38
264.035	96.38
264.267	90.38
264.499	91.38
264.732	95.38
264.964	92.38
265.197	77.38
265.429	79.38
265.661	73.38
265.894	70.38
266.126	93.38
266.358	93.38
266.591	79.38
266.823	73.38
267.055	66.38
267.287	93.38
267.52	88.38
267.752	93.38
267.984	78.38
268.216	79.38
268.448	87.38
268.681	85.38
268.913	79.38
269.145	75.38
269.377	92.38
269.609	89.38
269.841	84.38
270.073	80.38
270.306	84.38
270.538	102.38
270.77	94.38
271.002	87.38
271.234	81.38
271.466	90.38
271.698	79.38
271.93	80.38
272.162	86.38
272.394	85.38
272.626	100.38
272.858	94.38
273.09	83.38
273.322	82.38
273.553	89.38
273.785	88.38
274.017	84.38
274.249	86.38
274.481	95.38
274.713	73.38
274.945	73.38
275.176	76.38
275.408	84.38
275.64	73.38
275.872	86.38
276.104	80.38
276.335	76.38
276.567	65.38
276.799	74.38
277.031	84.38
277.262	74.38
277.494	79.38
277.726	81.38
277.957	77.38
278.189	72.38
278.421	89.38
278.652	89.38
278.884	87.38
279.115	100.38
279.347	86.38
279.579	73.38
279.81	79.38
280.042	82.38
280.273	91.38
280.505	80.38
280.736	91.38
280.968	79.38
281.199	79.38
281.431	80.38
281.662	79.38
281.894	79.38
282.125	87.38
282.356	86.38
282.588	82.38
282.819	86.38
283.051	87.38
283.282	82.38
283.513	80.38
283.745	90.38
283.976	77.38
284.207	93.38
284.439	74.38
284.67	86.38
284.901	80.38
285.132	74.38
285.364	81.38
285.595	87.38
285.826	77.38
286.057	79.38
286.288	73.38
286.52	74.38
286.751	78.38
286.982	88.38
287.213	90.38
287.444	87.38
287.675	95.38
287.906	91.38
288.138	84.38
288.369	98.38
288.6	67.38
288.831	76.38
289.062	67.38
289.293	72.38
289.524	87.38
289.755	78.38
289.986	93.38
290.217	78.38
290.448	80.38
290.679	70.38
290.91	84.38
291.141	65.38
291.371	95.38
291.602	70.38
291.833	87.38
292.064	92.38
292.295	89.38
292.526	98.38
292.757	93.38
292.987	81.38
293.218	80.38
293.449	78.38
293.68	80.38
293.91	85.38
294.141	100.38
294.372	82.38
294.603	101.38
294.833	81.38
295.064	92.38
295.295	83.38
295.525	74.38
295.756	87.38
295.987	79.38
296.217	88.38
296.448	84.38
296.679	80.38
296.909	90.38
297.14	79.38
297.37	79.38
297.601	75.38
297.831	78.38
298.062	90.38
298.292	87.38
298.523	89.38
298.753	99.38
298.984	87.38
299.214	101.38
299.445	81.38
299.675	76.38
299.905	93.38
300.136	87.38
300.366	76.38
300.597	81.38
300.827	87.38
301.057	89.38
301.288	83.38
301.518	76.38
301.748	87.38
301.979	77.38
302.209	86.38
302.439	105.38
302.669	94.38
302.9	100.38
303.13	95.38
303.36	95.38
303.59	92.38
303.82	92.38
304.051	93.38
304.281	94.38
304.511	90.38
304.741	78.38
304.971	83.38
305.201	90.38
305.431	101.38
305.661	87.38
305.891	79.38
306.121	97.38
306.352	75.38
306.582	94.38
306.812	76.38
307.042	87.38
307.272	88.38
307.502	84.38
307.731	83.38
307.961	91.38
308.191	91.38
308.421	90.38
308.651	83.38
308.881	95.38
309.111	90.38
309.341	82.38
309.571	90.38
309.8	91.38
310.03	75.38
310.26	90.38
310.49	90.38
310.72	89.38
310.949	94.38
311.179	82.38
311.409	86.38
311.639	104.38
311.868	95.38
312.098	90.38
312.328	91.38
312.557	76.38
312.787	76.38
313.017	81.38
313.246	83.38
313.476	94.38
313.706	94.38
313.935	77.38
314.165	103.38
314.394	84.38
314.624	81.38
314.853	87.38
315.083	82.38
315.312	82.38
315.542	83.38
315.771	90.38
316.001	89.38
316.23	89.38
316.46	91.38
316.689	95.38
316.919	83.38
317.148	102.38
317.377	86.38
317.607	74.38
317.836	92.38
318.065	84.38
318.295	90.38
318.524	79.38
318.753	91.38
318.983	93.38
319.212	89.38
319.441	83.38
319.67	94.38
319.9	72.38
320.129	80.38
320.358	79.38
320.587	65.38
320.816	84.38
321.046	86.38
321.275	87.38
321.504	89.38
321.733	80.38
321.962	77.38
322.191	86.38
322.42	91.38
322.649	86.38
322.878	81.38
323.108	79.38
323.337	95.38
323.566	82.38
323.795	95.38
324.024	104.38
324.253	89.38
324.482	87.38
324.71	81.38
324.939	96.38
325.168	78.38
325.397	86.38
325.626	77.38
325.855	91.38
326.084	94.38
326.313	88.38
326.542	86.38
326.77	86.38
326.999	89.38
327.228	92.38
327.457	100.38
327.686	82.38
327.914	82.38
328.143	97.38
328.372	94.38
328.6	94.38
328.829	91.38
329.058	89.38
329.287	83.38
329.515	87.38
329.744	75.38
329.972	67.38
330.201	94.38
330.43	91.38
330.658	103.38
330.887	81.38
331.115	87.38
331.344	92.38
331.572	105.38
331.801	89.38
332.03	90.38
332.258	78.38
332.486	86.38
332.715	94.38
332.943	81.38
333.172	92.38
333.4	90.38
333.629	88.38
333.857	88.38
334.085	79.38
334.314	86.38
334.542	83.38
334.771	75.38
334.999	83.38
335.227	79.38
335.455	98.38
335.684	65.38
335.912	91.38
336.14	80.38
336.369	78.38
336.597	97.38
336.825	87.38
337.053	73.38
337.281	72.38
337.51	80.38
337.738	91.38
337.966	70.38
338.194	93.38
338.422	94.38
338.65	83.38
338.878	84.38
339.106	74.38
339.334	93.38
339.562	82.38
339.79	82.38
340.018	88.38
340.246	86.38
340.474	93.38
340.702	89.38
340.93	91.38
341.158	83.38
341.386	91.38
341.614	80.38
341.842	90.38
342.07	101.38
342.298	82.38
342.526	88.38
342.754	85.38
342.981	93.38
343.209	74.38
343.437	95.38
343.665	92.38
343.893	75.38
344.12	91.38
344.348	85.38
344.576	94.38
344.804	79.38
345.031	88.38
345.259	89.38
345.487	68.38
345.714	83.38
345.942	80.38
346.17	88.38
346.397	94.38
346.625	98.38
346.853	95.38
347.08	94.38
347.308	80.38
347.535	88.38
347.763	80.38
347.99	94.38
348.218	91.38
348.445	93.38
348.673	82.38
348.9	96.38
349.128	84.38
349.355	88.38
349.583	84.38
349.81	91.38
350.037	81.38
350.265	81.38
350.492	85.38
350.72	79.38
350.947	96.38
351.174	77.38
351.402	86.38
351.629	104.38
351.856	82.38
352.083	76.38
352.311	86.38
352.538	84.38
352.765	80.38
352.992	86.38
353.22	80.38
353.447	82.38
353.674	85.38
353.901	87.38
354.128	91.38
354.355	79.38
354.583	62.38
354.81	79.38
355.037	73.38
355.264	80.38
355.491	92.38
355.718	69.38
355.945	78.38
356.172	89.38
356.399	85.38
356.626	81.38
356.853	81.38
357.08	82.38
357.307	93.38
357.534	78.38
357.761	75.38
357.988	83.38
358.215	93.38
358.441	68.38
358.668	94.38
358.895	78.38
359.122	77.38
359.349	87.38
359.576	72.38
359.802	69.38
360.029	95.38
360.256	82.38
360.483	77.38
360.709	94.38
360.936	97.38
361.163	96.38
361.39	69.38
361.616	79.38
361.843	91.38
362.07	85.38
362.296	87.38
362.523	97.38
362.749	85.38
362.976	76.38
363.203	77.38
363.429	78.38
363.656	86.38
363.882	86.38
364.109	79.38
364.335	74.38
364.562	85.38
364.788	91.38
365.015	91.38
365.241	90.38
365.468	91.38
365.694	89.38
365.92	78.38
366.147	95.38
366.373	81.38
366.599	92.38
366.826	99.38
367.052	82.38
367.278	89.38
367.505	76.38
367.731	94.38
367.957	82.38
368.184	94.38
368.41	101.38
368.636	94.38
368.862	86.38
369.089	91.38
369.315	96.38
369.541	97.38
369.767	100.38
369.993	88.38
370.219	79.38
370.445	93.38
370.672	90.38
370.898	83.38
371.124	104.38
371.35	86.38
371.576	98.38
371.802	102.38
372.028	91.38
372.254	80.38
372.48	93.38
372.706	85.38
372.932	80.38
373.158	90.38
373.384	104.38
373.61	101.38
373.835	96.38
374.061	84.38
374.287	92.38
374.513	89.38
374.739	95.38
374.965	101.38
375.191	101.38
375.416	99.38
375.642	89.38
375.868	95.38
376.094	97.38
376.319	89.38
376.545	91.38
376.771	90.38
376.997	85.38
377.222	94.38
377.448	95.38
377.674	102.38
377.899	99.38
378.125	100.38
378.35	103.38
378.576	104.38
378.802	80.38
379.027	99.38
379.253	102.38
379.478	102.38
379.704	92.38
379.929	87.38
380.155	90.38
380.38	111.38
380.606	98.38
380.831	101.38
381.057	102.38
381.282	102.38
381.507	99.38
381.733	97.38
381.958	109.38
382.184	102.38
382.409	82.38
382.634	101.38
382.86	106.38
383.085	89.38
383.31	90.38
383.535	89.38
383.761	90.38
383.986	119.38
384.211	93.38
384.436	95.38
384.662	100.38
384.887	102.38
385.112	105.38
385.337	102.38
385.562	100.38
385.787	106.38
386.013	111.38
386.238	101.38
386.463	99.38
386.688	108.38
386.913	101.38
387.138	108.38
387.363	107.38
387.588	106.38
387.813	101.38
388.038	101.38
388.263	100.38
388.488	102.38
388.713	109.38
388.938	92.38
389.163	98.38
389.387	99.38
389.612	99.38
389.837	101.38
390.062	108.38
390.287	109.38
390.512	100.38
390.736	99.38
390.961	99.38
391.186	110.38
391.411	118.38
391.636	109.38
391.86	110.38
392.085	100.38
392.31	118.38
392.534	108.38
392.759	109.38
392.984	99.38
393.208	117.38
393.433	105.38
393.658	114.38
393.882	108.38
394.107	108.38
394.331	106.38
394.556	101.38
394.78	89.38
395.005	108.38
395.229	103.38
395.454	111.38
395.678	105.38
395.903	120.38
396.127	114.38
396.352	106.38
396.576	104.38
396.801	108.38
397.025	118.38
397.249	98.38
397.474	89.38
397.698	108.38
397.922	116.38
398.147	109.38
398.371	109.38
398.595	90.38
398.82	102.38
399.044	123.38
399.268	101.38
399.492	109.38
399.717	122.38
399.941	114.38
400.165	104.38
400.389	132.38
400.613	115.38
400.837	103.38
401.062	118.38
401.286	105.38
401.51	103.38
401.734	117.38
401.958	105.38
402.182	108.38
402.406	121.38
402.63	117.38
402.854	132.38
403.078	110.38
403.302	120.38
403.526	116.38
403.75	125.38
403.974	107.38
404.198	115.38
404.422	123.38
404.645	120.38
404.869	111.38
405.093	126.38
405.317	122.38
405.541	125.38
405.765	117.38
405.988	121.38
406.212	124.38
406.436	128.38
406.66	129.38
406.883	127.38
407.107	103.38
407.331	114.38
407.555	112.38
407.778	130.38
408.002	111.38
408.226	118.38
408.449	130.38
408.673	126.38
408.896	115.38
409.12	122.38
409.344	125.38
409.567	124.38
409.791	112.38
410.014	123.38
410.238	121.38
410.461	121.38
410.685	109.38
410.908	121.38
411.132	125.38
411.355	111.38
411.578	119.38
411.802	122.38
412.025	130.38
412.249	122.38
412.472	125.38
412.695	124.38
412.919	123.38
413.142	125.38
413.365	110.38
413.589	103.38
413.812	123.38
414.035	144.38
414.258	119.38
414.482	133.38
414.705	123.38
414.928	135.38
415.151	113.38
415.374	118.38
415.597	105.38
415.821	128.38
416.044	120.38
416.267	122.38
416.49	117.38
416.713	122.38
416.936	120.38
417.159	120.38
417.382	117.38
417.605	126.38
417.828	125.38
418.051	127.38
418.274	135.38
418.497	130.38
418.72	131.38
418.943	136.38
419.166	134.38
419.389	134.38
419.611	131.38
419.834	132.38
420.057	139.38
420.28	124.38
420.503	116.38
420.726	132.38
420.948	123.38
421.171	133.38
421.394	132.38
421.617	141.38
421.839	154.38
422.062	148.38
422.285	143.38
422.507	150.38
422.73	127.38
422.953	127.38
423.175	134.38
423.398	132.38
423.621	134.38
423.843	132.38
424.066	151.38
424.288	150.38
424.511	142.38
424.733	151.38
424.956	132.38
425.178	138.38
425.401	144.38
425.623	141.38
425.846	135.38
426.068	134.38
426.291	114.38
426.513	123.38
426.735	147.38
426.958	132.38
427.18	145.38
427.402	125.38
427.625	122.38
427.847	136.38
428.069	126.38
428.292	126.38
428.514	129.38
428.736	105.38
428.958	124.38
429.181	137.38
429.403	109.38
429.625	138.38
429.847	120.38
430.069	134.38
430.292	134.38
430.514	123.38
430.736	132.38
430.958	124.38
431.18	118.38
431.402	132.38
431.624	117.38
431.846	93.38
432.068	100.38
432.29	103.38
432.512	108.38
432.734	120.38
432.956	132.38
433.178	131.38
433.4	128.38
433.622	144.38
433.844	128.38
434.066	119.38
434.287	101.38
434.509	90.38
434.731	109.38
434.953	116.38
435.175	116.38
435.397	128.38
435.618	124.38
435.84	92.38
436.062	108.38
436.284	135.38
436.505	134.38
436.727	119.38
436.949	126.38
437.17	129.38
437.392	131.38
437.614	118.38
437.835	113.38
438.057	120.38
438.278	109.38
438.5	126.38
438.721	126.38
438.943	139.38
439.165	152.38
439.386	137.38
439.608	140.38
439.829	138.38
440.05	158.38
440.272	143.38
440.493	156.38
440.715	134.38
440.936	138.38
441.158	155.38
441.379	136.38
441.6	139.38
441.822	160.38
442.043	159.38
442.264	141.38
442.486	140.38
442.707	140.38
442.928	122.38
443.149	138.38
443.371	139.38
443.592	143.38
443.813	132.38
444.034	140.38
444.255	149.38
444.476	134.38
444.698	150.38
444.919	142.38
445.14	266.38
445.361	184.38
445.582	154.38
445.803	129.38
446.024	158.38
446.245	156.38
446.466	148.38
446.687	164.38
446.908	144.38
447.129	158.38
447.35	151.38
447.571	151.38
447.792	144.38
448.013	135.38
448.234	141.38
448.455	148.38
448.675	144.38
448.896	142.38
449.117	145.38
449.338	130.38
449.559	127.38
449.779	114.38
450	126.38
450.221	135.38
450.442	127.38
450.662	128.38
450.883	136.38
451.104	144.38
451.324	135.38
451.545	136.38
451.766	114.38
451.986	138.38
452.207	121.38
452.428	115.38
452.648	127.38
452.869	136.38
453.089	118.38
453.31	100.38
453.53	104.38
453.751	105.38
453.971	96.38
454.192	108.38
454.412	116.38
454.633	106.38
454.853	109.38
455.073	120.38
455.294	113.38
455.514	126.38
455.734	122.38
455.955	127.38
456.175	112.38
456.395	106.38
456.616	111.38
456.836	104.38
457.056	106.38
457.276	102.38
457.497	101.38
457.717	112.38
457.937	122.38
458.157	122.38
458.377	109.38
458.598	84.38
458.818	101.38
459.038	94.38
459.258	83.38
459.478	95.38
459.698	104.38
459.918	81.38
460.138	102.38
460.358	127.38
460.578	128.38
460.798	123.38
461.018	116.38
461.238	113.38
461.458	108.38
461.678	114.38
461.898	108.38
462.118	116.38
462.338	118.38
462.558	123.38
462.777	126.38
462.997	118.38
463.217	107.38
463.437	114.38
463.657	108.38
463.876	115.38
464.096	111.38
464.316	112.38
464.536	125.38
464.755	124.38
464.975	130.38
465.195	109.38
465.414	114.38
465.634	118.38
465.854	104.38
466.073	101.38
466.293	127.38
466.512	126.38
466.732	152.38
466.951	133.38
467.171	134.38
467.391	133.38
467.61	140.38
467.829	126.38
468.049	143.38
468.268	126.38
468.488	141.38
468.707	136.38
468.927	152.38
469.146	137.38
469.365	127.38
469.585	133.38
469.804	135.38
470.023	138.38
470.243	168.38
470.462	134.38
470.681	124.38
470.901	134.38
471.12	150.38
471.339	140.38
471.558	132.38
471.777	135.38
471.997	135.38
472.216	129.38
472.435	126.38
472.654	94.38
472.873	120.38
473.092	111.38
473.311	112.38
473.53	150.38
473.749	114.38
473.968	117.38
474.187	124.38
474.406	115.38
474.625	128.38
474.844	129.38
475.063	126.38
475.282	128.38
475.501	124.38
475.72	134.38
475.939	124.38
476.158	126.38
476.377	123.38
476.596	122.38
476.814	116.38
477.033	117.38
477.252	108.38
477.471	122.38
477.69	144.38
477.908	141.38
478.127	147.38
478.346	138.38
478.564	141.38
478.783	138.38
479.002	128.38
479.22	144.38
479.439	137.38
479.658	137.38
479.876	123.38
480.095	103.38
480.313	95.38
480.532	123.38
480.751	121.38
480.969	99.38
481.188	85.38
481.406	81.38
481.624	98.38
481.843	91.38
482.061	84.38
482.28	115.38
482.498	123.38
482.717	105.38
482.935	116.38
483.153	144.38
483.372	152.38
483.59	152.38
483.808	157.38
484.027	123.38
484.245	143.38
484.463	159.38
484.681	149.38
484.9	164.38
485.118	135.38
485.336	140.38
485.554	126.38
485.772	122.38
485.99	118.38
486.209	107.38
486.427	108.38
486.645	130.38
486.863	140.38
487.081	142.38
487.299	125.38
487.517	144.38
487.735	160.38
487.953	170.38
488.171	182.38
488.389	180.38
488.607	158.38
488.825	137.38
489.043	126.38
489.261	128.38
489.479	151.38
489.696	142.38
489.914	150.38
490.132	137.38
490.35	154.38
490.568	152.38
490.786	180.38
491.003	182.38
491.221	175.38
491.439	178.38
491.657	196.38
491.874	190.38
492.092	234.38
492.31	245.38
492.527	228.38
492.745	208.38
492.963	208.38
493.18	163.38
493.398	173.38
493.615	191.38
493.833	170.38
494.05	182.38
494.268	183.38
494.485	180.38
494.703	179.38
494.92	162.38
495.138	179.38
495.355	167.38
495.573	173.38
495.79	167.38
496.008	178.38
496.225	156.38
496.442	165.38
496.66	174.38
496.877	178.38
497.094	165.38
497.312	155.38
497.529	152.38
497.746	144.38
497.963	136.38
498.181	142.38
498.398	126.38
498.615	135.38
498.832	124.38
499.049	129.38
499.267	135.38
499.484	134.38
499.701	136.38
499.918	133.38
500.135	150.38
500.352	147.38
500.569	148.38
500.786	147.38
501.003	154.38
501.22	124.38
501.437	135.38
501.654	133.38
501.871	127.38
502.088	126.38
502.305	136.38
502.522	141.38
502.739	128.38
502.956	134.38
503.172	127.38
503.389	126.38
503.606	124.38
503.823	110.38
504.04	126.38
504.256	122.38
504.473	120.38
504.69	116.38
504.907	123.38
505.123	127.38
505.34	139.38
505.557	140.38
505.773	119.38
505.99	128.38
506.207	120.38
506.423	104.38
506.64	112.38
506.856	137.38
507.073	120.38
507.289	114.38
507.506	117.38
507.722	119.38
507.939	119.38
508.155	127.38
508.372	117.38
508.588	114.38
508.805	121.38
509.021	124.38
509.238	111.38
509.454	104.38
509.67	100.38
509.887	108.38
510.103	93.38
510.319	86.38
510.536	95.38
510.752	103.38
510.968	90.38
511.184	94.38
511.401	77.38
511.617	97.38
511.833	98.38
512.049	96.38
512.265	94.38
512.481	85.38
512.698	104.38
512.914	96.38
513.13	101.38
513.346	89.38
513.562	91.38
513.778	92.38
513.994	107.38
514.21	92.38
514.426	101.38
514.642	97.38
514.858	98.38
515.074	96.38
515.29	98.38
515.506	86.38
515.721	94.38
515.937	111.38
516.153	90.38
516.369	96.38
516.585	103.38
516.801	71.38
517.016	88.38
517.232	102.38
517.448	98.38
517.664	93.38
517.879	100.38
518.095	95.38
518.311	99.38
518.527	92.38
518.742	94.38
518.958	95.38
519.173	110.38
519.389	104.38
519.605	122.38
519.82	110.38
520.036	95.38
520.251	116.38
520.467	105.38
520.682	91.38
520.898	106.38
521.113	92.38
521.329	89.38
521.544	81.38
521.76	94.38
521.975	104.38
522.19	103.38
522.406	87.38
522.621	91.38
522.836	99.38
523.052	118.38
523.267	116.38
523.482	104.38
523.698	112.38
523.913	124.38
524.128	122.38
524.343	133.38
524.559	123.38
524.774	112.38
524.989	118.38
525.204	119.38
525.419	128.38
525.634	126.38
525.849	123.38
526.064	107.38
526.28	94.38
526.495	92.38
526.71	93.38
526.925	106.38
527.14	79.38
527.355	83.38
527.57	78.38
527.785	86.38
527.999	96.38
528.214	108.38
528.429	115.38
528.644	121.38
528.859	138.38
529.074	149.38
529.289	153.38
529.503	170.38
529.718	142.38
529.933	121.38
530.148	112.38
530.363	96.38
530.577	93.38
530.792	77.38
531.007	81.38
531.221	89.38
531.436	91.38
531.651	85.38
531.865	95.38
532.08	98.38
532.295	105.38
532.509	96.38
532.724	87.38
532.938	91.38
533.153	103.38
533.367	111.38
533.582	125.38
533.796	104.38
534.011	108.38
534.225	92.38
534.44	106.38
534.654	114.38
534.868	114.38
535.083	98.38
535.297	101.38
535.511	111.38
535.726	101.38
535.94	79.38
536.154	99.38
536.369	92.38
536.583	84.38
536.797	87.38
537.011	80.38
537.225	88.38
537.44	90.38
537.654	99.38
537.868	108.38
538.082	83.38
538.296	109.38
538.51	105.38
538.724	102.38
538.938	115.38
539.153	118.38
539.367	114.38
539.581	101.38
539.795	104.38
540.009	101.38
540.222	91.38
540.436	103.38
540.65	118.38
540.864	120.38
541.078	151.38
541.292	150.38
541.506	165.38
541.72	173.38
541.934	199.38
542.147	165.38
542.361	183.38
542.575	153.38
542.789	156.38
543.002	142.38
543.216	110.38
543.43	128.38
543.644	139.38
543.857	147.38
544.071	145.38
544.285	162.38
544.498	158.38
544.712	155.38
544.925	164.38
545.139	155.38
545.352	154.38
545.566	171.38
545.779	164.38
545.993	167.38
546.206	158.38
546.42	159.38
546.633	178.38
546.847	159.38
547.06	157.38
547.274	178.38
547.487	172.38
547.7	170.38
547.914	163.38
548.127	155.38
548.34	166.38
548.554	160.38
548.767	153.38
548.98	158.38
549.193	151.38
549.407	166.38
549.62	142.38
549.833	162.38
550.046	143.38
550.259	147.38
550.473	157.38
550.686	143.38
550.899	136.38
551.112	141.38
551.325	135.38
551.538	138.38
551.751	122.38
551.964	126.38
552.177	130.38
552.39	137.38
552.603	144.38
552.816	138.38
553.029	155.38
553.242	154.38
553.455	148.38
553.667	171.38
553.88	159.38
554.093	145.38
554.306	150.38
554.519	139.38
554.732	141.38
554.944	131.38
555.157	158.38
555.37	136.38
555.583	152.38
555.795	151.38
556.008	142.38
556.221	136.38
556.433	131.38
556.646	144.38
556.859	140.38
557.071	140.38
557.284	138.38
557.496	127.38
557.709	156.38
557.921	149.38
558.134	134.38
558.346	141.38
558.559	132.38
558.771	134.38
558.984	149.38
559.196	119.38
559.409	114.38
559.621	131.38
559.833	126.38
560.046	126.38
560.258	120.38
560.47	144.38
560.683	146.38
560.895	140.38
561.107	127.38
561.32	123.38
561.532	127.38
561.744	139.38
561.956	126.38
562.168	139.38
562.381	128.38
562.593	125.38
562.805	129.38
563.017	136.38
563.229	121.38
563.441	123.38
563.653	110.38
563.865	126.38
564.077	128.38
564.289	115.38
564.501	112.38
564.713	126.38
564.925	110.38
565.137	121.38
565.349	116.38
565.561	128.38
565.773	121.38
565.985	129.38
566.197	117.38
566.408	124.38
566.62	114.38
566.832	111.38
567.044	122.38
567.255	121.38
567.467	112.38
567.679	114.38
567.891	111.38
568.102	112.38
568.314	93.38
568.526	96.38
568.737	88.38
568.949	85.38
569.161	79.38
569.372	68.38
569.584	93.38
569.795	88.38
570.007	90.38
570.218	101.38
570.43	97.38
570.641	97.38
570.853	101.38
571.064	99.38
571.276	101.38
571.487	119.38
571.698	114.38
571.91	105.38
572.121	109.38
572.333	104.38
572.544	98.38
572.755	99.38
572.966	83.38
573.178	75.38
573.389	107.38
573.6	85.38
573.811	67.38
574.023	104.38
574.234	87.38
574.445	99.38
574.656	115.38
574.867	102.38
575.078	103.38
575.289	98.38
575.501	111.38
575.712	79.38
575.923	97.38
576.134	113.38
576.345	93.38
576.556	101.38
576.767	108.38
576.978	92.38
577.188	105.38
577.399	95.38
577.61	96.38
577.821	91.38
578.032	88.38
578.243	89.38
578.454	99.38
578.665	86.38
578.875	89.38
579.086	98.38
579.297	85.38
579.508	94.38
579.718	78.38
579.929	81.38
580.14	94.38
580.35	99.38
580.561	93.38
580.772	87.38
580.982	80.38
581.193	87.38
581.403	80.38
581.614	79.38
581.825	91.38
582.035	89.38
582.246	98.38
582.456	95.38
582.667	91.38
582.877	95.38
583.087	81.38
583.298	93.38
583.508	91.38
583.719	83.38
583.929	102.38
584.139	76.38
584.35	78.38
584.56	81.38
584.77	88.38
584.981	91.38
585.191	106.38
585.401	94.38
585.611	94.38
585.821	86.38
586.032	87.38
586.242	87.38
586.452	77.38
586.662	78.38
586.872	97.38
587.082	87.38
587.292	92.38
587.502	82.38
587.713	91.38
587.923	92.38
588.133	84.38
588.343	90.38
588.553	71.38
588.762	103.38
588.972	79.38
589.182	79.38
589.392	86.38
589.602	89.38
589.812	86.38
590.022	80.38
590.232	80.38
590.441	81.38
590.651	88.38
590.861	91.38
591.071	72.38
591.281	85.38
591.49	91.38
591.7	77.38
591.91	89.38
592.119	79.38
592.329	91.38
592.539	89.38
592.748	90.38
592.958	93.38
593.167	88.38
593.377	91.38
593.587	93.38
593.796	88.38
594.006	93.38
594.215	84.38
594.424	90.38
594.634	98.38
594.843	91.38
595.053	110.38
595.262	78.38
595.472	82.38
595.681	94.38
595.89	83.38
596.1	101.38
596.309	95.38
596.518	85.38
596.727	95.38
596.937	105.38
597.146	101.38
597.355	102.38
597.564	98.38
597.774	107.38
597.983	84.38
598.192	94.38
598.401	82.38
598.61	93.38
598.819	92.38
599.028	100.38
599.237	84.38
599.446	95.38
599.655	107.38
599.864	95.38
600.073	86.38
600.282	103.38
600.491	97.38
600.7	90.38
600.909	82.38
601.118	84.38
601.327	109.38
601.536	101.38
601.745	114.38
601.953	120.38
602.162	122.38
602.371	106.38
602.58	111.38
602.789	102.38
602.997	112.38
603.206	116.38
603.415	108.38
603.623	110.38
603.832	109.38
604.041	115.38
604.249	106.38
604.458	94.38
604.666	104.38
604.875	86.38
605.084	106.38
605.292	114.38
605.501	120.38
605.709	120.38
605.918	100.38
606.126	106.38
606.334	121.38
606.543	116.38
606.751	107.38
606.96	114.38
607.168	99.38
607.376	107.38
607.585	126.38
607.793	119.38
608.001	116.38
608.21	111.38
608.418	128.38
608.626	107.38
608.834	115.38
609.043	111.38
609.251	111.38
609.459	109.38
609.667	109.38
609.875	115.38
610.083	122.38
610.291	116.38
610.499	123.38
610.707	112.38
610.916	112.38
611.124	95.38
611.332	120.38
611.54	120.38
611.748	126.38
611.955	113.38
612.163	109.38
612.371	110.38
612.579	110.38
612.787	109.38
612.995	96.38
613.203	109.38
613.411	100.38
613.618	127.38
613.826	117.38
614.034	119.38
614.242	128.38
614.449	111.38
614.657	120.38
614.865	125.38
615.072	114.38
615.28	110.38
615.488	122.38
615.695	116.38
615.903	92.38
616.111	124.38
616.318	107.38
616.526	119.38
616.733	122.38
616.941	105.38
617.148	116.38
617.356	109.38
617.563	116.38
617.771	114.38
617.978	108.38
618.185	118.38
618.393	102.38
618.6	112.38
618.807	114.38
619.015	116.38
619.222	107.38
619.429	107.38
619.637	123.38
619.844	111.38
620.051	112.38
620.258	107.38
620.466	106.38
620.673	111.38
620.88	115.38
621.087	107.38
621.294	103.38
621.501	107.38
621.708	101.38
621.915	105.38
622.122	104.38
622.329	119.38
622.536	103.38
622.743	118.38
622.95	96.38
623.157	108.38
623.364	106.38
623.571	99.38
623.778	104.38
623.985	115.38
624.192	107.38
624.399	106.38
624.606	116.38
624.812	106.38
625.019	105.38
625.226	102.38
625.433	83.38
625.639	121.38
625.846	103.38
626.053	100.38
626.259	110.38
626.466	95.38
626.673	97.38
626.879	93.38
627.086	101.38
627.293	102.38
627.499	105.38
627.706	99.38
627.912	108.38
628.119	98.38
628.325	103.38
628.532	101.38
628.738	103.38
628.945	99.38
629.151	103.38
629.357	98.38
629.564	94.38
629.77	111.38
629.976	110.38
630.183	102.38
630.389	111.38
630.595	101.38
630.802	108.38
631.008	107.38
631.214	77.38
631.42	117.38
631.627	112.38
631.833	93.38
632.039	105.38
632.245	113.38
632.451	106.38
632.657	107.38
632.863	107.38
633.069	108.38
633.275	108.38
633.481	102.38
633.688	101.38
633.893	116.38
634.099	102.38
634.305	107.38
634.511	99.38
634.717	106.38
634.923	103.38
635.129	88.38
635.335	86.38
635.541	87.38
635.747	95.38
635.952	98.38
636.158	98.38
636.364	109.38
636.57	118.38
636.775	99.38
636.981	110.38
637.187	112.38
637.392	100.38
637.598	103.38
637.804	105.38
638.009	121.38
638.215	93.38
638.421	103.38
638.626	103.38
638.832	100.38
639.037	111.38
639.243	102.38
639.448	103.38
639.654	95.38
639.859	101.38
640.065	91.38
640.27	109.38
640.475	96.38
640.681	91.38
640.886	100.38
641.091	105.38
641.297	101.38
641.502	99.38
641.707	98.38
641.913	105.38
642.118	93.38
642.323	95.38
642.528	106.38
642.733	97.38
642.939	107.38
643.144	108.38
643.349	95.38
643.554	110.38
643.759	97.38
643.964	104.38
644.169	94.38
644.374	96.38
644.579	99.38
644.784	88.38
644.989	96.38
645.194	98.38
645.399	107.38
645.604	98.38
645.809	107.38
646.014	93.38
646.219	110.38
646.423	94.38
646.628	99.38
646.833	101.38
647.038	91.38
647.243	105.38
647.447	97.38
647.652	102.38
647.857	111.38
648.062	110.38
648.266	108.38
648.471	106.38
648.676	97.38
648.88	108.38
649.085	94.38
649.289	100.38
649.494	97.38
649.698	92.38
649.903	88.38
650.107	97.38
650.312	104.38
650.516	96.38
650.721	92.38
650.925	99.38
651.13	102.38
651.334	104.38
651.539	93.38
651.743	79.38
651.947	93.38
652.152	88.38
652.356	95.38
652.56	85.38
652.764	98.38
652.969	110.38
653.173	87.38
653.377	87.38
653.581	96.38
653.785	92.38
653.99	91.38
654.194	101.38
654.398	90.38
654.602	100.38
654.806	79.38
655.01	82.38
655.214	93.38
655.418	78.38
655.622	97.38
655.826	86.38
656.03	85.38
656.234	80.38
656.438	79.38
656.642	96.38
656.846	87.38
657.049	86.38
657.253	86.38
657.457	85.38
657.661	99.38
657.865	93.38
658.068	90.38
658.272	97.38
658.476	89.38
658.68	102.38
658.883	85.38
659.087	80.38
659.291	89.38
659.494	89.38
659.698	90.38
659.901	78.38
660.105	94.38
660.309	90.38
660.512	89.38
660.716	78.38
660.919	68.38
661.123	88.38
661.326	80.38
661.53	102.38
661.733	85.38
661.936	91.38
662.14	76.38
662.343	99.38
662.546	78.38
662.75	87.38
662.953	92.38
663.156	83.38
663.36	87.38
663.563	92.38
663.766	96.38
663.969	98.38
664.173	74.38
664.376	94.38
664.579	100.38
664.782	95.38
664.985	83.38
665.188	86.38
665.391	83.38
665.594	91.38
665.797	93.38
666	84.38
666.203	88.38
666.406	83.38
666.609	78.38
666.812	84.38
667.015	79.38
667.218	81.38
667.421	75.38
667.624	83.38
667.827	96.38
668.03	95.38
668.232	78.38
668.435	96.38
668.638	85.38
668.841	79.38
669.043	88.38
669.246	81.38
669.449	83.38
669.651	100.38
669.854	86.38
670.057	75.38
670.259	75.38
670.462	85.38
670.665	82.38
670.867	85.38
671.07	76.38
671.272	69.38
671.475	79.38
671.677	80.38
671.88	86.38
672.082	81.38
672.284	72.38
672.487	69.38
672.689	83.38
672.892	93.38
