Data from Location4.07152019.Energy5.Lamp.07192019.3%Agarose_HRD10591_16-18-30-926.txt Node
Date: Fri Jul 19 16:18:30 EDT 2019
User: cochatt
Spectrometer: HR+D1059
Trigger mode: 1
Integration Time (sec): 1.000000E-1
Scans to average: 1
Electric dark correction enabled: true
Nonlinearity correction enabled: false
Boxcar width: 0
XAxis mode: Wavelengths
Number of Pixels in Spectrum: 2048
>>>>>Begin Spectral Data<<<<<
223.165	-12.25
223.4	-12.25
223.635	-12.25
223.869	-20.25
224.104	-17.25
224.338	-14.25
224.573	-11.25
224.808	-9.25
225.042	-0.25
225.277	-3.25
225.511	-6.25
225.746	0.75
225.98	-1.25
226.215	12.75
226.449	21.75
226.683	26.75
226.918	14.75
227.152	18.75
227.387	34.75
227.621	32.75
227.856	39.75
228.09	52.75
228.324	39.75
228.559	48.75
228.793	49.75
229.027	55.75
229.262	63.75
229.496	59.75
229.73	62.75
229.964	62.75
230.199	70.75
230.433	67.75
230.667	77.75
230.901	79.75
231.136	86.75
231.37	74.75
231.604	76.75
231.838	79.75
232.072	65.75
232.306	83.75
232.541	64.75
232.775	79.75
233.009	94.75
233.243	80.75
233.477	73.75
233.711	88.75
233.945	95.75
234.179	87.75
234.413	80.75
234.647	74.75
234.881	76.75
235.115	88.75
235.349	71.75
235.583	80.75
235.817	74.75
236.051	85.75
236.285	66.75
236.519	80.75
236.753	63.75
236.987	70.75
237.221	81.75
237.455	69.75
237.689	60.75
237.922	69.75
238.156	72.75
238.39	59.75
238.624	76.75
238.858	72.75
239.091	60.75
239.325	71.75
239.559	78.75
239.793	74.75
240.027	101.75
240.26	84.75
240.494	73.75
240.728	51.75
240.961	69.75
241.195	81.75
241.429	74.75
241.662	67.75
241.896	78.75
242.13	81.75
242.363	71.75
242.597	77.75
242.83	70.75
243.064	81.75
243.298	74.75
243.531	59.75
243.765	69.75
243.998	88.75
244.232	55.75
244.465	82.75
244.699	75.75
244.932	85.75
245.166	82.75
245.399	84.75
245.633	73.75
245.866	77.75
246.099	79.75
246.333	77.75
246.566	81.75
246.8	72.75
247.033	68.75
247.266	76.75
247.5	78.75
247.733	77.75
247.966	81.75
248.2	88.75
248.433	82.75
248.666	67.75
248.899	80.75
249.133	85.75
249.366	70.75
249.599	77.75
249.832	86.75
250.066	84.75
250.299	69.75
250.532	65.75
250.765	75.75
250.998	70.75
251.231	66.75
251.465	78.75
251.698	67.75
251.931	81.75
252.164	77.75
252.397	78.75
252.63	86.75
252.863	89.75
253.096	75.75
253.329	84.75
253.562	76.75
253.795	72.75
254.028	77.75
254.261	70.75
254.494	78.75
254.727	81.75
254.96	75.75
255.193	69.75
255.426	60.75
255.659	65.75
255.892	84.75
256.124	82.75
256.357	72.75
256.59	74.75
256.823	79.75
257.056	73.75
257.289	77.75
257.521	68.75
257.754	75.75
257.987	93.75
258.22	90.75
258.452	76.75
258.685	66.75
258.918	67.75
259.151	60.75
259.383	76.75
259.616	62.75
259.849	80.75
260.081	85.75
260.314	72.75
260.547	87.75
260.779	81.75
261.012	71.75
261.244	69.75
261.477	73.75
261.71	53.75
261.942	70.75
262.175	66.75
262.407	77.75
262.64	85.75
262.872	74.75
263.105	79.75
263.337	69.75
263.57	83.75
263.802	76.75
264.035	71.75
264.267	63.75
264.499	73.75
264.732	83.75
264.964	97.75
265.197	82.75
265.429	85.75
265.661	76.75
265.894	74.75
266.126	83.75
266.358	70.75
266.591	89.75
266.823	76.75
267.055	83.75
267.287	80.75
267.52	72.75
267.752	71.75
267.984	74.75
268.216	87.75
268.448	74.75
268.681	81.75
268.913	70.75
269.145	89.75
269.377	81.75
269.609	80.75
269.841	71.75
270.073	72.75
270.306	63.75
270.538	75.75
270.77	77.75
271.002	86.75
271.234	68.75
271.466	82.75
271.698	84.75
271.93	72.75
272.162	84.75
272.394	79.75
272.626	92.75
272.858	71.75
273.09	84.75
273.322	75.75
273.553	86.75
273.785	77.75
274.017	90.75
274.249	91.75
274.481	89.75
274.713	90.75
274.945	81.75
275.176	87.75
275.408	84.75
275.64	77.75
275.872	63.75
276.104	68.75
276.335	85.75
276.567	80.75
276.799	77.75
277.031	68.75
277.262	77.75
277.494	79.75
277.726	74.75
277.957	79.75
278.189	78.75
278.421	85.75
278.652	92.75
278.884	72.75
279.115	83.75
279.347	80.75
279.579	88.75
279.81	84.75
280.042	77.75
280.273	73.75
280.505	73.75
280.736	74.75
280.968	97.75
281.199	92.75
281.431	86.75
281.662	85.75
281.894	79.75
282.125	94.75
282.356	87.75
282.588	74.75
282.819	87.75
283.051	77.75
283.282	93.75
283.513	93.75
283.745	86.75
283.976	73.75
284.207	85.75
284.439	74.75
284.67	84.75
284.901	77.75
285.132	75.75
285.364	89.75
285.595	82.75
285.826	80.75
286.057	87.75
286.288	78.75
286.52	85.75
286.751	74.75
286.982	77.75
287.213	92.75
287.444	81.75
287.675	76.75
287.906	73.75
288.138	79.75
288.369	80.75
288.6	71.75
288.831	73.75
289.062	85.75
289.293	73.75
289.524	85.75
289.755	74.75
289.986	65.75
290.217	72.75
290.448	87.75
290.679	77.75
290.91	71.75
291.141	76.75
291.371	74.75
291.602	80.75
291.833	61.75
292.064	79.75
292.295	84.75
292.526	74.75
292.757	79.75
292.987	86.75
293.218	87.75
293.449	76.75
293.68	85.75
293.91	78.75
294.141	67.75
294.372	63.75
294.603	78.75
294.833	76.75
295.064	79.75
295.295	83.75
295.525	76.75
295.756	89.75
295.987	84.75
296.217	67.75
296.448	65.75
296.679	82.75
296.909	81.75
297.14	74.75
297.37	86.75
297.601	78.75
297.831	92.75
298.062	88.75
298.292	80.75
298.523	73.75
298.753	90.75
298.984	75.75
299.214	91.75
299.445	86.75
299.675	75.75
299.905	82.75
300.136	78.75
300.366	80.75
300.597	68.75
300.827	86.75
301.057	79.75
301.288	85.75
301.518	83.75
301.748	73.75
301.979	77.75
302.209	80.75
302.439	91.75
302.669	78.75
302.9	66.75
303.13	67.75
303.36	72.75
303.59	74.75
303.82	68.75
304.051	82.75
304.281	80.75
304.511	89.75
304.741	69.75
304.971	80.75
305.201	67.75
305.431	78.75
305.661	76.75
305.891	77.75
306.121	84.75
306.352	87.75
306.582	85.75
306.812	81.75
307.042	84.75
307.272	82.75
307.502	72.75
307.731	86.75
307.961	85.75
308.191	75.75
308.421	87.75
308.651	80.75
308.881	77.75
309.111	72.75
309.341	85.75
309.571	65.75
309.8	90.75
310.03	93.75
310.26	78.75
310.49	84.75
310.72	82.75
310.949	84.75
311.179	86.75
311.409	75.75
311.639	89.75
311.868	84.75
312.098	79.75
312.328	79.75
312.557	68.75
312.787	71.75
313.017	82.75
313.246	81.75
313.476	79.75
313.706	79.75
313.935	82.75
314.165	82.75
314.394	83.75
314.624	71.75
314.853	89.75
315.083	78.75
315.312	77.75
315.542	70.75
315.771	86.75
316.001	77.75
316.23	91.75
316.46	74.75
316.689	75.75
316.919	80.75
317.148	95.75
317.377	93.75
317.607	91.75
317.836	76.75
318.065	86.75
318.295	83.75
318.524	72.75
318.753	65.75
318.983	75.75
319.212	84.75
319.441	77.75
319.67	87.75
319.9	70.75
320.129	71.75
320.358	71.75
320.587	82.75
320.816	72.75
321.046	73.75
321.275	91.75
321.504	72.75
321.733	83.75
321.962	91.75
322.191	78.75
322.42	84.75
322.649	74.75
322.878	77.75
323.108	75.75
323.337	69.75
323.566	79.75
323.795	69.75
324.024	83.75
324.253	107.75
324.482	65.75
324.71	87.75
324.939	88.75
325.168	93.75
325.397	71.75
325.626	84.75
325.855	67.75
326.084	82.75
326.313	72.75
326.542	62.75
326.77	83.75
326.999	78.75
327.228	71.75
327.457	88.75
327.686	79.75
327.914	59.75
328.143	70.75
328.372	83.75
328.6	82.75
328.829	82.75
329.058	75.75
329.287	75.75
329.515	84.75
329.744	80.75
329.972	69.75
330.201	80.75
330.43	72.75
330.658	90.75
330.887	81.75
331.115	69.75
331.344	82.75
331.572	91.75
331.801	79.75
332.03	65.75
332.258	98.75
332.486	71.75
332.715	80.75
332.943	81.75
333.172	78.75
333.4	79.75
333.629	100.75
333.857	89.75
334.085	75.75
334.314	78.75
334.542	65.75
334.771	85.75
334.999	84.75
335.227	72.75
335.455	90.75
335.684	78.75
335.912	64.75
336.14	80.75
336.369	76.75
336.597	84.75
336.825	82.75
337.053	72.75
337.281	78.75
337.51	71.75
337.738	91.75
337.966	72.75
338.194	63.75
338.422	85.75
338.65	75.75
338.878	81.75
339.106	71.75
339.334	70.75
339.562	73.75
339.79	76.75
340.018	81.75
340.246	71.75
340.474	78.75
340.702	71.75
340.93	76.75
341.158	71.75
341.386	74.75
341.614	94.75
341.842	89.75
342.07	85.75
342.298	83.75
342.526	82.75
342.754	82.75
342.981	85.75
343.209	61.75
343.437	86.75
343.665	71.75
343.893	74.75
344.12	67.75
344.348	82.75
344.576	81.75
344.804	80.75
345.031	81.75
345.259	82.75
345.487	96.75
345.714	89.75
345.942	78.75
346.17	67.75
346.397	85.75
346.625	68.75
346.853	62.75
347.08	77.75
347.308	75.75
347.535	80.75
347.763	72.75
347.99	77.75
348.218	77.75
348.445	76.75
348.673	80.75
348.9	82.75
349.128	95.75
349.355	67.75
349.583	77.75
349.81	83.75
350.037	86.75
350.265	92.75
350.492	73.75
350.72	89.75
350.947	92.75
351.174	81.75
351.402	83.75
351.629	83.75
351.856	78.75
352.083	77.75
352.311	87.75
352.538	81.75
352.765	77.75
352.992	67.75
353.22	77.75
353.447	65.75
353.674	87.75
353.901	78.75
354.128	66.75
354.355	72.75
354.583	75.75
354.81	73.75
355.037	80.75
355.264	68.75
355.491	78.75
355.718	89.75
355.945	96.75
356.172	84.75
356.399	92.75
356.626	84.75
356.853	77.75
357.08	81.75
357.307	74.75
357.534	68.75
357.761	75.75
357.988	80.75
358.215	79.75
358.441	67.75
358.668	91.75
358.895	76.75
359.122	74.75
359.349	68.75
359.576	77.75
359.802	79.75
360.029	73.75
360.256	86.75
360.483	78.75
360.709	63.75
360.936	86.75
361.163	88.75
361.39	78.75
361.616	77.75
361.843	93.75
362.07	72.75
362.296	73.75
362.523	68.75
362.749	89.75
362.976	82.75
363.203	87.75
363.429	79.75
363.656	71.75
363.882	77.75
364.109	93.75
364.335	78.75
364.562	74.75
364.788	86.75
365.015	76.75
365.241	85.75
365.468	79.75
365.694	75.75
365.92	83.75
366.147	93.75
366.373	75.75
366.599	84.75
366.826	81.75
367.052	73.75
367.278	78.75
367.505	83.75
367.731	89.75
367.957	81.75
368.184	89.75
368.41	84.75
368.636	91.75
368.862	77.75
369.089	73.75
369.315	81.75
369.541	82.75
369.767	86.75
369.993	96.75
370.219	85.75
370.445	81.75
370.672	91.75
370.898	79.75
371.124	76.75
371.35	91.75
371.576	97.75
371.802	93.75
372.028	76.75
372.254	73.75
372.48	76.75
372.706	85.75
372.932	70.75
373.158	89.75
373.384	95.75
373.61	97.75
373.835	94.75
374.061	88.75
374.287	84.75
374.513	89.75
374.739	84.75
374.965	80.75
375.191	93.75
375.416	93.75
375.642	93.75
375.868	96.75
376.094	87.75
376.319	102.75
376.545	80.75
376.771	91.75
376.997	84.75
377.222	86.75
377.448	83.75
377.674	104.75
377.899	89.75
378.125	84.75
378.35	71.75
378.576	95.75
378.802	78.75
379.027	79.75
379.253	71.75
379.478	87.75
379.704	76.75
379.929	79.75
380.155	76.75
380.38	87.75
380.606	76.75
380.831	88.75
381.057	94.75
381.282	105.75
381.507	89.75
381.733	94.75
381.958	73.75
382.184	88.75
382.409	100.75
382.634	91.75
382.86	102.75
383.085	103.75
383.31	90.75
383.535	87.75
383.761	100.75
383.986	93.75
384.211	96.75
384.436	95.75
384.662	90.75
384.887	84.75
385.112	89.75
385.337	112.75
385.562	81.75
385.787	91.75
386.013	96.75
386.238	102.75
386.463	98.75
386.688	93.75
386.913	83.75
387.138	87.75
387.363	89.75
387.588	95.75
387.813	89.75
388.038	93.75
388.263	87.75
388.488	101.75
388.713	74.75
388.938	91.75
389.163	82.75
389.387	110.75
389.612	91.75
389.837	96.75
390.062	107.75
390.287	109.75
390.512	94.75
390.736	93.75
390.961	90.75
391.186	103.75
391.411	102.75
391.636	99.75
391.86	102.75
392.085	99.75
392.31	101.75
392.534	98.75
392.759	101.75
392.984	89.75
393.208	93.75
393.433	108.75
393.658	106.75
393.882	99.75
394.107	98.75
394.331	86.75
394.556	107.75
394.78	90.75
395.005	93.75
395.229	99.75
395.454	98.75
395.678	110.75
395.903	113.75
396.127	104.75
396.352	104.75
396.576	104.75
396.801	110.75
397.025	89.75
397.249	110.75
397.474	114.75
397.698	96.75
397.922	103.75
398.147	102.75
398.371	110.75
398.595	101.75
398.82	98.75
399.044	97.75
399.268	92.75
399.492	96.75
399.717	95.75
399.941	98.75
400.165	112.75
400.389	99.75
400.613	101.75
400.837	115.75
401.062	110.75
401.286	109.75
401.51	79.75
401.734	121.75
401.958	92.75
402.182	96.75
402.406	99.75
402.63	91.75
402.854	95.75
403.078	121.75
403.302	112.75
403.526	110.75
403.75	116.75
403.974	108.75
404.198	100.75
404.422	118.75
404.645	129.75
404.869	105.75
405.093	114.75
405.317	103.75
405.541	117.75
405.765	113.75
405.988	116.75
406.212	110.75
406.436	105.75
406.66	121.75
406.883	98.75
407.107	106.75
407.331	94.75
407.555	115.75
407.778	100.75
408.002	121.75
408.226	114.75
408.449	95.75
408.673	109.75
408.896	115.75
409.12	112.75
409.344	119.75
409.567	112.75
409.791	108.75
410.014	118.75
410.238	105.75
410.461	126.75
410.685	111.75
410.908	101.75
411.132	117.75
411.355	113.75
411.578	115.75
411.802	118.75
412.025	115.75
412.249	119.75
412.472	116.75
412.695	123.75
412.919	110.75
413.142	115.75
413.365	129.75
413.589	127.75
413.812	116.75
414.035	102.75
414.258	112.75
414.482	118.75
414.705	120.75
414.928	124.75
415.151	118.75
415.374	119.75
415.597	137.75
415.821	121.75
416.044	120.75
416.267	125.75
416.49	115.75
416.713	126.75
416.936	107.75
417.159	110.75
417.382	119.75
417.605	120.75
417.828	109.75
418.051	117.75
418.274	130.75
418.497	112.75
418.72	125.75
418.943	139.75
419.166	118.75
419.389	130.75
419.611	127.75
419.834	139.75
420.057	128.75
420.28	127.75
420.503	123.75
420.726	129.75
420.948	129.75
421.171	123.75
421.394	133.75
421.617	129.75
421.839	147.75
422.062	136.75
422.285	116.75
422.507	120.75
422.73	129.75
422.953	129.75
423.175	125.75
423.398	120.75
423.621	113.75
423.843	123.75
424.066	115.75
424.288	131.75
424.511	133.75
424.733	138.75
424.956	143.75
425.178	135.75
425.401	135.75
425.623	131.75
425.846	120.75
426.068	135.75
426.291	114.75
426.513	123.75
426.735	114.75
426.958	132.75
427.18	135.75
427.402	127.75
427.625	128.75
427.847	116.75
428.069	119.75
428.292	125.75
428.514	121.75
428.736	118.75
428.958	124.75
429.181	117.75
429.403	121.75
429.625	128.75
429.847	121.75
430.069	113.75
430.292	135.75
430.514	124.75
430.736	125.75
430.958	127.75
431.18	116.75
431.402	119.75
431.624	113.75
431.846	96.75
432.068	110.75
432.29	96.75
432.512	98.75
432.734	110.75
432.956	114.75
433.178	144.75
433.4	123.75
433.622	127.75
433.844	134.75
434.066	116.75
434.287	103.75
434.509	94.75
434.731	85.75
434.953	104.75
435.175	128.75
435.397	115.75
435.618	104.75
435.84	95.75
436.062	115.75
436.284	120.75
436.505	135.75
436.727	129.75
436.949	121.75
437.17	120.75
437.392	121.75
437.614	115.75
437.835	109.75
438.057	129.75
438.278	108.75
438.5	127.75
438.721	131.75
438.943	122.75
439.165	127.75
439.386	128.75
439.608	131.75
439.829	138.75
440.05	140.75
440.272	140.75
440.493	142.75
440.715	145.75
440.936	149.75
441.158	126.75
441.379	129.75
441.6	129.75
441.822	137.75
442.043	132.75
442.264	155.75
442.486	139.75
442.707	134.75
442.928	121.75
443.149	131.75
443.371	120.75
443.592	137.75
443.813	139.75
444.034	133.75
444.255	147.75
444.476	124.75
444.698	118.75
444.919	130.75
445.14	276.75
445.361	194.75
445.582	140.75
445.803	133.75
446.024	132.75
446.245	153.75
446.466	136.75
446.687	159.75
446.908	154.75
447.129	149.75
447.35	150.75
447.571	144.75
447.792	134.75
448.013	141.75
448.234	131.75
448.455	141.75
448.675	130.75
448.896	129.75
449.117	124.75
449.338	120.75
449.559	128.75
449.779	120.75
450	140.75
450.221	135.75
450.442	138.75
450.662	127.75
450.883	130.75
451.104	127.75
451.324	127.75
451.545	132.75
451.766	128.75
451.986	135.75
452.207	137.75
452.428	119.75
452.648	116.75
452.869	113.75
453.089	104.75
453.31	114.75
453.53	95.75
453.751	104.75
453.971	108.75
454.192	94.75
454.412	105.75
454.633	104.75
454.853	104.75
455.073	121.75
455.294	127.75
455.514	107.75
455.734	118.75
455.955	114.75
456.175	103.75
456.395	104.75
456.616	100.75
456.836	110.75
457.056	109.75
457.276	97.75
457.497	98.75
457.717	95.75
457.937	99.75
458.157	100.75
458.377	96.75
458.598	90.75
458.818	90.75
459.038	87.75
459.258	70.75
459.478	71.75
459.698	86.75
459.918	93.75
460.138	86.75
460.358	102.75
460.578	92.75
460.798	112.75
461.018	121.75
461.238	102.75
461.458	108.75
461.678	113.75
461.898	109.75
462.118	109.75
462.338	111.75
462.558	108.75
462.777	117.75
462.997	113.75
463.217	85.75
463.437	101.75
463.657	116.75
463.876	114.75
464.096	108.75
464.316	109.75
464.536	119.75
464.755	114.75
464.975	117.75
465.195	109.75
465.414	115.75
465.634	100.75
465.854	130.75
466.073	99.75
466.293	107.75
466.512	122.75
466.732	117.75
466.951	129.75
467.171	128.75
467.391	127.75
467.61	128.75
467.829	124.75
468.049	112.75
468.268	133.75
468.488	135.75
468.707	135.75
468.927	131.75
469.146	128.75
469.365	130.75
469.585	139.75
469.804	143.75
470.023	160.75
470.243	155.75
470.462	144.75
470.681	143.75
470.901	136.75
471.12	126.75
471.339	139.75
471.558	145.75
471.777	128.75
471.997	140.75
472.216	120.75
472.435	110.75
472.654	102.75
472.873	104.75
473.092	119.75
473.311	121.75
473.53	122.75
473.749	125.75
473.968	141.75
474.187	112.75
474.406	125.75
474.625	112.75
474.844	125.75
475.063	144.75
475.282	134.75
475.501	127.75
475.72	114.75
475.939	117.75
476.158	118.75
476.377	116.75
476.596	121.75
476.814	127.75
477.033	113.75
477.252	100.75
477.471	98.75
477.69	119.75
477.908	131.75
478.127	125.75
478.346	131.75
478.564	133.75
478.783	131.75
479.002	138.75
479.22	128.75
479.439	127.75
479.658	131.75
479.876	119.75
480.095	112.75
480.313	120.75
480.532	113.75
480.751	105.75
480.969	83.75
481.188	80.75
481.406	82.75
481.624	78.75
481.843	85.75
482.061	85.75
482.28	111.75
482.498	94.75
482.717	100.75
482.935	125.75
483.153	144.75
483.372	141.75
483.59	147.75
483.808	150.75
484.027	132.75
484.245	140.75
484.463	129.75
484.681	165.75
484.9	147.75
485.118	130.75
485.336	132.75
485.554	116.75
485.772	106.75
485.99	93.75
486.209	100.75
486.427	106.75
486.645	117.75
486.863	141.75
487.081	132.75
487.299	121.75
487.517	128.75
487.735	151.75
487.953	176.75
488.171	188.75
488.389	153.75
488.607	154.75
488.825	157.75
489.043	141.75
489.261	117.75
489.479	123.75
489.696	144.75
489.914	134.75
490.132	145.75
490.35	154.75
490.568	157.75
490.786	163.75
491.003	176.75
491.221	168.75
491.439	166.75
491.657	179.75
491.874	198.75
492.092	215.75
492.31	238.75
492.527	219.75
492.745	194.75
492.963	197.75
493.18	172.75
493.398	180.75
493.615	173.75
493.833	175.75
494.05	181.75
494.268	171.75
494.485	173.75
494.703	185.75
494.92	164.75
495.138	157.75
495.355	172.75
495.573	167.75
495.79	157.75
496.008	169.75
496.225	162.75
496.442	135.75
496.66	157.75
496.877	161.75
497.094	162.75
497.312	165.75
497.529	141.75
497.746	143.75
497.963	147.75
498.181	130.75
498.398	129.75
498.615	120.75
498.832	112.75
499.049	116.75
499.267	123.75
499.484	110.75
499.701	124.75
499.918	134.75
500.135	116.75
500.352	132.75
500.569	136.75
500.786	127.75
501.003	131.75
501.22	130.75
501.437	122.75
501.654	147.75
501.871	129.75
502.088	125.75
502.305	120.75
502.522	123.75
502.739	118.75
502.956	125.75
503.172	113.75
503.389	102.75
503.606	118.75
503.823	116.75
504.04	140.75
504.256	118.75
504.473	99.75
504.69	110.75
504.907	131.75
505.123	124.75
505.34	124.75
505.557	124.75
505.773	119.75
505.99	119.75
506.207	128.75
506.423	111.75
506.64	119.75
506.856	119.75
507.073	111.75
507.289	128.75
507.506	113.75
507.722	123.75
507.939	126.75
508.155	115.75
508.372	118.75
508.588	119.75
508.805	94.75
509.021	109.75
509.238	105.75
509.454	88.75
509.67	91.75
509.887	94.75
510.103	98.75
510.319	88.75
510.536	92.75
510.752	73.75
510.968	79.75
511.184	88.75
511.401	91.75
511.617	77.75
511.833	88.75
512.049	79.75
512.265	107.75
512.481	103.75
512.698	86.75
512.914	97.75
513.13	87.75
513.346	88.75
513.562	76.75
513.778	85.75
513.994	95.75
514.21	97.75
514.426	100.75
514.642	89.75
514.858	101.75
515.074	87.75
515.29	82.75
515.506	85.75
515.721	73.75
515.937	84.75
516.153	73.75
516.369	84.75
516.585	85.75
516.801	88.75
517.016	84.75
517.232	77.75
517.448	88.75
517.664	91.75
517.879	81.75
518.095	98.75
518.311	80.75
518.527	101.75
518.742	90.75
518.958	99.75
519.173	104.75
519.389	94.75
519.605	95.75
519.82	92.75
520.036	100.75
520.251	118.75
520.467	99.75
520.682	97.75
520.898	93.75
521.113	92.75
521.329	83.75
521.544	86.75
521.76	98.75
521.975	87.75
522.19	106.75
522.406	107.75
522.621	91.75
522.836	95.75
523.052	99.75
523.267	97.75
523.482	112.75
523.698	102.75
523.913	105.75
524.128	108.75
524.343	101.75
524.559	115.75
524.774	117.75
524.989	97.75
525.204	120.75
525.419	99.75
525.634	96.75
525.849	111.75
526.064	111.75
526.28	100.75
526.495	98.75
526.71	92.75
526.925	79.75
527.14	82.75
527.355	78.75
527.57	79.75
527.785	80.75
527.999	88.75
528.214	86.75
528.429	119.75
528.644	129.75
528.859	129.75
529.074	149.75
529.289	139.75
529.503	148.75
529.718	153.75
529.933	107.75
530.148	117.75
530.363	96.75
530.577	82.75
530.792	74.75
531.007	83.75
531.221	82.75
531.436	85.75
531.651	75.75
531.865	72.75
532.08	76.75
532.295	94.75
532.509	81.75
532.724	83.75
532.938	80.75
533.153	90.75
533.367	107.75
533.582	100.75
533.796	141.75
534.011	111.75
534.225	91.75
534.44	91.75
534.654	87.75
534.868	81.75
535.083	96.75
535.297	96.75
535.511	101.75
535.726	102.75
535.94	95.75
536.154	104.75
536.369	85.75
536.583	70.75
536.797	83.75
537.011	81.75
537.225	82.75
537.44	74.75
537.654	95.75
537.868	84.75
538.082	96.75
538.296	93.75
538.51	101.75
538.724	110.75
538.938	117.75
539.153	121.75
539.367	129.75
539.581	128.75
539.795	99.75
540.009	102.75
540.222	93.75
540.436	88.75
540.65	124.75
540.864	120.75
541.078	127.75
541.292	135.75
541.506	159.75
541.72	173.75
541.934	172.75
542.147	200.75
542.361	183.75
542.575	176.75
542.789	135.75
543.002	134.75
543.216	118.75
543.43	128.75
543.644	120.75
543.857	133.75
544.071	154.75
544.285	164.75
544.498	165.75
544.712	142.75
544.925	154.75
545.139	147.75
545.352	135.75
545.566	155.75
545.779	139.75
545.993	139.75
546.206	161.75
546.42	164.75
546.633	148.75
546.847	162.75
547.06	168.75
547.274	162.75
547.487	172.75
547.7	165.75
547.914	147.75
548.127	155.75
548.34	150.75
548.554	148.75
548.767	145.75
548.98	152.75
549.193	142.75
549.407	150.75
549.62	143.75
549.833	152.75
550.046	144.75
550.259	135.75
550.473	141.75
550.686	147.75
550.899	142.75
551.112	142.75
551.325	136.75
551.538	117.75
551.751	135.75
551.964	109.75
552.177	117.75
552.39	138.75
552.603	147.75
552.816	155.75
553.029	138.75
553.242	132.75
553.455	162.75
553.667	154.75
553.88	141.75
554.093	130.75
554.306	157.75
554.519	143.75
554.732	149.75
554.944	131.75
555.157	124.75
555.37	133.75
555.583	140.75
555.795	147.75
556.008	139.75
556.221	130.75
556.433	128.75
556.646	132.75
556.859	135.75
557.071	137.75
557.284	128.75
557.496	121.75
557.709	126.75
557.921	140.75
558.134	148.75
558.346	141.75
558.559	124.75
558.771	132.75
558.984	149.75
559.196	125.75
559.409	128.75
559.621	130.75
559.833	126.75
560.046	130.75
560.258	136.75
560.47	141.75
560.683	102.75
560.895	131.75
561.107	133.75
561.32	120.75
561.532	126.75
561.744	132.75
561.956	135.75
562.168	132.75
562.381	111.75
562.593	123.75
562.805	120.75
563.017	131.75
563.229	130.75
563.441	130.75
563.653	110.75
563.865	115.75
564.077	119.75
564.289	127.75
564.501	109.75
564.713	113.75
564.925	104.75
565.137	99.75
565.349	111.75
565.561	120.75
565.773	118.75
565.985	104.75
566.197	104.75
566.408	119.75
566.62	121.75
566.832	103.75
567.044	109.75
567.255	107.75
567.467	100.75
567.679	100.75
567.891	94.75
568.102	95.75
568.314	81.75
568.526	91.75
568.737	81.75
568.949	77.75
569.161	79.75
569.372	77.75
569.584	84.75
569.795	80.75
570.007	72.75
570.218	75.75
570.43	88.75
570.641	86.75
570.853	80.75
571.064	99.75
571.276	86.75
571.487	99.75
571.698	109.75
571.91	109.75
572.121	97.75
572.333	91.75
572.544	101.75
572.755	93.75
572.966	87.75
573.178	86.75
573.389	98.75
573.6	97.75
573.811	85.75
574.023	86.75
574.234	77.75
574.445	78.75
574.656	84.75
574.867	82.75
575.078	91.75
575.289	90.75
575.501	91.75
575.712	85.75
575.923	97.75
576.134	91.75
576.345	93.75
576.556	100.75
576.767	103.75
576.978	93.75
577.188	93.75
577.399	93.75
577.61	93.75
577.821	101.75
578.032	87.75
578.243	76.75
578.454	88.75
578.665	82.75
578.875	81.75
579.086	77.75
579.297	65.75
579.508	90.75
579.718	81.75
579.929	77.75
580.14	85.75
580.35	78.75
580.561	91.75
580.772	92.75
580.982	83.75
581.193	70.75
581.403	91.75
581.614	86.75
581.825	76.75
582.035	92.75
582.246	85.75
582.456	95.75
582.667	95.75
582.877	81.75
583.087	103.75
583.298	87.75
583.508	79.75
583.719	84.75
583.929	85.75
584.139	83.75
584.35	81.75
584.56	94.75
584.77	81.75
584.981	85.75
585.191	79.75
585.401	77.75
585.611	94.75
585.821	92.75
586.032	77.75
586.242	81.75
586.452	79.75
586.662	68.75
586.872	66.75
587.082	79.75
587.292	79.75
587.502	79.75
587.713	87.75
587.923	86.75
588.133	94.75
588.343	87.75
588.553	82.75
588.762	99.75
588.972	80.75
589.182	87.75
589.392	62.75
589.602	73.75
589.812	74.75
590.022	93.75
590.232	69.75
590.441	94.75
590.651	91.75
590.861	77.75
591.071	91.75
591.281	78.75
591.49	77.75
591.7	79.75
591.91	87.75
592.119	81.75
592.329	85.75
592.539	80.75
592.748	76.75
592.958	82.75
593.167	76.75
593.377	86.75
593.587	89.75
593.796	81.75
594.006	73.75
594.215	93.75
594.424	96.75
594.634	92.75
594.843	83.75
595.053	84.75
595.262	82.75
595.472	87.75
595.681	80.75
595.89	89.75
596.1	88.75
596.309	99.75
596.518	97.75
596.727	84.75
596.937	107.75
597.146	93.75
597.355	82.75
597.564	100.75
597.774	101.75
597.983	95.75
598.192	88.75
598.401	72.75
598.61	86.75
598.819	79.75
599.028	87.75
599.237	93.75
599.446	91.75
599.655	78.75
599.864	92.75
600.073	94.75
600.282	92.75
600.491	99.75
600.7	86.75
600.909	92.75
601.118	93.75
601.327	92.75
601.536	101.75
601.745	91.75
601.953	116.75
602.162	103.75
602.371	115.75
602.58	110.75
602.789	95.75
602.997	106.75
603.206	93.75
603.415	91.75
603.623	104.75
603.832	108.75
604.041	111.75
604.249	96.75
604.458	110.75
604.666	100.75
604.875	89.75
605.084	92.75
605.292	90.75
605.501	97.75
605.709	108.75
605.918	117.75
606.126	109.75
606.334	100.75
606.543	95.75
606.751	103.75
606.96	109.75
607.168	99.75
607.376	97.75
607.585	105.75
607.793	110.75
608.001	103.75
608.21	95.75
608.418	104.75
608.626	103.75
608.834	111.75
609.043	104.75
609.251	91.75
609.459	110.75
609.667	125.75
609.875	104.75
610.083	100.75
610.291	104.75
610.499	93.75
610.707	102.75
610.916	103.75
611.124	108.75
611.332	121.75
611.54	99.75
611.748	80.75
611.955	120.75
612.163	121.75
612.371	110.75
612.579	115.75
612.787	104.75
612.995	113.75
613.203	111.75
613.411	99.75
613.618	104.75
613.826	120.75
614.034	96.75
614.242	117.75
614.449	111.75
614.657	96.75
614.865	108.75
615.072	111.75
615.28	109.75
615.488	119.75
615.695	112.75
615.903	96.75
616.111	100.75
616.318	112.75
616.526	102.75
616.733	107.75
616.941	87.75
617.148	110.75
617.356	101.75
617.563	101.75
617.771	109.75
617.978	100.75
618.185	124.75
618.393	101.75
618.6	119.75
618.807	102.75
619.015	99.75
619.222	110.75
619.429	117.75
619.637	106.75
619.844	102.75
620.051	89.75
620.258	92.75
620.466	87.75
620.673	109.75
620.88	88.75
621.087	98.75
621.294	97.75
621.501	99.75
621.708	100.75
621.915	107.75
622.122	97.75
622.329	92.75
622.536	92.75
622.743	105.75
622.95	95.75
623.157	100.75
623.364	112.75
623.571	94.75
623.778	113.75
623.985	107.75
624.192	93.75
624.399	109.75
624.606	103.75
624.812	90.75
625.019	97.75
625.226	111.75
625.433	92.75
625.639	115.75
625.846	87.75
626.053	99.75
626.259	87.75
626.466	79.75
626.673	92.75
626.879	88.75
627.086	82.75
627.293	100.75
627.499	97.75
627.706	97.75
627.912	91.75
628.119	92.75
628.325	86.75
628.532	91.75
628.738	101.75
628.945	123.75
629.151	94.75
629.357	93.75
629.564	100.75
629.77	112.75
629.976	85.75
630.183	85.75
630.389	78.75
630.595	109.75
630.802	92.75
631.008	111.75
631.214	101.75
631.42	96.75
631.627	91.75
631.833	87.75
632.039	92.75
632.245	100.75
632.451	97.75
632.657	82.75
632.863	86.75
633.069	100.75
633.275	87.75
633.481	107.75
633.688	102.75
633.893	91.75
634.099	96.75
634.305	85.75
634.511	94.75
634.717	79.75
634.923	98.75
635.129	82.75
635.335	91.75
635.541	89.75
635.747	96.75
635.952	84.75
636.158	101.75
636.364	102.75
636.57	88.75
636.775	86.75
636.981	99.75
637.187	96.75
637.392	107.75
637.598	98.75
637.804	95.75
638.009	99.75
638.215	85.75
638.421	102.75
638.626	98.75
638.832	92.75
639.037	96.75
639.243	96.75
639.448	91.75
639.654	96.75
639.859	82.75
640.065	110.75
640.27	97.75
640.475	109.75
640.681	81.75
640.886	86.75
641.091	90.75
641.297	96.75
641.502	99.75
641.707	86.75
641.913	107.75
642.118	97.75
642.323	94.75
642.528	96.75
642.733	100.75
642.939	88.75
643.144	99.75
643.349	78.75
643.554	103.75
643.759	86.75
643.964	101.75
644.169	87.75
644.374	101.75
644.579	87.75
644.784	91.75
644.989	96.75
645.194	94.75
645.399	94.75
645.604	84.75
645.809	97.75
646.014	99.75
646.219	75.75
646.423	79.75
646.628	78.75
646.833	89.75
647.038	88.75
647.243	100.75
647.447	81.75
647.652	99.75
647.857	103.75
648.062	111.75
648.266	87.75
648.471	83.75
648.676	97.75
648.88	87.75
649.085	92.75
649.289	91.75
649.494	83.75
649.698	95.75
649.903	92.75
650.107	92.75
650.312	94.75
650.516	100.75
650.721	92.75
650.925	83.75
651.13	89.75
651.334	101.75
651.539	91.75
651.743	88.75
651.947	86.75
652.152	101.75
652.356	83.75
652.56	91.75
652.764	81.75
652.969	74.75
653.173	95.75
653.377	98.75
653.581	100.75
653.785	89.75
653.99	87.75
654.194	95.75
654.398	89.75
654.602	95.75
654.806	83.75
655.01	80.75
655.214	81.75
655.418	85.75
655.622	79.75
655.826	76.75
656.03	77.75
656.234	70.75
656.438	88.75
656.642	84.75
656.846	86.75
657.049	78.75
657.253	88.75
657.457	91.75
657.661	94.75
657.865	84.75
658.068	87.75
658.272	74.75
658.476	88.75
658.68	89.75
658.883	86.75
659.087	86.75
659.291	89.75
659.494	78.75
659.698	89.75
659.901	87.75
660.105	74.75
660.309	73.75
660.512	72.75
660.716	75.75
660.919	71.75
661.123	82.75
661.326	83.75
661.53	85.75
661.733	76.75
661.936	74.75
662.14	86.75
662.343	76.75
662.546	81.75
662.75	90.75
662.953	80.75
663.156	75.75
663.36	88.75
663.563	82.75
663.766	81.75
663.969	77.75
664.173	72.75
664.376	73.75
664.579	73.75
664.782	63.75
664.985	69.75
665.188	79.75
665.391	62.75
665.594	79.75
665.797	79.75
666	92.75
666.203	82.75
666.406	74.75
666.609	72.75
666.812	83.75
667.015	85.75
667.218	92.75
667.421	77.75
667.624	74.75
667.827	66.75
668.03	69.75
668.232	74.75
668.435	59.75
668.638	67.75
668.841	63.75
669.043	84.75
669.246	84.75
669.449	75.75
669.651	79.75
669.854	83.75
670.057	73.75
670.259	76.75
670.462	86.75
670.665	70.75
670.867	62.75
671.07	65.75
671.272	70.75
671.475	79.75
671.677	68.75
671.88	69.75
672.082	86.75
672.284	82.75
672.487	84.75
672.689	78.75
672.892	68.75
