Data from Location4.07152019.Energy5.Lamp.07192019.3%Agarose_HRD10591_16-21-12-926.txt Node
Date: Fri Jul 19 16:21:12 EDT 2019
User: cochatt
Spectrometer: HR+D1059
Trigger mode: 1
Integration Time (sec): 1.000000E-1
Scans to average: 1
Electric dark correction enabled: true
Nonlinearity correction enabled: false
Boxcar width: 0
XAxis mode: Wavelengths
Number of Pixels in Spectrum: 2048
>>>>>Begin Spectral Data<<<<<
223.165	-21.25
223.4	-21.25
223.635	-21.25
223.869	-34.25
224.104	-25.25
224.338	-13.25
224.573	-19.25
224.808	-1.25
225.042	0.75
225.277	-3.25
225.511	2.75
225.746	4.75
225.98	10.75
226.215	5.75
226.449	24.75
226.683	25.75
226.918	13.75
227.152	28.75
227.387	29.75
227.621	18.75
227.856	35.75
228.09	39.75
228.324	45.75
228.559	48.75
228.793	54.75
229.027	58.75
229.262	62.75
229.496	74.75
229.73	61.75
229.964	72.75
230.199	62.75
230.433	71.75
230.667	59.75
230.901	83.75
231.136	62.75
231.37	71.75
231.604	68.75
231.838	74.75
232.072	85.75
232.306	98.75
232.541	97.75
232.775	93.75
233.009	80.75
233.243	75.75
233.477	70.75
233.711	75.75
233.945	67.75
234.179	78.75
234.413	70.75
234.647	80.75
234.881	82.75
235.115	75.75
235.349	86.75
235.583	79.75
235.817	66.75
236.051	66.75
236.285	89.75
236.519	74.75
236.753	99.75
236.987	66.75
237.221	76.75
237.455	79.75
237.689	77.75
237.922	71.75
238.156	62.75
238.39	74.75
238.624	65.75
238.858	67.75
239.091	65.75
239.325	75.75
239.559	63.75
239.793	69.75
240.027	66.75
240.26	65.75
240.494	70.75
240.728	73.75
240.961	73.75
241.195	71.75
241.429	66.75
241.662	71.75
241.896	72.75
242.13	75.75
242.363	65.75
242.597	64.75
242.83	83.75
243.064	75.75
243.298	87.75
243.531	71.75
243.765	57.75
243.998	68.75
244.232	65.75
244.465	66.75
244.699	69.75
244.932	71.75
245.166	75.75
245.399	77.75
245.633	75.75
245.866	81.75
246.099	93.75
246.333	74.75
246.566	60.75
246.8	62.75
247.033	68.75
247.266	74.75
247.5	60.75
247.733	71.75
247.966	76.75
248.2	79.75
248.433	93.75
248.666	59.75
248.899	74.75
249.133	84.75
249.366	78.75
249.599	76.75
249.832	75.75
250.066	75.75
250.299	87.75
250.532	87.75
250.765	74.75
250.998	66.75
251.231	78.75
251.465	75.75
251.698	89.75
251.931	67.75
252.164	76.75
252.397	82.75
252.63	67.75
252.863	80.75
253.096	70.75
253.329	82.75
253.562	77.75
253.795	75.75
254.028	72.75
254.261	72.75
254.494	74.75
254.727	82.75
254.96	72.75
255.193	82.75
255.426	83.75
255.659	72.75
255.892	71.75
256.124	75.75
256.357	77.75
256.59	95.75
256.823	77.75
257.056	80.75
257.289	71.75
257.521	72.75
257.754	83.75
257.987	87.75
258.22	68.75
258.452	75.75
258.685	57.75
258.918	76.75
259.151	69.75
259.383	80.75
259.616	81.75
259.849	74.75
260.081	65.75
260.314	77.75
260.547	83.75
260.779	73.75
261.012	74.75
261.244	84.75
261.477	77.75
261.71	76.75
261.942	75.75
262.175	89.75
262.407	65.75
262.64	77.75
262.872	84.75
263.105	71.75
263.337	78.75
263.57	72.75
263.802	80.75
264.035	62.75
264.267	79.75
264.499	81.75
264.732	90.75
264.964	71.75
265.197	69.75
265.429	74.75
265.661	81.75
265.894	83.75
266.126	92.75
266.358	75.75
266.591	84.75
266.823	61.75
267.055	77.75
267.287	78.75
267.52	74.75
267.752	85.75
267.984	80.75
268.216	77.75
268.448	82.75
268.681	74.75
268.913	82.75
269.145	87.75
269.377	76.75
269.609	69.75
269.841	71.75
270.073	90.75
270.306	85.75
270.538	77.75
270.77	72.75
271.002	80.75
271.234	74.75
271.466	77.75
271.698	68.75
271.93	83.75
272.162	65.75
272.394	93.75
272.626	76.75
272.858	69.75
273.09	71.75
273.322	71.75
273.553	86.75
273.785	80.75
274.017	78.75
274.249	68.75
274.481	80.75
274.713	70.75
274.945	76.75
275.176	89.75
275.408	102.75
275.64	74.75
275.872	82.75
276.104	84.75
276.335	69.75
276.567	79.75
276.799	61.75
277.031	81.75
277.262	73.75
277.494	79.75
277.726	72.75
277.957	75.75
278.189	72.75
278.421	80.75
278.652	74.75
278.884	71.75
279.115	70.75
279.347	70.75
279.579	68.75
279.81	77.75
280.042	84.75
280.273	76.75
280.505	75.75
280.736	80.75
280.968	84.75
281.199	83.75
281.431	58.75
281.662	71.75
281.894	69.75
282.125	70.75
282.356	81.75
282.588	70.75
282.819	67.75
283.051	78.75
283.282	95.75
283.513	93.75
283.745	77.75
283.976	83.75
284.207	82.75
284.439	83.75
284.67	76.75
284.901	66.75
285.132	66.75
285.364	71.75
285.595	93.75
285.826	76.75
286.057	83.75
286.288	80.75
286.52	80.75
286.751	95.75
286.982	75.75
287.213	75.75
287.444	73.75
287.675	70.75
287.906	71.75
288.138	71.75
288.369	77.75
288.6	76.75
288.831	77.75
289.062	64.75
289.293	81.75
289.524	70.75
289.755	77.75
289.986	74.75
290.217	72.75
290.448	71.75
290.679	83.75
290.91	89.75
291.141	80.75
291.371	72.75
291.602	75.75
291.833	83.75
292.064	85.75
292.295	94.75
292.526	78.75
292.757	72.75
292.987	102.75
293.218	73.75
293.449	77.75
293.68	84.75
293.91	86.75
294.141	70.75
294.372	69.75
294.603	79.75
294.833	69.75
295.064	61.75
295.295	87.75
295.525	77.75
295.756	71.75
295.987	68.75
296.217	78.75
296.448	80.75
296.679	73.75
296.909	73.75
297.14	89.75
297.37	55.75
297.601	80.75
297.831	65.75
298.062	81.75
298.292	80.75
298.523	75.75
298.753	61.75
298.984	81.75
299.214	89.75
299.445	82.75
299.675	90.75
299.905	77.75
300.136	74.75
300.366	73.75
300.597	85.75
300.827	74.75
301.057	68.75
301.288	71.75
301.518	71.75
301.748	82.75
301.979	79.75
302.209	81.75
302.439	78.75
302.669	81.75
302.9	78.75
303.13	85.75
303.36	76.75
303.59	83.75
303.82	85.75
304.051	77.75
304.281	87.75
304.511	93.75
304.741	85.75
304.971	86.75
305.201	87.75
305.431	85.75
305.661	80.75
305.891	87.75
306.121	73.75
306.352	78.75
306.582	75.75
306.812	78.75
307.042	83.75
307.272	77.75
307.502	77.75
307.731	76.75
307.961	83.75
308.191	87.75
308.421	76.75
308.651	79.75
308.881	91.75
309.111	76.75
309.341	77.75
309.571	86.75
309.8	70.75
310.03	79.75
310.26	80.75
310.49	87.75
310.72	82.75
310.949	78.75
311.179	81.75
311.409	73.75
311.639	82.75
311.868	73.75
312.098	67.75
312.328	79.75
312.557	76.75
312.787	78.75
313.017	85.75
313.246	78.75
313.476	78.75
313.706	77.75
313.935	71.75
314.165	66.75
314.394	88.75
314.624	74.75
314.853	83.75
315.083	89.75
315.312	84.75
315.542	75.75
315.771	80.75
316.001	73.75
316.23	81.75
316.46	79.75
316.689	93.75
316.919	79.75
317.148	68.75
317.377	75.75
317.607	75.75
317.836	77.75
318.065	74.75
318.295	83.75
318.524	85.75
318.753	78.75
318.983	82.75
319.212	84.75
319.441	82.75
319.67	77.75
319.9	87.75
320.129	85.75
320.358	75.75
320.587	72.75
320.816	70.75
321.046	71.75
321.275	82.75
321.504	88.75
321.733	94.75
321.962	75.75
322.191	68.75
322.42	82.75
322.649	81.75
322.878	67.75
323.108	76.75
323.337	69.75
323.566	74.75
323.795	83.75
324.024	76.75
324.253	76.75
324.482	77.75
324.71	84.75
324.939	86.75
325.168	86.75
325.397	80.75
325.626	83.75
325.855	83.75
326.084	71.75
326.313	91.75
326.542	76.75
326.77	83.75
326.999	89.75
327.228	77.75
327.457	78.75
327.686	83.75
327.914	77.75
328.143	74.75
328.372	80.75
328.6	81.75
328.829	84.75
329.058	71.75
329.287	76.75
329.515	86.75
329.744	99.75
329.972	80.75
330.201	81.75
330.43	72.75
330.658	82.75
330.887	68.75
331.115	71.75
331.344	78.75
331.572	77.75
331.801	80.75
332.03	75.75
332.258	87.75
332.486	71.75
332.715	86.75
332.943	78.75
333.172	85.75
333.4	76.75
333.629	81.75
333.857	71.75
334.085	81.75
334.314	78.75
334.542	81.75
334.771	73.75
334.999	79.75
335.227	75.75
335.455	80.75
335.684	71.75
335.912	79.75
336.14	64.75
336.369	77.75
336.597	82.75
336.825	73.75
337.053	63.75
337.281	85.75
337.51	81.75
337.738	83.75
337.966	81.75
338.194	66.75
338.422	78.75
338.65	70.75
338.878	86.75
339.106	82.75
339.334	92.75
339.562	70.75
339.79	70.75
340.018	78.75
340.246	72.75
340.474	95.75
340.702	91.75
340.93	73.75
341.158	73.75
341.386	91.75
341.614	83.75
341.842	74.75
342.07	71.75
342.298	74.75
342.526	81.75
342.754	80.75
342.981	78.75
343.209	85.75
343.437	75.75
343.665	96.75
343.893	77.75
344.12	80.75
344.348	82.75
344.576	78.75
344.804	74.75
345.031	76.75
345.259	85.75
345.487	91.75
345.714	95.75
345.942	82.75
346.17	81.75
346.397	86.75
346.625	82.75
346.853	79.75
347.08	78.75
347.308	86.75
347.535	83.75
347.763	86.75
347.99	76.75
348.218	87.75
348.445	80.75
348.673	77.75
348.9	78.75
349.128	71.75
349.355	79.75
349.583	73.75
349.81	86.75
350.037	82.75
350.265	90.75
350.492	80.75
350.72	69.75
350.947	69.75
351.174	70.75
351.402	65.75
351.629	64.75
351.856	56.75
352.083	85.75
352.311	75.75
352.538	82.75
352.765	69.75
352.992	79.75
353.22	76.75
353.447	71.75
353.674	81.75
353.901	87.75
354.128	80.75
354.355	87.75
354.583	74.75
354.81	75.75
355.037	78.75
355.264	76.75
355.491	64.75
355.718	74.75
355.945	92.75
356.172	86.75
356.399	68.75
356.626	79.75
356.853	71.75
357.08	78.75
357.307	74.75
357.534	71.75
357.761	67.75
357.988	77.75
358.215	90.75
358.441	66.75
358.668	79.75
358.895	85.75
359.122	72.75
359.349	78.75
359.576	78.75
359.802	77.75
360.029	81.75
360.256	78.75
360.483	75.75
360.709	68.75
360.936	95.75
361.163	85.75
361.39	62.75
361.616	65.75
361.843	68.75
362.07	93.75
362.296	79.75
362.523	78.75
362.749	88.75
362.976	78.75
363.203	83.75
363.429	69.75
363.656	81.75
363.882	83.75
364.109	85.75
364.335	80.75
364.562	81.75
364.788	67.75
365.015	79.75
365.241	81.75
365.468	90.75
365.694	71.75
365.92	88.75
366.147	86.75
366.373	81.75
366.599	91.75
366.826	95.75
367.052	86.75
367.278	78.75
367.505	69.75
367.731	86.75
367.957	87.75
368.184	82.75
368.41	73.75
368.636	84.75
368.862	90.75
369.089	90.75
369.315	76.75
369.541	74.75
369.767	78.75
369.993	77.75
370.219	98.75
370.445	100.75
370.672	89.75
370.898	88.75
371.124	67.75
371.35	72.75
371.576	81.75
371.802	70.75
372.028	80.75
372.254	74.75
372.48	83.75
372.706	68.75
372.932	80.75
373.158	83.75
373.384	84.75
373.61	84.75
373.835	71.75
374.061	87.75
374.287	83.75
374.513	79.75
374.739	85.75
374.965	97.75
375.191	70.75
375.416	93.75
375.642	102.75
375.868	90.75
376.094	82.75
376.319	89.75
376.545	79.75
376.771	92.75
376.997	85.75
377.222	82.75
377.448	86.75
377.674	72.75
377.899	88.75
378.125	105.75
378.35	92.75
378.576	85.75
378.802	85.75
379.027	83.75
379.253	91.75
379.478	86.75
379.704	99.75
379.929	78.75
380.155	89.75
380.38	93.75
380.606	82.75
380.831	101.75
381.057	97.75
381.282	94.75
381.507	84.75
381.733	99.75
381.958	97.75
382.184	82.75
382.409	84.75
382.634	90.75
382.86	89.75
383.085	80.75
383.31	82.75
383.535	84.75
383.761	73.75
383.986	82.75
384.211	99.75
384.436	88.75
384.662	92.75
384.887	93.75
385.112	61.75
385.337	91.75
385.562	72.75
385.787	93.75
386.013	93.75
386.238	83.75
386.463	89.75
386.688	99.75
386.913	85.75
387.138	94.75
387.363	100.75
387.588	103.75
387.813	100.75
388.038	93.75
388.263	87.75
388.488	93.75
388.713	81.75
388.938	89.75
389.163	90.75
389.387	90.75
389.612	115.75
389.837	99.75
390.062	101.75
390.287	113.75
390.512	106.75
390.736	95.75
390.961	89.75
391.186	86.75
391.411	78.75
391.636	85.75
391.86	99.75
392.085	103.75
392.31	84.75
392.534	89.75
392.759	100.75
392.984	85.75
393.208	93.75
393.433	97.75
393.658	92.75
393.882	107.75
394.107	104.75
394.331	97.75
394.556	100.75
394.78	91.75
395.005	113.75
395.229	113.75
395.454	92.75
395.678	95.75
395.903	97.75
396.127	95.75
396.352	97.75
396.576	108.75
396.801	97.75
397.025	86.75
397.249	95.75
397.474	102.75
397.698	105.75
397.922	101.75
398.147	91.75
398.371	86.75
398.595	101.75
398.82	113.75
399.044	86.75
399.268	86.75
399.492	105.75
399.717	108.75
399.941	109.75
400.165	105.75
400.389	94.75
400.613	109.75
400.837	111.75
401.062	96.75
401.286	111.75
401.51	102.75
401.734	102.75
401.958	100.75
402.182	97.75
402.406	107.75
402.63	110.75
402.854	95.75
403.078	105.75
403.302	94.75
403.526	105.75
403.75	109.75
403.974	113.75
404.198	97.75
404.422	101.75
404.645	97.75
404.869	95.75
405.093	107.75
405.317	99.75
405.541	101.75
405.765	117.75
405.988	111.75
406.212	122.75
406.436	108.75
406.66	108.75
406.883	97.75
407.107	113.75
407.331	100.75
407.555	94.75
407.778	117.75
408.002	117.75
408.226	105.75
408.449	107.75
408.673	95.75
408.896	121.75
409.12	117.75
409.344	116.75
409.567	118.75
409.791	117.75
410.014	114.75
410.238	112.75
410.461	101.75
410.685	118.75
410.908	119.75
411.132	129.75
411.355	120.75
411.578	124.75
411.802	109.75
412.025	103.75
412.249	103.75
412.472	103.75
412.695	95.75
412.919	108.75
413.142	127.75
413.365	109.75
413.589	118.75
413.812	127.75
414.035	106.75
414.258	105.75
414.482	101.75
414.705	113.75
414.928	117.75
415.151	110.75
415.374	116.75
415.597	116.75
415.821	117.75
416.044	103.75
416.267	116.75
416.49	116.75
416.713	107.75
416.936	105.75
417.159	114.75
417.382	109.75
417.605	119.75
417.828	118.75
418.051	123.75
418.274	113.75
418.497	115.75
418.72	117.75
418.943	117.75
419.166	127.75
419.389	125.75
419.611	121.75
419.834	115.75
420.057	136.75
420.28	139.75
420.503	126.75
420.726	135.75
420.948	121.75
421.171	120.75
421.394	140.75
421.617	127.75
421.839	134.75
422.062	122.75
422.285	128.75
422.507	118.75
422.73	113.75
422.953	103.75
423.175	107.75
423.398	119.75
423.621	132.75
423.843	129.75
424.066	135.75
424.288	141.75
424.511	145.75
424.733	134.75
424.956	131.75
425.178	132.75
425.401	121.75
425.623	117.75
425.846	117.75
426.068	122.75
426.291	119.75
426.513	115.75
426.735	118.75
426.958	125.75
427.18	133.75
427.402	116.75
427.625	118.75
427.847	109.75
428.069	111.75
428.292	107.75
428.514	129.75
428.736	119.75
428.958	121.75
429.181	122.75
429.403	120.75
429.625	106.75
429.847	114.75
430.069	107.75
430.292	130.75
430.514	133.75
430.736	122.75
430.958	123.75
431.18	127.75
431.402	124.75
431.624	102.75
431.846	97.75
432.068	85.75
432.29	91.75
432.512	101.75
432.734	105.75
432.956	117.75
433.178	125.75
433.4	127.75
433.622	121.75
433.844	118.75
434.066	109.75
434.287	119.75
434.509	89.75
434.731	102.75
434.953	99.75
435.175	111.75
435.397	118.75
435.618	106.75
435.84	92.75
436.062	119.75
436.284	110.75
436.505	115.75
436.727	102.75
436.949	102.75
437.17	127.75
437.392	109.75
437.614	121.75
437.835	99.75
438.057	99.75
438.278	99.75
438.5	117.75
438.721	116.75
438.943	123.75
439.165	128.75
439.386	124.75
439.608	141.75
439.829	145.75
440.05	126.75
440.272	126.75
440.493	123.75
440.715	147.75
440.936	129.75
441.158	146.75
441.379	124.75
441.6	108.75
441.822	128.75
442.043	134.75
442.264	138.75
442.486	133.75
442.707	117.75
442.928	125.75
443.149	137.75
443.371	128.75
443.592	127.75
443.813	133.75
444.034	137.75
444.255	137.75
444.476	117.75
444.698	124.75
444.919	133.75
445.14	255.75
445.361	195.75
445.582	143.75
445.803	139.75
446.024	131.75
446.245	160.75
446.466	147.75
446.687	149.75
446.908	132.75
447.129	139.75
447.35	151.75
447.571	154.75
447.792	131.75
448.013	122.75
448.234	138.75
448.455	126.75
448.675	121.75
448.896	127.75
449.117	124.75
449.338	114.75
449.559	150.75
449.779	134.75
450	127.75
450.221	118.75
450.442	138.75
450.662	127.75
450.883	119.75
451.104	134.75
451.324	97.75
451.545	121.75
451.766	130.75
451.986	122.75
452.207	129.75
452.428	129.75
452.648	117.75
452.869	112.75
453.089	114.75
453.31	98.75
453.53	98.75
453.751	95.75
453.971	98.75
454.192	77.75
454.412	119.75
454.633	120.75
454.853	113.75
455.073	111.75
455.294	117.75
455.514	111.75
455.734	123.75
455.955	110.75
456.175	111.75
456.395	95.75
456.616	97.75
456.836	101.75
457.056	110.75
457.276	109.75
457.497	102.75
457.717	105.75
457.937	107.75
458.157	109.75
458.377	84.75
458.598	96.75
458.818	83.75
459.038	80.75
459.258	85.75
459.478	79.75
459.698	102.75
459.918	95.75
460.138	104.75
460.358	103.75
460.578	133.75
460.798	122.75
461.018	117.75
461.238	119.75
461.458	118.75
461.678	102.75
461.898	104.75
462.118	113.75
462.338	107.75
462.558	101.75
462.777	113.75
462.997	101.75
463.217	103.75
463.437	111.75
463.657	104.75
463.876	98.75
464.096	96.75
464.316	111.75
464.536	101.75
464.755	107.75
464.975	99.75
465.195	109.75
465.414	94.75
465.634	84.75
465.854	107.75
466.073	113.75
466.293	111.75
466.512	124.75
466.732	118.75
466.951	127.75
467.171	133.75
467.391	131.75
467.61	121.75
467.829	126.75
468.049	119.75
468.268	124.75
468.488	122.75
468.707	146.75
468.927	122.75
469.146	117.75
469.365	121.75
469.585	125.75
469.804	136.75
470.023	133.75
470.243	144.75
470.462	131.75
470.681	131.75
470.901	132.75
471.12	135.75
471.339	118.75
471.558	135.75
471.777	128.75
471.997	123.75
472.216	118.75
472.435	131.75
472.654	116.75
472.873	110.75
473.092	98.75
473.311	108.75
473.53	112.75
473.749	117.75
473.968	118.75
474.187	116.75
474.406	118.75
474.625	107.75
474.844	122.75
475.063	136.75
475.282	130.75
475.501	123.75
475.72	99.75
475.939	121.75
476.158	129.75
476.377	117.75
476.596	111.75
476.814	112.75
477.033	115.75
477.252	115.75
477.471	117.75
477.69	131.75
477.908	123.75
478.127	121.75
478.346	129.75
478.564	128.75
478.783	124.75
479.002	144.75
479.22	118.75
479.439	125.75
479.658	100.75
479.876	95.75
480.095	95.75
480.313	99.75
480.532	111.75
480.751	103.75
480.969	78.75
481.188	69.75
481.406	66.75
481.624	65.75
481.843	69.75
482.061	92.75
482.28	113.75
482.498	99.75
482.717	102.75
482.935	113.75
483.153	131.75
483.372	143.75
483.59	147.75
483.808	139.75
484.027	137.75
484.245	129.75
484.463	143.75
484.681	148.75
484.9	129.75
485.118	138.75
485.336	122.75
485.554	101.75
485.772	106.75
485.99	109.75
486.209	104.75
486.427	101.75
486.645	128.75
486.863	130.75
487.081	135.75
487.299	117.75
487.517	130.75
487.735	161.75
487.953	184.75
488.171	178.75
488.389	161.75
488.607	151.75
488.825	143.75
489.043	135.75
489.261	114.75
489.479	131.75
489.696	145.75
489.914	134.75
490.132	144.75
490.35	146.75
490.568	146.75
490.786	176.75
491.003	155.75
491.221	179.75
491.439	181.75
491.657	163.75
491.874	195.75
492.092	203.75
492.31	234.75
492.527	224.75
492.745	185.75
492.963	176.75
493.18	182.75
493.398	153.75
493.615	165.75
493.833	174.75
494.05	155.75
494.268	151.75
494.485	156.75
494.703	161.75
494.92	161.75
495.138	165.75
495.355	174.75
495.573	172.75
495.79	166.75
496.008	155.75
496.225	164.75
496.442	153.75
496.66	164.75
496.877	167.75
497.094	151.75
497.312	163.75
497.529	141.75
497.746	143.75
497.963	135.75
498.181	116.75
498.398	129.75
498.615	112.75
498.832	106.75
499.049	129.75
499.267	121.75
499.484	123.75
499.701	128.75
499.918	135.75
500.135	138.75
500.352	139.75
500.569	126.75
500.786	131.75
501.003	139.75
501.22	143.75
501.437	130.75
501.654	124.75
501.871	124.75
502.088	146.75
502.305	149.75
502.522	118.75
502.739	119.75
502.956	130.75
503.172	123.75
503.389	122.75
503.606	119.75
503.823	111.75
504.04	111.75
504.256	113.75
504.473	114.75
504.69	110.75
504.907	121.75
505.123	119.75
505.34	112.75
505.557	112.75
505.773	107.75
505.99	106.75
506.207	101.75
506.423	109.75
506.64	119.75
506.856	112.75
507.073	118.75
507.289	125.75
507.506	105.75
507.722	128.75
507.939	109.75
508.155	110.75
508.372	84.75
508.588	119.75
508.805	101.75
509.021	115.75
509.238	125.75
509.454	100.75
509.67	78.75
509.887	100.75
510.103	79.75
510.319	89.75
510.536	82.75
510.752	91.75
510.968	83.75
511.184	71.75
511.401	79.75
511.617	79.75
511.833	90.75
512.049	101.75
512.265	106.75
512.481	99.75
512.698	84.75
512.914	89.75
513.13	103.75
513.346	81.75
513.562	82.75
513.778	74.75
513.994	86.75
514.21	75.75
514.426	94.75
514.642	85.75
514.858	86.75
515.074	86.75
515.29	67.75
515.506	90.75
515.721	73.75
515.937	86.75
516.153	81.75
516.369	84.75
516.585	76.75
516.801	76.75
517.016	90.75
517.232	94.75
517.448	93.75
517.664	75.75
517.879	75.75
518.095	90.75
518.311	89.75
518.527	94.75
518.742	93.75
518.958	100.75
519.173	111.75
519.389	120.75
519.605	109.75
519.82	92.75
520.036	92.75
520.251	89.75
520.467	81.75
520.682	93.75
520.898	94.75
521.113	78.75
521.329	88.75
521.544	93.75
521.76	91.75
521.975	87.75
522.19	93.75
522.406	103.75
522.621	97.75
522.836	96.75
523.052	102.75
523.267	109.75
523.482	107.75
523.698	107.75
523.913	110.75
524.128	113.75
524.343	102.75
524.559	102.75
524.774	104.75
524.989	117.75
525.204	139.75
525.419	111.75
525.634	101.75
525.849	104.75
526.064	93.75
526.28	102.75
526.495	93.75
526.71	88.75
526.925	80.75
527.14	79.75
527.355	95.75
527.57	76.75
527.785	86.75
527.999	73.75
528.214	111.75
528.429	112.75
528.644	112.75
528.859	121.75
529.074	134.75
529.289	162.75
529.503	148.75
529.718	131.75
529.933	122.75
530.148	101.75
530.363	85.75
530.577	97.75
530.792	87.75
531.007	75.75
531.221	82.75
531.436	67.75
531.651	80.75
531.865	72.75
532.08	85.75
532.295	83.75
532.509	95.75
532.724	79.75
532.938	80.75
533.153	105.75
533.367	93.75
533.582	109.75
533.796	122.75
534.011	104.75
534.225	81.75
534.44	68.75
534.654	92.75
534.868	114.75
535.083	93.75
535.297	88.75
535.511	105.75
535.726	95.75
535.94	99.75
536.154	89.75
536.369	93.75
536.583	75.75
536.797	83.75
537.011	82.75
537.225	79.75
537.44	81.75
537.654	88.75
537.868	94.75
538.082	82.75
538.296	84.75
538.51	88.75
538.724	114.75
538.938	98.75
539.153	116.75
539.367	121.75
539.581	102.75
539.795	102.75
540.009	103.75
540.222	103.75
540.436	111.75
540.65	105.75
540.864	119.75
541.078	122.75
541.292	133.75
541.506	152.75
541.72	162.75
541.934	188.75
542.147	185.75
542.361	154.75
542.575	163.75
542.789	134.75
543.002	145.75
543.216	130.75
543.43	113.75
543.644	105.75
543.857	126.75
544.071	138.75
544.285	149.75
544.498	143.75
544.712	138.75
544.925	143.75
545.139	137.75
545.352	143.75
545.566	150.75
545.779	150.75
545.993	152.75
546.206	166.75
546.42	156.75
546.633	159.75
546.847	161.75
547.06	158.75
547.274	165.75
547.487	177.75
547.7	151.75
547.914	151.75
548.127	142.75
548.34	154.75
548.554	147.75
548.767	150.75
548.98	140.75
549.193	148.75
549.407	141.75
549.62	139.75
549.833	141.75
550.046	141.75
550.259	145.75
550.473	147.75
550.686	125.75
550.899	153.75
551.112	141.75
551.325	124.75
551.538	117.75
551.751	113.75
551.964	121.75
552.177	127.75
552.39	137.75
552.603	127.75
552.816	129.75
553.029	146.75
553.242	139.75
553.455	146.75
553.667	156.75
553.88	151.75
554.093	137.75
554.306	131.75
554.519	121.75
554.732	141.75
554.944	130.75
555.157	132.75
555.37	126.75
555.583	134.75
555.795	122.75
556.008	121.75
556.221	124.75
556.433	133.75
556.646	142.75
556.859	131.75
557.071	129.75
557.284	141.75
557.496	113.75
557.709	143.75
557.921	159.75
558.134	145.75
558.346	130.75
558.559	125.75
558.771	134.75
558.984	122.75
559.196	126.75
559.409	133.75
559.621	126.75
559.833	117.75
560.046	113.75
560.258	122.75
560.47	116.75
560.683	109.75
560.895	111.75
561.107	118.75
561.32	112.75
561.532	121.75
561.744	121.75
561.956	122.75
562.168	116.75
562.381	122.75
562.593	131.75
562.805	123.75
563.017	130.75
563.229	115.75
563.441	109.75
563.653	101.75
563.865	121.75
564.077	109.75
564.289	109.75
564.501	118.75
564.713	120.75
564.925	106.75
565.137	117.75
565.349	103.75
565.561	109.75
565.773	113.75
565.985	94.75
566.197	109.75
566.408	129.75
566.62	116.75
566.832	111.75
567.044	119.75
567.255	114.75
567.467	97.75
567.679	102.75
567.891	111.75
568.102	91.75
568.314	92.75
568.526	91.75
568.737	99.75
568.949	88.75
569.161	67.75
569.372	81.75
569.584	71.75
569.795	74.75
570.007	71.75
570.218	89.75
570.43	85.75
570.641	87.75
570.853	92.75
571.064	87.75
571.276	100.75
571.487	109.75
571.698	90.75
571.91	95.75
572.121	114.75
572.333	111.75
572.544	90.75
572.755	95.75
572.966	95.75
573.178	81.75
573.389	81.75
573.6	77.75
573.811	83.75
574.023	86.75
574.234	70.75
574.445	82.75
574.656	91.75
574.867	95.75
575.078	77.75
575.289	86.75
575.501	89.75
575.712	95.75
575.923	105.75
576.134	87.75
576.345	89.75
576.556	86.75
576.767	106.75
576.978	91.75
577.188	83.75
577.399	81.75
577.61	90.75
577.821	104.75
578.032	90.75
578.243	85.75
578.454	97.75
578.665	91.75
578.875	88.75
579.086	93.75
579.297	68.75
579.508	80.75
579.718	81.75
579.929	75.75
580.14	89.75
580.35	73.75
580.561	95.75
580.772	91.75
580.982	90.75
581.193	85.75
581.403	87.75
581.614	80.75
581.825	81.75
582.035	94.75
582.246	90.75
582.456	85.75
582.667	83.75
582.877	94.75
583.087	87.75
583.298	86.75
583.508	71.75
583.719	76.75
583.929	89.75
584.139	71.75
584.35	81.75
584.56	79.75
584.77	75.75
584.981	91.75
585.191	95.75
585.401	85.75
585.611	81.75
585.821	80.75
586.032	79.75
586.242	77.75
586.452	94.75
586.662	89.75
586.872	76.75
587.082	75.75
587.292	75.75
587.502	77.75
587.713	76.75
587.923	99.75
588.133	72.75
588.343	79.75
588.553	69.75
588.762	67.75
588.972	87.75
589.182	69.75
589.392	73.75
589.602	88.75
589.812	77.75
590.022	70.75
590.232	71.75
590.441	65.75
590.651	72.75
590.861	77.75
591.071	74.75
591.281	81.75
591.49	100.75
591.7	77.75
591.91	83.75
592.119	81.75
592.329	82.75
592.539	84.75
592.748	71.75
592.958	78.75
593.167	85.75
593.377	84.75
593.587	84.75
593.796	80.75
594.006	81.75
594.215	71.75
594.424	85.75
594.634	81.75
594.843	87.75
595.053	89.75
595.262	76.75
595.472	91.75
595.681	91.75
595.89	86.75
596.1	91.75
596.309	93.75
596.518	84.75
596.727	98.75
596.937	85.75
597.146	91.75
597.355	82.75
597.564	96.75
597.774	97.75
597.983	73.75
598.192	79.75
598.401	77.75
598.61	85.75
598.819	94.75
599.028	91.75
599.237	86.75
599.446	98.75
599.655	91.75
599.864	88.75
600.073	70.75
600.282	78.75
600.491	83.75
600.7	109.75
600.909	73.75
601.118	88.75
601.327	97.75
601.536	97.75
601.745	101.75
601.953	95.75
602.162	106.75
602.371	98.75
602.58	100.75
602.789	102.75
602.997	91.75
603.206	103.75
603.415	109.75
603.623	109.75
603.832	101.75
604.041	103.75
604.249	102.75
604.458	101.75
604.666	94.75
604.875	90.75
605.084	88.75
605.292	107.75
605.501	103.75
605.709	111.75
605.918	97.75
606.126	105.75
606.334	102.75
606.543	111.75
606.751	100.75
606.96	97.75
607.168	113.75
607.376	95.75
607.585	90.75
607.793	96.75
608.001	100.75
608.21	120.75
608.418	111.75
608.626	102.75
608.834	87.75
609.043	98.75
609.251	102.75
609.459	117.75
609.667	107.75
609.875	102.75
610.083	121.75
610.291	107.75
610.499	105.75
610.707	103.75
610.916	117.75
611.124	108.75
611.332	121.75
611.54	100.75
611.748	105.75
611.955	116.75
612.163	101.75
612.371	100.75
612.579	103.75
612.787	82.75
612.995	98.75
613.203	106.75
613.411	105.75
613.618	109.75
613.826	103.75
614.034	100.75
614.242	115.75
614.449	113.75
614.657	92.75
614.865	118.75
615.072	101.75
615.28	102.75
615.488	103.75
615.695	105.75
615.903	94.75
616.111	102.75
616.318	100.75
616.526	96.75
616.733	111.75
616.941	112.75
617.148	106.75
617.356	107.75
617.563	107.75
617.771	93.75
617.978	83.75
618.185	98.75
618.393	114.75
618.6	103.75
618.807	94.75
619.015	101.75
619.222	94.75
619.429	106.75
619.637	85.75
619.844	106.75
620.051	107.75
620.258	95.75
620.466	95.75
620.673	90.75
620.88	90.75
621.087	94.75
621.294	115.75
621.501	107.75
621.708	101.75
621.915	105.75
622.122	102.75
622.329	93.75
622.536	93.75
622.743	87.75
622.95	90.75
623.157	107.75
623.364	90.75
623.571	99.75
623.778	98.75
623.985	92.75
624.192	94.75
624.399	116.75
624.606	92.75
624.812	83.75
625.019	89.75
625.226	98.75
625.433	83.75
625.639	100.75
625.846	97.75
626.053	85.75
626.259	93.75
626.466	97.75
626.673	92.75
626.879	100.75
627.086	83.75
627.293	86.75
627.499	104.75
627.706	93.75
627.912	103.75
628.119	100.75
628.325	108.75
628.532	102.75
628.738	83.75
628.945	88.75
629.151	81.75
629.357	87.75
629.564	96.75
629.77	93.75
629.976	109.75
630.183	89.75
630.389	101.75
630.595	92.75
630.802	101.75
631.008	97.75
631.214	79.75
631.42	101.75
631.627	94.75
631.833	83.75
632.039	95.75
632.245	94.75
632.451	99.75
632.657	99.75
632.863	90.75
633.069	94.75
633.275	105.75
633.481	84.75
633.688	111.75
633.893	99.75
634.099	84.75
634.305	90.75
634.511	93.75
634.717	98.75
634.923	93.75
635.129	76.75
635.335	90.75
635.541	89.75
635.747	91.75
635.952	77.75
636.158	90.75
636.364	92.75
636.57	84.75
636.775	94.75
636.981	96.75
637.187	98.75
637.392	95.75
637.598	83.75
637.804	96.75
638.009	97.75
638.215	103.75
638.421	97.75
638.626	95.75
638.832	106.75
639.037	92.75
639.243	109.75
639.448	83.75
639.654	88.75
639.859	82.75
640.065	92.75
640.27	99.75
640.475	98.75
640.681	83.75
640.886	85.75
641.091	117.75
641.297	87.75
641.502	87.75
641.707	105.75
641.913	96.75
642.118	91.75
642.323	77.75
642.528	105.75
642.733	113.75
642.939	101.75
643.144	95.75
643.349	94.75
643.554	95.75
643.759	94.75
643.964	109.75
644.169	81.75
644.374	96.75
644.579	91.75
644.784	94.75
644.989	93.75
645.194	95.75
645.399	110.75
645.604	93.75
645.809	107.75
646.014	91.75
646.219	95.75
646.423	89.75
646.628	90.75
646.833	110.75
647.038	86.75
647.243	95.75
647.447	98.75
647.652	83.75
647.857	105.75
648.062	90.75
648.266	96.75
648.471	88.75
648.676	89.75
648.88	101.75
649.085	98.75
649.289	96.75
649.494	91.75
649.698	87.75
649.903	92.75
650.107	86.75
650.312	91.75
650.516	99.75
650.721	84.75
650.925	97.75
651.13	98.75
651.334	98.75
651.539	97.75
651.743	94.75
651.947	99.75
652.152	102.75
652.356	84.75
652.56	76.75
652.764	90.75
652.969	76.75
653.173	85.75
653.377	92.75
653.581	76.75
653.785	96.75
653.99	84.75
654.194	82.75
654.398	87.75
654.602	85.75
654.806	84.75
655.01	84.75
655.214	77.75
655.418	77.75
655.622	82.75
655.826	91.75
656.03	86.75
656.234	85.75
656.438	81.75
656.642	90.75
656.846	75.75
657.049	89.75
657.253	75.75
657.457	95.75
657.661	85.75
657.865	83.75
658.068	83.75
658.272	88.75
658.476	86.75
658.68	89.75
658.883	85.75
659.087	88.75
659.291	87.75
659.494	82.75
659.698	77.75
659.901	70.75
660.105	78.75
660.309	80.75
660.512	92.75
660.716	79.75
660.919	71.75
661.123	82.75
661.326	70.75
661.53	83.75
661.733	84.75
661.936	73.75
662.14	63.75
662.343	74.75
662.546	69.75
662.75	78.75
662.953	97.75
663.156	75.75
663.36	69.75
663.563	81.75
663.766	76.75
663.969	66.75
664.173	66.75
664.376	77.75
664.579	75.75
664.782	81.75
664.985	61.75
665.188	92.75
665.391	83.75
665.594	82.75
665.797	81.75
666	81.75
666.203	69.75
666.406	76.75
666.609	86.75
666.812	76.75
667.015	70.75
667.218	77.75
667.421	75.75
667.624	80.75
667.827	82.75
668.03	76.75
668.232	74.75
668.435	97.75
668.638	76.75
668.841	71.75
669.043	82.75
669.246	77.75
669.449	95.75
669.651	88.75
669.854	80.75
670.057	85.75
670.259	82.75
670.462	75.75
670.665	69.75
670.867	69.75
671.07	91.75
671.272	91.75
671.475	72.75
671.677	61.75
671.88	74.75
672.082	57.75
672.284	73.75
672.487	62.75
672.689	85.75
672.892	79.75
