Data from Location4.07152019.Energy5.Lamp.07192019.3%Agarose_HRD10591_16-21-15-926.txt Node
Date: Fri Jul 19 16:21:15 EDT 2019
User: cochatt
Spectrometer: HR+D1059
Trigger mode: 1
Integration Time (sec): 1.000000E-1
Scans to average: 1
Electric dark correction enabled: true
Nonlinearity correction enabled: false
Boxcar width: 0
XAxis mode: Wavelengths
Number of Pixels in Spectrum: 2048
>>>>>Begin Spectral Data<<<<<
223.165	-12.62
223.4	-12.62
223.635	-12.62
223.869	-1.62
224.104	-24.62
224.338	-18.62
224.573	-14.62
224.808	-11.62
225.042	-15.62
225.277	-7.62
225.511	4.38
225.746	-18.62
225.98	9.38
226.215	8.38
226.449	22.38
226.683	24.38
226.918	23.38
227.152	33.38
227.387	28.38
227.621	46.38
227.856	36.38
228.09	44.38
228.324	45.38
228.559	52.38
228.793	58.38
229.027	62.38
229.262	69.38
229.496	79.38
229.73	56.38
229.964	63.38
230.199	63.38
230.433	78.38
230.667	88.38
230.901	79.38
231.136	87.38
231.37	82.38
231.604	79.38
231.838	72.38
232.072	84.38
232.306	79.38
232.541	83.38
232.775	76.38
233.009	78.38
233.243	76.38
233.477	83.38
233.711	83.38
233.945	90.38
234.179	74.38
234.413	69.38
234.647	84.38
234.881	74.38
235.115	75.38
235.349	77.38
235.583	91.38
235.817	78.38
236.051	80.38
236.285	69.38
236.519	84.38
236.753	87.38
236.987	76.38
237.221	78.38
237.455	80.38
237.689	77.38
237.922	78.38
238.156	73.38
238.39	73.38
238.624	83.38
238.858	65.38
239.091	72.38
239.325	72.38
239.559	79.38
239.793	83.38
240.027	84.38
240.26	91.38
240.494	72.38
240.728	79.38
240.961	80.38
241.195	83.38
241.429	69.38
241.662	73.38
241.896	65.38
242.13	68.38
242.363	77.38
242.597	86.38
242.83	69.38
243.064	78.38
243.298	82.38
243.531	75.38
243.765	75.38
243.998	67.38
244.232	65.38
244.465	77.38
244.699	82.38
244.932	91.38
245.166	94.38
245.399	86.38
245.633	68.38
245.866	75.38
246.099	79.38
246.333	70.38
246.566	76.38
246.8	82.38
247.033	81.38
247.266	85.38
247.5	80.38
247.733	77.38
247.966	74.38
248.2	73.38
248.433	89.38
248.666	78.38
248.899	85.38
249.133	75.38
249.366	92.38
249.599	76.38
249.832	82.38
250.066	88.38
250.299	77.38
250.532	79.38
250.765	75.38
250.998	77.38
251.231	81.38
251.465	78.38
251.698	76.38
251.931	94.38
252.164	84.38
252.397	84.38
252.63	83.38
252.863	86.38
253.096	69.38
253.329	84.38
253.562	85.38
253.795	81.38
254.028	96.38
254.261	81.38
254.494	81.38
254.727	72.38
254.96	78.38
255.193	85.38
255.426	68.38
255.659	64.38
255.892	85.38
256.124	89.38
256.357	78.38
256.59	64.38
256.823	79.38
257.056	93.38
257.289	87.38
257.521	80.38
257.754	82.38
257.987	82.38
258.22	92.38
258.452	83.38
258.685	73.38
258.918	79.38
259.151	70.38
259.383	86.38
259.616	83.38
259.849	85.38
260.081	87.38
260.314	75.38
260.547	79.38
260.779	78.38
261.012	77.38
261.244	85.38
261.477	90.38
261.71	85.38
261.942	86.38
262.175	86.38
262.407	72.38
262.64	73.38
262.872	86.38
263.105	82.38
263.337	92.38
263.57	79.38
263.802	92.38
264.035	82.38
264.267	75.38
264.499	78.38
264.732	83.38
264.964	91.38
265.197	85.38
265.429	84.38
265.661	88.38
265.894	77.38
266.126	100.38
266.358	72.38
266.591	86.38
266.823	65.38
267.055	63.38
267.287	94.38
267.52	82.38
267.752	103.38
267.984	85.38
268.216	77.38
268.448	72.38
268.681	96.38
268.913	87.38
269.145	77.38
269.377	89.38
269.609	69.38
269.841	88.38
270.073	90.38
270.306	92.38
270.538	89.38
270.77	98.38
271.002	78.38
271.234	89.38
271.466	78.38
271.698	82.38
271.93	88.38
272.162	67.38
272.394	78.38
272.626	91.38
272.858	85.38
273.09	87.38
273.322	89.38
273.553	77.38
273.785	77.38
274.017	72.38
274.249	69.38
274.481	67.38
274.713	77.38
274.945	81.38
275.176	77.38
275.408	78.38
275.64	92.38
275.872	92.38
276.104	74.38
276.335	70.38
276.567	79.38
276.799	88.38
277.031	95.38
277.262	92.38
277.494	91.38
277.726	81.38
277.957	82.38
278.189	88.38
278.421	81.38
278.652	72.38
278.884	86.38
279.115	81.38
279.347	81.38
279.579	89.38
279.81	95.38
280.042	89.38
280.273	85.38
280.505	88.38
280.736	84.38
280.968	84.38
281.199	76.38
281.431	91.38
281.662	79.38
281.894	85.38
282.125	88.38
282.356	93.38
282.588	94.38
282.819	90.38
283.051	80.38
283.282	78.38
283.513	67.38
283.745	69.38
283.976	87.38
284.207	91.38
284.439	86.38
284.67	95.38
284.901	92.38
285.132	85.38
285.364	89.38
285.595	80.38
285.826	96.38
286.057	84.38
286.288	75.38
286.52	87.38
286.751	85.38
286.982	84.38
287.213	84.38
287.444	94.38
287.675	89.38
287.906	91.38
288.138	87.38
288.369	98.38
288.6	90.38
288.831	91.38
289.062	77.38
289.293	96.38
289.524	93.38
289.755	81.38
289.986	112.38
290.217	98.38
290.448	90.38
290.679	88.38
290.91	72.38
291.141	73.38
291.371	82.38
291.602	88.38
291.833	85.38
292.064	68.38
292.295	82.38
292.526	88.38
292.757	84.38
292.987	85.38
293.218	94.38
293.449	91.38
293.68	94.38
293.91	85.38
294.141	84.38
294.372	73.38
294.603	85.38
294.833	77.38
295.064	69.38
295.295	84.38
295.525	88.38
295.756	85.38
295.987	68.38
296.217	72.38
296.448	80.38
296.679	84.38
296.909	74.38
297.14	79.38
297.37	80.38
297.601	74.38
297.831	86.38
298.062	90.38
298.292	82.38
298.523	86.38
298.753	103.38
298.984	82.38
299.214	74.38
299.445	92.38
299.675	83.38
299.905	90.38
300.136	83.38
300.366	84.38
300.597	83.38
300.827	81.38
301.057	97.38
301.288	92.38
301.518	68.38
301.748	76.38
301.979	69.38
302.209	93.38
302.439	90.38
302.669	82.38
302.9	92.38
303.13	91.38
303.36	90.38
303.59	86.38
303.82	88.38
304.051	80.38
304.281	88.38
304.511	85.38
304.741	80.38
304.971	86.38
305.201	85.38
305.431	80.38
305.661	78.38
305.891	81.38
306.121	93.38
306.352	86.38
306.582	81.38
306.812	83.38
307.042	81.38
307.272	91.38
307.502	89.38
307.731	91.38
307.961	86.38
308.191	76.38
308.421	104.38
308.651	81.38
308.881	87.38
309.111	82.38
309.341	82.38
309.571	88.38
309.8	79.38
310.03	88.38
310.26	79.38
310.49	81.38
310.72	64.38
310.949	85.38
311.179	90.38
311.409	88.38
311.639	94.38
311.868	72.38
312.098	82.38
312.328	92.38
312.557	80.38
312.787	85.38
313.017	80.38
313.246	95.38
313.476	84.38
313.706	88.38
313.935	82.38
314.165	85.38
314.394	91.38
314.624	85.38
314.853	86.38
315.083	94.38
315.312	84.38
315.542	77.38
315.771	91.38
316.001	76.38
316.23	94.38
316.46	89.38
316.689	89.38
316.919	90.38
317.148	76.38
317.377	85.38
317.607	94.38
317.836	67.38
318.065	76.38
318.295	81.38
318.524	92.38
318.753	97.38
318.983	88.38
319.212	76.38
319.441	76.38
319.67	100.38
319.9	86.38
320.129	92.38
320.358	85.38
320.587	87.38
320.816	77.38
321.046	80.38
321.275	86.38
321.504	92.38
321.733	98.38
321.962	85.38
322.191	93.38
322.42	89.38
322.649	86.38
322.878	90.38
323.108	86.38
323.337	101.38
323.566	88.38
323.795	77.38
324.024	86.38
324.253	90.38
324.482	81.38
324.71	79.38
324.939	77.38
325.168	92.38
325.397	84.38
325.626	105.38
325.855	85.38
326.084	71.38
326.313	91.38
326.542	73.38
326.77	84.38
326.999	83.38
327.228	92.38
327.457	100.38
327.686	83.38
327.914	78.38
328.143	101.38
328.372	71.38
328.6	89.38
328.829	92.38
329.058	78.38
329.287	99.38
329.515	81.38
329.744	86.38
329.972	97.38
330.201	90.38
330.43	80.38
330.658	92.38
330.887	84.38
331.115	89.38
331.344	79.38
331.572	82.38
331.801	78.38
332.03	95.38
332.258	81.38
332.486	83.38
332.715	87.38
332.943	87.38
333.172	85.38
333.4	77.38
333.629	97.38
333.857	76.38
334.085	70.38
334.314	77.38
334.542	90.38
334.771	82.38
334.999	65.38
335.227	77.38
335.455	94.38
335.684	78.38
335.912	82.38
336.14	91.38
336.369	100.38
336.597	81.38
336.825	82.38
337.053	78.38
337.281	114.38
337.51	77.38
337.738	95.38
337.966	82.38
338.194	76.38
338.422	78.38
338.65	90.38
338.878	80.38
339.106	97.38
339.334	93.38
339.562	90.38
339.79	72.38
340.018	86.38
340.246	70.38
340.474	94.38
340.702	69.38
340.93	88.38
341.158	79.38
341.386	81.38
341.614	95.38
341.842	89.38
342.07	89.38
342.298	83.38
342.526	83.38
342.754	82.38
342.981	93.38
343.209	89.38
343.437	87.38
343.665	97.38
343.893	90.38
344.12	105.38
344.348	81.38
344.576	85.38
344.804	91.38
345.031	88.38
345.259	91.38
345.487	95.38
345.714	95.38
345.942	94.38
346.17	82.38
346.397	81.38
346.625	86.38
346.853	80.38
347.08	77.38
347.308	76.38
347.535	86.38
347.763	97.38
347.99	83.38
348.218	83.38
348.445	103.38
348.673	93.38
348.9	90.38
349.128	87.38
349.355	81.38
349.583	82.38
349.81	77.38
350.037	86.38
350.265	83.38
350.492	78.38
350.72	84.38
350.947	78.38
351.174	93.38
351.402	80.38
351.629	87.38
351.856	83.38
352.083	82.38
352.311	80.38
352.538	89.38
352.765	89.38
352.992	81.38
353.22	103.38
353.447	78.38
353.674	86.38
353.901	82.38
354.128	86.38
354.355	88.38
354.583	84.38
354.81	89.38
355.037	78.38
355.264	83.38
355.491	77.38
355.718	83.38
355.945	78.38
356.172	84.38
356.399	79.38
356.626	75.38
356.853	91.38
357.08	82.38
357.307	94.38
357.534	79.38
357.761	92.38
357.988	84.38
358.215	74.38
358.441	89.38
358.668	83.38
358.895	88.38
359.122	88.38
359.349	89.38
359.576	82.38
359.802	81.38
360.029	92.38
360.256	90.38
360.483	77.38
360.709	73.38
360.936	101.38
361.163	85.38
361.39	84.38
361.616	81.38
361.843	82.38
362.07	89.38
362.296	78.38
362.523	81.38
362.749	91.38
362.976	88.38
363.203	92.38
363.429	84.38
363.656	89.38
363.882	84.38
364.109	81.38
364.335	88.38
364.562	74.38
364.788	93.38
365.015	75.38
365.241	86.38
365.468	88.38
365.694	81.38
365.92	92.38
366.147	83.38
366.373	91.38
366.599	77.38
366.826	78.38
367.052	85.38
367.278	72.38
367.505	92.38
367.731	98.38
367.957	75.38
368.184	92.38
368.41	72.38
368.636	80.38
368.862	84.38
369.089	83.38
369.315	93.38
369.541	94.38
369.767	86.38
369.993	85.38
370.219	118.38
370.445	98.38
370.672	95.38
370.898	90.38
371.124	94.38
371.35	87.38
371.576	90.38
371.802	89.38
372.028	79.38
372.254	84.38
372.48	95.38
372.706	108.38
372.932	91.38
373.158	106.38
373.384	86.38
373.61	84.38
373.835	86.38
374.061	92.38
374.287	101.38
374.513	94.38
374.739	98.38
374.965	94.38
375.191	79.38
375.416	94.38
375.642	104.38
375.868	88.38
376.094	93.38
376.319	97.38
376.545	97.38
376.771	99.38
376.997	95.38
377.222	90.38
377.448	94.38
377.674	86.38
377.899	97.38
378.125	87.38
378.35	90.38
378.576	101.38
378.802	95.38
379.027	78.38
379.253	90.38
379.478	87.38
379.704	83.38
379.929	93.38
380.155	93.38
380.38	86.38
380.606	83.38
380.831	101.38
381.057	100.38
381.282	103.38
381.507	104.38
381.733	101.38
381.958	108.38
382.184	89.38
382.409	90.38
382.634	93.38
382.86	94.38
383.085	99.38
383.31	102.38
383.535	88.38
383.761	84.38
383.986	93.38
384.211	75.38
384.436	97.38
384.662	96.38
384.887	87.38
385.112	85.38
385.337	112.38
385.562	97.38
385.787	92.38
386.013	102.38
386.238	103.38
386.463	93.38
386.688	98.38
386.913	108.38
387.138	97.38
387.363	96.38
387.588	101.38
387.813	86.38
388.038	98.38
388.263	99.38
388.488	99.38
388.713	102.38
388.938	102.38
389.163	88.38
389.387	109.38
389.612	111.38
389.837	93.38
390.062	112.38
390.287	107.38
390.512	110.38
390.736	108.38
390.961	106.38
391.186	108.38
391.411	96.38
391.636	112.38
391.86	106.38
392.085	108.38
392.31	114.38
392.534	110.38
392.759	114.38
392.984	106.38
393.208	110.38
393.433	102.38
393.658	96.38
393.882	106.38
394.107	114.38
394.331	106.38
394.556	100.38
394.78	93.38
395.005	115.38
395.229	100.38
395.454	107.38
395.678	117.38
395.903	118.38
396.127	123.38
396.352	107.38
396.576	104.38
396.801	115.38
397.025	112.38
397.249	108.38
397.474	105.38
397.698	105.38
397.922	90.38
398.147	110.38
398.371	121.38
398.595	114.38
398.82	105.38
399.044	107.38
399.268	105.38
399.492	113.38
399.717	118.38
399.941	103.38
400.165	110.38
400.389	106.38
400.613	109.38
400.837	120.38
401.062	105.38
401.286	100.38
401.51	109.38
401.734	101.38
401.958	103.38
402.182	100.38
402.406	124.38
402.63	106.38
402.854	114.38
403.078	107.38
403.302	92.38
403.526	101.38
403.75	115.38
403.974	112.38
404.198	126.38
404.422	106.38
404.645	114.38
404.869	120.38
405.093	106.38
405.317	130.38
405.541	122.38
405.765	116.38
405.988	112.38
406.212	118.38
406.436	110.38
406.66	98.38
406.883	131.38
407.107	107.38
407.331	109.38
407.555	107.38
407.778	125.38
408.002	114.38
408.226	122.38
408.449	105.38
408.673	106.38
408.896	112.38
409.12	129.38
409.344	115.38
409.567	118.38
409.791	113.38
410.014	126.38
410.238	125.38
410.461	129.38
410.685	117.38
410.908	127.38
411.132	128.38
411.355	118.38
411.578	123.38
411.802	114.38
412.025	129.38
412.249	107.38
412.472	125.38
412.695	123.38
412.919	132.38
413.142	116.38
413.365	116.38
413.589	106.38
413.812	124.38
414.035	121.38
414.258	112.38
414.482	123.38
414.705	130.38
414.928	122.38
415.151	120.38
415.374	117.38
415.597	114.38
415.821	122.38
416.044	121.38
416.267	122.38
416.49	128.38
416.713	121.38
416.936	113.38
417.159	123.38
417.382	136.38
417.605	132.38
417.828	135.38
418.051	119.38
418.274	132.38
418.497	135.38
418.72	128.38
418.943	140.38
419.166	125.38
419.389	119.38
419.611	131.38
419.834	122.38
420.057	129.38
420.28	126.38
420.503	140.38
420.726	119.38
420.948	146.38
421.171	130.38
421.394	137.38
421.617	134.38
421.839	149.38
422.062	140.38
422.285	138.38
422.507	131.38
422.73	128.38
422.953	114.38
423.175	138.38
423.398	120.38
423.621	127.38
423.843	127.38
424.066	136.38
424.288	136.38
424.511	144.38
424.733	138.38
424.956	127.38
425.178	121.38
425.401	128.38
425.623	153.38
425.846	139.38
426.068	123.38
426.291	123.38
426.513	118.38
426.735	131.38
426.958	130.38
427.18	130.38
427.402	131.38
427.625	118.38
427.847	127.38
428.069	136.38
428.292	127.38
428.514	137.38
428.736	143.38
428.958	135.38
429.181	131.38
429.403	130.38
429.625	122.38
429.847	114.38
430.069	120.38
430.292	129.38
430.514	124.38
430.736	137.38
430.958	117.38
431.18	134.38
431.402	128.38
431.624	124.38
431.846	101.38
432.068	102.38
432.29	107.38
432.512	117.38
432.734	129.38
432.956	140.38
433.178	128.38
433.4	132.38
433.622	130.38
433.844	131.38
434.066	127.38
434.287	113.38
434.509	108.38
434.731	93.38
434.953	112.38
435.175	121.38
435.397	125.38
435.618	113.38
435.84	92.38
436.062	104.38
436.284	119.38
436.505	135.38
436.727	127.38
436.949	136.38
437.17	141.38
437.392	123.38
437.614	106.38
437.835	112.38
438.057	124.38
438.278	114.38
438.5	120.38
438.721	123.38
438.943	126.38
439.165	131.38
439.386	138.38
439.608	140.38
439.829	140.38
440.05	145.38
440.272	148.38
440.493	148.38
440.715	137.38
440.936	140.38
441.158	139.38
441.379	139.38
441.6	150.38
441.822	143.38
442.043	136.38
442.264	152.38
442.486	141.38
442.707	127.38
442.928	138.38
443.149	140.38
443.371	129.38
443.592	129.38
443.813	144.38
444.034	138.38
444.255	148.38
444.476	145.38
444.698	139.38
444.919	142.38
445.14	278.38
445.361	214.38
445.582	161.38
445.803	152.38
446.024	138.38
446.245	150.38
446.466	164.38
446.687	153.38
446.908	162.38
447.129	151.38
447.35	145.38
447.571	145.38
447.792	137.38
448.013	143.38
448.234	150.38
448.455	140.38
448.675	151.38
448.896	138.38
449.117	126.38
449.338	131.38
449.559	122.38
449.779	134.38
450	135.38
450.221	142.38
450.442	135.38
450.662	133.38
450.883	125.38
451.104	126.38
451.324	116.38
451.545	132.38
451.766	125.38
451.986	139.38
452.207	123.38
452.428	122.38
452.648	138.38
452.869	117.38
453.089	104.38
453.31	117.38
453.53	108.38
453.751	112.38
453.971	112.38
454.192	116.38
454.412	104.38
454.633	122.38
454.853	124.38
455.073	128.38
455.294	132.38
455.514	141.38
455.734	125.38
455.955	112.38
456.175	119.38
456.395	112.38
456.616	119.38
456.836	108.38
457.056	119.38
457.276	97.38
457.497	120.38
457.717	117.38
457.937	100.38
458.157	98.38
458.377	109.38
458.598	109.38
458.818	93.38
459.038	95.38
459.258	86.38
459.478	98.38
459.698	99.38
459.918	112.38
460.138	121.38
460.358	108.38
460.578	107.38
460.798	101.38
461.018	120.38
461.238	116.38
461.458	113.38
461.678	115.38
461.898	133.38
462.118	112.38
462.338	114.38
462.558	104.38
462.777	118.38
462.997	126.38
463.217	108.38
463.437	111.38
463.657	103.38
463.876	116.38
464.096	106.38
464.316	100.38
464.536	107.38
464.755	108.38
464.975	112.38
465.195	118.38
465.414	110.38
465.634	120.38
465.854	126.38
466.073	119.38
466.293	119.38
466.512	129.38
466.732	132.38
466.951	131.38
467.171	139.38
467.391	142.38
467.61	126.38
467.829	124.38
468.049	128.38
468.268	124.38
468.488	125.38
468.707	133.38
468.927	139.38
469.146	136.38
469.365	137.38
469.585	140.38
469.804	147.38
470.023	152.38
470.243	135.38
470.462	151.38
470.681	142.38
470.901	147.38
471.12	120.38
471.339	150.38
471.558	139.38
471.777	146.38
471.997	129.38
472.216	129.38
472.435	121.38
472.654	117.38
472.873	121.38
473.092	112.38
473.311	118.38
473.53	135.38
473.749	126.38
473.968	130.38
474.187	125.38
474.406	131.38
474.625	139.38
474.844	132.38
475.063	115.38
475.282	117.38
475.501	128.38
475.72	141.38
475.939	142.38
476.158	121.38
476.377	128.38
476.596	126.38
476.814	112.38
477.033	99.38
477.252	106.38
477.471	115.38
477.69	137.38
477.908	139.38
478.127	146.38
478.346	142.38
478.564	125.38
478.783	132.38
479.002	143.38
479.22	139.38
479.439	118.38
479.658	143.38
479.876	118.38
480.095	121.38
480.313	122.38
480.532	122.38
480.751	113.38
480.969	105.38
481.188	98.38
481.406	100.38
481.624	100.38
481.843	88.38
482.061	108.38
482.28	116.38
482.498	122.38
482.717	125.38
482.935	133.38
483.153	131.38
483.372	151.38
483.59	147.38
483.808	140.38
484.027	146.38
484.245	145.38
484.463	149.38
484.681	150.38
484.9	149.38
485.118	138.38
485.336	113.38
485.554	103.38
485.772	96.38
485.99	105.38
486.209	114.38
486.427	119.38
486.645	121.38
486.863	128.38
487.081	143.38
487.299	131.38
487.517	137.38
487.735	173.38
487.953	200.38
488.171	184.38
488.389	173.38
488.607	177.38
488.825	145.38
489.043	132.38
489.261	117.38
489.479	137.38
489.696	144.38
489.914	136.38
490.132	143.38
490.35	159.38
490.568	144.38
490.786	155.38
491.003	170.38
491.221	188.38
491.439	180.38
491.657	184.38
491.874	220.38
492.092	204.38
492.31	235.38
492.527	235.38
492.745	198.38
492.963	184.38
493.18	191.38
493.398	150.38
493.615	183.38
493.833	182.38
494.05	174.38
494.268	166.38
494.485	177.38
494.703	168.38
494.92	164.38
495.138	168.38
495.355	172.38
495.573	164.38
495.79	158.38
496.008	164.38
496.225	169.38
496.442	170.38
496.66	144.38
496.877	164.38
497.094	157.38
497.312	140.38
497.529	157.38
497.746	149.38
497.963	142.38
498.181	129.38
498.398	124.38
498.615	114.38
498.832	126.38
499.049	121.38
499.267	121.38
499.484	116.38
499.701	120.38
499.918	138.38
500.135	114.38
500.352	136.38
500.569	138.38
500.786	139.38
501.003	143.38
501.22	129.38
501.437	156.38
501.654	128.38
501.871	120.38
502.088	150.38
502.305	133.38
502.522	126.38
502.739	130.38
502.956	124.38
503.172	119.38
503.389	123.38
503.606	105.38
503.823	125.38
504.04	119.38
504.256	127.38
504.473	113.38
504.69	116.38
504.907	124.38
505.123	102.38
505.34	117.38
505.557	114.38
505.773	105.38
505.99	127.38
506.207	122.38
506.423	112.38
506.64	112.38
506.856	121.38
507.073	108.38
507.289	113.38
507.506	116.38
507.722	120.38
507.939	132.38
508.155	132.38
508.372	127.38
508.588	122.38
508.805	112.38
509.021	97.38
509.238	113.38
509.454	99.38
509.67	107.38
509.887	91.38
510.103	92.38
510.319	90.38
510.536	90.38
510.752	106.38
510.968	87.38
511.184	76.38
511.401	89.38
511.617	87.38
511.833	88.38
512.049	91.38
512.265	98.38
512.481	93.38
512.698	109.38
512.914	96.38
513.13	103.38
513.346	108.38
513.562	92.38
513.778	90.38
513.994	99.38
514.21	78.38
514.426	96.38
514.642	97.38
514.858	100.38
515.074	76.38
515.29	99.38
515.506	96.38
515.721	95.38
515.937	86.38
516.153	83.38
516.369	87.38
516.585	89.38
516.801	93.38
517.016	98.38
517.232	90.38
517.448	93.38
517.664	92.38
517.879	90.38
518.095	89.38
518.311	89.38
518.527	102.38
518.742	88.38
518.958	93.38
519.173	96.38
519.389	106.38
519.605	102.38
519.82	105.38
520.036	106.38
520.251	107.38
520.467	98.38
520.682	94.38
520.898	97.38
521.113	92.38
521.329	94.38
521.544	97.38
521.76	76.38
521.975	98.38
522.19	98.38
522.406	92.38
522.621	95.38
522.836	92.38
523.052	109.38
523.267	107.38
523.482	101.38
523.698	116.38
523.913	116.38
524.128	124.38
524.343	118.38
524.559	132.38
524.774	103.38
524.989	109.38
525.204	106.38
525.419	106.38
525.634	121.38
525.849	119.38
526.064	118.38
526.28	104.38
526.495	100.38
526.71	89.38
526.925	76.38
527.14	86.38
527.355	77.38
527.57	77.38
527.785	82.38
527.999	91.38
528.214	103.38
528.429	115.38
528.644	125.38
528.859	129.38
529.074	131.38
529.289	165.38
529.503	163.38
529.718	142.38
529.933	117.38
530.148	105.38
530.363	88.38
530.577	85.38
530.792	93.38
531.007	60.38
531.221	72.38
531.436	94.38
531.651	73.38
531.865	75.38
532.08	91.38
532.295	81.38
532.509	100.38
532.724	93.38
532.938	86.38
533.153	98.38
533.367	111.38
533.582	112.38
533.796	117.38
534.011	123.38
534.225	89.38
534.44	92.38
534.654	94.38
534.868	113.38
535.083	97.38
535.297	116.38
535.511	110.38
535.726	94.38
535.94	109.38
536.154	96.38
536.369	91.38
536.583	81.38
536.797	97.38
537.011	104.38
537.225	91.38
537.44	78.38
537.654	92.38
537.868	89.38
538.082	85.38
538.296	96.38
538.51	101.38
538.724	117.38
538.938	116.38
539.153	117.38
539.367	117.38
539.581	107.38
539.795	97.38
540.009	108.38
540.222	98.38
540.436	93.38
540.65	117.38
540.864	129.38
541.078	134.38
541.292	153.38
541.506	160.38
541.72	173.38
541.934	182.38
542.147	197.38
542.361	167.38
542.575	153.38
542.789	139.38
543.002	124.38
543.216	122.38
543.43	123.38
543.644	138.38
543.857	136.38
544.071	157.38
544.285	157.38
544.498	162.38
544.712	151.38
544.925	160.38
545.139	162.38
545.352	166.38
545.566	164.38
545.779	148.38
545.993	157.38
546.206	153.38
546.42	148.38
546.633	164.38
546.847	157.38
547.06	169.38
547.274	159.38
547.487	162.38
547.7	165.38
547.914	174.38
548.127	165.38
548.34	163.38
548.554	151.38
548.767	150.38
548.98	165.38
549.193	145.38
549.407	164.38
549.62	144.38
549.833	153.38
550.046	162.38
550.259	156.38
550.473	152.38
550.686	134.38
550.899	158.38
551.112	140.38
551.325	137.38
551.538	123.38
551.751	133.38
551.964	108.38
552.177	117.38
552.39	129.38
552.603	137.38
552.816	152.38
553.029	133.38
553.242	152.38
553.455	164.38
553.667	147.38
553.88	161.38
554.093	152.38
554.306	143.38
554.519	144.38
554.732	151.38
554.944	148.38
555.157	142.38
555.37	137.38
555.583	128.38
555.795	142.38
556.008	136.38
556.221	126.38
556.433	128.38
556.646	140.38
556.859	133.38
557.071	134.38
557.284	158.38
557.496	135.38
557.709	126.38
557.921	140.38
558.134	131.38
558.346	144.38
558.559	136.38
558.771	145.38
558.984	138.38
559.196	134.38
559.409	131.38
559.621	130.38
559.833	125.38
560.046	119.38
560.258	133.38
560.47	141.38
560.683	134.38
560.895	136.38
561.107	128.38
561.32	126.38
561.532	138.38
561.744	135.38
561.956	139.38
562.168	131.38
562.381	133.38
562.593	119.38
562.805	132.38
563.017	121.38
563.229	126.38
563.441	108.38
563.653	122.38
563.865	130.38
564.077	124.38
564.289	124.38
564.501	128.38
564.713	112.38
564.925	125.38
565.137	117.38
565.349	129.38
565.561	114.38
565.773	126.38
565.985	119.38
566.197	124.38
566.408	126.38
566.62	120.38
566.832	143.38
567.044	128.38
567.255	114.38
567.467	104.38
567.679	104.38
567.891	117.38
568.102	97.38
568.314	112.38
568.526	105.38
568.737	87.38
568.949	98.38
569.161	96.38
569.372	73.38
569.584	77.38
569.795	102.38
570.007	86.38
570.218	74.38
570.43	82.38
570.641	85.38
570.853	108.38
571.064	108.38
571.276	109.38
571.487	102.38
571.698	108.38
571.91	101.38
572.121	105.38
572.333	99.38
572.544	89.38
572.755	96.38
572.966	93.38
573.178	96.38
573.389	92.38
573.6	84.38
573.811	85.38
574.023	99.38
574.234	93.38
574.445	89.38
574.656	90.38
574.867	110.38
575.078	93.38
575.289	103.38
575.501	82.38
575.712	89.38
575.923	91.38
576.134	95.38
576.345	108.38
576.556	94.38
576.767	93.38
576.978	106.38
577.188	93.38
577.399	99.38
577.61	92.38
577.821	98.38
578.032	101.38
578.243	95.38
578.454	84.38
578.665	85.38
578.875	95.38
579.086	66.38
579.297	90.38
579.508	98.38
579.718	78.38
579.929	89.38
580.14	77.38
580.35	93.38
580.561	96.38
580.772	76.38
580.982	96.38
581.193	95.38
581.403	94.38
581.614	104.38
581.825	93.38
582.035	94.38
582.246	100.38
582.456	103.38
582.667	90.38
582.877	83.38
583.087	96.38
583.298	81.38
583.508	94.38
583.719	83.38
583.929	92.38
584.139	87.38
584.35	86.38
584.56	99.38
584.77	90.38
584.981	77.38
585.191	78.38
585.401	101.38
585.611	100.38
585.821	88.38
586.032	69.38
586.242	82.38
586.452	89.38
586.662	89.38
586.872	82.38
587.082	84.38
587.292	99.38
587.502	76.38
587.713	88.38
587.923	84.38
588.133	90.38
588.343	103.38
588.553	67.38
588.762	99.38
588.972	80.38
589.182	92.38
589.392	93.38
589.602	91.38
589.812	84.38
590.022	85.38
590.232	81.38
590.441	75.38
590.651	73.38
590.861	78.38
591.071	85.38
591.281	75.38
591.49	96.38
591.7	81.38
591.91	82.38
592.119	84.38
592.329	83.38
592.539	87.38
592.748	79.38
592.958	98.38
593.167	88.38
593.377	72.38
593.587	82.38
593.796	88.38
594.006	87.38
594.215	91.38
594.424	96.38
594.634	96.38
594.843	83.38
595.053	103.38
595.262	109.38
595.472	92.38
595.681	91.38
595.89	87.38
596.1	80.38
596.309	96.38
596.518	105.38
596.727	89.38
596.937	99.38
597.146	98.38
597.355	92.38
597.564	89.38
597.774	96.38
597.983	90.38
598.192	81.38
598.401	102.38
598.61	80.38
598.819	83.38
599.028	109.38
599.237	93.38
599.446	87.38
599.655	79.38
599.864	91.38
600.073	88.38
600.282	92.38
600.491	91.38
600.7	94.38
600.909	99.38
601.118	93.38
601.327	98.38
601.536	115.38
601.745	115.38
601.953	108.38
602.162	112.38
602.371	110.38
602.58	112.38
602.789	124.38
602.997	94.38
603.206	112.38
603.415	105.38
603.623	109.38
603.832	115.38
604.041	86.38
604.249	96.38
604.458	98.38
604.666	102.38
604.875	88.38
605.084	98.38
605.292	106.38
605.501	96.38
605.709	114.38
605.918	124.38
606.126	107.38
606.334	96.38
606.543	101.38
606.751	105.38
606.96	112.38
607.168	114.38
607.376	113.38
607.585	123.38
607.793	110.38
608.001	106.38
608.21	115.38
608.418	107.38
608.626	107.38
608.834	108.38
609.043	119.38
609.251	109.38
609.459	113.38
609.667	110.38
609.875	117.38
610.083	119.38
610.291	104.38
610.499	99.38
610.707	112.38
610.916	106.38
611.124	114.38
611.332	115.38
611.54	108.38
611.748	115.38
611.955	115.38
612.163	108.38
612.371	124.38
612.579	115.38
612.787	117.38
612.995	114.38
613.203	112.38
613.411	105.38
613.618	107.38
613.826	121.38
614.034	105.38
614.242	109.38
614.449	102.38
614.657	102.38
614.865	94.38
615.072	102.38
615.28	112.38
615.488	100.38
615.695	104.38
615.903	101.38
616.111	118.38
616.318	110.38
616.526	114.38
616.733	121.38
616.941	104.38
617.148	115.38
617.356	104.38
617.563	123.38
617.771	108.38
617.978	93.38
618.185	107.38
618.393	121.38
618.6	98.38
618.807	120.38
619.015	114.38
619.222	106.38
619.429	102.38
619.637	104.38
619.844	104.38
620.051	91.38
620.258	109.38
620.466	108.38
620.673	109.38
620.88	102.38
621.087	112.38
621.294	105.38
621.501	105.38
621.708	104.38
621.915	110.38
622.122	119.38
622.329	102.38
622.536	103.38
622.743	94.38
622.95	115.38
623.157	109.38
623.364	104.38
623.571	101.38
623.778	110.38
623.985	108.38
624.192	106.38
624.399	107.38
624.606	105.38
624.812	106.38
625.019	98.38
625.226	106.38
625.433	108.38
625.639	91.38
625.846	103.38
626.053	96.38
626.259	95.38
626.466	91.38
626.673	92.38
626.879	86.38
627.086	108.38
627.293	89.38
627.499	90.38
627.706	108.38
627.912	104.38
628.119	100.38
628.325	101.38
628.532	104.38
628.738	98.38
628.945	105.38
629.151	97.38
629.357	91.38
629.564	105.38
629.77	103.38
629.976	93.38
630.183	110.38
630.389	100.38
630.595	99.38
630.802	107.38
631.008	110.38
631.214	116.38
631.42	99.38
631.627	96.38
631.833	75.38
632.039	93.38
632.245	100.38
632.451	101.38
632.657	116.38
632.863	106.38
633.069	98.38
633.275	98.38
633.481	92.38
633.688	100.38
633.893	100.38
634.099	89.38
634.305	85.38
634.511	89.38
634.717	98.38
634.923	102.38
635.129	102.38
635.335	99.38
635.541	93.38
635.747	99.38
635.952	105.38
636.158	97.38
636.364	98.38
636.57	96.38
636.775	102.38
636.981	98.38
637.187	112.38
637.392	101.38
637.598	76.38
637.804	93.38
638.009	99.38
638.215	106.38
638.421	91.38
638.626	102.38
638.832	99.38
639.037	107.38
639.243	104.38
639.448	96.38
639.654	104.38
639.859	90.38
640.065	96.38
640.27	106.38
640.475	108.38
640.681	94.38
640.886	102.38
641.091	97.38
641.297	98.38
641.502	87.38
641.707	99.38
641.913	108.38
642.118	99.38
642.323	100.38
642.528	111.38
642.733	98.38
642.939	93.38
643.144	101.38
643.349	105.38
643.554	116.38
643.759	98.38
643.964	94.38
644.169	109.38
644.374	97.38
644.579	97.38
644.784	105.38
644.989	109.38
645.194	97.38
645.399	93.38
645.604	88.38
645.809	98.38
646.014	99.38
646.219	100.38
646.423	104.38
646.628	117.38
646.833	104.38
647.038	101.38
647.243	112.38
647.447	99.38
647.652	98.38
647.857	89.38
648.062	94.38
648.266	94.38
648.471	101.38
648.676	101.38
648.88	109.38
649.085	98.38
649.289	95.38
649.494	98.38
649.698	104.38
649.903	101.38
650.107	98.38
650.312	88.38
650.516	94.38
650.721	85.38
650.925	104.38
651.13	108.38
651.334	84.38
651.539	100.38
651.743	93.38
651.947	89.38
652.152	96.38
652.356	106.38
652.56	98.38
652.764	93.38
652.969	96.38
653.173	90.38
653.377	101.38
653.581	103.38
653.785	90.38
653.99	99.38
654.194	91.38
654.398	101.38
654.602	89.38
654.806	94.38
655.01	100.38
655.214	94.38
655.418	101.38
655.622	88.38
655.826	84.38
656.03	80.38
656.234	94.38
656.438	85.38
656.642	87.38
656.846	83.38
657.049	81.38
657.253	88.38
657.457	99.38
657.661	93.38
657.865	84.38
658.068	83.38
658.272	68.38
658.476	76.38
658.68	78.38
658.883	89.38
659.087	86.38
659.291	88.38
659.494	80.38
659.698	86.38
659.901	72.38
660.105	104.38
660.309	83.38
660.512	92.38
660.716	87.38
660.919	100.38
661.123	89.38
661.326	77.38
661.53	92.38
661.733	97.38
661.936	90.38
662.14	82.38
662.343	86.38
662.546	80.38
662.75	82.38
662.953	83.38
663.156	88.38
663.36	81.38
663.563	85.38
663.766	85.38
663.969	82.38
664.173	82.38
664.376	88.38
664.579	73.38
664.782	85.38
664.985	81.38
665.188	86.38
665.391	77.38
665.594	83.38
665.797	90.38
666	85.38
666.203	77.38
666.406	85.38
666.609	83.38
666.812	75.38
667.015	86.38
667.218	72.38
667.421	82.38
667.624	65.38
667.827	61.38
668.03	89.38
668.232	72.38
668.435	64.38
668.638	75.38
668.841	73.38
669.043	79.38
669.246	86.38
669.449	90.38
669.651	79.38
669.854	93.38
670.057	76.38
670.259	77.38
670.462	89.38
670.665	89.38
670.867	97.38
671.07	88.38
671.272	104.38
671.475	89.38
671.677	88.38
671.88	77.38
672.082	70.38
672.284	97.38
672.487	87.38
672.689	66.38
672.892	88.38
