Data from Location4.07152019.Energy5.Lamp.07192019.3%Agarose_HRD10591_16-18-52-925.txt Node
Date: Fri Jul 19 16:18:52 EDT 2019
User: cochatt
Spectrometer: HR+D1059
Trigger mode: 1
Integration Time (sec): 1.000000E-1
Scans to average: 1
Electric dark correction enabled: true
Nonlinearity correction enabled: false
Boxcar width: 0
XAxis mode: Wavelengths
Number of Pixels in Spectrum: 2048
>>>>>Begin Spectral Data<<<<<
223.165	-29.94
223.4	-29.94
223.635	-29.94
223.869	-3.94
224.104	-11.94
224.338	-14.94
224.573	-11.94
224.808	-18.94
225.042	-13.94
225.277	-15.94
225.511	0.06
225.746	7.06
225.98	6.06
226.215	21.06
226.449	4.06
226.683	30.06
226.918	10.06
227.152	43.06
227.387	43.06
227.621	32.06
227.856	42.06
228.09	34.06
228.324	53.06
228.559	57.06
228.793	64.06
229.027	62.06
229.262	66.06
229.496	62.06
229.73	65.06
229.964	66.06
230.199	67.06
230.433	75.06
230.667	75.06
230.901	66.06
231.136	71.06
231.37	81.06
231.604	74.06
231.838	77.06
232.072	78.06
232.306	87.06
232.541	73.06
232.775	95.06
233.009	71.06
233.243	89.06
233.477	74.06
233.711	78.06
233.945	78.06
234.179	77.06
234.413	79.06
234.647	80.06
234.881	81.06
235.115	72.06
235.349	95.06
235.583	61.06
235.817	68.06
236.051	72.06
236.285	75.06
236.519	63.06
236.753	82.06
236.987	78.06
237.221	69.06
237.455	67.06
237.689	84.06
237.922	83.06
238.156	82.06
238.39	69.06
238.624	86.06
238.858	76.06
239.091	65.06
239.325	67.06
239.559	67.06
239.793	67.06
240.027	73.06
240.26	73.06
240.494	72.06
240.728	73.06
240.961	75.06
241.195	81.06
241.429	75.06
241.662	68.06
241.896	65.06
242.13	55.06
242.363	65.06
242.597	80.06
242.83	82.06
243.064	85.06
243.298	69.06
243.531	69.06
243.765	76.06
243.998	85.06
244.232	81.06
244.465	72.06
244.699	78.06
244.932	73.06
245.166	78.06
245.399	79.06
245.633	81.06
245.866	65.06
246.099	58.06
246.333	66.06
246.566	66.06
246.8	74.06
247.033	89.06
247.266	76.06
247.5	68.06
247.733	65.06
247.966	74.06
248.2	80.06
248.433	67.06
248.666	61.06
248.899	77.06
249.133	77.06
249.366	69.06
249.599	80.06
249.832	64.06
250.066	75.06
250.299	80.06
250.532	73.06
250.765	88.06
250.998	81.06
251.231	76.06
251.465	75.06
251.698	79.06
251.931	80.06
252.164	86.06
252.397	69.06
252.63	79.06
252.863	67.06
253.096	68.06
253.329	76.06
253.562	83.06
253.795	83.06
254.028	87.06
254.261	72.06
254.494	74.06
254.727	71.06
254.96	64.06
255.193	54.06
255.426	76.06
255.659	88.06
255.892	78.06
256.124	63.06
256.357	69.06
256.59	80.06
256.823	89.06
257.056	68.06
257.289	80.06
257.521	77.06
257.754	72.06
257.987	77.06
258.22	88.06
258.452	76.06
258.685	92.06
258.918	84.06
259.151	81.06
259.383	78.06
259.616	78.06
259.849	78.06
260.081	82.06
260.314	89.06
260.547	78.06
260.779	68.06
261.012	85.06
261.244	82.06
261.477	79.06
261.71	67.06
261.942	72.06
262.175	84.06
262.407	72.06
262.64	73.06
262.872	86.06
263.105	81.06
263.337	85.06
263.57	78.06
263.802	80.06
264.035	72.06
264.267	81.06
264.499	71.06
264.732	78.06
264.964	80.06
265.197	76.06
265.429	74.06
265.661	87.06
265.894	72.06
266.126	67.06
266.358	81.06
266.591	80.06
266.823	86.06
267.055	74.06
267.287	79.06
267.52	74.06
267.752	80.06
267.984	70.06
268.216	78.06
268.448	68.06
268.681	66.06
268.913	96.06
269.145	89.06
269.377	84.06
269.609	77.06
269.841	83.06
270.073	84.06
270.306	81.06
270.538	79.06
270.77	89.06
271.002	84.06
271.234	77.06
271.466	84.06
271.698	76.06
271.93	66.06
272.162	74.06
272.394	77.06
272.626	95.06
272.858	94.06
273.09	84.06
273.322	81.06
273.553	81.06
273.785	65.06
274.017	66.06
274.249	89.06
274.481	84.06
274.713	86.06
274.945	77.06
275.176	75.06
275.408	76.06
275.64	74.06
275.872	94.06
276.104	72.06
276.335	79.06
276.567	74.06
276.799	75.06
277.031	81.06
277.262	73.06
277.494	86.06
277.726	90.06
277.957	71.06
278.189	72.06
278.421	78.06
278.652	92.06
278.884	92.06
279.115	80.06
279.347	75.06
279.579	81.06
279.81	80.06
280.042	89.06
280.273	78.06
280.505	78.06
280.736	78.06
280.968	82.06
281.199	85.06
281.431	91.06
281.662	89.06
281.894	77.06
282.125	88.06
282.356	67.06
282.588	74.06
282.819	78.06
283.051	86.06
283.282	81.06
283.513	94.06
283.745	86.06
283.976	87.06
284.207	84.06
284.439	73.06
284.67	72.06
284.901	77.06
285.132	78.06
285.364	77.06
285.595	89.06
285.826	94.06
286.057	80.06
286.288	90.06
286.52	81.06
286.751	98.06
286.982	79.06
287.213	76.06
287.444	75.06
287.675	80.06
287.906	84.06
288.138	86.06
288.369	78.06
288.6	91.06
288.831	80.06
289.062	70.06
289.293	97.06
289.524	75.06
289.755	81.06
289.986	88.06
290.217	86.06
290.448	102.06
290.679	80.06
290.91	101.06
291.141	81.06
291.371	92.06
291.602	77.06
291.833	84.06
292.064	75.06
292.295	76.06
292.526	75.06
292.757	88.06
292.987	85.06
293.218	81.06
293.449	69.06
293.68	80.06
293.91	85.06
294.141	84.06
294.372	84.06
294.603	71.06
294.833	76.06
295.064	75.06
295.295	76.06
295.525	78.06
295.756	78.06
295.987	83.06
296.217	75.06
296.448	76.06
296.679	86.06
296.909	82.06
297.14	79.06
297.37	71.06
297.601	83.06
297.831	89.06
298.062	82.06
298.292	83.06
298.523	75.06
298.753	90.06
298.984	84.06
299.214	81.06
299.445	96.06
299.675	81.06
299.905	70.06
300.136	90.06
300.366	74.06
300.597	72.06
300.827	95.06
301.057	89.06
301.288	95.06
301.518	86.06
301.748	80.06
301.979	97.06
302.209	93.06
302.439	86.06
302.669	88.06
302.9	87.06
303.13	82.06
303.36	86.06
303.59	74.06
303.82	91.06
304.051	95.06
304.281	71.06
304.511	86.06
304.741	83.06
304.971	74.06
305.201	83.06
305.431	83.06
305.661	82.06
305.891	89.06
306.121	82.06
306.352	85.06
306.582	72.06
306.812	82.06
307.042	85.06
307.272	86.06
307.502	81.06
307.731	71.06
307.961	79.06
308.191	76.06
308.421	59.06
308.651	98.06
308.881	82.06
309.111	80.06
309.341	76.06
309.571	65.06
309.8	75.06
310.03	81.06
310.26	78.06
310.49	81.06
310.72	75.06
310.949	72.06
311.179	78.06
311.409	82.06
311.639	82.06
311.868	95.06
312.098	95.06
312.328	80.06
312.557	82.06
312.787	89.06
313.017	87.06
313.246	80.06
313.476	89.06
313.706	72.06
313.935	91.06
314.165	80.06
314.394	83.06
314.624	86.06
314.853	76.06
315.083	58.06
315.312	74.06
315.542	77.06
315.771	78.06
316.001	87.06
316.23	80.06
316.46	87.06
316.689	80.06
316.919	92.06
317.148	80.06
317.377	93.06
317.607	97.06
317.836	72.06
318.065	75.06
318.295	81.06
318.524	86.06
318.753	80.06
318.983	80.06
319.212	81.06
319.441	82.06
319.67	97.06
319.9	87.06
320.129	83.06
320.358	99.06
320.587	96.06
320.816	85.06
321.046	87.06
321.275	83.06
321.504	81.06
321.733	80.06
321.962	78.06
322.191	69.06
322.42	71.06
322.649	93.06
322.878	79.06
323.108	90.06
323.337	82.06
323.566	84.06
323.795	83.06
324.024	71.06
324.253	88.06
324.482	74.06
324.71	86.06
324.939	83.06
325.168	91.06
325.397	75.06
325.626	92.06
325.855	93.06
326.084	77.06
326.313	92.06
326.542	79.06
326.77	84.06
326.999	74.06
327.228	78.06
327.457	92.06
327.686	69.06
327.914	80.06
328.143	74.06
328.372	75.06
328.6	86.06
328.829	77.06
329.058	80.06
329.287	81.06
329.515	92.06
329.744	81.06
329.972	82.06
330.201	81.06
330.43	83.06
330.658	67.06
330.887	70.06
331.115	87.06
331.344	74.06
331.572	90.06
331.801	83.06
332.03	79.06
332.258	83.06
332.486	73.06
332.715	79.06
332.943	104.06
333.172	87.06
333.4	76.06
333.629	82.06
333.857	86.06
334.085	81.06
334.314	90.06
334.542	77.06
334.771	84.06
334.999	87.06
335.227	71.06
335.455	83.06
335.684	86.06
335.912	86.06
336.14	82.06
336.369	83.06
336.597	81.06
336.825	86.06
337.053	77.06
337.281	80.06
337.51	77.06
337.738	93.06
337.966	73.06
338.194	88.06
338.422	81.06
338.65	66.06
338.878	82.06
339.106	81.06
339.334	95.06
339.562	93.06
339.79	89.06
340.018	83.06
340.246	96.06
340.474	82.06
340.702	99.06
340.93	88.06
341.158	85.06
341.386	78.06
341.614	84.06
341.842	86.06
342.07	83.06
342.298	94.06
342.526	74.06
342.754	80.06
342.981	92.06
343.209	91.06
343.437	73.06
343.665	82.06
343.893	71.06
344.12	81.06
344.348	73.06
344.576	89.06
344.804	94.06
345.031	72.06
345.259	81.06
345.487	81.06
345.714	87.06
345.942	83.06
346.17	95.06
346.397	72.06
346.625	74.06
346.853	74.06
347.08	99.06
347.308	90.06
347.535	86.06
347.763	90.06
347.99	98.06
348.218	79.06
348.445	76.06
348.673	81.06
348.9	86.06
349.128	81.06
349.355	88.06
349.583	88.06
349.81	88.06
350.037	86.06
350.265	78.06
350.492	91.06
350.72	82.06
350.947	67.06
351.174	78.06
351.402	83.06
351.629	82.06
351.856	94.06
352.083	90.06
352.311	97.06
352.538	94.06
352.765	83.06
352.992	80.06
353.22	83.06
353.447	82.06
353.674	82.06
353.901	72.06
354.128	84.06
354.355	76.06
354.583	94.06
354.81	88.06
355.037	88.06
355.264	82.06
355.491	86.06
355.718	87.06
355.945	89.06
356.172	85.06
356.399	93.06
356.626	82.06
356.853	86.06
357.08	83.06
357.307	75.06
357.534	97.06
357.761	83.06
357.988	82.06
358.215	95.06
358.441	90.06
358.668	81.06
358.895	89.06
359.122	74.06
359.349	79.06
359.576	80.06
359.802	95.06
360.029	76.06
360.256	85.06
360.483	88.06
360.709	83.06
360.936	92.06
361.163	85.06
361.39	81.06
361.616	80.06
361.843	81.06
362.07	84.06
362.296	85.06
362.523	81.06
362.749	86.06
362.976	82.06
363.203	73.06
363.429	73.06
363.656	104.06
363.882	79.06
364.109	69.06
364.335	92.06
364.562	90.06
364.788	88.06
365.015	83.06
365.241	84.06
365.468	84.06
365.694	80.06
365.92	73.06
366.147	69.06
366.373	93.06
366.599	86.06
366.826	78.06
367.052	75.06
367.278	90.06
367.505	83.06
367.731	84.06
367.957	87.06
368.184	83.06
368.41	86.06
368.636	87.06
368.862	86.06
369.089	84.06
369.315	95.06
369.541	76.06
369.767	91.06
369.993	91.06
370.219	75.06
370.445	93.06
370.672	89.06
370.898	82.06
371.124	85.06
371.35	98.06
371.576	84.06
371.802	77.06
372.028	86.06
372.254	98.06
372.48	100.06
372.706	82.06
372.932	83.06
373.158	83.06
373.384	83.06
373.61	95.06
373.835	90.06
374.061	103.06
374.287	86.06
374.513	97.06
374.739	90.06
374.965	91.06
375.191	86.06
375.416	98.06
375.642	96.06
375.868	90.06
376.094	90.06
376.319	81.06
376.545	94.06
376.771	100.06
376.997	97.06
377.222	77.06
377.448	87.06
377.674	85.06
377.899	96.06
378.125	86.06
378.35	104.06
378.576	92.06
378.802	90.06
379.027	92.06
379.253	111.06
379.478	92.06
379.704	97.06
379.929	83.06
380.155	89.06
380.38	106.06
380.606	91.06
380.831	85.06
381.057	116.06
381.282	91.06
381.507	82.06
381.733	91.06
381.958	104.06
382.184	87.06
382.409	101.06
382.634	102.06
382.86	93.06
383.085	96.06
383.31	95.06
383.535	93.06
383.761	99.06
383.986	110.06
384.211	99.06
384.436	95.06
384.662	108.06
384.887	93.06
385.112	103.06
385.337	88.06
385.562	95.06
385.787	87.06
386.013	96.06
386.238	88.06
386.463	92.06
386.688	86.06
386.913	112.06
387.138	91.06
387.363	94.06
387.588	96.06
387.813	103.06
388.038	104.06
388.263	80.06
388.488	91.06
388.713	107.06
388.938	93.06
389.163	112.06
389.387	107.06
389.612	107.06
389.837	97.06
390.062	111.06
390.287	100.06
390.512	108.06
390.736	107.06
390.961	98.06
391.186	90.06
391.411	98.06
391.636	88.06
391.86	114.06
392.085	94.06
392.31	106.06
392.534	107.06
392.759	103.06
392.984	110.06
393.208	90.06
393.433	104.06
393.658	88.06
393.882	97.06
394.107	111.06
394.331	97.06
394.556	100.06
394.78	107.06
395.005	108.06
395.229	119.06
395.454	108.06
395.678	99.06
395.903	107.06
396.127	107.06
396.352	105.06
396.576	107.06
396.801	111.06
397.025	101.06
397.249	100.06
397.474	117.06
397.698	116.06
397.922	116.06
398.147	110.06
398.371	110.06
398.595	94.06
398.82	103.06
399.044	104.06
399.268	104.06
399.492	106.06
399.717	101.06
399.941	100.06
400.165	118.06
400.389	109.06
400.613	106.06
400.837	108.06
401.062	99.06
401.286	99.06
401.51	106.06
401.734	107.06
401.958	95.06
402.182	84.06
402.406	90.06
402.63	118.06
402.854	114.06
403.078	111.06
403.302	94.06
403.526	118.06
403.75	112.06
403.974	116.06
404.198	114.06
404.422	114.06
404.645	114.06
404.869	121.06
405.093	114.06
405.317	96.06
405.541	110.06
405.765	116.06
405.988	116.06
406.212	122.06
406.436	93.06
406.66	107.06
406.883	105.06
407.107	106.06
407.331	109.06
407.555	122.06
407.778	103.06
408.002	106.06
408.226	130.06
408.449	122.06
408.673	113.06
408.896	112.06
409.12	115.06
409.344	106.06
409.567	126.06
409.791	114.06
410.014	120.06
410.238	126.06
410.461	122.06
410.685	116.06
410.908	120.06
411.132	106.06
411.355	120.06
411.578	112.06
411.802	105.06
412.025	129.06
412.249	112.06
412.472	124.06
412.695	119.06
412.919	133.06
413.142	114.06
413.365	111.06
413.589	116.06
413.812	121.06
414.035	122.06
414.258	129.06
414.482	126.06
414.705	123.06
414.928	126.06
415.151	119.06
415.374	120.06
415.597	119.06
415.821	135.06
416.044	118.06
416.267	127.06
416.49	121.06
416.713	121.06
416.936	113.06
417.159	149.06
417.382	132.06
417.605	114.06
417.828	112.06
418.051	117.06
418.274	131.06
418.497	118.06
418.72	118.06
418.943	132.06
419.166	134.06
419.389	144.06
419.611	125.06
419.834	135.06
420.057	118.06
420.28	122.06
420.503	137.06
420.726	138.06
420.948	135.06
421.171	136.06
421.394	121.06
421.617	132.06
421.839	121.06
422.062	126.06
422.285	127.06
422.507	124.06
422.73	127.06
422.953	118.06
423.175	129.06
423.398	138.06
423.621	138.06
423.843	135.06
424.066	139.06
424.288	137.06
424.511	138.06
424.733	129.06
424.956	132.06
425.178	141.06
425.401	124.06
425.623	132.06
425.846	118.06
426.068	136.06
426.291	120.06
426.513	121.06
426.735	128.06
426.958	124.06
427.18	126.06
427.402	136.06
427.625	126.06
427.847	130.06
428.069	127.06
428.292	128.06
428.514	120.06
428.736	124.06
428.958	129.06
429.181	124.06
429.403	138.06
429.625	129.06
429.847	122.06
430.069	124.06
430.292	126.06
430.514	123.06
430.736	121.06
430.958	141.06
431.18	118.06
431.402	121.06
431.624	136.06
431.846	115.06
432.068	93.06
432.29	94.06
432.512	118.06
432.734	111.06
432.956	125.06
433.178	137.06
433.4	136.06
433.622	136.06
433.844	139.06
434.066	131.06
434.287	105.06
434.509	101.06
434.731	107.06
434.953	118.06
435.175	119.06
435.397	124.06
435.618	116.06
435.84	101.06
436.062	120.06
436.284	118.06
436.505	131.06
436.727	121.06
436.949	132.06
437.17	122.06
437.392	113.06
437.614	113.06
437.835	105.06
438.057	96.06
438.278	112.06
438.5	121.06
438.721	142.06
438.943	139.06
439.165	138.06
439.386	135.06
439.608	150.06
439.829	130.06
440.05	140.06
440.272	146.06
440.493	146.06
440.715	135.06
440.936	147.06
441.158	135.06
441.379	141.06
441.6	143.06
441.822	128.06
442.043	148.06
442.264	138.06
442.486	146.06
442.707	144.06
442.928	135.06
443.149	129.06
443.371	134.06
443.592	130.06
443.813	127.06
444.034	131.06
444.255	138.06
444.476	140.06
444.698	144.06
444.919	151.06
445.14	269.06
445.361	192.06
445.582	138.06
445.803	150.06
446.024	131.06
446.245	148.06
446.466	163.06
446.687	146.06
446.908	160.06
447.129	161.06
447.35	152.06
447.571	142.06
447.792	143.06
448.013	145.06
448.234	128.06
448.455	145.06
448.675	136.06
448.896	130.06
449.117	144.06
449.338	144.06
449.559	133.06
449.779	133.06
450	137.06
450.221	124.06
450.442	121.06
450.662	126.06
450.883	138.06
451.104	126.06
451.324	134.06
451.545	131.06
451.766	113.06
451.986	119.06
452.207	144.06
452.428	114.06
452.648	123.06
452.869	120.06
453.089	127.06
453.31	111.06
453.53	93.06
453.751	97.06
453.971	99.06
454.192	106.06
454.412	110.06
454.633	114.06
454.853	116.06
455.073	116.06
455.294	120.06
455.514	110.06
455.734	124.06
455.955	114.06
456.175	114.06
456.395	107.06
456.616	110.06
456.836	107.06
457.056	100.06
457.276	106.06
457.497	112.06
457.717	107.06
457.937	103.06
458.157	114.06
458.377	98.06
458.598	100.06
458.818	104.06
459.038	95.06
459.258	72.06
459.478	89.06
459.698	94.06
459.918	104.06
460.138	110.06
460.358	116.06
460.578	116.06
460.798	115.06
461.018	114.06
461.238	110.06
461.458	107.06
461.678	117.06
461.898	115.06
462.118	113.06
462.338	104.06
462.558	115.06
462.777	107.06
462.997	92.06
463.217	99.06
463.437	102.06
463.657	113.06
463.876	118.06
464.096	102.06
464.316	109.06
464.536	106.06
464.755	98.06
464.975	122.06
465.195	111.06
465.414	110.06
465.634	104.06
465.854	125.06
466.073	129.06
466.293	115.06
466.512	110.06
466.732	136.06
466.951	126.06
467.171	131.06
467.391	140.06
467.61	126.06
467.829	128.06
468.049	125.06
468.268	135.06
468.488	116.06
468.707	133.06
468.927	122.06
469.146	112.06
469.365	139.06
469.585	147.06
469.804	128.06
470.023	134.06
470.243	130.06
470.462	135.06
470.681	138.06
470.901	141.06
471.12	138.06
471.339	152.06
471.558	147.06
471.777	135.06
471.997	122.06
472.216	124.06
472.435	99.06
472.654	99.06
472.873	122.06
473.092	119.06
473.311	124.06
473.53	118.06
473.749	122.06
473.968	122.06
474.187	113.06
474.406	119.06
474.625	123.06
474.844	126.06
475.063	142.06
475.282	136.06
475.501	115.06
475.72	121.06
475.939	107.06
476.158	134.06
476.377	117.06
476.596	125.06
476.814	103.06
477.033	104.06
477.252	115.06
477.471	118.06
477.69	126.06
477.908	117.06
478.127	134.06
478.346	119.06
478.564	132.06
478.783	134.06
479.002	159.06
479.22	133.06
479.439	141.06
479.658	135.06
479.876	132.06
480.095	107.06
480.313	108.06
480.532	120.06
480.751	112.06
480.969	103.06
481.188	96.06
481.406	86.06
481.624	90.06
481.843	75.06
482.061	91.06
482.28	101.06
482.498	123.06
482.717	115.06
482.935	119.06
483.153	145.06
483.372	144.06
483.59	137.06
483.808	152.06
484.027	140.06
484.245	121.06
484.463	138.06
484.681	152.06
484.9	167.06
485.118	139.06
485.336	120.06
485.554	110.06
485.772	89.06
485.99	104.06
486.209	116.06
486.427	105.06
486.645	113.06
486.863	128.06
487.081	126.06
487.299	125.06
487.517	140.06
487.735	178.06
487.953	178.06
488.171	179.06
488.389	166.06
488.607	163.06
488.825	151.06
489.043	116.06
489.261	127.06
489.479	144.06
489.696	126.06
489.914	133.06
490.132	144.06
490.35	148.06
490.568	153.06
490.786	162.06
491.003	167.06
491.221	182.06
491.439	172.06
491.657	178.06
491.874	180.06
492.092	217.06
492.31	243.06
492.527	210.06
492.745	192.06
492.963	190.06
493.18	185.06
493.398	179.06
493.615	187.06
493.833	174.06
494.05	174.06
494.268	177.06
494.485	186.06
494.703	161.06
494.92	183.06
495.138	166.06
495.355	172.06
495.573	185.06
495.79	176.06
496.008	163.06
496.225	148.06
496.442	168.06
496.66	181.06
496.877	169.06
497.094	159.06
497.312	156.06
497.529	152.06
497.746	144.06
497.963	134.06
498.181	123.06
498.398	118.06
498.615	100.06
498.832	118.06
499.049	122.06
499.267	127.06
499.484	122.06
499.701	126.06
499.918	132.06
500.135	146.06
500.352	129.06
500.569	136.06
500.786	129.06
501.003	126.06
501.22	139.06
501.437	138.06
501.654	146.06
501.871	145.06
502.088	118.06
502.305	130.06
502.522	124.06
502.739	125.06
502.956	124.06
503.172	126.06
503.389	106.06
503.606	115.06
503.823	110.06
504.04	116.06
504.256	128.06
504.473	115.06
504.69	107.06
504.907	128.06
505.123	124.06
505.34	118.06
505.557	123.06
505.773	119.06
505.99	104.06
506.207	103.06
506.423	120.06
506.64	99.06
506.856	118.06
507.073	114.06
507.289	93.06
507.506	110.06
507.722	111.06
507.939	128.06
508.155	112.06
508.372	110.06
508.588	116.06
508.805	99.06
509.021	104.06
509.238	99.06
509.454	99.06
509.67	111.06
509.887	103.06
510.103	99.06
510.319	87.06
510.536	94.06
510.752	83.06
510.968	92.06
511.184	75.06
511.401	83.06
511.617	98.06
511.833	86.06
512.049	76.06
512.265	87.06
512.481	91.06
512.698	88.06
512.914	102.06
513.13	90.06
513.346	88.06
513.562	94.06
513.778	84.06
513.994	88.06
514.21	81.06
514.426	84.06
514.642	89.06
514.858	98.06
515.074	88.06
515.29	84.06
515.506	77.06
515.721	83.06
515.937	83.06
516.153	81.06
516.369	90.06
516.585	95.06
516.801	93.06
517.016	70.06
517.232	96.06
517.448	114.06
517.664	99.06
517.879	96.06
518.095	95.06
518.311	97.06
518.527	91.06
518.742	77.06
518.958	91.06
519.173	106.06
519.389	95.06
519.605	113.06
519.82	117.06
520.036	102.06
520.251	95.06
520.467	103.06
520.682	88.06
520.898	87.06
521.113	84.06
521.329	66.06
521.544	105.06
521.76	78.06
521.975	87.06
522.19	113.06
522.406	84.06
522.621	104.06
522.836	95.06
523.052	91.06
523.267	96.06
523.482	112.06
523.698	106.06
523.913	112.06
524.128	99.06
524.343	113.06
524.559	126.06
524.774	118.06
524.989	116.06
525.204	114.06
525.419	108.06
525.634	104.06
525.849	107.06
526.064	92.06
526.28	96.06
526.495	81.06
526.71	89.06
526.925	89.06
527.14	93.06
527.355	82.06
527.57	85.06
527.785	88.06
527.999	75.06
528.214	98.06
528.429	90.06
528.644	125.06
528.859	116.06
529.074	142.06
529.289	151.06
529.503	166.06
529.718	138.06
529.933	114.06
530.148	102.06
530.363	111.06
530.577	82.06
530.792	95.06
531.007	78.06
531.221	99.06
531.436	69.06
531.651	88.06
531.865	82.06
532.08	84.06
532.295	67.06
532.509	82.06
532.724	93.06
532.938	87.06
533.153	105.06
533.367	110.06
533.582	123.06
533.796	130.06
534.011	116.06
534.225	83.06
534.44	108.06
534.654	103.06
534.868	95.06
535.083	110.06
535.297	89.06
535.511	86.06
535.726	82.06
535.94	99.06
536.154	82.06
536.369	84.06
536.583	76.06
536.797	83.06
537.011	86.06
537.225	81.06
537.44	90.06
537.654	95.06
537.868	100.06
538.082	95.06
538.296	87.06
538.51	94.06
538.724	113.06
538.938	130.06
539.153	119.06
539.367	121.06
539.581	99.06
539.795	109.06
540.009	88.06
540.222	106.06
540.436	112.06
540.65	101.06
540.864	118.06
541.078	124.06
541.292	141.06
541.506	147.06
541.72	170.06
541.934	187.06
542.147	200.06
542.361	177.06
542.575	164.06
542.789	133.06
543.002	128.06
543.216	126.06
543.43	129.06
543.644	138.06
543.857	145.06
544.071	157.06
544.285	149.06
544.498	155.06
544.712	166.06
544.925	179.06
545.139	152.06
545.352	142.06
545.566	154.06
545.779	132.06
545.993	149.06
546.206	158.06
546.42	168.06
546.633	162.06
546.847	168.06
547.06	170.06
547.274	166.06
547.487	177.06
547.7	174.06
547.914	157.06
548.127	161.06
548.34	155.06
548.554	151.06
548.767	160.06
548.98	150.06
549.193	140.06
549.407	138.06
549.62	164.06
549.833	135.06
550.046	148.06
550.259	146.06
550.473	152.06
550.686	158.06
550.899	154.06
551.112	140.06
551.325	139.06
551.538	131.06
551.751	118.06
551.964	108.06
552.177	117.06
552.39	120.06
552.603	127.06
552.816	131.06
553.029	152.06
553.242	156.06
553.455	147.06
553.667	146.06
553.88	146.06
554.093	146.06
554.306	140.06
554.519	165.06
554.732	148.06
554.944	144.06
555.157	125.06
555.37	153.06
555.583	145.06
555.795	148.06
556.008	140.06
556.221	132.06
556.433	144.06
556.646	146.06
556.859	128.06
557.071	132.06
557.284	126.06
557.496	135.06
557.709	139.06
557.921	127.06
558.134	120.06
558.346	131.06
558.559	138.06
558.771	141.06
558.984	122.06
559.196	137.06
559.409	128.06
559.621	137.06
559.833	130.06
560.046	128.06
560.258	133.06
560.47	120.06
560.683	126.06
560.895	132.06
561.107	128.06
561.32	119.06
561.532	116.06
561.744	117.06
561.956	112.06
562.168	120.06
562.381	123.06
562.593	137.06
562.805	122.06
563.017	133.06
563.229	126.06
563.441	132.06
563.653	129.06
563.865	121.06
564.077	115.06
564.289	124.06
564.501	123.06
564.713	122.06
564.925	130.06
565.137	123.06
565.349	119.06
565.561	118.06
565.773	122.06
565.985	119.06
566.197	117.06
566.408	117.06
566.62	116.06
566.832	126.06
567.044	135.06
567.255	107.06
567.467	125.06
567.679	109.06
567.891	113.06
568.102	96.06
568.314	92.06
568.526	67.06
568.737	83.06
568.949	71.06
569.161	76.06
569.372	97.06
569.584	74.06
569.795	97.06
570.007	91.06
570.218	88.06
570.43	83.06
570.641	78.06
570.853	86.06
571.064	95.06
571.276	105.06
571.487	99.06
571.698	92.06
571.91	107.06
572.121	103.06
572.333	100.06
572.544	90.06
572.755	87.06
572.966	94.06
573.178	95.06
573.389	102.06
573.6	86.06
573.811	79.06
574.023	85.06
574.234	80.06
574.445	90.06
574.656	87.06
574.867	88.06
575.078	73.06
575.289	84.06
575.501	96.06
575.712	97.06
575.923	78.06
576.134	106.06
576.345	98.06
576.556	98.06
576.767	98.06
576.978	88.06
577.188	86.06
577.399	97.06
577.61	85.06
577.821	91.06
578.032	99.06
578.243	94.06
578.454	103.06
578.665	96.06
578.875	94.06
579.086	79.06
579.297	70.06
579.508	84.06
579.718	86.06
579.929	95.06
580.14	81.06
580.35	94.06
580.561	83.06
580.772	94.06
580.982	102.06
581.193	83.06
581.403	91.06
581.614	94.06
581.825	81.06
582.035	80.06
582.246	89.06
582.456	89.06
582.667	80.06
582.877	99.06
583.087	76.06
583.298	95.06
583.508	73.06
583.719	84.06
583.929	88.06
584.139	90.06
584.35	76.06
584.56	92.06
584.77	83.06
584.981	98.06
585.191	87.06
585.401	80.06
585.611	99.06
585.821	85.06
586.032	89.06
586.242	88.06
586.452	81.06
586.662	78.06
586.872	82.06
587.082	89.06
587.292	88.06
587.502	96.06
587.713	82.06
587.923	86.06
588.133	94.06
588.343	96.06
588.553	83.06
588.762	87.06
588.972	83.06
589.182	68.06
589.392	88.06
589.602	78.06
589.812	80.06
590.022	88.06
590.232	92.06
590.441	76.06
590.651	92.06
590.861	88.06
591.071	78.06
591.281	85.06
591.49	67.06
591.7	83.06
591.91	89.06
592.119	80.06
592.329	112.06
592.539	92.06
592.748	91.06
592.958	81.06
593.167	75.06
593.377	71.06
593.587	80.06
593.796	64.06
594.006	77.06
594.215	87.06
594.424	81.06
594.634	79.06
594.843	108.06
595.053	94.06
595.262	106.06
595.472	88.06
595.681	76.06
595.89	90.06
596.1	93.06
596.309	91.06
596.518	83.06
596.727	98.06
596.937	102.06
597.146	84.06
597.355	102.06
597.564	74.06
597.774	96.06
597.983	95.06
598.192	98.06
598.401	73.06
598.61	96.06
598.819	86.06
599.028	109.06
599.237	94.06
599.446	102.06
599.655	84.06
599.864	82.06
600.073	85.06
600.282	88.06
600.491	94.06
600.7	73.06
600.909	102.06
601.118	87.06
601.327	109.06
601.536	101.06
601.745	110.06
601.953	120.06
602.162	99.06
602.371	100.06
602.58	107.06
602.789	99.06
602.997	108.06
603.206	112.06
603.415	97.06
603.623	94.06
603.832	85.06
604.041	110.06
604.249	103.06
604.458	114.06
604.666	97.06
604.875	100.06
605.084	103.06
605.292	108.06
605.501	105.06
605.709	113.06
605.918	107.06
606.126	108.06
606.334	118.06
606.543	125.06
606.751	111.06
606.96	106.06
607.168	108.06
607.376	109.06
607.585	129.06
607.793	119.06
608.001	114.06
608.21	110.06
608.418	120.06
608.626	101.06
608.834	120.06
609.043	126.06
609.251	112.06
609.459	104.06
609.667	95.06
609.875	118.06
610.083	114.06
610.291	112.06
610.499	115.06
610.707	123.06
610.916	121.06
611.124	107.06
611.332	111.06
611.54	123.06
611.748	100.06
611.955	124.06
612.163	121.06
612.371	91.06
612.579	117.06
612.787	123.06
612.995	101.06
613.203	116.06
613.411	96.06
613.618	117.06
613.826	108.06
614.034	101.06
614.242	118.06
614.449	126.06
614.657	104.06
614.865	107.06
615.072	124.06
615.28	119.06
615.488	107.06
615.695	107.06
615.903	111.06
616.111	108.06
616.318	119.06
616.526	134.06
616.733	112.06
616.941	112.06
617.148	99.06
617.356	104.06
617.563	106.06
617.771	105.06
617.978	97.06
618.185	109.06
618.393	103.06
618.6	99.06
618.807	117.06
619.015	107.06
619.222	124.06
619.429	106.06
619.637	113.06
619.844	102.06
620.051	79.06
620.258	103.06
620.466	102.06
620.673	101.06
620.88	106.06
621.087	94.06
621.294	101.06
621.501	102.06
621.708	101.06
621.915	110.06
622.122	99.06
622.329	120.06
622.536	96.06
622.743	96.06
622.95	117.06
623.157	102.06
623.364	107.06
623.571	115.06
623.778	106.06
623.985	118.06
624.192	104.06
624.399	107.06
624.606	112.06
624.812	111.06
625.019	104.06
625.226	105.06
625.433	107.06
625.639	100.06
625.846	100.06
626.053	88.06
626.259	96.06
626.466	92.06
626.673	90.06
626.879	95.06
627.086	93.06
627.293	99.06
627.499	100.06
627.706	108.06
627.912	113.06
628.119	113.06
628.325	105.06
628.532	106.06
628.738	107.06
628.945	111.06
629.151	104.06
629.357	95.06
629.564	101.06
629.77	85.06
629.976	100.06
630.183	115.06
630.389	96.06
630.595	113.06
630.802	91.06
631.008	92.06
631.214	94.06
631.42	94.06
631.627	98.06
631.833	112.06
632.039	106.06
632.245	91.06
632.451	100.06
632.657	104.06
632.863	112.06
633.069	98.06
633.275	103.06
633.481	112.06
633.688	90.06
633.893	102.06
634.099	89.06
634.305	98.06
634.511	94.06
634.717	100.06
634.923	84.06
635.129	84.06
635.335	93.06
635.541	101.06
635.747	91.06
635.952	96.06
636.158	98.06
636.364	92.06
636.57	99.06
636.775	85.06
636.981	107.06
637.187	100.06
637.392	94.06
637.598	105.06
637.804	87.06
638.009	83.06
638.215	113.06
638.421	107.06
638.626	102.06
638.832	98.06
639.037	88.06
639.243	96.06
639.448	112.06
639.654	110.06
639.859	87.06
640.065	101.06
640.27	90.06
640.475	99.06
640.681	95.06
640.886	107.06
641.091	107.06
641.297	98.06
641.502	91.06
641.707	97.06
641.913	93.06
642.118	103.06
642.323	92.06
642.528	97.06
642.733	100.06
642.939	107.06
643.144	94.06
643.349	94.06
643.554	96.06
643.759	101.06
643.964	102.06
644.169	90.06
644.374	100.06
644.579	110.06
644.784	107.06
644.989	90.06
645.194	92.06
645.399	98.06
645.604	100.06
645.809	100.06
646.014	93.06
646.219	100.06
646.423	92.06
646.628	97.06
646.833	103.06
647.038	98.06
647.243	99.06
647.447	95.06
647.652	92.06
647.857	94.06
648.062	103.06
648.266	113.06
648.471	94.06
648.676	96.06
648.88	105.06
649.085	98.06
649.289	97.06
649.494	96.06
649.698	110.06
649.903	85.06
650.107	94.06
650.312	110.06
650.516	98.06
650.721	95.06
650.925	80.06
651.13	82.06
651.334	95.06
651.539	100.06
651.743	93.06
651.947	95.06
652.152	102.06
652.356	99.06
652.56	100.06
652.764	82.06
652.969	102.06
653.173	82.06
653.377	86.06
653.581	77.06
653.785	103.06
653.99	100.06
654.194	107.06
654.398	104.06
654.602	91.06
654.806	88.06
655.01	92.06
655.214	94.06
655.418	82.06
655.622	80.06
655.826	92.06
656.03	85.06
656.234	92.06
656.438	98.06
656.642	84.06
656.846	87.06
657.049	82.06
657.253	91.06
657.457	98.06
657.661	92.06
657.865	86.06
658.068	99.06
658.272	83.06
658.476	88.06
658.68	85.06
658.883	88.06
659.087	91.06
659.291	89.06
659.494	101.06
659.698	81.06
659.901	82.06
660.105	80.06
660.309	94.06
660.512	81.06
660.716	75.06
660.919	88.06
661.123	84.06
661.326	87.06
661.53	100.06
661.733	89.06
661.936	86.06
662.14	87.06
662.343	95.06
662.546	71.06
662.75	76.06
662.953	83.06
663.156	80.06
663.36	81.06
663.563	71.06
663.766	76.06
663.969	79.06
664.173	85.06
664.376	82.06
664.579	79.06
664.782	76.06
664.985	78.06
665.188	76.06
665.391	85.06
665.594	85.06
665.797	63.06
666	84.06
666.203	85.06
666.406	86.06
666.609	81.06
666.812	66.06
667.015	83.06
667.218	81.06
667.421	78.06
667.624	69.06
667.827	82.06
668.03	68.06
668.232	85.06
668.435	73.06
668.638	72.06
668.841	83.06
669.043	75.06
669.246	87.06
669.449	60.06
669.651	70.06
669.854	80.06
670.057	73.06
670.259	78.06
670.462	78.06
670.665	75.06
670.867	69.06
671.07	72.06
671.272	83.06
671.475	101.06
671.677	87.06
671.88	79.06
672.082	92.06
672.284	94.06
672.487	96.06
672.689	82.06
672.892	74.06
