Data from Location4.07152019.Energy5.Lamp.07192019.3%Agarose_HRD10591_16-20-38-927.txt Node
Date: Fri Jul 19 16:20:38 EDT 2019
User: cochatt
Spectrometer: HR+D1059
Trigger mode: 1
Integration Time (sec): 1.000000E-1
Scans to average: 1
Electric dark correction enabled: true
Nonlinearity correction enabled: false
Boxcar width: 0
XAxis mode: Wavelengths
Number of Pixels in Spectrum: 2048
>>>>>Begin Spectral Data<<<<<
223.165	-17.94
223.4	-17.94
223.635	-17.94
223.869	-14.94
224.104	-23.94
224.338	-18.94
224.573	-14.94
224.808	-19.94
225.042	-18.94
225.277	-0.94
225.511	-3.94
225.746	-1.94
225.98	19.06
226.215	7.06
226.449	20.06
226.683	25.06
226.918	27.06
227.152	38.06
227.387	28.06
227.621	28.06
227.856	39.06
228.09	41.06
228.324	56.06
228.559	69.06
228.793	65.06
229.027	70.06
229.262	70.06
229.496	69.06
229.73	72.06
229.964	66.06
230.199	83.06
230.433	81.06
230.667	63.06
230.901	74.06
231.136	82.06
231.37	76.06
231.604	71.06
231.838	81.06
232.072	75.06
232.306	82.06
232.541	78.06
232.775	82.06
233.009	75.06
233.243	83.06
233.477	74.06
233.711	77.06
233.945	84.06
234.179	83.06
234.413	76.06
234.647	91.06
234.881	77.06
235.115	78.06
235.349	70.06
235.583	68.06
235.817	80.06
236.051	75.06
236.285	72.06
236.519	91.06
236.753	72.06
236.987	74.06
237.221	73.06
237.455	87.06
237.689	70.06
237.922	81.06
238.156	84.06
238.39	78.06
238.624	70.06
238.858	63.06
239.091	88.06
239.325	92.06
239.559	84.06
239.793	53.06
240.027	75.06
240.26	78.06
240.494	89.06
240.728	77.06
240.961	66.06
241.195	69.06
241.429	81.06
241.662	90.06
241.896	67.06
242.13	83.06
242.363	76.06
242.597	79.06
242.83	84.06
243.064	75.06
243.298	77.06
243.531	82.06
243.765	77.06
243.998	65.06
244.232	82.06
244.465	81.06
244.699	74.06
244.932	71.06
245.166	86.06
245.399	90.06
245.633	65.06
245.866	69.06
246.099	87.06
246.333	85.06
246.566	77.06
246.8	77.06
247.033	69.06
247.266	65.06
247.5	84.06
247.733	80.06
247.966	83.06
248.2	78.06
248.433	73.06
248.666	95.06
248.899	79.06
249.133	65.06
249.366	76.06
249.599	81.06
249.832	65.06
250.066	78.06
250.299	79.06
250.532	71.06
250.765	79.06
250.998	84.06
251.231	87.06
251.465	74.06
251.698	81.06
251.931	79.06
252.164	74.06
252.397	78.06
252.63	84.06
252.863	79.06
253.096	71.06
253.329	74.06
253.562	79.06
253.795	88.06
254.028	73.06
254.261	78.06
254.494	90.06
254.727	76.06
254.96	80.06
255.193	85.06
255.426	78.06
255.659	81.06
255.892	71.06
256.124	75.06
256.357	93.06
256.59	85.06
256.823	83.06
257.056	77.06
257.289	76.06
257.521	82.06
257.754	75.06
257.987	71.06
258.22	88.06
258.452	69.06
258.685	73.06
258.918	85.06
259.151	87.06
259.383	76.06
259.616	80.06
259.849	76.06
260.081	88.06
260.314	84.06
260.547	74.06
260.779	69.06
261.012	90.06
261.244	66.06
261.477	87.06
261.71	91.06
261.942	86.06
262.175	82.06
262.407	91.06
262.64	95.06
262.872	86.06
263.105	82.06
263.337	80.06
263.57	89.06
263.802	89.06
264.035	75.06
264.267	78.06
264.499	84.06
264.732	79.06
264.964	78.06
265.197	76.06
265.429	89.06
265.661	86.06
265.894	85.06
266.126	81.06
266.358	82.06
266.591	79.06
266.823	83.06
267.055	84.06
267.287	98.06
267.52	85.06
267.752	87.06
267.984	90.06
268.216	87.06
268.448	91.06
268.681	85.06
268.913	92.06
269.145	95.06
269.377	73.06
269.609	99.06
269.841	75.06
270.073	92.06
270.306	91.06
270.538	79.06
270.77	80.06
271.002	80.06
271.234	86.06
271.466	74.06
271.698	75.06
271.93	77.06
272.162	88.06
272.394	86.06
272.626	85.06
272.858	75.06
273.09	77.06
273.322	73.06
273.553	80.06
273.785	81.06
274.017	74.06
274.249	91.06
274.481	78.06
274.713	96.06
274.945	86.06
275.176	93.06
275.408	85.06
275.64	88.06
275.872	82.06
276.104	90.06
276.335	83.06
276.567	88.06
276.799	87.06
277.031	77.06
277.262	83.06
277.494	92.06
277.726	78.06
277.957	75.06
278.189	73.06
278.421	93.06
278.652	79.06
278.884	86.06
279.115	83.06
279.347	85.06
279.579	89.06
279.81	82.06
280.042	90.06
280.273	85.06
280.505	82.06
280.736	89.06
280.968	78.06
281.199	83.06
281.431	80.06
281.662	80.06
281.894	98.06
282.125	85.06
282.356	91.06
282.588	86.06
282.819	84.06
283.051	89.06
283.282	93.06
283.513	92.06
283.745	87.06
283.976	83.06
284.207	80.06
284.439	75.06
284.67	84.06
284.901	78.06
285.132	81.06
285.364	97.06
285.595	94.06
285.826	83.06
286.057	92.06
286.288	73.06
286.52	83.06
286.751	85.06
286.982	95.06
287.213	93.06
287.444	90.06
287.675	92.06
287.906	88.06
288.138	77.06
288.369	80.06
288.6	105.06
288.831	84.06
289.062	89.06
289.293	85.06
289.524	84.06
289.755	86.06
289.986	98.06
290.217	77.06
290.448	85.06
290.679	84.06
290.91	86.06
291.141	97.06
291.371	85.06
291.602	83.06
291.833	100.06
292.064	88.06
292.295	70.06
292.526	86.06
292.757	83.06
292.987	71.06
293.218	91.06
293.449	82.06
293.68	79.06
293.91	76.06
294.141	74.06
294.372	93.06
294.603	73.06
294.833	76.06
295.064	74.06
295.295	90.06
295.525	93.06
295.756	84.06
295.987	82.06
296.217	82.06
296.448	71.06
296.679	65.06
296.909	95.06
297.14	83.06
297.37	91.06
297.601	79.06
297.831	84.06
298.062	77.06
298.292	76.06
298.523	87.06
298.753	90.06
298.984	85.06
299.214	97.06
299.445	89.06
299.675	78.06
299.905	87.06
300.136	83.06
300.366	91.06
300.597	77.06
300.827	85.06
301.057	91.06
301.288	94.06
301.518	83.06
301.748	92.06
301.979	86.06
302.209	93.06
302.439	87.06
302.669	75.06
302.9	94.06
303.13	80.06
303.36	84.06
303.59	88.06
303.82	80.06
304.051	73.06
304.281	79.06
304.511	77.06
304.741	92.06
304.971	79.06
305.201	90.06
305.431	86.06
305.661	93.06
305.891	95.06
306.121	72.06
306.352	99.06
306.582	90.06
306.812	83.06
307.042	75.06
307.272	87.06
307.502	82.06
307.731	80.06
307.961	83.06
308.191	88.06
308.421	79.06
308.651	90.06
308.881	92.06
309.111	78.06
309.341	88.06
309.571	93.06
309.8	93.06
310.03	91.06
310.26	80.06
310.49	85.06
310.72	85.06
310.949	76.06
311.179	94.06
311.409	84.06
311.639	87.06
311.868	95.06
312.098	88.06
312.328	73.06
312.557	79.06
312.787	89.06
313.017	79.06
313.246	82.06
313.476	76.06
313.706	74.06
313.935	74.06
314.165	92.06
314.394	78.06
314.624	76.06
314.853	103.06
315.083	83.06
315.312	85.06
315.542	81.06
315.771	80.06
316.001	89.06
316.23	98.06
316.46	94.06
316.689	86.06
316.919	80.06
317.148	96.06
317.377	74.06
317.607	83.06
317.836	71.06
318.065	81.06
318.295	96.06
318.524	75.06
318.753	106.06
318.983	78.06
319.212	79.06
319.441	89.06
319.67	78.06
319.9	82.06
320.129	78.06
320.358	86.06
320.587	78.06
320.816	83.06
321.046	98.06
321.275	94.06
321.504	88.06
321.733	86.06
321.962	88.06
322.191	82.06
322.42	89.06
322.649	81.06
322.878	101.06
323.108	88.06
323.337	75.06
323.566	86.06
323.795	74.06
324.024	90.06
324.253	84.06
324.482	88.06
324.71	90.06
324.939	97.06
325.168	84.06
325.397	95.06
325.626	82.06
325.855	98.06
326.084	83.06
326.313	79.06
326.542	91.06
326.77	90.06
326.999	106.06
327.228	73.06
327.457	89.06
327.686	91.06
327.914	86.06
328.143	87.06
328.372	77.06
328.6	88.06
328.829	70.06
329.058	92.06
329.287	87.06
329.515	71.06
329.744	88.06
329.972	85.06
330.201	99.06
330.43	104.06
330.658	87.06
330.887	78.06
331.115	82.06
331.344	93.06
331.572	75.06
331.801	91.06
332.03	78.06
332.258	96.06
332.486	80.06
332.715	87.06
332.943	88.06
333.172	90.06
333.4	87.06
333.629	87.06
333.857	83.06
334.085	82.06
334.314	79.06
334.542	87.06
334.771	80.06
334.999	95.06
335.227	83.06
335.455	97.06
335.684	90.06
335.912	77.06
336.14	103.06
336.369	85.06
336.597	90.06
336.825	94.06
337.053	89.06
337.281	86.06
337.51	88.06
337.738	85.06
337.966	95.06
338.194	95.06
338.422	83.06
338.65	89.06
338.878	88.06
339.106	89.06
339.334	73.06
339.562	99.06
339.79	78.06
340.018	84.06
340.246	81.06
340.474	73.06
340.702	92.06
340.93	83.06
341.158	74.06
341.386	78.06
341.614	87.06
341.842	84.06
342.07	97.06
342.298	80.06
342.526	74.06
342.754	82.06
342.981	80.06
343.209	92.06
343.437	74.06
343.665	83.06
343.893	72.06
344.12	83.06
344.348	93.06
344.576	86.06
344.804	83.06
345.031	91.06
345.259	94.06
345.487	95.06
345.714	78.06
345.942	81.06
346.17	88.06
346.397	62.06
346.625	88.06
346.853	79.06
347.08	72.06
347.308	83.06
347.535	87.06
347.763	92.06
347.99	75.06
348.218	90.06
348.445	104.06
348.673	91.06
348.9	89.06
349.128	81.06
349.355	83.06
349.583	84.06
349.81	79.06
350.037	87.06
350.265	82.06
350.492	79.06
350.72	83.06
350.947	75.06
351.174	95.06
351.402	84.06
351.629	83.06
351.856	85.06
352.083	84.06
352.311	75.06
352.538	87.06
352.765	99.06
352.992	86.06
353.22	94.06
353.447	84.06
353.674	78.06
353.901	78.06
354.128	90.06
354.355	76.06
354.583	71.06
354.81	92.06
355.037	79.06
355.264	86.06
355.491	82.06
355.718	82.06
355.945	91.06
356.172	75.06
356.399	79.06
356.626	87.06
356.853	78.06
357.08	82.06
357.307	78.06
357.534	86.06
357.761	79.06
357.988	87.06
358.215	99.06
358.441	90.06
358.668	89.06
358.895	97.06
359.122	94.06
359.349	76.06
359.576	84.06
359.802	82.06
360.029	80.06
360.256	89.06
360.483	74.06
360.709	90.06
360.936	104.06
361.163	77.06
361.39	88.06
361.616	92.06
361.843	75.06
362.07	85.06
362.296	87.06
362.523	90.06
362.749	79.06
362.976	86.06
363.203	93.06
363.429	86.06
363.656	87.06
363.882	90.06
364.109	90.06
364.335	88.06
364.562	96.06
364.788	82.06
365.015	82.06
365.241	85.06
365.468	82.06
365.694	83.06
365.92	106.06
366.147	87.06
366.373	87.06
366.599	83.06
366.826	85.06
367.052	89.06
367.278	85.06
367.505	100.06
367.731	97.06
367.957	95.06
368.184	94.06
368.41	91.06
368.636	90.06
368.862	93.06
369.089	90.06
369.315	89.06
369.541	79.06
369.767	98.06
369.993	85.06
370.219	83.06
370.445	80.06
370.672	98.06
370.898	88.06
371.124	88.06
371.35	93.06
371.576	83.06
371.802	86.06
372.028	83.06
372.254	105.06
372.48	98.06
372.706	105.06
372.932	108.06
373.158	84.06
373.384	101.06
373.61	93.06
373.835	100.06
374.061	83.06
374.287	77.06
374.513	95.06
374.739	93.06
374.965	84.06
375.191	95.06
375.416	95.06
375.642	102.06
375.868	101.06
376.094	94.06
376.319	82.06
376.545	105.06
376.771	99.06
376.997	89.06
377.222	102.06
377.448	97.06
377.674	102.06
377.899	94.06
378.125	106.06
378.35	110.06
378.576	100.06
378.802	92.06
379.027	105.06
379.253	94.06
379.478	93.06
379.704	95.06
379.929	78.06
380.155	83.06
380.38	91.06
380.606	96.06
380.831	87.06
381.057	92.06
381.282	104.06
381.507	106.06
381.733	101.06
381.958	97.06
382.184	101.06
382.409	102.06
382.634	93.06
382.86	97.06
383.085	103.06
383.31	95.06
383.535	94.06
383.761	90.06
383.986	104.06
384.211	104.06
384.436	90.06
384.662	100.06
384.887	79.06
385.112	100.06
385.337	95.06
385.562	99.06
385.787	101.06
386.013	110.06
386.238	92.06
386.463	109.06
386.688	115.06
386.913	99.06
387.138	105.06
387.363	105.06
387.588	115.06
387.813	102.06
388.038	101.06
388.263	92.06
388.488	94.06
388.713	116.06
388.938	102.06
389.163	119.06
389.387	104.06
389.612	108.06
389.837	100.06
390.062	114.06
390.287	104.06
390.512	113.06
390.736	102.06
390.961	113.06
391.186	96.06
391.411	95.06
391.636	111.06
391.86	104.06
392.085	92.06
392.31	87.06
392.534	99.06
392.759	106.06
392.984	102.06
393.208	106.06
393.433	114.06
393.658	103.06
393.882	113.06
394.107	102.06
394.331	98.06
394.556	106.06
394.78	110.06
395.005	101.06
395.229	111.06
395.454	121.06
395.678	104.06
395.903	100.06
396.127	106.06
396.352	106.06
396.576	100.06
396.801	98.06
397.025	106.06
397.249	107.06
397.474	112.06
397.698	94.06
397.922	104.06
398.147	102.06
398.371	90.06
398.595	105.06
398.82	105.06
399.044	107.06
399.268	106.06
399.492	101.06
399.717	100.06
399.941	109.06
400.165	113.06
400.389	108.06
400.613	98.06
400.837	121.06
401.062	103.06
401.286	105.06
401.51	100.06
401.734	105.06
401.958	109.06
402.182	108.06
402.406	98.06
402.63	114.06
402.854	100.06
403.078	123.06
403.302	119.06
403.526	123.06
403.75	106.06
403.974	126.06
404.198	113.06
404.422	125.06
404.645	118.06
404.869	120.06
405.093	122.06
405.317	119.06
405.541	111.06
405.765	113.06
405.988	126.06
406.212	118.06
406.436	140.06
406.66	126.06
406.883	133.06
407.107	119.06
407.331	114.06
407.555	119.06
407.778	114.06
408.002	118.06
408.226	108.06
408.449	125.06
408.673	122.06
408.896	124.06
409.12	119.06
409.344	123.06
409.567	102.06
409.791	107.06
410.014	104.06
410.238	127.06
410.461	120.06
410.685	131.06
410.908	114.06
411.132	119.06
411.355	134.06
411.578	116.06
411.802	116.06
412.025	124.06
412.249	131.06
412.472	117.06
412.695	124.06
412.919	117.06
413.142	120.06
413.365	129.06
413.589	131.06
413.812	116.06
414.035	141.06
414.258	113.06
414.482	116.06
414.705	117.06
414.928	113.06
415.151	120.06
415.374	131.06
415.597	112.06
415.821	121.06
416.044	122.06
416.267	133.06
416.49	129.06
416.713	125.06
416.936	128.06
417.159	131.06
417.382	126.06
417.605	125.06
417.828	119.06
418.051	123.06
418.274	142.06
418.497	127.06
418.72	134.06
418.943	138.06
419.166	127.06
419.389	129.06
419.611	133.06
419.834	136.06
420.057	136.06
420.28	130.06
420.503	114.06
420.726	129.06
420.948	118.06
421.171	118.06
421.394	134.06
421.617	134.06
421.839	135.06
422.062	137.06
422.285	123.06
422.507	137.06
422.73	125.06
422.953	133.06
423.175	125.06
423.398	126.06
423.621	141.06
423.843	129.06
424.066	134.06
424.288	143.06
424.511	139.06
424.733	151.06
424.956	127.06
425.178	133.06
425.401	136.06
425.623	143.06
425.846	136.06
426.068	136.06
426.291	141.06
426.513	132.06
426.735	130.06
426.958	129.06
427.18	125.06
427.402	121.06
427.625	124.06
427.847	127.06
428.069	135.06
428.292	137.06
428.514	108.06
428.736	131.06
428.958	123.06
429.181	130.06
429.403	129.06
429.625	123.06
429.847	132.06
430.069	119.06
430.292	124.06
430.514	118.06
430.736	135.06
430.958	124.06
431.18	107.06
431.402	131.06
431.624	118.06
431.846	111.06
432.068	87.06
432.29	108.06
432.512	107.06
432.734	141.06
432.956	137.06
433.178	130.06
433.4	151.06
433.622	138.06
433.844	134.06
434.066	121.06
434.287	116.06
434.509	108.06
434.731	95.06
434.953	119.06
435.175	121.06
435.397	127.06
435.618	116.06
435.84	118.06
436.062	119.06
436.284	113.06
436.505	120.06
436.727	126.06
436.949	139.06
437.17	127.06
437.392	122.06
437.614	139.06
437.835	113.06
438.057	118.06
438.278	123.06
438.5	117.06
438.721	127.06
438.943	139.06
439.165	152.06
439.386	137.06
439.608	137.06
439.829	129.06
440.05	146.06
440.272	147.06
440.493	136.06
440.715	141.06
440.936	153.06
441.158	138.06
441.379	151.06
441.6	139.06
441.822	142.06
442.043	124.06
442.264	147.06
442.486	125.06
442.707	130.06
442.928	136.06
443.149	133.06
443.371	123.06
443.592	130.06
443.813	148.06
444.034	155.06
444.255	142.06
444.476	131.06
444.698	133.06
444.919	147.06
445.14	269.06
445.361	201.06
445.582	152.06
445.803	145.06
446.024	146.06
446.245	159.06
446.466	158.06
446.687	146.06
446.908	158.06
447.129	161.06
447.35	146.06
447.571	145.06
447.792	148.06
448.013	131.06
448.234	143.06
448.455	141.06
448.675	130.06
448.896	149.06
449.117	135.06
449.338	139.06
449.559	147.06
449.779	141.06
450	125.06
450.221	134.06
450.442	141.06
450.662	123.06
450.883	130.06
451.104	127.06
451.324	121.06
451.545	131.06
451.766	132.06
451.986	129.06
452.207	122.06
452.428	131.06
452.648	126.06
452.869	128.06
453.089	122.06
453.31	110.06
453.53	98.06
453.751	89.06
453.971	99.06
454.192	106.06
454.412	126.06
454.633	117.06
454.853	107.06
455.073	117.06
455.294	126.06
455.514	108.06
455.734	115.06
455.955	124.06
456.175	114.06
456.395	113.06
456.616	102.06
456.836	117.06
457.056	110.06
457.276	115.06
457.497	102.06
457.717	111.06
457.937	118.06
458.157	108.06
458.377	104.06
458.598	110.06
458.818	90.06
459.038	95.06
459.258	79.06
459.478	96.06
459.698	92.06
459.918	85.06
460.138	96.06
460.358	114.06
460.578	121.06
460.798	111.06
461.018	110.06
461.238	110.06
461.458	100.06
461.678	113.06
461.898	100.06
462.118	113.06
462.338	110.06
462.558	103.06
462.777	104.06
462.997	107.06
463.217	106.06
463.437	106.06
463.657	103.06
463.876	114.06
464.096	109.06
464.316	110.06
464.536	102.06
464.755	98.06
464.975	104.06
465.195	110.06
465.414	124.06
465.634	138.06
465.854	115.06
466.073	116.06
466.293	111.06
466.512	129.06
466.732	120.06
466.951	133.06
467.171	124.06
467.391	144.06
467.61	133.06
467.829	124.06
468.049	136.06
468.268	138.06
468.488	141.06
468.707	149.06
468.927	141.06
469.146	139.06
469.365	130.06
469.585	130.06
469.804	134.06
470.023	137.06
470.243	144.06
470.462	145.06
470.681	134.06
470.901	138.06
471.12	150.06
471.339	143.06
471.558	133.06
471.777	130.06
471.997	139.06
472.216	127.06
472.435	118.06
472.654	120.06
472.873	117.06
473.092	104.06
473.311	135.06
473.53	131.06
473.749	135.06
473.968	132.06
474.187	140.06
474.406	113.06
474.625	126.06
474.844	122.06
475.063	130.06
475.282	122.06
475.501	104.06
475.72	122.06
475.939	113.06
476.158	137.06
476.377	145.06
476.596	107.06
476.814	137.06
477.033	109.06
477.252	117.06
477.471	117.06
477.69	120.06
477.908	146.06
478.127	133.06
478.346	135.06
478.564	137.06
478.783	126.06
479.002	127.06
479.22	139.06
479.439	140.06
479.658	125.06
479.876	130.06
480.095	113.06
480.313	110.06
480.532	119.06
480.751	116.06
480.969	94.06
481.188	87.06
481.406	86.06
481.624	102.06
481.843	108.06
482.061	84.06
482.28	119.06
482.498	115.06
482.717	109.06
482.935	127.06
483.153	141.06
483.372	143.06
483.59	149.06
483.808	143.06
484.027	143.06
484.245	117.06
484.463	143.06
484.681	166.06
484.9	157.06
485.118	137.06
485.336	139.06
485.554	115.06
485.772	106.06
485.99	105.06
486.209	98.06
486.427	106.06
486.645	113.06
486.863	131.06
487.081	145.06
487.299	145.06
487.517	167.06
487.735	155.06
487.953	189.06
488.171	175.06
488.389	167.06
488.607	147.06
488.825	140.06
489.043	134.06
489.261	135.06
489.479	144.06
489.696	143.06
489.914	143.06
490.132	148.06
490.35	143.06
490.568	151.06
490.786	150.06
491.003	163.06
491.221	168.06
491.439	186.06
491.657	169.06
491.874	206.06
492.092	213.06
492.31	234.06
492.527	238.06
492.745	212.06
492.963	202.06
493.18	174.06
493.398	169.06
493.615	174.06
493.833	173.06
494.05	165.06
494.268	161.06
494.485	174.06
494.703	171.06
494.92	158.06
495.138	162.06
495.355	167.06
495.573	149.06
495.79	165.06
496.008	171.06
496.225	163.06
496.442	173.06
496.66	180.06
496.877	159.06
497.094	164.06
497.312	157.06
497.529	169.06
497.746	149.06
497.963	145.06
498.181	131.06
498.398	153.06
498.615	119.06
498.832	114.06
499.049	116.06
499.267	124.06
499.484	129.06
499.701	133.06
499.918	149.06
500.135	149.06
500.352	140.06
500.569	135.06
500.786	134.06
501.003	133.06
501.22	147.06
501.437	134.06
501.654	120.06
501.871	133.06
502.088	126.06
502.305	149.06
502.522	138.06
502.739	143.06
502.956	131.06
503.172	128.06
503.389	125.06
503.606	112.06
503.823	120.06
504.04	130.06
504.256	130.06
504.473	120.06
504.69	120.06
504.907	121.06
505.123	129.06
505.34	126.06
505.557	124.06
505.773	124.06
505.99	119.06
506.207	125.06
506.423	111.06
506.64	126.06
506.856	121.06
507.073	129.06
507.289	129.06
507.506	140.06
507.722	113.06
507.939	121.06
508.155	121.06
508.372	117.06
508.588	106.06
508.805	129.06
509.021	116.06
509.238	106.06
509.454	105.06
509.67	107.06
509.887	100.06
510.103	86.06
510.319	108.06
510.536	91.06
510.752	95.06
510.968	92.06
511.184	78.06
511.401	82.06
511.617	89.06
511.833	92.06
512.049	97.06
512.265	114.06
512.481	89.06
512.698	89.06
512.914	95.06
513.13	102.06
513.346	93.06
513.562	106.06
513.778	82.06
513.994	88.06
514.21	84.06
514.426	93.06
514.642	92.06
514.858	101.06
515.074	85.06
515.29	103.06
515.506	100.06
515.721	98.06
515.937	88.06
516.153	91.06
516.369	78.06
516.585	82.06
516.801	85.06
517.016	97.06
517.232	102.06
517.448	90.06
517.664	97.06
517.879	89.06
518.095	102.06
518.311	91.06
518.527	97.06
518.742	92.06
518.958	105.06
519.173	114.06
519.389	103.06
519.605	111.06
519.82	109.06
520.036	103.06
520.251	100.06
520.467	103.06
520.682	124.06
520.898	94.06
521.113	82.06
521.329	82.06
521.544	92.06
521.76	102.06
521.975	102.06
522.19	98.06
522.406	99.06
522.621	99.06
522.836	107.06
523.052	99.06
523.267	122.06
523.482	115.06
523.698	99.06
523.913	109.06
524.128	124.06
524.343	117.06
524.559	123.06
524.774	125.06
524.989	104.06
525.204	127.06
525.419	110.06
525.634	113.06
525.849	119.06
526.064	109.06
526.28	117.06
526.495	105.06
526.71	80.06
526.925	80.06
527.14	78.06
527.355	89.06
527.57	91.06
527.785	85.06
527.999	99.06
528.214	93.06
528.429	105.06
528.644	112.06
528.859	139.06
529.074	165.06
529.289	183.06
529.503	158.06
529.718	155.06
529.933	122.06
530.148	107.06
530.363	99.06
530.577	83.06
530.792	80.06
531.007	85.06
531.221	85.06
531.436	79.06
531.651	74.06
531.865	88.06
532.08	85.06
532.295	94.06
532.509	101.06
532.724	85.06
532.938	95.06
533.153	103.06
533.367	123.06
533.582	115.06
533.796	136.06
534.011	116.06
534.225	93.06
534.44	82.06
534.654	112.06
534.868	90.06
535.083	102.06
535.297	109.06
535.511	103.06
535.726	109.06
535.94	104.06
536.154	99.06
536.369	87.06
536.583	89.06
536.797	88.06
537.011	99.06
537.225	90.06
537.44	81.06
537.654	101.06
537.868	94.06
538.082	82.06
538.296	99.06
538.51	102.06
538.724	99.06
538.938	125.06
539.153	133.06
539.367	125.06
539.581	115.06
539.795	105.06
540.009	100.06
540.222	101.06
540.436	103.06
540.65	115.06
540.864	121.06
541.078	125.06
541.292	148.06
541.506	171.06
541.72	162.06
541.934	190.06
542.147	188.06
542.361	187.06
542.575	146.06
542.789	147.06
543.002	125.06
543.216	132.06
543.43	130.06
543.644	132.06
543.857	156.06
544.071	138.06
544.285	162.06
544.498	147.06
544.712	170.06
544.925	162.06
545.139	170.06
545.352	155.06
545.566	164.06
545.779	131.06
545.993	151.06
546.206	169.06
546.42	155.06
546.633	169.06
546.847	130.06
547.06	157.06
547.274	175.06
547.487	162.06
547.7	174.06
547.914	155.06
548.127	164.06
548.34	137.06
548.554	149.06
548.767	153.06
548.98	141.06
549.193	155.06
549.407	154.06
549.62	143.06
549.833	148.06
550.046	161.06
550.259	153.06
550.473	148.06
550.686	163.06
550.899	142.06
551.112	142.06
551.325	138.06
551.538	127.06
551.751	135.06
551.964	121.06
552.177	133.06
552.39	150.06
552.603	145.06
552.816	161.06
553.029	151.06
553.242	159.06
553.455	159.06
553.667	166.06
553.88	162.06
554.093	146.06
554.306	153.06
554.519	141.06
554.732	151.06
554.944	153.06
555.157	145.06
555.37	140.06
555.583	144.06
555.795	140.06
556.008	124.06
556.221	144.06
556.433	137.06
556.646	132.06
556.859	118.06
557.071	151.06
557.284	146.06
557.496	146.06
557.709	131.06
557.921	131.06
558.134	145.06
558.346	127.06
558.559	141.06
558.771	129.06
558.984	144.06
559.196	137.06
559.409	122.06
559.621	121.06
559.833	126.06
560.046	147.06
560.258	119.06
560.47	120.06
560.683	125.06
560.895	131.06
561.107	122.06
561.32	130.06
561.532	135.06
561.744	133.06
561.956	132.06
562.168	137.06
562.381	125.06
562.593	123.06
562.805	123.06
563.017	115.06
563.229	115.06
563.441	119.06
563.653	115.06
563.865	129.06
564.077	107.06
564.289	123.06
564.501	124.06
564.713	134.06
564.925	124.06
565.137	118.06
565.349	129.06
565.561	113.06
565.773	125.06
565.985	120.06
566.197	107.06
566.408	119.06
566.62	114.06
566.832	138.06
567.044	120.06
567.255	113.06
567.467	118.06
567.679	104.06
567.891	117.06
568.102	113.06
568.314	98.06
568.526	98.06
568.737	105.06
568.949	97.06
569.161	84.06
569.372	86.06
569.584	96.06
569.795	78.06
570.007	88.06
570.218	99.06
570.43	93.06
570.641	82.06
570.853	107.06
571.064	106.06
571.276	98.06
571.487	97.06
571.698	102.06
571.91	109.06
572.121	105.06
572.333	105.06
572.544	89.06
572.755	94.06
572.966	97.06
573.178	91.06
573.389	96.06
573.6	84.06
573.811	94.06
574.023	75.06
574.234	99.06
574.445	85.06
574.656	95.06
574.867	101.06
575.078	93.06
575.289	96.06
575.501	113.06
575.712	87.06
575.923	92.06
576.134	100.06
576.345	115.06
576.556	89.06
576.767	103.06
576.978	98.06
577.188	100.06
577.399	89.06
577.61	102.06
577.821	84.06
578.032	92.06
578.243	91.06
578.454	94.06
578.665	87.06
578.875	91.06
579.086	101.06
579.297	94.06
579.508	103.06
579.718	90.06
579.929	92.06
580.14	83.06
580.35	84.06
580.561	75.06
580.772	103.06
580.982	93.06
581.193	96.06
581.403	94.06
581.614	91.06
581.825	102.06
582.035	95.06
582.246	84.06
582.456	94.06
582.667	92.06
582.877	99.06
583.087	95.06
583.298	95.06
583.508	77.06
583.719	74.06
583.929	108.06
584.139	101.06
584.35	83.06
584.56	97.06
584.77	93.06
584.981	100.06
585.191	85.06
585.401	94.06
585.611	89.06
585.821	84.06
586.032	85.06
586.242	80.06
586.452	77.06
586.662	86.06
586.872	84.06
587.082	90.06
587.292	84.06
587.502	86.06
587.713	90.06
587.923	95.06
588.133	92.06
588.343	78.06
588.553	85.06
588.762	90.06
588.972	92.06
589.182	98.06
589.392	88.06
589.602	78.06
589.812	87.06
590.022	87.06
590.232	87.06
590.441	105.06
590.651	88.06
590.861	61.06
591.071	94.06
591.281	93.06
591.49	88.06
591.7	88.06
591.91	82.06
592.119	82.06
592.329	82.06
592.539	71.06
592.748	97.06
592.958	77.06
593.167	91.06
593.377	79.06
593.587	102.06
593.796	100.06
594.006	86.06
594.215	84.06
594.424	75.06
594.634	82.06
594.843	94.06
595.053	74.06
595.262	84.06
595.472	92.06
595.681	78.06
595.89	90.06
596.1	86.06
596.309	91.06
596.518	96.06
596.727	106.06
596.937	89.06
597.146	99.06
597.355	91.06
597.564	104.06
597.774	97.06
597.983	82.06
598.192	86.06
598.401	81.06
598.61	97.06
598.819	88.06
599.028	93.06
599.237	92.06
599.446	84.06
599.655	98.06
599.864	94.06
600.073	80.06
600.282	98.06
600.491	77.06
600.7	91.06
600.909	91.06
601.118	97.06
601.327	109.06
601.536	112.06
601.745	99.06
601.953	108.06
602.162	114.06
602.371	118.06
602.58	102.06
602.789	95.06
602.997	115.06
603.206	102.06
603.415	131.06
603.623	102.06
603.832	121.06
604.041	104.06
604.249	113.06
604.458	107.06
604.666	91.06
604.875	95.06
605.084	114.06
605.292	114.06
605.501	113.06
605.709	126.06
605.918	104.06
606.126	117.06
606.334	111.06
606.543	120.06
606.751	127.06
606.96	108.06
607.168	127.06
607.376	102.06
607.585	111.06
607.793	104.06
608.001	90.06
608.21	112.06
608.418	120.06
608.626	115.06
608.834	106.06
609.043	113.06
609.251	98.06
609.459	102.06
609.667	123.06
609.875	111.06
610.083	106.06
610.291	110.06
610.499	122.06
610.707	89.06
610.916	108.06
611.124	124.06
611.332	119.06
611.54	105.06
611.748	102.06
611.955	114.06
612.163	102.06
612.371	106.06
612.579	92.06
612.787	110.06
612.995	119.06
613.203	129.06
613.411	114.06
613.618	122.06
613.826	106.06
614.034	102.06
614.242	109.06
614.449	119.06
614.657	111.06
614.865	100.06
615.072	100.06
615.28	102.06
615.488	103.06
615.695	92.06
615.903	103.06
616.111	126.06
616.318	107.06
616.526	117.06
616.733	105.06
616.941	114.06
617.148	104.06
617.356	112.06
617.563	86.06
617.771	117.06
617.978	90.06
618.185	107.06
618.393	105.06
618.6	107.06
618.807	97.06
619.015	110.06
619.222	98.06
619.429	113.06
619.637	93.06
619.844	95.06
620.051	94.06
620.258	112.06
620.466	105.06
620.673	101.06
620.88	107.06
621.087	107.06
621.294	105.06
621.501	106.06
621.708	107.06
621.915	113.06
622.122	107.06
622.329	126.06
622.536	110.06
622.743	123.06
622.95	110.06
623.157	105.06
623.364	103.06
623.571	98.06
623.778	103.06
623.985	108.06
624.192	107.06
624.399	103.06
624.606	108.06
624.812	101.06
625.019	94.06
625.226	109.06
625.433	113.06
625.639	100.06
625.846	96.06
626.053	84.06
626.259	105.06
626.466	90.06
626.673	98.06
626.879	98.06
627.086	91.06
627.293	100.06
627.499	108.06
627.706	99.06
627.912	91.06
628.119	109.06
628.325	109.06
628.532	108.06
628.738	102.06
628.945	111.06
629.151	106.06
629.357	103.06
629.564	105.06
629.77	114.06
629.976	105.06
630.183	108.06
630.389	102.06
630.595	106.06
630.802	107.06
631.008	96.06
631.214	100.06
631.42	97.06
631.627	94.06
631.833	97.06
632.039	107.06
632.245	114.06
632.451	105.06
632.657	94.06
632.863	119.06
633.069	107.06
633.275	105.06
633.481	101.06
633.688	102.06
633.893	95.06
634.099	100.06
634.305	108.06
634.511	113.06
634.717	115.06
634.923	101.06
635.129	88.06
635.335	101.06
635.541	87.06
635.747	100.06
635.952	97.06
636.158	94.06
636.364	98.06
636.57	94.06
636.775	96.06
636.981	105.06
637.187	119.06
637.392	85.06
637.598	104.06
637.804	102.06
638.009	109.06
638.215	114.06
638.421	91.06
638.626	83.06
638.832	106.06
639.037	99.06
639.243	106.06
639.448	105.06
639.654	85.06
639.859	101.06
640.065	113.06
640.27	104.06
640.475	103.06
640.681	108.06
640.886	89.06
641.091	109.06
641.297	113.06
641.502	118.06
641.707	93.06
641.913	113.06
642.118	109.06
642.323	89.06
642.528	118.06
642.733	103.06
642.939	119.06
643.144	93.06
643.349	101.06
643.554	93.06
643.759	106.06
643.964	114.06
644.169	101.06
644.374	93.06
644.579	95.06
644.784	100.06
644.989	106.06
645.194	106.06
645.399	101.06
645.604	103.06
645.809	81.06
646.014	105.06
646.219	96.06
646.423	88.06
646.628	105.06
646.833	110.06
647.038	95.06
647.243	105.06
647.447	109.06
647.652	111.06
647.857	100.06
648.062	91.06
648.266	88.06
648.471	92.06
648.676	109.06
648.88	98.06
649.085	102.06
649.289	90.06
649.494	91.06
649.698	102.06
649.903	106.06
650.107	83.06
650.312	114.06
650.516	102.06
650.721	105.06
650.925	87.06
651.13	98.06
651.334	99.06
651.539	85.06
651.743	97.06
651.947	80.06
652.152	104.06
652.356	94.06
652.56	83.06
652.764	90.06
652.969	98.06
653.173	103.06
653.377	95.06
653.581	104.06
653.785	84.06
653.99	87.06
654.194	86.06
654.398	94.06
654.602	94.06
654.806	100.06
655.01	100.06
655.214	95.06
655.418	93.06
655.622	99.06
655.826	92.06
656.03	101.06
656.234	89.06
656.438	90.06
656.642	82.06
656.846	82.06
657.049	77.06
657.253	87.06
657.457	86.06
657.661	91.06
657.865	89.06
658.068	88.06
658.272	93.06
658.476	87.06
658.68	82.06
658.883	98.06
659.087	87.06
659.291	94.06
659.494	91.06
659.698	87.06
659.901	85.06
660.105	81.06
660.309	83.06
660.512	91.06
660.716	82.06
660.919	88.06
661.123	90.06
661.326	84.06
661.53	92.06
661.733	87.06
661.936	90.06
662.14	97.06
662.343	75.06
662.546	107.06
662.75	78.06
662.953	89.06
663.156	78.06
663.36	85.06
663.563	82.06
663.766	89.06
663.969	86.06
664.173	78.06
664.376	77.06
664.579	76.06
664.782	82.06
664.985	84.06
665.188	92.06
665.391	89.06
665.594	66.06
665.797	67.06
666	103.06
666.203	86.06
666.406	77.06
666.609	85.06
666.812	81.06
667.015	83.06
667.218	87.06
667.421	82.06
667.624	84.06
667.827	82.06
668.03	89.06
668.232	70.06
668.435	91.06
668.638	79.06
668.841	85.06
669.043	81.06
669.246	83.06
669.449	86.06
669.651	85.06
669.854	83.06
670.057	79.06
670.259	94.06
670.462	79.06
670.665	82.06
670.867	92.06
671.07	74.06
671.272	83.06
671.475	77.06
671.677	80.06
671.88	86.06
672.082	73.06
672.284	79.06
672.487	75.06
672.689	75.06
672.892	99.06
