Data from Location4.07152019.Energy5.Lamp.07192019.3%Agarose_HRD10591_16-20-21-926.txt Node
Date: Fri Jul 19 16:20:21 EDT 2019
User: cochatt
Spectrometer: HR+D1059
Trigger mode: 1
Integration Time (sec): 1.000000E-1
Scans to average: 1
Electric dark correction enabled: true
Nonlinearity correction enabled: false
Boxcar width: 0
XAxis mode: Wavelengths
Number of Pixels in Spectrum: 2048
>>>>>Begin Spectral Data<<<<<
223.165	-28.31
223.4	-28.31
223.635	-28.31
223.869	-19.31
224.104	-13.31
224.338	-6.31
224.573	-5.31
224.808	-7.31
225.042	2.69
225.277	-0.31
225.511	-3.31
225.746	0.69
225.98	7.69
226.215	-8.31
226.449	10.69
226.683	20.69
226.918	26.69
227.152	22.69
227.387	44.69
227.621	39.69
227.856	49.69
228.09	49.69
228.324	52.69
228.559	54.69
228.793	44.69
229.027	56.69
229.262	69.69
229.496	54.69
229.73	68.69
229.964	74.69
230.199	61.69
230.433	58.69
230.667	89.69
230.901	83.69
231.136	80.69
231.37	66.69
231.604	63.69
231.838	85.69
232.072	87.69
232.306	85.69
232.541	73.69
232.775	81.69
233.009	93.69
233.243	81.69
233.477	84.69
233.711	96.69
233.945	80.69
234.179	90.69
234.413	95.69
234.647	64.69
234.881	77.69
235.115	77.69
235.349	77.69
235.583	66.69
235.817	83.69
236.051	78.69
236.285	85.69
236.519	81.69
236.753	86.69
236.987	86.69
237.221	70.69
237.455	73.69
237.689	76.69
237.922	66.69
238.156	78.69
238.39	82.69
238.624	71.69
238.858	76.69
239.091	92.69
239.325	74.69
239.559	70.69
239.793	68.69
240.027	75.69
240.26	73.69
240.494	64.69
240.728	82.69
240.961	83.69
241.195	82.69
241.429	81.69
241.662	70.69
241.896	76.69
242.13	78.69
242.363	77.69
242.597	59.69
242.83	65.69
243.064	68.69
243.298	75.69
243.531	75.69
243.765	82.69
243.998	79.69
244.232	74.69
244.465	78.69
244.699	78.69
244.932	76.69
245.166	71.69
245.399	75.69
245.633	83.69
245.866	86.69
246.099	76.69
246.333	78.69
246.566	80.69
246.8	92.69
247.033	78.69
247.266	82.69
247.5	89.69
247.733	75.69
247.966	78.69
248.2	77.69
248.433	79.69
248.666	77.69
248.899	81.69
249.133	60.69
249.366	75.69
249.599	80.69
249.832	85.69
250.066	80.69
250.299	67.69
250.532	78.69
250.765	81.69
250.998	82.69
251.231	83.69
251.465	78.69
251.698	81.69
251.931	90.69
252.164	86.69
252.397	81.69
252.63	82.69
252.863	75.69
253.096	85.69
253.329	82.69
253.562	70.69
253.795	94.69
254.028	72.69
254.261	77.69
254.494	79.69
254.727	82.69
254.96	83.69
255.193	83.69
255.426	73.69
255.659	74.69
255.892	95.69
256.124	69.69
256.357	74.69
256.59	76.69
256.823	78.69
257.056	75.69
257.289	66.69
257.521	71.69
257.754	74.69
257.987	68.69
258.22	76.69
258.452	72.69
258.685	76.69
258.918	89.69
259.151	78.69
259.383	75.69
259.616	78.69
259.849	68.69
260.081	95.69
260.314	90.69
260.547	91.69
260.779	91.69
261.012	69.69
261.244	70.69
261.477	97.69
261.71	90.69
261.942	71.69
262.175	82.69
262.407	85.69
262.64	93.69
262.872	84.69
263.105	90.69
263.337	101.69
263.57	84.69
263.802	86.69
264.035	77.69
264.267	92.69
264.499	86.69
264.732	71.69
264.964	97.69
265.197	77.69
265.429	81.69
265.661	79.69
265.894	84.69
266.126	100.69
266.358	72.69
266.591	81.69
266.823	87.69
267.055	86.69
267.287	78.69
267.52	81.69
267.752	87.69
267.984	82.69
268.216	99.69
268.448	98.69
268.681	90.69
268.913	92.69
269.145	78.69
269.377	76.69
269.609	74.69
269.841	82.69
270.073	93.69
270.306	89.69
270.538	89.69
270.77	95.69
271.002	84.69
271.234	77.69
271.466	99.69
271.698	84.69
271.93	92.69
272.162	78.69
272.394	87.69
272.626	83.69
272.858	76.69
273.09	86.69
273.322	73.69
273.553	85.69
273.785	104.69
274.017	75.69
274.249	85.69
274.481	82.69
274.713	89.69
274.945	93.69
275.176	83.69
275.408	84.69
275.64	78.69
275.872	76.69
276.104	87.69
276.335	88.69
276.567	72.69
276.799	74.69
277.031	71.69
277.262	85.69
277.494	99.69
277.726	77.69
277.957	91.69
278.189	84.69
278.421	86.69
278.652	84.69
278.884	90.69
279.115	81.69
279.347	75.69
279.579	81.69
279.81	87.69
280.042	82.69
280.273	81.69
280.505	82.69
280.736	96.69
280.968	96.69
281.199	75.69
281.431	84.69
281.662	79.69
281.894	95.69
282.125	96.69
282.356	78.69
282.588	68.69
282.819	97.69
283.051	80.69
283.282	86.69
283.513	91.69
283.745	92.69
283.976	78.69
284.207	76.69
284.439	82.69
284.67	100.69
284.901	98.69
285.132	86.69
285.364	72.69
285.595	80.69
285.826	86.69
286.057	88.69
286.288	85.69
286.52	83.69
286.751	93.69
286.982	97.69
287.213	84.69
287.444	83.69
287.675	93.69
287.906	73.69
288.138	85.69
288.369	72.69
288.6	85.69
288.831	79.69
289.062	90.69
289.293	94.69
289.524	99.69
289.755	93.69
289.986	78.69
290.217	105.69
290.448	85.69
290.679	78.69
290.91	80.69
291.141	90.69
291.371	98.69
291.602	87.69
291.833	88.69
292.064	75.69
292.295	76.69
292.526	97.69
292.757	88.69
292.987	94.69
293.218	81.69
293.449	82.69
293.68	93.69
293.91	94.69
294.141	87.69
294.372	69.69
294.603	82.69
294.833	75.69
295.064	72.69
295.295	98.69
295.525	77.69
295.756	84.69
295.987	89.69
296.217	78.69
296.448	92.69
296.679	91.69
296.909	82.69
297.14	70.69
297.37	100.69
297.601	83.69
297.831	84.69
298.062	75.69
298.292	82.69
298.523	70.69
298.753	78.69
298.984	89.69
299.214	85.69
299.445	83.69
299.675	104.69
299.905	97.69
300.136	97.69
300.366	90.69
300.597	71.69
300.827	83.69
301.057	75.69
301.288	94.69
301.518	91.69
301.748	94.69
301.979	85.69
302.209	81.69
302.439	80.69
302.669	85.69
302.9	81.69
303.13	98.69
303.36	80.69
303.59	71.69
303.82	77.69
304.051	84.69
304.281	84.69
304.511	87.69
304.741	82.69
304.971	85.69
305.201	102.69
305.431	85.69
305.661	72.69
305.891	85.69
306.121	82.69
306.352	78.69
306.582	89.69
306.812	82.69
307.042	83.69
307.272	90.69
307.502	83.69
307.731	79.69
307.961	87.69
308.191	75.69
308.421	79.69
308.651	79.69
308.881	85.69
309.111	78.69
309.341	81.69
309.571	81.69
309.8	91.69
310.03	79.69
310.26	76.69
310.49	75.69
310.72	94.69
310.949	101.69
311.179	92.69
311.409	78.69
311.639	86.69
311.868	77.69
312.098	90.69
312.328	84.69
312.557	71.69
312.787	96.69
313.017	82.69
313.246	100.69
313.476	72.69
313.706	85.69
313.935	88.69
314.165	90.69
314.394	82.69
314.624	95.69
314.853	86.69
315.083	75.69
315.312	84.69
315.542	88.69
315.771	83.69
316.001	77.69
316.23	81.69
316.46	88.69
316.689	91.69
316.919	73.69
317.148	77.69
317.377	85.69
317.607	83.69
317.836	80.69
318.065	80.69
318.295	98.69
318.524	94.69
318.753	87.69
318.983	102.69
319.212	81.69
319.441	85.69
319.67	96.69
319.9	75.69
320.129	78.69
320.358	91.69
320.587	90.69
320.816	88.69
321.046	76.69
321.275	88.69
321.504	75.69
321.733	94.69
321.962	102.69
322.191	77.69
322.42	77.69
322.649	90.69
322.878	100.69
323.108	85.69
323.337	89.69
323.566	81.69
323.795	92.69
324.024	86.69
324.253	88.69
324.482	91.69
324.71	78.69
324.939	74.69
325.168	87.69
325.397	90.69
325.626	101.69
325.855	98.69
326.084	92.69
326.313	86.69
326.542	92.69
326.77	90.69
326.999	85.69
327.228	75.69
327.457	83.69
327.686	83.69
327.914	96.69
328.143	80.69
328.372	102.69
328.6	89.69
328.829	92.69
329.058	75.69
329.287	96.69
329.515	105.69
329.744	84.69
329.972	91.69
330.201	91.69
330.43	89.69
330.658	92.69
330.887	85.69
331.115	97.69
331.344	84.69
331.572	83.69
331.801	76.69
332.03	86.69
332.258	88.69
332.486	84.69
332.715	75.69
332.943	84.69
333.172	81.69
333.4	99.69
333.629	82.69
333.857	76.69
334.085	80.69
334.314	84.69
334.542	74.69
334.771	78.69
334.999	92.69
335.227	80.69
335.455	79.69
335.684	100.69
335.912	100.69
336.14	82.69
336.369	72.69
336.597	90.69
336.825	91.69
337.053	95.69
337.281	80.69
337.51	85.69
337.738	108.69
337.966	61.69
338.194	91.69
338.422	74.69
338.65	85.69
338.878	91.69
339.106	85.69
339.334	93.69
339.562	88.69
339.79	85.69
340.018	91.69
340.246	88.69
340.474	90.69
340.702	77.69
340.93	101.69
341.158	83.69
341.386	74.69
341.614	90.69
341.842	84.69
342.07	83.69
342.298	75.69
342.526	87.69
342.754	96.69
342.981	91.69
343.209	80.69
343.437	89.69
343.665	86.69
343.893	85.69
344.12	86.69
344.348	87.69
344.576	81.69
344.804	86.69
345.031	78.69
345.259	85.69
345.487	93.69
345.714	100.69
345.942	88.69
346.17	92.69
346.397	90.69
346.625	83.69
346.853	74.69
347.08	84.69
347.308	96.69
347.535	90.69
347.763	88.69
347.99	80.69
348.218	86.69
348.445	78.69
348.673	91.69
348.9	101.69
349.128	100.69
349.355	86.69
349.583	85.69
349.81	88.69
350.037	87.69
350.265	70.69
350.492	94.69
350.72	93.69
350.947	75.69
351.174	69.69
351.402	79.69
351.629	85.69
351.856	91.69
352.083	83.69
352.311	79.69
352.538	84.69
352.765	83.69
352.992	86.69
353.22	67.69
353.447	82.69
353.674	88.69
353.901	86.69
354.128	82.69
354.355	93.69
354.583	92.69
354.81	72.69
355.037	83.69
355.264	80.69
355.491	99.69
355.718	84.69
355.945	85.69
356.172	81.69
356.399	77.69
356.626	87.69
356.853	88.69
357.08	97.69
357.307	98.69
357.534	68.69
357.761	74.69
357.988	83.69
358.215	85.69
358.441	84.69
358.668	87.69
358.895	81.69
359.122	90.69
359.349	76.69
359.576	88.69
359.802	94.69
360.029	76.69
360.256	81.69
360.483	80.69
360.709	85.69
360.936	89.69
361.163	89.69
361.39	85.69
361.616	86.69
361.843	80.69
362.07	90.69
362.296	83.69
362.523	76.69
362.749	64.69
362.976	84.69
363.203	85.69
363.429	84.69
363.656	87.69
363.882	88.69
364.109	78.69
364.335	85.69
364.562	88.69
364.788	73.69
365.015	74.69
365.241	85.69
365.468	78.69
365.694	90.69
365.92	97.69
366.147	86.69
366.373	91.69
366.599	77.69
366.826	88.69
367.052	80.69
367.278	87.69
367.505	84.69
367.731	87.69
367.957	85.69
368.184	86.69
368.41	99.69
368.636	95.69
368.862	90.69
369.089	93.69
369.315	79.69
369.541	109.69
369.767	87.69
369.993	100.69
370.219	91.69
370.445	99.69
370.672	97.69
370.898	86.69
371.124	88.69
371.35	89.69
371.576	83.69
371.802	87.69
372.028	90.69
372.254	98.69
372.48	86.69
372.706	112.69
372.932	86.69
373.158	93.69
373.384	94.69
373.61	89.69
373.835	83.69
374.061	96.69
374.287	96.69
374.513	86.69
374.739	98.69
374.965	107.69
375.191	94.69
375.416	93.69
375.642	85.69
375.868	98.69
376.094	93.69
376.319	92.69
376.545	89.69
376.771	88.69
376.997	105.69
377.222	96.69
377.448	93.69
377.674	88.69
377.899	100.69
378.125	93.69
378.35	74.69
378.576	97.69
378.802	93.69
379.027	100.69
379.253	96.69
379.478	88.69
379.704	85.69
379.929	82.69
380.155	84.69
380.38	93.69
380.606	72.69
380.831	90.69
381.057	91.69
381.282	100.69
381.507	93.69
381.733	109.69
381.958	106.69
382.184	103.69
382.409	101.69
382.634	103.69
382.86	90.69
383.085	100.69
383.31	110.69
383.535	108.69
383.761	108.69
383.986	101.69
384.211	110.69
384.436	89.69
384.662	101.69
384.887	85.69
385.112	102.69
385.337	99.69
385.562	111.69
385.787	106.69
386.013	110.69
386.238	90.69
386.463	92.69
386.688	97.69
386.913	106.69
387.138	99.69
387.363	80.69
387.588	101.69
387.813	92.69
388.038	92.69
388.263	80.69
388.488	93.69
388.713	109.69
388.938	95.69
389.163	90.69
389.387	93.69
389.612	115.69
389.837	105.69
390.062	92.69
390.287	106.69
390.512	100.69
390.736	99.69
390.961	102.69
391.186	89.69
391.411	100.69
391.636	104.69
391.86	95.69
392.085	105.69
392.31	95.69
392.534	105.69
392.759	93.69
392.984	98.69
393.208	105.69
393.433	101.69
393.658	91.69
393.882	93.69
394.107	96.69
394.331	109.69
394.556	107.69
394.78	112.69
395.005	114.69
395.229	120.69
395.454	113.69
395.678	118.69
395.903	106.69
396.127	96.69
396.352	107.69
396.576	107.69
396.801	107.69
397.025	102.69
397.249	120.69
397.474	106.69
397.698	110.69
397.922	112.69
398.147	107.69
398.371	100.69
398.595	99.69
398.82	94.69
399.044	101.69
399.268	101.69
399.492	106.69
399.717	117.69
399.941	114.69
400.165	115.69
400.389	104.69
400.613	126.69
400.837	109.69
401.062	105.69
401.286	116.69
401.51	99.69
401.734	101.69
401.958	114.69
402.182	112.69
402.406	111.69
402.63	104.69
402.854	89.69
403.078	115.69
403.302	116.69
403.526	110.69
403.75	103.69
403.974	107.69
404.198	118.69
404.422	112.69
404.645	100.69
404.869	125.69
405.093	118.69
405.317	119.69
405.541	124.69
405.765	118.69
405.988	120.69
406.212	114.69
406.436	132.69
406.66	93.69
406.883	122.69
407.107	121.69
407.331	109.69
407.555	109.69
407.778	118.69
408.002	112.69
408.226	118.69
408.449	116.69
408.673	112.69
408.896	131.69
409.12	107.69
409.344	118.69
409.567	108.69
409.791	116.69
410.014	114.69
410.238	118.69
410.461	123.69
410.685	124.69
410.908	129.69
411.132	117.69
411.355	113.69
411.578	118.69
411.802	121.69
412.025	99.69
412.249	124.69
412.472	123.69
412.695	126.69
412.919	125.69
413.142	116.69
413.365	109.69
413.589	115.69
413.812	108.69
414.035	128.69
414.258	114.69
414.482	121.69
414.705	114.69
414.928	134.69
415.151	132.69
415.374	114.69
415.597	97.69
415.821	128.69
416.044	127.69
416.267	128.69
416.49	136.69
416.713	133.69
416.936	132.69
417.159	116.69
417.382	121.69
417.605	121.69
417.828	125.69
418.051	123.69
418.274	114.69
418.497	125.69
418.72	129.69
418.943	126.69
419.166	145.69
419.389	134.69
419.611	139.69
419.834	126.69
420.057	136.69
420.28	142.69
420.503	136.69
420.726	125.69
420.948	122.69
421.171	136.69
421.394	137.69
421.617	136.69
421.839	137.69
422.062	134.69
422.285	133.69
422.507	142.69
422.73	138.69
422.953	124.69
423.175	122.69
423.398	130.69
423.621	121.69
423.843	121.69
424.066	122.69
424.288	133.69
424.511	130.69
424.733	138.69
424.956	130.69
425.178	136.69
425.401	133.69
425.623	129.69
425.846	137.69
426.068	121.69
426.291	122.69
426.513	117.69
426.735	120.69
426.958	130.69
427.18	121.69
427.402	118.69
427.625	114.69
427.847	129.69
428.069	141.69
428.292	141.69
428.514	125.69
428.736	119.69
428.958	129.69
429.181	126.69
429.403	130.69
429.625	121.69
429.847	133.69
430.069	129.69
430.292	130.69
430.514	137.69
430.736	124.69
430.958	121.69
431.18	113.69
431.402	122.69
431.624	124.69
431.846	124.69
432.068	88.69
432.29	99.69
432.512	107.69
432.734	122.69
432.956	124.69
433.178	136.69
433.4	124.69
433.622	133.69
433.844	127.69
434.066	129.69
434.287	103.69
434.509	86.69
434.731	96.69
434.953	113.69
435.175	120.69
435.397	132.69
435.618	121.69
435.84	115.69
436.062	122.69
436.284	120.69
436.505	122.69
436.727	120.69
436.949	128.69
437.17	141.69
437.392	128.69
437.614	123.69
437.835	116.69
438.057	117.69
438.278	106.69
438.5	139.69
438.721	112.69
438.943	130.69
439.165	131.69
439.386	145.69
439.608	141.69
439.829	131.69
440.05	147.69
440.272	138.69
440.493	147.69
440.715	130.69
440.936	146.69
441.158	113.69
441.379	136.69
441.6	148.69
441.822	150.69
442.043	143.69
442.264	157.69
442.486	143.69
442.707	140.69
442.928	131.69
443.149	127.69
443.371	136.69
443.592	138.69
443.813	133.69
444.034	139.69
444.255	128.69
444.476	133.69
444.698	153.69
444.919	150.69
445.14	273.69
445.361	200.69
445.582	155.69
445.803	132.69
446.024	156.69
446.245	141.69
446.466	160.69
446.687	156.69
446.908	160.69
447.129	138.69
447.35	147.69
447.571	153.69
447.792	140.69
448.013	133.69
448.234	147.69
448.455	140.69
448.675	143.69
448.896	140.69
449.117	140.69
449.338	129.69
449.559	143.69
449.779	124.69
450	138.69
450.221	123.69
450.442	143.69
450.662	124.69
450.883	140.69
451.104	129.69
451.324	123.69
451.545	124.69
451.766	134.69
451.986	122.69
452.207	107.69
452.428	133.69
452.648	123.69
452.869	118.69
453.089	123.69
453.31	110.69
453.53	108.69
453.751	106.69
453.971	105.69
454.192	110.69
454.412	116.69
454.633	123.69
454.853	126.69
455.073	114.69
455.294	115.69
455.514	128.69
455.734	112.69
455.955	113.69
456.175	113.69
456.395	125.69
456.616	97.69
456.836	116.69
457.056	114.69
457.276	100.69
457.497	94.69
457.717	97.69
457.937	113.69
458.157	101.69
458.377	111.69
458.598	120.69
458.818	104.69
459.038	91.69
459.258	90.69
459.478	93.69
459.698	100.69
459.918	108.69
460.138	103.69
460.358	112.69
460.578	114.69
460.798	107.69
461.018	123.69
461.238	124.69
461.458	122.69
461.678	124.69
461.898	120.69
462.118	112.69
462.338	106.69
462.558	116.69
462.777	99.69
462.997	109.69
463.217	112.69
463.437	92.69
463.657	114.69
463.876	123.69
464.096	98.69
464.316	100.69
464.536	105.69
464.755	92.69
464.975	125.69
465.195	122.69
465.414	108.69
465.634	107.69
465.854	124.69
466.073	123.69
466.293	112.69
466.512	107.69
466.732	128.69
466.951	126.69
467.171	141.69
467.391	140.69
467.61	137.69
467.829	135.69
468.049	120.69
468.268	139.69
468.488	138.69
468.707	134.69
468.927	134.69
469.146	138.69
469.365	142.69
469.585	140.69
469.804	130.69
470.023	155.69
470.243	130.69
470.462	142.69
470.681	137.69
470.901	144.69
471.12	126.69
471.339	136.69
471.558	140.69
471.777	123.69
471.997	130.69
472.216	122.69
472.435	124.69
472.654	98.69
472.873	96.69
473.092	119.69
473.311	124.69
473.53	138.69
473.749	120.69
473.968	132.69
474.187	119.69
474.406	113.69
474.625	120.69
474.844	134.69
475.063	128.69
475.282	117.69
475.501	122.69
475.72	124.69
475.939	120.69
476.158	129.69
476.377	121.69
476.596	122.69
476.814	128.69
477.033	118.69
477.252	116.69
477.471	109.69
477.69	146.69
477.908	138.69
478.127	138.69
478.346	118.69
478.564	132.69
478.783	140.69
479.002	138.69
479.22	132.69
479.439	122.69
479.658	131.69
479.876	131.69
480.095	103.69
480.313	124.69
480.532	110.69
480.751	105.69
480.969	97.69
481.188	100.69
481.406	90.69
481.624	84.69
481.843	83.69
482.061	90.69
482.28	112.69
482.498	128.69
482.717	113.69
482.935	129.69
483.153	138.69
483.372	149.69
483.59	148.69
483.808	132.69
484.027	134.69
484.245	128.69
484.463	155.69
484.681	161.69
484.9	158.69
485.118	130.69
485.336	136.69
485.554	114.69
485.772	102.69
485.99	112.69
486.209	141.69
486.427	120.69
486.645	108.69
486.863	131.69
487.081	140.69
487.299	127.69
487.517	143.69
487.735	165.69
487.953	180.69
488.171	172.69
488.389	167.69
488.607	156.69
488.825	145.69
489.043	142.69
489.261	146.69
489.479	142.69
489.696	142.69
489.914	146.69
490.132	123.69
490.35	163.69
490.568	154.69
490.786	160.69
491.003	182.69
491.221	158.69
491.439	167.69
491.657	178.69
491.874	198.69
492.092	201.69
492.31	229.69
492.527	233.69
492.745	212.69
492.963	197.69
493.18	190.69
493.398	178.69
493.615	180.69
493.833	178.69
494.05	172.69
494.268	178.69
494.485	171.69
494.703	162.69
494.92	160.69
495.138	174.69
495.355	164.69
495.573	162.69
495.79	166.69
496.008	165.69
496.225	156.69
496.442	168.69
496.66	157.69
496.877	163.69
497.094	155.69
497.312	154.69
497.529	168.69
497.746	142.69
497.963	136.69
498.181	128.69
498.398	123.69
498.615	117.69
498.832	108.69
499.049	112.69
499.267	114.69
499.484	130.69
499.701	144.69
499.918	123.69
500.135	135.69
500.352	144.69
500.569	136.69
500.786	146.69
501.003	152.69
501.22	142.69
501.437	136.69
501.654	130.69
501.871	120.69
502.088	124.69
502.305	123.69
502.522	120.69
502.739	114.69
502.956	118.69
503.172	137.69
503.389	118.69
503.606	103.69
503.823	114.69
504.04	118.69
504.256	116.69
504.473	123.69
504.69	123.69
504.907	119.69
505.123	124.69
505.34	120.69
505.557	114.69
505.773	117.69
505.99	105.69
506.207	108.69
506.423	109.69
506.64	110.69
506.856	118.69
507.073	104.69
507.289	116.69
507.506	121.69
507.722	107.69
507.939	101.69
508.155	121.69
508.372	105.69
508.588	122.69
508.805	118.69
509.021	101.69
509.238	116.69
509.454	124.69
509.67	109.69
509.887	101.69
510.103	92.69
510.319	98.69
510.536	96.69
510.752	108.69
510.968	105.69
511.184	99.69
511.401	90.69
511.617	81.69
511.833	74.69
512.049	95.69
512.265	93.69
512.481	105.69
512.698	93.69
512.914	87.69
513.13	86.69
513.346	97.69
513.562	88.69
513.778	88.69
513.994	91.69
514.21	90.69
514.426	99.69
514.642	98.69
514.858	96.69
515.074	84.69
515.29	93.69
515.506	93.69
515.721	84.69
515.937	93.69
516.153	84.69
516.369	97.69
516.585	105.69
516.801	91.69
517.016	85.69
517.232	80.69
517.448	90.69
517.664	102.69
517.879	92.69
518.095	96.69
518.311	96.69
518.527	101.69
518.742	89.69
518.958	101.69
519.173	108.69
519.389	102.69
519.605	113.69
519.82	98.69
520.036	114.69
520.251	89.69
520.467	114.69
520.682	96.69
520.898	84.69
521.113	99.69
521.329	76.69
521.544	96.69
521.76	94.69
521.975	103.69
522.19	96.69
522.406	96.69
522.621	94.69
522.836	94.69
523.052	105.69
523.267	119.69
523.482	117.69
523.698	104.69
523.913	110.69
524.128	106.69
524.343	114.69
524.559	117.69
524.774	118.69
524.989	123.69
525.204	100.69
525.419	106.69
525.634	104.69
525.849	103.69
526.064	101.69
526.28	92.69
526.495	77.69
526.71	88.69
526.925	86.69
527.14	89.69
527.355	100.69
527.57	97.69
527.785	85.69
527.999	98.69
528.214	105.69
528.429	100.69
528.644	132.69
528.859	123.69
529.074	131.69
529.289	160.69
529.503	141.69
529.718	146.69
529.933	109.69
530.148	104.69
530.363	109.69
530.577	101.69
530.792	92.69
531.007	91.69
531.221	87.69
531.436	80.69
531.651	79.69
531.865	93.69
532.08	81.69
532.295	91.69
532.509	90.69
532.724	89.69
532.938	83.69
533.153	97.69
533.367	105.69
533.582	124.69
533.796	131.69
534.011	120.69
534.225	97.69
534.44	86.69
534.654	87.69
534.868	104.69
535.083	99.69
535.297	112.69
535.511	120.69
535.726	108.69
535.94	102.69
536.154	101.69
536.369	100.69
536.583	92.69
536.797	82.69
537.011	98.69
537.225	73.69
537.44	99.69
537.654	99.69
537.868	104.69
538.082	99.69
538.296	91.69
538.51	103.69
538.724	113.69
538.938	118.69
539.153	130.69
539.367	124.69
539.581	125.69
539.795	107.69
540.009	94.69
540.222	104.69
540.436	104.69
540.65	133.69
540.864	128.69
541.078	139.69
541.292	132.69
541.506	153.69
541.72	169.69
541.934	182.69
542.147	183.69
542.361	180.69
542.575	169.69
542.789	148.69
543.002	130.69
543.216	140.69
543.43	141.69
543.644	114.69
543.857	160.69
544.071	166.69
544.285	156.69
544.498	160.69
544.712	149.69
544.925	156.69
545.139	137.69
545.352	143.69
545.566	148.69
545.779	164.69
545.993	162.69
546.206	154.69
546.42	167.69
546.633	161.69
546.847	160.69
547.06	167.69
547.274	173.69
547.487	174.69
547.7	176.69
547.914	170.69
548.127	152.69
548.34	150.69
548.554	147.69
548.767	141.69
548.98	163.69
549.193	156.69
549.407	157.69
549.62	167.69
549.833	148.69
550.046	140.69
550.259	154.69
550.473	155.69
550.686	151.69
550.899	143.69
551.112	146.69
551.325	146.69
551.538	125.69
551.751	134.69
551.964	114.69
552.177	124.69
552.39	137.69
552.603	140.69
552.816	148.69
553.029	146.69
553.242	145.69
553.455	154.69
553.667	160.69
553.88	148.69
554.093	151.69
554.306	146.69
554.519	157.69
554.732	137.69
554.944	127.69
555.157	156.69
555.37	141.69
555.583	141.69
555.795	145.69
556.008	141.69
556.221	127.69
556.433	127.69
556.646	131.69
556.859	126.69
557.071	134.69
557.284	131.69
557.496	138.69
557.709	130.69
557.921	135.69
558.134	142.69
558.346	148.69
558.559	131.69
558.771	137.69
558.984	136.69
559.196	126.69
559.409	142.69
559.621	129.69
559.833	138.69
560.046	125.69
560.258	110.69
560.47	132.69
560.683	134.69
560.895	125.69
561.107	129.69
561.32	132.69
561.532	136.69
561.744	141.69
561.956	128.69
562.168	130.69
562.381	140.69
562.593	136.69
562.805	119.69
563.017	138.69
563.229	117.69
563.441	113.69
563.653	124.69
563.865	126.69
564.077	131.69
564.289	124.69
564.501	118.69
564.713	121.69
564.925	122.69
565.137	112.69
565.349	123.69
565.561	129.69
565.773	105.69
565.985	104.69
566.197	120.69
566.408	106.69
566.62	118.69
566.832	101.69
567.044	112.69
567.255	106.69
567.467	120.69
567.679	107.69
567.891	103.69
568.102	105.69
568.314	88.69
568.526	99.69
568.737	105.69
568.949	93.69
569.161	100.69
569.372	86.69
569.584	84.69
569.795	74.69
570.007	76.69
570.218	87.69
570.43	78.69
570.641	91.69
570.853	98.69
571.064	116.69
571.276	98.69
571.487	100.69
571.698	104.69
571.91	105.69
572.121	102.69
572.333	102.69
572.544	93.69
572.755	94.69
572.966	76.69
573.178	104.69
573.389	88.69
573.6	93.69
573.811	94.69
574.023	91.69
574.234	86.69
574.445	91.69
574.656	82.69
574.867	91.69
575.078	92.69
575.289	86.69
575.501	97.69
575.712	102.69
575.923	89.69
576.134	96.69
576.345	92.69
576.556	98.69
576.767	106.69
576.978	111.69
577.188	99.69
577.399	93.69
577.61	84.69
577.821	94.69
578.032	93.69
578.243	91.69
578.454	96.69
578.665	82.69
578.875	80.69
579.086	98.69
579.297	74.69
579.508	88.69
579.718	98.69
579.929	78.69
580.14	87.69
580.35	83.69
580.561	88.69
580.772	94.69
580.982	96.69
581.193	98.69
581.403	106.69
581.614	93.69
581.825	93.69
582.035	91.69
582.246	96.69
582.456	95.69
582.667	91.69
582.877	91.69
583.087	103.69
583.298	92.69
583.508	85.69
583.719	85.69
583.929	105.69
584.139	81.69
584.35	93.69
584.56	86.69
584.77	104.69
584.981	82.69
585.191	90.69
585.401	96.69
585.611	96.69
585.821	82.69
586.032	94.69
586.242	96.69
586.452	94.69
586.662	82.69
586.872	81.69
587.082	65.69
587.292	80.69
587.502	86.69
587.713	80.69
587.923	80.69
588.133	74.69
588.343	77.69
588.553	68.69
588.762	84.69
588.972	81.69
589.182	74.69
589.392	93.69
589.602	85.69
589.812	92.69
590.022	95.69
590.232	89.69
590.441	85.69
590.651	98.69
590.861	86.69
591.071	93.69
591.281	100.69
591.49	72.69
591.7	85.69
591.91	84.69
592.119	83.69
592.329	78.69
592.539	87.69
592.748	86.69
592.958	79.69
593.167	73.69
593.377	86.69
593.587	108.69
593.796	94.69
594.006	85.69
594.215	89.69
594.424	80.69
594.634	85.69
594.843	74.69
595.053	89.69
595.262	73.69
595.472	85.69
595.681	88.69
595.89	83.69
596.1	77.69
596.309	98.69
596.518	97.69
596.727	96.69
596.937	109.69
597.146	97.69
597.355	88.69
597.564	81.69
597.774	104.69
597.983	99.69
598.192	89.69
598.401	87.69
598.61	88.69
598.819	98.69
599.028	98.69
599.237	93.69
599.446	83.69
599.655	82.69
599.864	90.69
600.073	81.69
600.282	93.69
600.491	90.69
600.7	74.69
600.909	108.69
601.118	101.69
601.327	94.69
601.536	98.69
601.745	110.69
601.953	93.69
602.162	105.69
602.371	90.69
602.58	105.69
602.789	100.69
602.997	109.69
603.206	102.69
603.415	99.69
603.623	117.69
603.832	104.69
604.041	104.69
604.249	101.69
604.458	99.69
604.666	96.69
604.875	88.69
605.084	110.69
605.292	109.69
605.501	109.69
605.709	115.69
605.918	112.69
606.126	117.69
606.334	114.69
606.543	116.69
606.751	105.69
606.96	134.69
607.168	127.69
607.376	108.69
607.585	114.69
607.793	107.69
608.001	103.69
608.21	115.69
608.418	124.69
608.626	107.69
608.834	114.69
609.043	80.69
609.251	104.69
609.459	105.69
609.667	125.69
609.875	126.69
610.083	122.69
610.291	113.69
610.499	116.69
610.707	118.69
610.916	110.69
611.124	112.69
611.332	118.69
611.54	98.69
611.748	119.69
611.955	116.69
612.163	120.69
612.371	99.69
612.579	120.69
612.787	117.69
612.995	103.69
613.203	114.69
613.411	116.69
613.618	106.69
613.826	98.69
614.034	124.69
614.242	112.69
614.449	107.69
614.657	115.69
614.865	110.69
615.072	117.69
615.28	110.69
615.488	124.69
615.695	110.69
615.903	126.69
616.111	104.69
616.318	113.69
616.526	120.69
616.733	112.69
616.941	109.69
617.148	124.69
617.356	107.69
617.563	100.69
617.771	119.69
617.978	94.69
618.185	94.69
618.393	111.69
618.6	118.69
618.807	101.69
619.015	110.69
619.222	117.69
619.429	109.69
619.637	105.69
619.844	90.69
620.051	108.69
620.258	107.69
620.466	96.69
620.673	111.69
620.88	105.69
621.087	116.69
621.294	105.69
621.501	107.69
621.708	105.69
621.915	119.69
622.122	103.69
622.329	106.69
622.536	125.69
622.743	93.69
622.95	109.69
623.157	104.69
623.364	104.69
623.571	100.69
623.778	112.69
623.985	114.69
624.192	116.69
624.399	108.69
624.606	106.69
624.812	100.69
625.019	101.69
625.226	99.69
625.433	96.69
625.639	99.69
625.846	110.69
626.053	108.69
626.259	102.69
626.466	82.69
626.673	96.69
626.879	97.69
627.086	81.69
627.293	95.69
627.499	93.69
627.706	94.69
627.912	109.69
628.119	110.69
628.325	103.69
628.532	101.69
628.738	107.69
628.945	115.69
629.151	101.69
629.357	102.69
629.564	97.69
629.77	98.69
629.976	98.69
630.183	104.69
630.389	92.69
630.595	106.69
630.802	112.69
631.008	96.69
631.214	100.69
631.42	106.69
631.627	110.69
631.833	99.69
632.039	96.69
632.245	90.69
632.451	109.69
632.657	113.69
632.863	86.69
633.069	101.69
633.275	94.69
633.481	99.69
633.688	108.69
633.893	100.69
634.099	99.69
634.305	111.69
634.511	98.69
634.717	93.69
634.923	101.69
635.129	90.69
635.335	96.69
635.541	77.69
635.747	96.69
635.952	110.69
636.158	117.69
636.364	103.69
636.57	96.69
636.775	108.69
636.981	100.69
637.187	98.69
637.392	105.69
637.598	91.69
637.804	100.69
638.009	97.69
638.215	97.69
638.421	99.69
638.626	104.69
638.832	96.69
639.037	96.69
639.243	91.69
639.448	97.69
639.654	101.69
639.859	105.69
640.065	93.69
640.27	107.69
640.475	100.69
640.681	83.69
640.886	96.69
641.091	117.69
641.297	92.69
641.502	84.69
641.707	110.69
641.913	101.69
642.118	98.69
642.323	113.69
642.528	92.69
642.733	116.69
642.939	86.69
643.144	88.69
643.349	103.69
643.554	111.69
643.759	125.69
643.964	106.69
644.169	103.69
644.374	100.69
644.579	100.69
644.784	101.69
644.989	98.69
645.194	105.69
645.399	102.69
645.604	103.69
645.809	97.69
646.014	84.69
646.219	100.69
646.423	109.69
646.628	90.69
646.833	108.69
647.038	88.69
647.243	98.69
647.447	102.69
647.652	95.69
647.857	91.69
648.062	101.69
648.266	101.69
648.471	108.69
648.676	106.69
648.88	101.69
649.085	103.69
649.289	99.69
649.494	94.69
649.698	105.69
649.903	97.69
650.107	104.69
650.312	102.69
650.516	98.69
650.721	102.69
650.925	92.69
651.13	97.69
651.334	95.69
651.539	94.69
651.743	92.69
651.947	94.69
652.152	104.69
652.356	101.69
652.56	98.69
652.764	116.69
652.969	99.69
653.173	91.69
653.377	89.69
653.581	88.69
653.785	90.69
653.99	90.69
654.194	92.69
654.398	85.69
654.602	89.69
654.806	100.69
655.01	95.69
655.214	87.69
655.418	90.69
655.622	106.69
655.826	84.69
656.03	84.69
656.234	101.69
656.438	82.69
656.642	96.69
656.846	101.69
657.049	96.69
657.253	92.69
657.457	86.69
657.661	88.69
657.865	88.69
658.068	86.69
658.272	100.69
658.476	81.69
658.68	90.69
658.883	92.69
659.087	84.69
659.291	99.69
659.494	97.69
659.698	102.69
659.901	82.69
660.105	89.69
660.309	84.69
660.512	100.69
660.716	90.69
660.919	96.69
661.123	87.69
661.326	71.69
661.53	82.69
661.733	88.69
661.936	82.69
662.14	82.69
662.343	79.69
662.546	89.69
662.75	76.69
662.953	82.69
663.156	68.69
663.36	80.69
663.563	86.69
663.766	83.69
663.969	77.69
664.173	87.69
664.376	73.69
664.579	76.69
664.782	72.69
664.985	72.69
665.188	78.69
665.391	75.69
665.594	85.69
665.797	83.69
666	89.69
666.203	78.69
666.406	74.69
666.609	78.69
666.812	80.69
667.015	75.69
667.218	86.69
667.421	83.69
667.624	78.69
667.827	84.69
668.03	73.69
668.232	78.69
668.435	75.69
668.638	93.69
668.841	71.69
669.043	90.69
669.246	70.69
669.449	89.69
669.651	85.69
669.854	81.69
670.057	86.69
670.259	73.69
670.462	72.69
670.665	90.69
670.867	97.69
671.07	73.69
671.272	96.69
671.475	97.69
671.677	74.69
671.88	81.69
672.082	91.69
672.284	86.69
672.487	86.69
672.689	76.69
672.892	75.69
