Data from Location4.07152019.Energy5.Lamp.07192019.3%Agarose_HRD10591_16-20-26-927.txt Node
Date: Fri Jul 19 16:20:26 EDT 2019
User: cochatt
Spectrometer: HR+D1059
Trigger mode: 1
Integration Time (sec): 1.000000E-1
Scans to average: 1
Electric dark correction enabled: true
Nonlinearity correction enabled: false
Boxcar width: 0
XAxis mode: Wavelengths
Number of Pixels in Spectrum: 2048
>>>>>Begin Spectral Data<<<<<
223.165	-7.62
223.4	-7.62
223.635	-7.62
223.869	-14.62
224.104	-17.62
224.338	-9.62
224.573	-16.62
224.808	-2.62
225.042	-6.62
225.277	-13.62
225.511	-3.62
225.746	13.38
225.98	-0.62
226.215	5.38
226.449	12.38
226.683	8.38
226.918	19.38
227.152	34.38
227.387	25.38
227.621	34.38
227.856	37.38
228.09	51.38
228.324	35.38
228.559	54.38
228.793	46.38
229.027	59.38
229.262	56.38
229.496	66.38
229.73	66.38
229.964	74.38
230.199	74.38
230.433	80.38
230.667	72.38
230.901	66.38
231.136	74.38
231.37	83.38
231.604	88.38
231.838	74.38
232.072	58.38
232.306	71.38
232.541	76.38
232.775	82.38
233.009	78.38
233.243	84.38
233.477	74.38
233.711	76.38
233.945	85.38
234.179	92.38
234.413	96.38
234.647	69.38
234.881	66.38
235.115	73.38
235.349	67.38
235.583	80.38
235.817	70.38
236.051	73.38
236.285	82.38
236.519	74.38
236.753	72.38
236.987	89.38
237.221	77.38
237.455	80.38
237.689	83.38
237.922	78.38
238.156	67.38
238.39	76.38
238.624	74.38
238.858	83.38
239.091	72.38
239.325	68.38
239.559	88.38
239.793	78.38
240.027	82.38
240.26	74.38
240.494	81.38
240.728	68.38
240.961	71.38
241.195	80.38
241.429	74.38
241.662	72.38
241.896	82.38
242.13	69.38
242.363	92.38
242.597	75.38
242.83	87.38
243.064	83.38
243.298	70.38
243.531	88.38
243.765	77.38
243.998	94.38
244.232	72.38
244.465	60.38
244.699	75.38
244.932	78.38
245.166	90.38
245.399	72.38
245.633	65.38
245.866	75.38
246.099	85.38
246.333	75.38
246.566	71.38
246.8	95.38
247.033	81.38
247.266	84.38
247.5	70.38
247.733	84.38
247.966	72.38
248.2	75.38
248.433	83.38
248.666	82.38
248.899	84.38
249.133	81.38
249.366	87.38
249.599	77.38
249.832	82.38
250.066	80.38
250.299	72.38
250.532	86.38
250.765	80.38
250.998	87.38
251.231	79.38
251.465	72.38
251.698	90.38
251.931	93.38
252.164	73.38
252.397	81.38
252.63	88.38
252.863	76.38
253.096	85.38
253.329	90.38
253.562	74.38
253.795	88.38
254.028	81.38
254.261	89.38
254.494	68.38
254.727	59.38
254.96	76.38
255.193	76.38
255.426	85.38
255.659	81.38
255.892	74.38
256.124	73.38
256.357	78.38
256.59	79.38
256.823	89.38
257.056	97.38
257.289	79.38
257.521	74.38
257.754	85.38
257.987	87.38
258.22	84.38
258.452	91.38
258.685	71.38
258.918	82.38
259.151	86.38
259.383	92.38
259.616	88.38
259.849	81.38
260.081	89.38
260.314	76.38
260.547	79.38
260.779	77.38
261.012	80.38
261.244	91.38
261.477	100.38
261.71	73.38
261.942	85.38
262.175	84.38
262.407	74.38
262.64	69.38
262.872	69.38
263.105	78.38
263.337	80.38
263.57	75.38
263.802	91.38
264.035	92.38
264.267	65.38
264.499	95.38
264.732	68.38
264.964	87.38
265.197	93.38
265.429	76.38
265.661	85.38
265.894	89.38
266.126	78.38
266.358	98.38
266.591	83.38
266.823	84.38
267.055	84.38
267.287	86.38
267.52	87.38
267.752	91.38
267.984	85.38
268.216	90.38
268.448	80.38
268.681	86.38
268.913	94.38
269.145	70.38
269.377	90.38
269.609	87.38
269.841	75.38
270.073	78.38
270.306	77.38
270.538	70.38
270.77	75.38
271.002	92.38
271.234	86.38
271.466	86.38
271.698	88.38
271.93	95.38
272.162	78.38
272.394	77.38
272.626	84.38
272.858	86.38
273.09	89.38
273.322	92.38
273.553	86.38
273.785	91.38
274.017	87.38
274.249	90.38
274.481	77.38
274.713	84.38
274.945	89.38
275.176	85.38
275.408	79.38
275.64	71.38
275.872	82.38
276.104	93.38
276.335	74.38
276.567	81.38
276.799	70.38
277.031	88.38
277.262	72.38
277.494	88.38
277.726	83.38
277.957	83.38
278.189	96.38
278.421	72.38
278.652	86.38
278.884	75.38
279.115	90.38
279.347	84.38
279.579	85.38
279.81	88.38
280.042	79.38
280.273	70.38
280.505	72.38
280.736	89.38
280.968	93.38
281.199	80.38
281.431	73.38
281.662	77.38
281.894	82.38
282.125	97.38
282.356	81.38
282.588	95.38
282.819	78.38
283.051	89.38
283.282	82.38
283.513	85.38
283.745	93.38
283.976	82.38
284.207	70.38
284.439	86.38
284.67	85.38
284.901	86.38
285.132	77.38
285.364	66.38
285.595	80.38
285.826	80.38
286.057	67.38
286.288	79.38
286.52	82.38
286.751	72.38
286.982	70.38
287.213	82.38
287.444	85.38
287.675	92.38
287.906	100.38
288.138	84.38
288.369	90.38
288.6	84.38
288.831	93.38
289.062	75.38
289.293	84.38
289.524	93.38
289.755	93.38
289.986	73.38
290.217	82.38
290.448	78.38
290.679	80.38
290.91	84.38
291.141	80.38
291.371	75.38
291.602	83.38
291.833	81.38
292.064	75.38
292.295	86.38
292.526	89.38
292.757	108.38
292.987	81.38
293.218	84.38
293.449	80.38
293.68	86.38
293.91	90.38
294.141	90.38
294.372	77.38
294.603	92.38
294.833	84.38
295.064	96.38
295.295	79.38
295.525	82.38
295.756	80.38
295.987	65.38
296.217	84.38
296.448	89.38
296.679	85.38
296.909	78.38
297.14	100.38
297.37	103.38
297.601	82.38
297.831	91.38
298.062	89.38
298.292	87.38
298.523	85.38
298.753	80.38
298.984	87.38
299.214	89.38
299.445	81.38
299.675	93.38
299.905	89.38
300.136	77.38
300.366	104.38
300.597	87.38
300.827	79.38
301.057	83.38
301.288	91.38
301.518	82.38
301.748	80.38
301.979	81.38
302.209	88.38
302.439	71.38
302.669	74.38
302.9	92.38
303.13	74.38
303.36	69.38
303.59	94.38
303.82	87.38
304.051	78.38
304.281	69.38
304.511	81.38
304.741	72.38
304.971	86.38
305.201	89.38
305.431	86.38
305.661	86.38
305.891	88.38
306.121	86.38
306.352	89.38
306.582	96.38
306.812	86.38
307.042	87.38
307.272	81.38
307.502	71.38
307.731	88.38
307.961	84.38
308.191	88.38
308.421	97.38
308.651	88.38
308.881	74.38
309.111	77.38
309.341	96.38
309.571	81.38
309.8	94.38
310.03	74.38
310.26	93.38
310.49	80.38
310.72	74.38
310.949	76.38
311.179	84.38
311.409	86.38
311.639	75.38
311.868	73.38
312.098	96.38
312.328	80.38
312.557	89.38
312.787	93.38
313.017	71.38
313.246	78.38
313.476	86.38
313.706	71.38
313.935	70.38
314.165	91.38
314.394	73.38
314.624	92.38
314.853	90.38
315.083	84.38
315.312	82.38
315.542	81.38
315.771	89.38
316.001	96.38
316.23	81.38
316.46	93.38
316.689	92.38
316.919	87.38
317.148	101.38
317.377	84.38
317.607	92.38
317.836	100.38
318.065	90.38
318.295	86.38
318.524	74.38
318.753	92.38
318.983	78.38
319.212	86.38
319.441	82.38
319.67	85.38
319.9	87.38
320.129	86.38
320.358	87.38
320.587	88.38
320.816	94.38
321.046	77.38
321.275	77.38
321.504	81.38
321.733	89.38
321.962	86.38
322.191	86.38
322.42	91.38
322.649	83.38
322.878	84.38
323.108	96.38
323.337	90.38
323.566	84.38
323.795	81.38
324.024	88.38
324.253	74.38
324.482	91.38
324.71	68.38
324.939	81.38
325.168	77.38
325.397	83.38
325.626	87.38
325.855	80.38
326.084	86.38
326.313	80.38
326.542	74.38
326.77	78.38
326.999	86.38
327.228	99.38
327.457	81.38
327.686	84.38
327.914	78.38
328.143	85.38
328.372	95.38
328.6	86.38
328.829	90.38
329.058	78.38
329.287	75.38
329.515	91.38
329.744	80.38
329.972	91.38
330.201	80.38
330.43	82.38
330.658	85.38
330.887	85.38
331.115	94.38
331.344	82.38
331.572	75.38
331.801	85.38
332.03	92.38
332.258	88.38
332.486	86.38
332.715	95.38
332.943	80.38
333.172	94.38
333.4	74.38
333.629	75.38
333.857	71.38
334.085	86.38
334.314	85.38
334.542	75.38
334.771	88.38
334.999	92.38
335.227	83.38
335.455	96.38
335.684	75.38
335.912	92.38
336.14	90.38
336.369	85.38
336.597	73.38
336.825	72.38
337.053	77.38
337.281	70.38
337.51	83.38
337.738	76.38
337.966	88.38
338.194	75.38
338.422	85.38
338.65	90.38
338.878	93.38
339.106	88.38
339.334	84.38
339.562	81.38
339.79	84.38
340.018	85.38
340.246	98.38
340.474	89.38
340.702	78.38
340.93	84.38
341.158	91.38
341.386	80.38
341.614	85.38
341.842	73.38
342.07	85.38
342.298	81.38
342.526	87.38
342.754	91.38
342.981	78.38
343.209	83.38
343.437	77.38
343.665	92.38
343.893	70.38
344.12	92.38
344.348	76.38
344.576	76.38
344.804	83.38
345.031	81.38
345.259	77.38
345.487	79.38
345.714	81.38
345.942	80.38
346.17	81.38
346.397	91.38
346.625	83.38
346.853	95.38
347.08	102.38
347.308	77.38
347.535	86.38
347.763	75.38
347.99	78.38
348.218	99.38
348.445	86.38
348.673	89.38
348.9	86.38
349.128	83.38
349.355	88.38
349.583	82.38
349.81	85.38
350.037	80.38
350.265	75.38
350.492	84.38
350.72	92.38
350.947	87.38
351.174	72.38
351.402	75.38
351.629	93.38
351.856	82.38
352.083	82.38
352.311	83.38
352.538	87.38
352.765	91.38
352.992	90.38
353.22	74.38
353.447	94.38
353.674	88.38
353.901	74.38
354.128	74.38
354.355	88.38
354.583	84.38
354.81	90.38
355.037	85.38
355.264	96.38
355.491	81.38
355.718	75.38
355.945	77.38
356.172	93.38
356.399	73.38
356.626	94.38
356.853	75.38
357.08	71.38
357.307	87.38
357.534	89.38
357.761	98.38
357.988	72.38
358.215	78.38
358.441	82.38
358.668	87.38
358.895	89.38
359.122	85.38
359.349	89.38
359.576	76.38
359.802	82.38
360.029	106.38
360.256	81.38
360.483	88.38
360.709	75.38
360.936	89.38
361.163	89.38
361.39	70.38
361.616	88.38
361.843	79.38
362.07	77.38
362.296	88.38
362.523	89.38
362.749	80.38
362.976	77.38
363.203	96.38
363.429	87.38
363.656	83.38
363.882	76.38
364.109	103.38
364.335	80.38
364.562	95.38
364.788	79.38
365.015	80.38
365.241	86.38
365.468	91.38
365.694	72.38
365.92	89.38
366.147	94.38
366.373	78.38
366.599	96.38
366.826	85.38
367.052	91.38
367.278	92.38
367.505	85.38
367.731	83.38
367.957	96.38
368.184	84.38
368.41	91.38
368.636	85.38
368.862	88.38
369.089	96.38
369.315	87.38
369.541	86.38
369.767	89.38
369.993	103.38
370.219	94.38
370.445	89.38
370.672	96.38
370.898	94.38
371.124	89.38
371.35	79.38
371.576	96.38
371.802	98.38
372.028	96.38
372.254	99.38
372.48	81.38
372.706	91.38
372.932	92.38
373.158	96.38
373.384	92.38
373.61	91.38
373.835	75.38
374.061	89.38
374.287	80.38
374.513	83.38
374.739	89.38
374.965	79.38
375.191	83.38
375.416	91.38
375.642	99.38
375.868	94.38
376.094	90.38
376.319	91.38
376.545	91.38
376.771	87.38
376.997	96.38
377.222	86.38
377.448	100.38
377.674	91.38
377.899	96.38
378.125	79.38
378.35	102.38
378.576	85.38
378.802	92.38
379.027	99.38
379.253	89.38
379.478	84.38
379.704	78.38
379.929	100.38
380.155	96.38
380.38	110.38
380.606	95.38
380.831	95.38
381.057	92.38
381.282	99.38
381.507	105.38
381.733	85.38
381.958	98.38
382.184	93.38
382.409	85.38
382.634	101.38
382.86	88.38
383.085	98.38
383.31	107.38
383.535	89.38
383.761	89.38
383.986	97.38
384.211	109.38
384.436	91.38
384.662	91.38
384.887	92.38
385.112	91.38
385.337	90.38
385.562	93.38
385.787	102.38
386.013	112.38
386.238	77.38
386.463	86.38
386.688	88.38
386.913	99.38
387.138	107.38
387.363	93.38
387.588	90.38
387.813	103.38
388.038	101.38
388.263	104.38
388.488	92.38
388.713	97.38
388.938	99.38
389.163	100.38
389.387	98.38
389.612	89.38
389.837	101.38
390.062	104.38
390.287	108.38
390.512	106.38
390.736	105.38
390.961	99.38
391.186	109.38
391.411	107.38
391.636	105.38
391.86	117.38
392.085	90.38
392.31	92.38
392.534	107.38
392.759	113.38
392.984	90.38
393.208	102.38
393.433	109.38
393.658	92.38
393.882	96.38
394.107	110.38
394.331	104.38
394.556	111.38
394.78	102.38
395.005	97.38
395.229	114.38
395.454	103.38
395.678	92.38
395.903	93.38
396.127	107.38
396.352	101.38
396.576	99.38
396.801	96.38
397.025	89.38
397.249	104.38
397.474	109.38
397.698	98.38
397.922	114.38
398.147	112.38
398.371	106.38
398.595	109.38
398.82	102.38
399.044	104.38
399.268	103.38
399.492	107.38
399.717	104.38
399.941	94.38
400.165	105.38
400.389	97.38
400.613	107.38
400.837	112.38
401.062	104.38
401.286	121.38
401.51	121.38
401.734	110.38
401.958	116.38
402.182	102.38
402.406	114.38
402.63	113.38
402.854	103.38
403.078	116.38
403.302	125.38
403.526	104.38
403.75	112.38
403.974	107.38
404.198	105.38
404.422	131.38
404.645	120.38
404.869	114.38
405.093	123.38
405.317	121.38
405.541	124.38
405.765	115.38
405.988	114.38
406.212	120.38
406.436	116.38
406.66	122.38
406.883	121.38
407.107	118.38
407.331	119.38
407.555	110.38
407.778	112.38
408.002	116.38
408.226	107.38
408.449	109.38
408.673	108.38
408.896	126.38
409.12	128.38
409.344	111.38
409.567	120.38
409.791	115.38
410.014	118.38
410.238	120.38
410.461	115.38
410.685	106.38
410.908	116.38
411.132	123.38
411.355	118.38
411.578	123.38
411.802	116.38
412.025	119.38
412.249	122.38
412.472	121.38
412.695	113.38
412.919	136.38
413.142	105.38
413.365	105.38
413.589	128.38
413.812	117.38
414.035	128.38
414.258	103.38
414.482	100.38
414.705	114.38
414.928	121.38
415.151	114.38
415.374	121.38
415.597	128.38
415.821	118.38
416.044	135.38
416.267	128.38
416.49	113.38
416.713	112.38
416.936	103.38
417.159	114.38
417.382	124.38
417.605	130.38
417.828	119.38
418.051	132.38
418.274	120.38
418.497	109.38
418.72	107.38
418.943	124.38
419.166	132.38
419.389	139.38
419.611	123.38
419.834	125.38
420.057	137.38
420.28	109.38
420.503	112.38
420.726	128.38
420.948	142.38
421.171	120.38
421.394	144.38
421.617	128.38
421.839	145.38
422.062	152.38
422.285	134.38
422.507	130.38
422.73	119.38
422.953	116.38
423.175	136.38
423.398	118.38
423.621	133.38
423.843	128.38
424.066	138.38
424.288	136.38
424.511	128.38
424.733	138.38
424.956	143.38
425.178	144.38
425.401	132.38
425.623	137.38
425.846	117.38
426.068	110.38
426.291	118.38
426.513	118.38
426.735	125.38
426.958	104.38
427.18	128.38
427.402	138.38
427.625	132.38
427.847	128.38
428.069	141.38
428.292	122.38
428.514	128.38
428.736	125.38
428.958	120.38
429.181	116.38
429.403	128.38
429.625	118.38
429.847	120.38
430.069	126.38
430.292	128.38
430.514	119.38
430.736	132.38
430.958	122.38
431.18	110.38
431.402	106.38
431.624	111.38
431.846	102.38
432.068	96.38
432.29	101.38
432.512	110.38
432.734	126.38
432.956	114.38
433.178	124.38
433.4	127.38
433.622	132.38
433.844	127.38
434.066	120.38
434.287	109.38
434.509	116.38
434.731	103.38
434.953	108.38
435.175	112.38
435.397	124.38
435.618	108.38
435.84	106.38
436.062	101.38
436.284	127.38
436.505	141.38
436.727	121.38
436.949	129.38
437.17	129.38
437.392	125.38
437.614	122.38
437.835	113.38
438.057	99.38
438.278	104.38
438.5	118.38
438.721	135.38
438.943	132.38
439.165	140.38
439.386	134.38
439.608	141.38
439.829	150.38
440.05	158.38
440.272	155.38
440.493	137.38
440.715	136.38
440.936	133.38
441.158	148.38
441.379	129.38
441.6	148.38
441.822	144.38
442.043	147.38
442.264	140.38
442.486	140.38
442.707	131.38
442.928	138.38
443.149	138.38
443.371	135.38
443.592	123.38
443.813	144.38
444.034	132.38
444.255	149.38
444.476	121.38
444.698	141.38
444.919	129.38
445.14	276.38
445.361	194.38
445.582	145.38
445.803	129.38
446.024	145.38
446.245	138.38
446.466	160.38
446.687	154.38
446.908	149.38
447.129	152.38
447.35	159.38
447.571	139.38
447.792	145.38
448.013	156.38
448.234	133.38
448.455	148.38
448.675	130.38
448.896	138.38
449.117	133.38
449.338	136.38
449.559	130.38
449.779	132.38
450	120.38
450.221	137.38
450.442	139.38
450.662	127.38
450.883	131.38
451.104	129.38
451.324	135.38
451.545	112.38
451.766	126.38
451.986	117.38
452.207	113.38
452.428	119.38
452.648	138.38
452.869	114.38
453.089	115.38
453.31	107.38
453.53	105.38
453.751	116.38
453.971	101.38
454.192	114.38
454.412	113.38
454.633	121.38
454.853	125.38
455.073	125.38
455.294	120.38
455.514	116.38
455.734	117.38
455.955	104.38
456.175	114.38
456.395	117.38
456.616	114.38
456.836	114.38
457.056	90.38
457.276	123.38
457.497	103.38
457.717	107.38
457.937	106.38
458.157	102.38
458.377	109.38
458.598	88.38
458.818	90.38
459.038	74.38
459.258	93.38
459.478	93.38
459.698	86.38
459.918	101.38
460.138	110.38
460.358	121.38
460.578	103.38
460.798	110.38
461.018	118.38
461.238	131.38
461.458	112.38
461.678	115.38
461.898	91.38
462.118	116.38
462.338	130.38
462.558	113.38
462.777	121.38
462.997	108.38
463.217	112.38
463.437	96.38
463.657	101.38
463.876	105.38
464.096	118.38
464.316	122.38
464.536	112.38
464.755	113.38
464.975	114.38
465.195	114.38
465.414	108.38
465.634	120.38
465.854	98.38
466.073	114.38
466.293	122.38
466.512	140.38
466.732	130.38
466.951	146.38
467.171	138.38
467.391	136.38
467.61	120.38
467.829	132.38
468.049	140.38
468.268	128.38
468.488	131.38
468.707	132.38
468.927	128.38
469.146	123.38
469.365	129.38
469.585	136.38
469.804	128.38
470.023	132.38
470.243	117.38
470.462	114.38
470.681	142.38
470.901	145.38
471.12	148.38
471.339	126.38
471.558	140.38
471.777	138.38
471.997	134.38
472.216	123.38
472.435	124.38
472.654	112.38
472.873	118.38
473.092	117.38
473.311	107.38
473.53	136.38
473.749	128.38
473.968	134.38
474.187	108.38
474.406	112.38
474.625	131.38
474.844	137.38
475.063	124.38
475.282	131.38
475.501	125.38
475.72	125.38
475.939	138.38
476.158	115.38
476.377	124.38
476.596	108.38
476.814	124.38
477.033	117.38
477.252	114.38
477.471	119.38
477.69	126.38
477.908	128.38
478.127	132.38
478.346	142.38
478.564	132.38
478.783	126.38
479.002	147.38
479.22	131.38
479.439	134.38
479.658	126.38
479.876	110.38
480.095	118.38
480.313	98.38
480.532	108.38
480.751	107.38
480.969	90.38
481.188	93.38
481.406	90.38
481.624	89.38
481.843	79.38
482.061	96.38
482.28	115.38
482.498	118.38
482.717	106.38
482.935	126.38
483.153	140.38
483.372	160.38
483.59	152.38
483.808	136.38
484.027	126.38
484.245	152.38
484.463	151.38
484.681	177.38
484.9	156.38
485.118	149.38
485.336	130.38
485.554	110.38
485.772	114.38
485.99	106.38
486.209	103.38
486.427	110.38
486.645	113.38
486.863	132.38
487.081	152.38
487.299	131.38
487.517	124.38
487.735	154.38
487.953	173.38
488.171	163.38
488.389	170.38
488.607	156.38
488.825	152.38
489.043	140.38
489.261	118.38
489.479	136.38
489.696	137.38
489.914	124.38
490.132	149.38
490.35	147.38
490.568	155.38
490.786	183.38
491.003	181.38
491.221	172.38
491.439	182.38
491.657	184.38
491.874	197.38
492.092	207.38
492.31	236.38
492.527	214.38
492.745	195.38
492.963	182.38
493.18	171.38
493.398	190.38
493.615	186.38
493.833	188.38
494.05	161.38
494.268	168.38
494.485	165.38
494.703	169.38
494.92	160.38
495.138	157.38
495.355	158.38
495.573	165.38
495.79	180.38
496.008	165.38
496.225	166.38
496.442	167.38
496.66	168.38
496.877	154.38
497.094	168.38
497.312	161.38
497.529	142.38
497.746	152.38
497.963	133.38
498.181	130.38
498.398	128.38
498.615	121.38
498.832	128.38
499.049	122.38
499.267	120.38
499.484	126.38
499.701	134.38
499.918	135.38
500.135	144.38
500.352	140.38
500.569	144.38
500.786	139.38
501.003	138.38
501.22	130.38
501.437	142.38
501.654	137.38
501.871	123.38
502.088	141.38
502.305	116.38
502.522	130.38
502.739	120.38
502.956	124.38
503.172	120.38
503.389	122.38
503.606	115.38
503.823	116.38
504.04	133.38
504.256	118.38
504.473	117.38
504.69	135.38
504.907	116.38
505.123	131.38
505.34	114.38
505.557	117.38
505.773	126.38
505.99	118.38
506.207	128.38
506.423	124.38
506.64	108.38
506.856	109.38
507.073	119.38
507.289	122.38
507.506	126.38
507.722	117.38
507.939	115.38
508.155	106.38
508.372	103.38
508.588	114.38
508.805	113.38
509.021	116.38
509.238	109.38
509.454	97.38
509.67	117.38
509.887	112.38
510.103	93.38
510.319	92.38
510.536	85.38
510.752	93.38
510.968	102.38
511.184	92.38
511.401	93.38
511.617	88.38
511.833	94.38
512.049	95.38
512.265	86.38
512.481	96.38
512.698	89.38
512.914	87.38
513.13	99.38
513.346	98.38
513.562	97.38
513.778	99.38
513.994	102.38
514.21	96.38
514.426	96.38
514.642	96.38
514.858	110.38
515.074	75.38
515.29	93.38
515.506	99.38
515.721	96.38
515.937	87.38
516.153	75.38
516.369	81.38
516.585	84.38
516.801	83.38
517.016	100.38
517.232	100.38
517.448	94.38
517.664	106.38
517.879	92.38
518.095	93.38
518.311	93.38
518.527	99.38
518.742	100.38
518.958	92.38
519.173	102.38
519.389	93.38
519.605	110.38
519.82	107.38
520.036	109.38
520.251	98.38
520.467	100.38
520.682	96.38
520.898	110.38
521.113	96.38
521.329	99.38
521.544	97.38
521.76	92.38
521.975	100.38
522.19	107.38
522.406	106.38
522.621	103.38
522.836	96.38
523.052	106.38
523.267	104.38
523.482	107.38
523.698	119.38
523.913	116.38
524.128	112.38
524.343	116.38
524.559	132.38
524.774	120.38
524.989	124.38
525.204	110.38
525.419	122.38
525.634	99.38
525.849	81.38
526.064	124.38
526.28	115.38
526.495	107.38
526.71	101.38
526.925	84.38
527.14	91.38
527.355	81.38
527.57	90.38
527.785	83.38
527.999	102.38
528.214	100.38
528.429	117.38
528.644	124.38
528.859	133.38
529.074	143.38
529.289	162.38
529.503	150.38
529.718	126.38
529.933	126.38
530.148	112.38
530.363	103.38
530.577	91.38
530.792	82.38
531.007	88.38
531.221	79.38
531.436	78.38
531.651	83.38
531.865	75.38
532.08	81.38
532.295	92.38
532.509	89.38
532.724	88.38
532.938	86.38
533.153	104.38
533.367	116.38
533.582	118.38
533.796	129.38
534.011	109.38
534.225	104.38
534.44	89.38
534.654	97.38
534.868	90.38
535.083	105.38
535.297	103.38
535.511	95.38
535.726	105.38
535.94	103.38
536.154	76.38
536.369	85.38
536.583	82.38
536.797	88.38
537.011	75.38
537.225	92.38
537.44	94.38
537.654	94.38
537.868	91.38
538.082	98.38
538.296	90.38
538.51	105.38
538.724	107.38
538.938	114.38
539.153	124.38
539.367	128.38
539.581	107.38
539.795	114.38
540.009	90.38
540.222	95.38
540.436	102.38
540.65	114.38
540.864	123.38
541.078	124.38
541.292	132.38
541.506	163.38
541.72	171.38
541.934	184.38
542.147	188.38
542.361	170.38
542.575	167.38
542.789	163.38
543.002	137.38
543.216	120.38
543.43	130.38
543.644	138.38
543.857	140.38
544.071	150.38
544.285	153.38
544.498	170.38
544.712	148.38
544.925	132.38
545.139	150.38
545.352	157.38
545.566	154.38
545.779	164.38
545.993	158.38
546.206	155.38
546.42	186.38
546.633	168.38
546.847	141.38
547.06	154.38
547.274	173.38
547.487	173.38
547.7	178.38
547.914	165.38
548.127	159.38
548.34	176.38
548.554	150.38
548.767	165.38
548.98	160.38
549.193	145.38
549.407	167.38
549.62	152.38
549.833	161.38
550.046	155.38
550.259	141.38
550.473	144.38
550.686	152.38
550.899	147.38
551.112	150.38
551.325	140.38
551.538	137.38
551.751	138.38
551.964	127.38
552.177	128.38
552.39	122.38
552.603	142.38
552.816	137.38
553.029	153.38
553.242	164.38
553.455	154.38
553.667	162.38
553.88	146.38
554.093	146.38
554.306	143.38
554.519	155.38
554.732	140.38
554.944	146.38
555.157	138.38
555.37	142.38
555.583	141.38
555.795	146.38
556.008	127.38
556.221	141.38
556.433	147.38
556.646	152.38
556.859	133.38
557.071	116.38
557.284	136.38
557.496	132.38
557.709	133.38
557.921	142.38
558.134	158.38
558.346	143.38
558.559	132.38
558.771	131.38
558.984	132.38
559.196	137.38
559.409	114.38
559.621	132.38
559.833	126.38
560.046	113.38
560.258	127.38
560.47	125.38
560.683	132.38
560.895	126.38
561.107	146.38
561.32	126.38
561.532	121.38
561.744	150.38
561.956	130.38
562.168	130.38
562.381	122.38
562.593	124.38
562.805	138.38
563.017	130.38
563.229	124.38
563.441	130.38
563.653	118.38
563.865	123.38
564.077	116.38
564.289	126.38
564.501	117.38
564.713	126.38
564.925	120.38
565.137	115.38
565.349	124.38
565.561	114.38
565.773	125.38
565.985	130.38
566.197	118.38
566.408	125.38
566.62	122.38
566.832	116.38
567.044	112.38
567.255	124.38
567.467	107.38
567.679	84.38
567.891	101.38
568.102	83.38
568.314	103.38
568.526	99.38
568.737	82.38
568.949	73.38
569.161	92.38
569.372	69.38
569.584	86.38
569.795	82.38
570.007	89.38
570.218	94.38
570.43	99.38
570.641	98.38
570.853	111.38
571.064	103.38
571.276	103.38
571.487	111.38
571.698	100.38
571.91	107.38
572.121	98.38
572.333	98.38
572.544	97.38
572.755	92.38
572.966	92.38
573.178	93.38
573.389	103.38
573.6	79.38
573.811	89.38
574.023	74.38
574.234	86.38
574.445	94.38
574.656	105.38
574.867	94.38
575.078	107.38
575.289	93.38
575.501	89.38
575.712	93.38
575.923	94.38
576.134	113.38
576.345	95.38
576.556	83.38
576.767	101.38
576.978	109.38
577.188	95.38
577.399	86.38
577.61	98.38
577.821	93.38
578.032	91.38
578.243	99.38
578.454	95.38
578.665	87.38
578.875	100.38
579.086	88.38
579.297	89.38
579.508	85.38
579.718	101.38
579.929	100.38
580.14	76.38
580.35	83.38
580.561	79.38
580.772	84.38
580.982	100.38
581.193	91.38
581.403	87.38
581.614	83.38
581.825	118.38
582.035	108.38
582.246	91.38
582.456	87.38
582.667	88.38
582.877	102.38
583.087	87.38
583.298	82.38
583.508	102.38
583.719	90.38
583.929	89.38
584.139	82.38
584.35	93.38
584.56	88.38
584.77	79.38
584.981	87.38
585.191	97.38
585.401	82.38
585.611	74.38
585.821	88.38
586.032	85.38
586.242	83.38
586.452	82.38
586.662	78.38
586.872	68.38
587.082	72.38
587.292	83.38
587.502	87.38
587.713	90.38
587.923	93.38
588.133	78.38
588.343	81.38
588.553	82.38
588.762	84.38
588.972	87.38
589.182	84.38
589.392	86.38
589.602	92.38
589.812	93.38
590.022	104.38
590.232	83.38
590.441	82.38
590.651	83.38
590.861	72.38
591.071	65.38
591.281	83.38
591.49	90.38
591.7	77.38
591.91	82.38
592.119	91.38
592.329	79.38
592.539	84.38
592.748	96.38
592.958	82.38
593.167	77.38
593.377	84.38
593.587	92.38
593.796	93.38
594.006	81.38
594.215	81.38
594.424	85.38
594.634	87.38
594.843	94.38
595.053	101.38
595.262	80.38
595.472	93.38
595.681	105.38
595.89	82.38
596.1	86.38
596.309	96.38
596.518	97.38
596.727	109.38
596.937	89.38
597.146	84.38
597.355	84.38
597.564	76.38
597.774	86.38
597.983	82.38
598.192	89.38
598.401	80.38
598.61	100.38
598.819	94.38
599.028	74.38
599.237	99.38
599.446	103.38
599.655	93.38
599.864	81.38
600.073	97.38
600.282	100.38
600.491	102.38
600.7	87.38
600.909	98.38
601.118	115.38
601.327	98.38
601.536	105.38
601.745	112.38
601.953	104.38
602.162	106.38
602.371	104.38
602.58	108.38
602.789	100.38
602.997	110.38
603.206	91.38
603.415	122.38
603.623	122.38
603.832	105.38
604.041	107.38
604.249	90.38
604.458	96.38
604.666	90.38
604.875	111.38
605.084	98.38
605.292	100.38
605.501	96.38
605.709	110.38
605.918	108.38
606.126	115.38
606.334	128.38
606.543	121.38
606.751	118.38
606.96	105.38
607.168	102.38
607.376	96.38
607.585	116.38
607.793	116.38
608.001	108.38
608.21	104.38
608.418	106.38
608.626	120.38
608.834	108.38
609.043	106.38
609.251	104.38
609.459	112.38
609.667	110.38
609.875	118.38
610.083	106.38
610.291	126.38
610.499	117.38
610.707	110.38
610.916	126.38
611.124	122.38
611.332	103.38
611.54	94.38
611.748	116.38
611.955	109.38
612.163	112.38
612.371	116.38
612.579	106.38
612.787	118.38
612.995	114.38
613.203	117.38
613.411	110.38
613.618	100.38
613.826	112.38
614.034	102.38
614.242	114.38
614.449	104.38
614.657	101.38
614.865	119.38
615.072	114.38
615.28	121.38
615.488	96.38
615.695	114.38
615.903	116.38
616.111	115.38
616.318	116.38
616.526	102.38
616.733	121.38
616.941	114.38
617.148	115.38
617.356	114.38
617.563	104.38
617.771	106.38
617.978	96.38
618.185	121.38
618.393	113.38
618.6	112.38
618.807	113.38
619.015	115.38
619.222	107.38
619.429	100.38
619.637	97.38
619.844	103.38
620.051	101.38
620.258	108.38
620.466	98.38
620.673	116.38
620.88	110.38
621.087	102.38
621.294	105.38
621.501	115.38
621.708	117.38
621.915	106.38
622.122	108.38
622.329	118.38
622.536	98.38
622.743	116.38
622.95	113.38
623.157	120.38
623.364	108.38
623.571	111.38
623.778	115.38
623.985	99.38
624.192	107.38
624.399	106.38
624.606	120.38
624.812	124.38
625.019	105.38
625.226	96.38
625.433	107.38
625.639	101.38
625.846	96.38
626.053	112.38
626.259	93.38
626.466	102.38
626.673	92.38
626.879	75.38
627.086	84.38
627.293	94.38
627.499	92.38
627.706	104.38
627.912	101.38
628.119	96.38
628.325	117.38
628.532	118.38
628.738	110.38
628.945	91.38
629.151	103.38
629.357	89.38
629.564	103.38
629.77	101.38
629.976	103.38
630.183	94.38
630.389	96.38
630.595	112.38
630.802	111.38
631.008	118.38
631.214	112.38
631.42	104.38
631.627	118.38
631.833	105.38
632.039	107.38
632.245	102.38
632.451	99.38
632.657	109.38
632.863	91.38
633.069	107.38
633.275	101.38
633.481	108.38
633.688	109.38
633.893	93.38
634.099	88.38
634.305	101.38
634.511	102.38
634.717	96.38
634.923	87.38
635.129	93.38
635.335	96.38
635.541	100.38
635.747	93.38
635.952	90.38
636.158	96.38
636.364	92.38
636.57	100.38
636.775	96.38
636.981	110.38
637.187	108.38
637.392	103.38
637.598	103.38
637.804	98.38
638.009	91.38
638.215	105.38
638.421	104.38
638.626	104.38
638.832	103.38
639.037	111.38
639.243	98.38
639.448	106.38
639.654	105.38
639.859	89.38
640.065	96.38
640.27	102.38
640.475	94.38
640.681	90.38
640.886	98.38
641.091	97.38
641.297	104.38
641.502	96.38
641.707	104.38
641.913	121.38
642.118	104.38
642.323	112.38
642.528	97.38
642.733	114.38
642.939	108.38
643.144	96.38
643.349	106.38
643.554	96.38
643.759	105.38
643.964	93.38
644.169	102.38
644.374	81.38
644.579	86.38
644.784	93.38
644.989	92.38
645.194	90.38
645.399	108.38
645.604	95.38
645.809	98.38
646.014	100.38
646.219	89.38
646.423	102.38
646.628	93.38
646.833	107.38
647.038	98.38
647.243	100.38
647.447	102.38
647.652	113.38
647.857	104.38
648.062	109.38
648.266	99.38
648.471	99.38
648.676	93.38
648.88	109.38
649.085	102.38
649.289	88.38
649.494	104.38
649.698	99.38
649.903	94.38
650.107	89.38
650.312	97.38
650.516	76.38
650.721	100.38
650.925	95.38
651.13	104.38
651.334	94.38
651.539	89.38
651.743	103.38
651.947	91.38
652.152	86.38
652.356	97.38
652.56	89.38
652.764	93.38
652.969	97.38
653.173	105.38
653.377	93.38
653.581	101.38
653.785	85.38
653.99	112.38
654.194	94.38
654.398	90.38
654.602	80.38
654.806	88.38
655.01	101.38
655.214	93.38
655.418	102.38
655.622	117.38
655.826	91.38
656.03	91.38
656.234	81.38
656.438	69.38
656.642	100.38
656.846	92.38
657.049	89.38
657.253	87.38
657.457	73.38
657.661	77.38
657.865	86.38
658.068	97.38
658.272	77.38
658.476	98.38
658.68	91.38
658.883	94.38
659.087	90.38
659.291	90.38
659.494	82.38
659.698	76.38
659.901	96.38
660.105	78.38
660.309	84.38
660.512	87.38
660.716	95.38
660.919	95.38
661.123	103.38
661.326	102.38
661.53	93.38
661.733	73.38
661.936	73.38
662.14	82.38
662.343	76.38
662.546	100.38
662.75	86.38
662.953	82.38
663.156	94.38
663.36	77.38
663.563	89.38
663.766	87.38
663.969	95.38
664.173	81.38
664.376	83.38
664.579	54.38
664.782	78.38
664.985	72.38
665.188	67.38
665.391	101.38
665.594	86.38
665.797	77.38
666	83.38
666.203	94.38
666.406	75.38
666.609	86.38
666.812	101.38
667.015	80.38
667.218	80.38
667.421	91.38
667.624	70.38
667.827	82.38
668.03	86.38
668.232	90.38
668.435	90.38
668.638	89.38
668.841	81.38
669.043	91.38
669.246	72.38
669.449	91.38
669.651	82.38
669.854	86.38
670.057	94.38
670.259	83.38
670.462	82.38
670.665	81.38
670.867	73.38
671.07	70.38
671.272	79.38
671.475	77.38
671.677	87.38
671.88	99.38
672.082	88.38
672.284	81.38
672.487	85.38
672.689	63.38
672.892	83.38
