Data from Location4.07152019.Energy5.Lamp.07192019.3%Agarose_HRD10591_16-19-41-925.txt Node
Date: Fri Jul 19 16:19:41 EDT 2019
User: cochatt
Spectrometer: HR+D1059
Trigger mode: 1
Integration Time (sec): 1.000000E-1
Scans to average: 1
Electric dark correction enabled: true
Nonlinearity correction enabled: false
Boxcar width: 0
XAxis mode: Wavelengths
Number of Pixels in Spectrum: 2048
>>>>>Begin Spectral Data<<<<<
223.165	-0.25
223.4	-0.25
223.635	-0.25
223.869	-13.25
224.104	-25.25
224.338	-13.25
224.573	-17.25
224.808	-19.25
225.042	-11.25
225.277	-2.25
225.511	-3.25
225.746	9.75
225.98	9.75
226.215	15.75
226.449	13.75
226.683	9.75
226.918	18.75
227.152	27.75
227.387	27.75
227.621	38.75
227.856	40.75
228.09	47.75
228.324	50.75
228.559	47.75
228.793	53.75
229.027	75.75
229.262	70.75
229.496	71.75
229.73	71.75
229.964	69.75
230.199	67.75
230.433	57.75
230.667	67.75
230.901	82.75
231.136	84.75
231.37	88.75
231.604	87.75
231.838	85.75
232.072	85.75
232.306	83.75
232.541	74.75
232.775	91.75
233.009	85.75
233.243	78.75
233.477	101.75
233.711	78.75
233.945	76.75
234.179	85.75
234.413	74.75
234.647	64.75
234.881	88.75
235.115	73.75
235.349	79.75
235.583	75.75
235.817	75.75
236.051	79.75
236.285	71.75
236.519	83.75
236.753	68.75
236.987	73.75
237.221	77.75
237.455	77.75
237.689	70.75
237.922	83.75
238.156	78.75
238.39	79.75
238.624	82.75
238.858	73.75
239.091	80.75
239.325	79.75
239.559	75.75
239.793	77.75
240.027	73.75
240.26	70.75
240.494	67.75
240.728	86.75
240.961	75.75
241.195	64.75
241.429	86.75
241.662	71.75
241.896	73.75
242.13	68.75
242.363	72.75
242.597	73.75
242.83	86.75
243.064	75.75
243.298	78.75
243.531	85.75
243.765	71.75
243.998	67.75
244.232	73.75
244.465	81.75
244.699	67.75
244.932	88.75
245.166	80.75
245.399	80.75
245.633	94.75
245.866	66.75
246.099	71.75
246.333	80.75
246.566	81.75
246.8	72.75
247.033	84.75
247.266	80.75
247.5	79.75
247.733	67.75
247.966	66.75
248.2	84.75
248.433	71.75
248.666	66.75
248.899	70.75
249.133	77.75
249.366	80.75
249.599	83.75
249.832	66.75
250.066	72.75
250.299	75.75
250.532	86.75
250.765	92.75
250.998	71.75
251.231	90.75
251.465	81.75
251.698	76.75
251.931	82.75
252.164	74.75
252.397	83.75
252.63	73.75
252.863	76.75
253.096	85.75
253.329	76.75
253.562	82.75
253.795	83.75
254.028	70.75
254.261	76.75
254.494	82.75
254.727	70.75
254.96	74.75
255.193	95.75
255.426	65.75
255.659	79.75
255.892	72.75
256.124	73.75
256.357	79.75
256.59	97.75
256.823	83.75
257.056	78.75
257.289	76.75
257.521	64.75
257.754	78.75
257.987	69.75
258.22	87.75
258.452	65.75
258.685	78.75
258.918	72.75
259.151	72.75
259.383	77.75
259.616	105.75
259.849	72.75
260.081	69.75
260.314	65.75
260.547	82.75
260.779	65.75
261.012	74.75
261.244	80.75
261.477	82.75
261.71	76.75
261.942	96.75
262.175	83.75
262.407	86.75
262.64	83.75
262.872	86.75
263.105	99.75
263.337	72.75
263.57	82.75
263.802	74.75
264.035	76.75
264.267	97.75
264.499	89.75
264.732	72.75
264.964	75.75
265.197	71.75
265.429	70.75
265.661	74.75
265.894	92.75
266.126	80.75
266.358	74.75
266.591	72.75
266.823	72.75
267.055	85.75
267.287	77.75
267.52	83.75
267.752	96.75
267.984	85.75
268.216	82.75
268.448	80.75
268.681	76.75
268.913	94.75
269.145	76.75
269.377	90.75
269.609	92.75
269.841	83.75
270.073	84.75
270.306	82.75
270.538	96.75
270.77	75.75
271.002	86.75
271.234	68.75
271.466	87.75
271.698	85.75
271.93	74.75
272.162	88.75
272.394	83.75
272.626	89.75
272.858	72.75
273.09	70.75
273.322	76.75
273.553	79.75
273.785	83.75
274.017	95.75
274.249	88.75
274.481	75.75
274.713	77.75
274.945	79.75
275.176	81.75
275.408	92.75
275.64	75.75
275.872	88.75
276.104	79.75
276.335	69.75
276.567	83.75
276.799	80.75
277.031	70.75
277.262	86.75
277.494	81.75
277.726	76.75
277.957	96.75
278.189	85.75
278.421	67.75
278.652	68.75
278.884	76.75
279.115	95.75
279.347	90.75
279.579	86.75
279.81	83.75
280.042	71.75
280.273	73.75
280.505	88.75
280.736	80.75
280.968	81.75
281.199	67.75
281.431	88.75
281.662	82.75
281.894	86.75
282.125	91.75
282.356	86.75
282.588	82.75
282.819	97.75
283.051	82.75
283.282	90.75
283.513	73.75
283.745	60.75
283.976	84.75
284.207	81.75
284.439	79.75
284.67	87.75
284.901	94.75
285.132	88.75
285.364	105.75
285.595	86.75
285.826	68.75
286.057	79.75
286.288	77.75
286.52	87.75
286.751	92.75
286.982	86.75
287.213	74.75
287.444	82.75
287.675	90.75
287.906	74.75
288.138	82.75
288.369	91.75
288.6	84.75
288.831	99.75
289.062	95.75
289.293	82.75
289.524	82.75
289.755	80.75
289.986	88.75
290.217	91.75
290.448	79.75
290.679	75.75
290.91	78.75
291.141	74.75
291.371	80.75
291.602	92.75
291.833	88.75
292.064	82.75
292.295	88.75
292.526	78.75
292.757	85.75
292.987	90.75
293.218	76.75
293.449	95.75
293.68	80.75
293.91	89.75
294.141	86.75
294.372	71.75
294.603	88.75
294.833	81.75
295.064	73.75
295.295	87.75
295.525	81.75
295.756	84.75
295.987	86.75
296.217	68.75
296.448	75.75
296.679	92.75
296.909	98.75
297.14	82.75
297.37	83.75
297.601	97.75
297.831	79.75
298.062	99.75
298.292	80.75
298.523	93.75
298.753	96.75
298.984	64.75
299.214	78.75
299.445	81.75
299.675	80.75
299.905	99.75
300.136	82.75
300.366	82.75
300.597	75.75
300.827	82.75
301.057	78.75
301.288	80.75
301.518	82.75
301.748	86.75
301.979	81.75
302.209	92.75
302.439	94.75
302.669	68.75
302.9	80.75
303.13	93.75
303.36	93.75
303.59	84.75
303.82	85.75
304.051	89.75
304.281	92.75
304.511	106.75
304.741	97.75
304.971	80.75
305.201	92.75
305.431	93.75
305.661	88.75
305.891	77.75
306.121	81.75
306.352	73.75
306.582	84.75
306.812	84.75
307.042	81.75
307.272	79.75
307.502	68.75
307.731	67.75
307.961	71.75
308.191	66.75
308.421	84.75
308.651	80.75
308.881	102.75
309.111	88.75
309.341	88.75
309.571	93.75
309.8	92.75
310.03	86.75
310.26	81.75
310.49	78.75
310.72	74.75
310.949	73.75
311.179	79.75
311.409	79.75
311.639	89.75
311.868	91.75
312.098	79.75
312.328	77.75
312.557	95.75
312.787	74.75
313.017	71.75
313.246	82.75
313.476	74.75
313.706	84.75
313.935	82.75
314.165	79.75
314.394	91.75
314.624	87.75
314.853	85.75
315.083	89.75
315.312	98.75
315.542	72.75
315.771	80.75
316.001	82.75
316.23	81.75
316.46	84.75
316.689	91.75
316.919	70.75
317.148	77.75
317.377	90.75
317.607	84.75
317.836	95.75
318.065	83.75
318.295	77.75
318.524	98.75
318.753	77.75
318.983	77.75
319.212	79.75
319.441	87.75
319.67	82.75
319.9	99.75
320.129	82.75
320.358	85.75
320.587	77.75
320.816	73.75
321.046	82.75
321.275	87.75
321.504	85.75
321.733	68.75
321.962	79.75
322.191	86.75
322.42	83.75
322.649	95.75
322.878	87.75
323.108	83.75
323.337	95.75
323.566	75.75
323.795	89.75
324.024	88.75
324.253	95.75
324.482	82.75
324.71	79.75
324.939	92.75
325.168	83.75
325.397	83.75
325.626	82.75
325.855	80.75
326.084	86.75
326.313	86.75
326.542	78.75
326.77	68.75
326.999	72.75
327.228	92.75
327.457	86.75
327.686	79.75
327.914	81.75
328.143	89.75
328.372	95.75
328.6	89.75
328.829	86.75
329.058	101.75
329.287	77.75
329.515	74.75
329.744	84.75
329.972	96.75
330.201	90.75
330.43	87.75
330.658	89.75
330.887	99.75
331.115	82.75
331.344	82.75
331.572	83.75
331.801	98.75
332.03	70.75
332.258	88.75
332.486	94.75
332.715	80.75
332.943	95.75
333.172	75.75
333.4	92.75
333.629	78.75
333.857	90.75
334.085	78.75
334.314	91.75
334.542	76.75
334.771	79.75
334.999	78.75
335.227	74.75
335.455	83.75
335.684	83.75
335.912	86.75
336.14	89.75
336.369	72.75
336.597	78.75
336.825	80.75
337.053	86.75
337.281	80.75
337.51	85.75
337.738	84.75
337.966	73.75
338.194	76.75
338.422	90.75
338.65	62.75
338.878	92.75
339.106	83.75
339.334	85.75
339.562	90.75
339.79	86.75
340.018	79.75
340.246	102.75
340.474	80.75
340.702	73.75
340.93	65.75
341.158	82.75
341.386	88.75
341.614	83.75
341.842	78.75
342.07	77.75
342.298	88.75
342.526	87.75
342.754	83.75
342.981	90.75
343.209	89.75
343.437	91.75
343.665	90.75
343.893	93.75
344.12	88.75
344.348	90.75
344.576	79.75
344.804	86.75
345.031	88.75
345.259	83.75
345.487	84.75
345.714	79.75
345.942	68.75
346.17	84.75
346.397	88.75
346.625	101.75
346.853	88.75
347.08	73.75
347.308	80.75
347.535	79.75
347.763	88.75
347.99	86.75
348.218	84.75
348.445	75.75
348.673	89.75
348.9	86.75
349.128	74.75
349.355	72.75
349.583	89.75
349.81	68.75
350.037	87.75
350.265	88.75
350.492	93.75
350.72	89.75
350.947	73.75
351.174	78.75
351.402	89.75
351.629	89.75
351.856	82.75
352.083	82.75
352.311	85.75
352.538	88.75
352.765	82.75
352.992	74.75
353.22	97.75
353.447	89.75
353.674	87.75
353.901	83.75
354.128	80.75
354.355	84.75
354.583	83.75
354.81	88.75
355.037	70.75
355.264	82.75
355.491	83.75
355.718	89.75
355.945	97.75
356.172	80.75
356.399	76.75
356.626	84.75
356.853	91.75
357.08	93.75
357.307	94.75
357.534	82.75
357.761	76.75
357.988	93.75
358.215	91.75
358.441	99.75
358.668	94.75
358.895	87.75
359.122	97.75
359.349	71.75
359.576	89.75
359.802	93.75
360.029	79.75
360.256	91.75
360.483	85.75
360.709	79.75
360.936	89.75
361.163	86.75
361.39	92.75
361.616	86.75
361.843	74.75
362.07	85.75
362.296	79.75
362.523	82.75
362.749	79.75
362.976	87.75
363.203	84.75
363.429	81.75
363.656	91.75
363.882	82.75
364.109	87.75
364.335	89.75
364.562	80.75
364.788	77.75
365.015	82.75
365.241	88.75
365.468	82.75
365.694	81.75
365.92	100.75
366.147	89.75
366.373	76.75
366.599	78.75
366.826	94.75
367.052	74.75
367.278	91.75
367.505	89.75
367.731	90.75
367.957	81.75
368.184	87.75
368.41	83.75
368.636	84.75
368.862	81.75
369.089	96.75
369.315	87.75
369.541	96.75
369.767	92.75
369.993	92.75
370.219	84.75
370.445	80.75
370.672	91.75
370.898	101.75
371.124	91.75
371.35	96.75
371.576	105.75
371.802	76.75
372.028	77.75
372.254	78.75
372.48	97.75
372.706	93.75
372.932	83.75
373.158	82.75
373.384	91.75
373.61	99.75
373.835	93.75
374.061	93.75
374.287	100.75
374.513	101.75
374.739	85.75
374.965	84.75
375.191	88.75
375.416	82.75
375.642	98.75
375.868	99.75
376.094	87.75
376.319	91.75
376.545	85.75
376.771	84.75
376.997	83.75
377.222	82.75
377.448	87.75
377.674	95.75
377.899	86.75
378.125	89.75
378.35	91.75
378.576	88.75
378.802	82.75
379.027	97.75
379.253	91.75
379.478	100.75
379.704	92.75
379.929	96.75
380.155	90.75
380.38	83.75
380.606	83.75
380.831	95.75
381.057	98.75
381.282	98.75
381.507	91.75
381.733	88.75
381.958	100.75
382.184	93.75
382.409	91.75
382.634	99.75
382.86	91.75
383.085	92.75
383.31	96.75
383.535	107.75
383.761	112.75
383.986	97.75
384.211	102.75
384.436	103.75
384.662	96.75
384.887	97.75
385.112	89.75
385.337	98.75
385.562	104.75
385.787	83.75
386.013	106.75
386.238	98.75
386.463	90.75
386.688	79.75
386.913	98.75
387.138	105.75
387.363	91.75
387.588	99.75
387.813	115.75
388.038	101.75
388.263	100.75
388.488	104.75
388.713	99.75
388.938	105.75
389.163	105.75
389.387	94.75
389.612	107.75
389.837	92.75
390.062	115.75
390.287	96.75
390.512	110.75
390.736	99.75
390.961	106.75
391.186	90.75
391.411	104.75
391.636	92.75
391.86	114.75
392.085	101.75
392.31	102.75
392.534	99.75
392.759	103.75
392.984	115.75
393.208	107.75
393.433	100.75
393.658	104.75
393.882	102.75
394.107	95.75
394.331	88.75
394.556	100.75
394.78	111.75
395.005	102.75
395.229	107.75
395.454	97.75
395.678	99.75
395.903	106.75
396.127	108.75
396.352	108.75
396.576	98.75
396.801	105.75
397.025	113.75
397.249	88.75
397.474	104.75
397.698	105.75
397.922	111.75
398.147	107.75
398.371	108.75
398.595	100.75
398.82	97.75
399.044	110.75
399.268	98.75
399.492	124.75
399.717	101.75
399.941	110.75
400.165	97.75
400.389	105.75
400.613	111.75
400.837	108.75
401.062	123.75
401.286	118.75
401.51	100.75
401.734	118.75
401.958	110.75
402.182	105.75
402.406	121.75
402.63	107.75
402.854	98.75
403.078	116.75
403.302	116.75
403.526	102.75
403.75	110.75
403.974	107.75
404.198	116.75
404.422	115.75
404.645	120.75
404.869	103.75
405.093	121.75
405.317	120.75
405.541	104.75
405.765	119.75
405.988	115.75
406.212	128.75
406.436	113.75
406.66	118.75
406.883	119.75
407.107	106.75
407.331	109.75
407.555	114.75
407.778	112.75
408.002	112.75
408.226	105.75
408.449	116.75
408.673	124.75
408.896	124.75
409.12	131.75
409.344	120.75
409.567	122.75
409.791	107.75
410.014	117.75
410.238	114.75
410.461	125.75
410.685	126.75
410.908	126.75
411.132	123.75
411.355	98.75
411.578	124.75
411.802	98.75
412.025	118.75
412.249	108.75
412.472	134.75
412.695	106.75
412.919	115.75
413.142	122.75
413.365	115.75
413.589	105.75
413.812	133.75
414.035	126.75
414.258	130.75
414.482	108.75
414.705	123.75
414.928	122.75
415.151	128.75
415.374	115.75
415.597	122.75
415.821	121.75
416.044	130.75
416.267	118.75
416.49	128.75
416.713	122.75
416.936	122.75
417.159	117.75
417.382	122.75
417.605	117.75
417.828	116.75
418.051	137.75
418.274	134.75
418.497	123.75
418.72	120.75
418.943	131.75
419.166	132.75
419.389	135.75
419.611	129.75
419.834	126.75
420.057	132.75
420.28	132.75
420.503	121.75
420.726	126.75
420.948	117.75
421.171	120.75
421.394	138.75
421.617	136.75
421.839	131.75
422.062	122.75
422.285	123.75
422.507	126.75
422.73	141.75
422.953	114.75
423.175	118.75
423.398	119.75
423.621	110.75
423.843	111.75
424.066	121.75
424.288	138.75
424.511	138.75
424.733	147.75
424.956	129.75
425.178	136.75
425.401	128.75
425.623	125.75
425.846	122.75
426.068	124.75
426.291	127.75
426.513	130.75
426.735	134.75
426.958	122.75
427.18	106.75
427.402	119.75
427.625	130.75
427.847	132.75
428.069	121.75
428.292	126.75
428.514	128.75
428.736	133.75
428.958	131.75
429.181	132.75
429.403	120.75
429.625	124.75
429.847	112.75
430.069	122.75
430.292	131.75
430.514	123.75
430.736	119.75
430.958	131.75
431.18	112.75
431.402	119.75
431.624	126.75
431.846	114.75
432.068	97.75
432.29	101.75
432.512	112.75
432.734	119.75
432.956	153.75
433.178	130.75
433.4	130.75
433.622	137.75
433.844	130.75
434.066	123.75
434.287	117.75
434.509	97.75
434.731	83.75
434.953	111.75
435.175	121.75
435.397	120.75
435.618	112.75
435.84	98.75
436.062	110.75
436.284	124.75
436.505	126.75
436.727	123.75
436.949	140.75
437.17	125.75
437.392	121.75
437.614	130.75
437.835	110.75
438.057	106.75
438.278	112.75
438.5	102.75
438.721	134.75
438.943	140.75
439.165	161.75
439.386	130.75
439.608	144.75
439.829	154.75
440.05	143.75
440.272	148.75
440.493	145.75
440.715	129.75
440.936	142.75
441.158	142.75
441.379	138.75
441.6	134.75
441.822	146.75
442.043	150.75
442.264	149.75
442.486	136.75
442.707	135.75
442.928	132.75
443.149	133.75
443.371	132.75
443.592	124.75
443.813	129.75
444.034	126.75
444.255	149.75
444.476	158.75
444.698	134.75
444.919	128.75
445.14	258.75
445.361	195.75
445.582	147.75
445.803	137.75
446.024	164.75
446.245	153.75
446.466	134.75
446.687	158.75
446.908	151.75
447.129	146.75
447.35	136.75
447.571	144.75
447.792	134.75
448.013	132.75
448.234	135.75
448.455	141.75
448.675	135.75
448.896	152.75
449.117	128.75
449.338	123.75
449.559	144.75
449.779	139.75
450	138.75
450.221	137.75
450.442	140.75
450.662	128.75
450.883	125.75
451.104	135.75
451.324	127.75
451.545	132.75
451.766	135.75
451.986	123.75
452.207	116.75
452.428	125.75
452.648	122.75
452.869	131.75
453.089	114.75
453.31	114.75
453.53	103.75
453.751	104.75
453.971	83.75
454.192	104.75
454.412	119.75
454.633	122.75
454.853	119.75
455.073	120.75
455.294	129.75
455.514	124.75
455.734	112.75
455.955	126.75
456.175	98.75
456.395	114.75
456.616	105.75
456.836	114.75
457.056	106.75
457.276	104.75
457.497	101.75
457.717	99.75
457.937	93.75
458.157	101.75
458.377	95.75
458.598	104.75
458.818	89.75
459.038	87.75
459.258	100.75
459.478	82.75
459.698	92.75
459.918	87.75
460.138	103.75
460.358	98.75
460.578	118.75
460.798	121.75
461.018	110.75
461.238	98.75
461.458	132.75
461.678	107.75
461.898	107.75
462.118	115.75
462.338	114.75
462.558	106.75
462.777	113.75
462.997	122.75
463.217	112.75
463.437	106.75
463.657	114.75
463.876	108.75
464.096	105.75
464.316	117.75
464.536	103.75
464.755	120.75
464.975	128.75
465.195	120.75
465.414	128.75
465.634	131.75
465.854	124.75
466.073	124.75
466.293	116.75
466.512	118.75
466.732	124.75
466.951	137.75
467.171	132.75
467.391	122.75
467.61	127.75
467.829	128.75
468.049	126.75
468.268	142.75
468.488	135.75
468.707	128.75
468.927	112.75
469.146	135.75
469.365	134.75
469.585	122.75
469.804	138.75
470.023	130.75
470.243	143.75
470.462	128.75
470.681	130.75
470.901	132.75
471.12	130.75
471.339	129.75
471.558	139.75
471.777	144.75
471.997	123.75
472.216	130.75
472.435	130.75
472.654	116.75
472.873	98.75
473.092	111.75
473.311	114.75
473.53	118.75
473.749	133.75
473.968	126.75
474.187	123.75
474.406	132.75
474.625	129.75
474.844	140.75
475.063	124.75
475.282	119.75
475.501	117.75
475.72	128.75
475.939	123.75
476.158	107.75
476.377	124.75
476.596	125.75
476.814	120.75
477.033	105.75
477.252	116.75
477.471	132.75
477.69	134.75
477.908	140.75
478.127	144.75
478.346	132.75
478.564	137.75
478.783	127.75
479.002	128.75
479.22	137.75
479.439	151.75
479.658	126.75
479.876	114.75
480.095	113.75
480.313	99.75
480.532	112.75
480.751	110.75
480.969	95.75
481.188	95.75
481.406	81.75
481.624	90.75
481.843	92.75
482.061	107.75
482.28	126.75
482.498	118.75
482.717	121.75
482.935	120.75
483.153	134.75
483.372	136.75
483.59	147.75
483.808	146.75
484.027	122.75
484.245	136.75
484.463	151.75
484.681	148.75
484.9	155.75
485.118	143.75
485.336	139.75
485.554	117.75
485.772	93.75
485.99	105.75
486.209	102.75
486.427	114.75
486.645	126.75
486.863	146.75
487.081	156.75
487.299	137.75
487.517	138.75
487.735	169.75
487.953	168.75
488.171	172.75
488.389	170.75
488.607	161.75
488.825	145.75
489.043	152.75
489.261	132.75
489.479	129.75
489.696	122.75
489.914	142.75
490.132	146.75
490.35	152.75
490.568	156.75
490.786	155.75
491.003	168.75
491.221	179.75
491.439	174.75
491.657	176.75
491.874	185.75
492.092	209.75
492.31	236.75
492.527	225.75
492.745	203.75
492.963	177.75
493.18	177.75
493.398	187.75
493.615	171.75
493.833	178.75
494.05	187.75
494.268	157.75
494.485	160.75
494.703	172.75
494.92	157.75
495.138	163.75
495.355	168.75
495.573	165.75
495.79	165.75
496.008	165.75
496.225	169.75
496.442	172.75
496.66	159.75
496.877	152.75
497.094	155.75
497.312	165.75
497.529	143.75
497.746	149.75
497.963	152.75
498.181	133.75
498.398	131.75
498.615	119.75
498.832	118.75
499.049	101.75
499.267	128.75
499.484	126.75
499.701	110.75
499.918	126.75
500.135	134.75
500.352	126.75
500.569	142.75
500.786	132.75
501.003	151.75
501.22	139.75
501.437	127.75
501.654	128.75
501.871	124.75
502.088	145.75
502.305	128.75
502.522	126.75
502.739	146.75
502.956	132.75
503.172	125.75
503.389	123.75
503.606	124.75
503.823	126.75
504.04	109.75
504.256	115.75
504.473	104.75
504.69	126.75
504.907	125.75
505.123	116.75
505.34	110.75
505.557	124.75
505.773	120.75
505.99	127.75
506.207	126.75
506.423	121.75
506.64	126.75
506.856	111.75
507.073	123.75
507.289	129.75
507.506	110.75
507.722	114.75
507.939	114.75
508.155	119.75
508.372	120.75
508.588	119.75
508.805	108.75
509.021	103.75
509.238	114.75
509.454	92.75
509.67	100.75
509.887	108.75
510.103	96.75
510.319	91.75
510.536	83.75
510.752	81.75
510.968	82.75
511.184	85.75
511.401	87.75
511.617	90.75
511.833	75.75
512.049	82.75
512.265	97.75
512.481	99.75
512.698	86.75
512.914	97.75
513.13	90.75
513.346	96.75
513.562	96.75
513.778	94.75
513.994	93.75
514.21	96.75
514.426	97.75
514.642	97.75
514.858	90.75
515.074	104.75
515.29	84.75
515.506	90.75
515.721	90.75
515.937	103.75
516.153	99.75
516.369	92.75
516.585	85.75
516.801	80.75
517.016	92.75
517.232	94.75
517.448	106.75
517.664	99.75
517.879	82.75
518.095	75.75
518.311	98.75
518.527	105.75
518.742	92.75
518.958	99.75
519.173	109.75
519.389	94.75
519.605	111.75
519.82	112.75
520.036	86.75
520.251	101.75
520.467	93.75
520.682	91.75
520.898	98.75
521.113	99.75
521.329	97.75
521.544	100.75
521.76	110.75
521.975	90.75
522.19	87.75
522.406	105.75
522.621	93.75
522.836	101.75
523.052	114.75
523.267	101.75
523.482	121.75
523.698	117.75
523.913	106.75
524.128	92.75
524.343	104.75
524.559	106.75
524.774	118.75
524.989	96.75
525.204	122.75
525.419	115.75
525.634	108.75
525.849	103.75
526.064	110.75
526.28	107.75
526.495	97.75
526.71	91.75
526.925	87.75
527.14	87.75
527.355	76.75
527.57	99.75
527.785	93.75
527.999	93.75
528.214	105.75
528.429	114.75
528.644	126.75
528.859	133.75
529.074	156.75
529.289	151.75
529.503	158.75
529.718	130.75
529.933	106.75
530.148	107.75
530.363	94.75
530.577	99.75
530.792	82.75
531.007	81.75
531.221	53.75
531.436	84.75
531.651	81.75
531.865	81.75
532.08	86.75
532.295	90.75
532.509	88.75
532.724	93.75
532.938	91.75
533.153	98.75
533.367	90.75
533.582	119.75
533.796	108.75
534.011	126.75
534.225	117.75
534.44	100.75
534.654	106.75
534.868	98.75
535.083	96.75
535.297	113.75
535.511	116.75
535.726	114.75
535.94	91.75
536.154	105.75
536.369	99.75
536.583	84.75
536.797	85.75
537.011	74.75
537.225	85.75
537.44	87.75
537.654	83.75
537.868	88.75
538.082	89.75
538.296	88.75
538.51	113.75
538.724	98.75
538.938	121.75
539.153	123.75
539.367	116.75
539.581	106.75
539.795	91.75
540.009	86.75
540.222	106.75
540.436	113.75
540.65	106.75
540.864	120.75
541.078	131.75
541.292	149.75
541.506	168.75
541.72	164.75
541.934	184.75
542.147	203.75
542.361	173.75
542.575	162.75
542.789	145.75
543.002	136.75
543.216	136.75
543.43	138.75
543.644	142.75
543.857	142.75
544.071	150.75
544.285	155.75
544.498	142.75
544.712	169.75
544.925	156.75
545.139	163.75
545.352	158.75
545.566	150.75
545.779	156.75
545.993	167.75
546.206	156.75
546.42	166.75
546.633	171.75
546.847	164.75
547.06	154.75
547.274	146.75
547.487	176.75
547.7	170.75
547.914	162.75
548.127	164.75
548.34	159.75
548.554	156.75
548.767	151.75
548.98	135.75
549.193	140.75
549.407	151.75
549.62	149.75
549.833	152.75
550.046	146.75
550.259	148.75
550.473	140.75
550.686	142.75
550.899	144.75
551.112	142.75
551.325	126.75
551.538	150.75
551.751	124.75
551.964	118.75
552.177	123.75
552.39	135.75
552.603	134.75
552.816	145.75
553.029	149.75
553.242	145.75
553.455	150.75
553.667	154.75
553.88	144.75
554.093	134.75
554.306	148.75
554.519	134.75
554.732	138.75
554.944	140.75
555.157	136.75
555.37	125.75
555.583	136.75
555.795	124.75
556.008	127.75
556.221	128.75
556.433	125.75
556.646	133.75
556.859	127.75
557.071	117.75
557.284	132.75
557.496	149.75
557.709	128.75
557.921	132.75
558.134	119.75
558.346	134.75
558.559	132.75
558.771	125.75
558.984	129.75
559.196	137.75
559.409	120.75
559.621	139.75
559.833	132.75
560.046	122.75
560.258	133.75
560.47	124.75
560.683	122.75
560.895	123.75
561.107	122.75
561.32	122.75
561.532	118.75
561.744	129.75
561.956	134.75
562.168	135.75
562.381	124.75
562.593	135.75
562.805	121.75
563.017	114.75
563.229	121.75
563.441	137.75
563.653	124.75
563.865	115.75
564.077	123.75
564.289	115.75
564.501	126.75
564.713	106.75
564.925	116.75
565.137	122.75
565.349	126.75
565.561	107.75
565.773	101.75
565.985	115.75
566.197	96.75
566.408	132.75
566.62	111.75
566.832	126.75
567.044	115.75
567.255	96.75
567.467	102.75
567.679	114.75
567.891	107.75
568.102	110.75
568.314	96.75
568.526	95.75
568.737	86.75
568.949	73.75
569.161	73.75
569.372	84.75
569.584	80.75
569.795	90.75
570.007	83.75
570.218	102.75
570.43	76.75
570.641	90.75
570.853	90.75
571.064	91.75
571.276	99.75
571.487	101.75
571.698	103.75
571.91	91.75
572.121	108.75
572.333	113.75
572.544	96.75
572.755	96.75
572.966	98.75
573.178	87.75
573.389	86.75
573.6	97.75
573.811	84.75
574.023	75.75
574.234	102.75
574.445	107.75
574.656	92.75
574.867	95.75
575.078	94.75
575.289	81.75
575.501	85.75
575.712	104.75
575.923	101.75
576.134	85.75
576.345	100.75
576.556	95.75
576.767	101.75
576.978	96.75
577.188	107.75
577.399	88.75
577.61	95.75
577.821	96.75
578.032	103.75
578.243	99.75
578.454	97.75
578.665	103.75
578.875	87.75
579.086	86.75
579.297	90.75
579.508	96.75
579.718	89.75
579.929	89.75
580.14	85.75
580.35	85.75
580.561	84.75
580.772	82.75
580.982	108.75
581.193	92.75
581.403	88.75
581.614	89.75
581.825	96.75
582.035	75.75
582.246	101.75
582.456	94.75
582.667	98.75
582.877	98.75
583.087	90.75
583.298	81.75
583.508	81.75
583.719	89.75
583.929	96.75
584.139	85.75
584.35	82.75
584.56	87.75
584.77	77.75
584.981	83.75
585.191	92.75
585.401	78.75
585.611	85.75
585.821	67.75
586.032	82.75
586.242	90.75
586.452	82.75
586.662	91.75
586.872	84.75
587.082	83.75
587.292	79.75
587.502	85.75
587.713	95.75
587.923	85.75
588.133	87.75
588.343	92.75
588.553	83.75
588.762	91.75
588.972	92.75
589.182	95.75
589.392	84.75
589.602	96.75
589.812	87.75
590.022	90.75
590.232	81.75
590.441	89.75
590.651	85.75
590.861	80.75
591.071	73.75
591.281	93.75
591.49	91.75
591.7	94.75
591.91	97.75
592.119	78.75
592.329	81.75
592.539	90.75
592.748	87.75
592.958	85.75
593.167	72.75
593.377	68.75
593.587	92.75
593.796	80.75
594.006	66.75
594.215	84.75
594.424	82.75
594.634	86.75
594.843	99.75
595.053	100.75
595.262	78.75
595.472	92.75
595.681	84.75
595.89	106.75
596.1	93.75
596.309	96.75
596.518	96.75
596.727	85.75
596.937	96.75
597.146	87.75
597.355	90.75
597.564	86.75
597.774	83.75
597.983	84.75
598.192	102.75
598.401	85.75
598.61	91.75
598.819	94.75
599.028	91.75
599.237	95.75
599.446	94.75
599.655	83.75
599.864	86.75
600.073	92.75
600.282	104.75
600.491	103.75
600.7	86.75
600.909	95.75
601.118	99.75
601.327	101.75
601.536	104.75
601.745	117.75
601.953	111.75
602.162	102.75
602.371	96.75
602.58	110.75
602.789	114.75
602.997	117.75
603.206	121.75
603.415	107.75
603.623	107.75
603.832	104.75
604.041	92.75
604.249	92.75
604.458	101.75
604.666	107.75
604.875	105.75
605.084	102.75
605.292	102.75
605.501	110.75
605.709	114.75
605.918	117.75
606.126	103.75
606.334	112.75
606.543	101.75
606.751	105.75
606.96	118.75
607.168	118.75
607.376	106.75
607.585	109.75
607.793	122.75
608.001	93.75
608.21	104.75
608.418	110.75
608.626	98.75
608.834	111.75
609.043	109.75
609.251	94.75
609.459	103.75
609.667	123.75
609.875	108.75
610.083	107.75
610.291	119.75
610.499	116.75
610.707	102.75
610.916	114.75
611.124	101.75
611.332	115.75
611.54	118.75
611.748	113.75
611.955	120.75
612.163	126.75
612.371	107.75
612.579	105.75
612.787	105.75
612.995	106.75
613.203	116.75
613.411	115.75
613.618	125.75
613.826	107.75
614.034	126.75
614.242	117.75
614.449	103.75
614.657	112.75
614.865	102.75
615.072	116.75
615.28	100.75
615.488	101.75
615.695	112.75
615.903	99.75
616.111	102.75
616.318	116.75
616.526	120.75
616.733	105.75
616.941	96.75
617.148	110.75
617.356	118.75
617.563	111.75
617.771	116.75
617.978	110.75
618.185	107.75
618.393	107.75
618.6	116.75
618.807	120.75
619.015	103.75
619.222	102.75
619.429	96.75
619.637	107.75
619.844	105.75
620.051	100.75
620.258	113.75
620.466	97.75
620.673	102.75
620.88	98.75
621.087	95.75
621.294	99.75
621.501	113.75
621.708	112.75
621.915	90.75
622.122	118.75
622.329	110.75
622.536	113.75
622.743	87.75
622.95	100.75
623.157	112.75
623.364	98.75
623.571	99.75
623.778	102.75
623.985	121.75
624.192	102.75
624.399	114.75
624.606	100.75
624.812	108.75
625.019	90.75
625.226	84.75
625.433	107.75
625.639	100.75
625.846	101.75
626.053	84.75
626.259	84.75
626.466	102.75
626.673	98.75
626.879	98.75
627.086	114.75
627.293	96.75
627.499	102.75
627.706	94.75
627.912	103.75
628.119	115.75
628.325	117.75
628.532	89.75
628.738	102.75
628.945	102.75
629.151	99.75
629.357	103.75
629.564	89.75
629.77	103.75
629.976	107.75
630.183	97.75
630.389	87.75
630.595	101.75
630.802	97.75
631.008	102.75
631.214	99.75
631.42	95.75
631.627	92.75
631.833	93.75
632.039	108.75
632.245	93.75
632.451	102.75
632.657	115.75
632.863	103.75
633.069	98.75
633.275	101.75
633.481	101.75
633.688	88.75
633.893	99.75
634.099	93.75
634.305	97.75
634.511	98.75
634.717	100.75
634.923	101.75
635.129	95.75
635.335	83.75
635.541	83.75
635.747	97.75
635.952	97.75
636.158	92.75
636.364	114.75
636.57	108.75
636.775	112.75
636.981	99.75
637.187	106.75
637.392	94.75
637.598	101.75
637.804	99.75
638.009	90.75
638.215	104.75
638.421	97.75
638.626	96.75
638.832	108.75
639.037	118.75
639.243	110.75
639.448	99.75
639.654	98.75
639.859	102.75
640.065	106.75
640.27	112.75
640.475	105.75
640.681	110.75
640.886	101.75
641.091	97.75
641.297	89.75
641.502	108.75
641.707	105.75
641.913	102.75
642.118	94.75
642.323	104.75
642.528	92.75
642.733	89.75
642.939	105.75
643.144	84.75
643.349	103.75
643.554	114.75
643.759	98.75
643.964	96.75
644.169	105.75
644.374	95.75
644.579	95.75
644.784	83.75
644.989	98.75
645.194	121.75
645.399	114.75
645.604	86.75
645.809	102.75
646.014	98.75
646.219	108.75
646.423	88.75
646.628	91.75
646.833	91.75
647.038	109.75
647.243	112.75
647.447	97.75
647.652	94.75
647.857	105.75
648.062	95.75
648.266	95.75
648.471	104.75
648.676	103.75
648.88	107.75
649.085	91.75
649.289	97.75
649.494	112.75
649.698	111.75
649.903	94.75
650.107	82.75
650.312	98.75
650.516	103.75
650.721	101.75
650.925	101.75
651.13	97.75
651.334	99.75
651.539	92.75
651.743	95.75
651.947	105.75
652.152	95.75
652.356	102.75
652.56	87.75
652.764	89.75
652.969	86.75
653.173	94.75
653.377	80.75
653.581	95.75
653.785	86.75
653.99	80.75
654.194	86.75
654.398	102.75
654.602	86.75
654.806	94.75
655.01	97.75
655.214	97.75
655.418	95.75
655.622	95.75
655.826	100.75
656.03	89.75
656.234	93.75
656.438	81.75
656.642	79.75
656.846	75.75
657.049	89.75
657.253	88.75
657.457	80.75
657.661	95.75
657.865	87.75
658.068	94.75
658.272	78.75
658.476	68.75
658.68	92.75
658.883	87.75
659.087	92.75
659.291	83.75
659.494	93.75
659.698	66.75
659.901	74.75
660.105	61.75
660.309	97.75
660.512	86.75
660.716	80.75
660.919	80.75
661.123	94.75
661.326	84.75
661.53	81.75
661.733	87.75
661.936	70.75
662.14	77.75
662.343	76.75
662.546	74.75
662.75	83.75
662.953	84.75
663.156	83.75
663.36	89.75
663.563	71.75
663.766	69.75
663.969	69.75
664.173	79.75
664.376	71.75
664.579	86.75
664.782	78.75
664.985	79.75
665.188	82.75
665.391	83.75
665.594	81.75
665.797	86.75
666	78.75
666.203	74.75
666.406	77.75
666.609	77.75
666.812	81.75
667.015	72.75
667.218	95.75
667.421	80.75
667.624	75.75
667.827	74.75
668.03	79.75
668.232	75.75
668.435	79.75
668.638	75.75
668.841	70.75
669.043	73.75
669.246	91.75
669.449	91.75
669.651	83.75
669.854	73.75
670.057	79.75
670.259	85.75
670.462	66.75
670.665	84.75
670.867	73.75
671.07	83.75
671.272	75.75
671.475	84.75
671.677	68.75
671.88	74.75
672.082	79.75
672.284	87.75
672.487	73.75
672.689	82.75
672.892	84.75
