Data from Location4.07152019.Energy5.Lamp.07192019.3%Agarose_HRD10591_16-21-24-927.txt Node
Date: Fri Jul 19 16:21:24 EDT 2019
User: cochatt
Spectrometer: HR+D1059
Trigger mode: 1
Integration Time (sec): 1.000000E-1
Scans to average: 1
Electric dark correction enabled: true
Nonlinearity correction enabled: false
Boxcar width: 0
XAxis mode: Wavelengths
Number of Pixels in Spectrum: 2048
>>>>>Begin Spectral Data<<<<<
223.165	-15.94
223.4	-15.94
223.635	-15.94
223.869	-25.94
224.104	-13.94
224.338	-21.94
224.573	-16.94
224.808	-11.94
225.042	-14.94
225.277	-7.94
225.511	-12.94
225.746	3.06
225.98	14.06
226.215	10.06
226.449	23.06
226.683	31.06
226.918	35.06
227.152	26.06
227.387	35.06
227.621	39.06
227.856	41.06
228.09	41.06
228.324	67.06
228.559	38.06
228.793	69.06
229.027	61.06
229.262	71.06
229.496	69.06
229.73	60.06
229.964	69.06
230.199	85.06
230.433	83.06
230.667	80.06
230.901	76.06
231.136	92.06
231.37	74.06
231.604	81.06
231.838	68.06
232.072	84.06
232.306	72.06
232.541	82.06
232.775	81.06
233.009	89.06
233.243	89.06
233.477	81.06
233.711	80.06
233.945	70.06
234.179	80.06
234.413	75.06
234.647	83.06
234.881	83.06
235.115	84.06
235.349	68.06
235.583	80.06
235.817	63.06
236.051	79.06
236.285	82.06
236.519	77.06
236.753	80.06
236.987	74.06
237.221	87.06
237.455	83.06
237.689	79.06
237.922	86.06
238.156	72.06
238.39	75.06
238.624	74.06
238.858	80.06
239.091	71.06
239.325	75.06
239.559	77.06
239.793	60.06
240.027	76.06
240.26	73.06
240.494	78.06
240.728	86.06
240.961	79.06
241.195	69.06
241.429	75.06
241.662	68.06
241.896	73.06
242.13	78.06
242.363	64.06
242.597	79.06
242.83	68.06
243.064	87.06
243.298	63.06
243.531	74.06
243.765	80.06
243.998	68.06
244.232	91.06
244.465	86.06
244.699	70.06
244.932	66.06
245.166	64.06
245.399	82.06
245.633	75.06
245.866	89.06
246.099	93.06
246.333	75.06
246.566	83.06
246.8	76.06
247.033	91.06
247.266	86.06
247.5	89.06
247.733	76.06
247.966	89.06
248.2	72.06
248.433	72.06
248.666	75.06
248.899	85.06
249.133	66.06
249.366	86.06
249.599	88.06
249.832	77.06
250.066	62.06
250.299	97.06
250.532	81.06
250.765	85.06
250.998	77.06
251.231	72.06
251.465	77.06
251.698	66.06
251.931	80.06
252.164	83.06
252.397	84.06
252.63	85.06
252.863	72.06
253.096	95.06
253.329	83.06
253.562	84.06
253.795	89.06
254.028	85.06
254.261	84.06
254.494	83.06
254.727	85.06
254.96	87.06
255.193	69.06
255.426	84.06
255.659	72.06
255.892	75.06
256.124	78.06
256.357	80.06
256.59	73.06
256.823	90.06
257.056	85.06
257.289	76.06
257.521	77.06
257.754	74.06
257.987	75.06
258.22	85.06
258.452	77.06
258.685	72.06
258.918	65.06
259.151	79.06
259.383	91.06
259.616	78.06
259.849	72.06
260.081	74.06
260.314	80.06
260.547	89.06
260.779	75.06
261.012	87.06
261.244	82.06
261.477	92.06
261.71	85.06
261.942	86.06
262.175	84.06
262.407	81.06
262.64	84.06
262.872	77.06
263.105	77.06
263.337	84.06
263.57	67.06
263.802	76.06
264.035	89.06
264.267	66.06
264.499	85.06
264.732	88.06
264.964	87.06
265.197	91.06
265.429	85.06
265.661	78.06
265.894	89.06
266.126	78.06
266.358	79.06
266.591	76.06
266.823	83.06
267.055	63.06
267.287	85.06
267.52	91.06
267.752	80.06
267.984	78.06
268.216	75.06
268.448	85.06
268.681	76.06
268.913	80.06
269.145	85.06
269.377	83.06
269.609	82.06
269.841	80.06
270.073	84.06
270.306	77.06
270.538	77.06
270.77	72.06
271.002	79.06
271.234	89.06
271.466	85.06
271.698	83.06
271.93	84.06
272.162	80.06
272.394	82.06
272.626	90.06
272.858	68.06
273.09	62.06
273.322	89.06
273.553	81.06
273.785	89.06
274.017	82.06
274.249	87.06
274.481	80.06
274.713	88.06
274.945	67.06
275.176	72.06
275.408	77.06
275.64	76.06
275.872	84.06
276.104	85.06
276.335	73.06
276.567	87.06
276.799	79.06
277.031	62.06
277.262	90.06
277.494	86.06
277.726	85.06
277.957	91.06
278.189	95.06
278.421	78.06
278.652	90.06
278.884	78.06
279.115	84.06
279.347	80.06
279.579	76.06
279.81	82.06
280.042	87.06
280.273	72.06
280.505	79.06
280.736	91.06
280.968	76.06
281.199	80.06
281.431	71.06
281.662	83.06
281.894	88.06
282.125	71.06
282.356	85.06
282.588	89.06
282.819	78.06
283.051	91.06
283.282	76.06
283.513	67.06
283.745	81.06
283.976	83.06
284.207	78.06
284.439	81.06
284.67	79.06
284.901	93.06
285.132	94.06
285.364	95.06
285.595	77.06
285.826	94.06
286.057	82.06
286.288	77.06
286.52	87.06
286.751	98.06
286.982	85.06
287.213	87.06
287.444	85.06
287.675	91.06
287.906	93.06
288.138	77.06
288.369	80.06
288.6	75.06
288.831	103.06
289.062	77.06
289.293	78.06
289.524	80.06
289.755	88.06
289.986	104.06
290.217	91.06
290.448	83.06
290.679	83.06
290.91	86.06
291.141	81.06
291.371	88.06
291.602	94.06
291.833	89.06
292.064	83.06
292.295	72.06
292.526	76.06
292.757	83.06
292.987	86.06
293.218	71.06
293.449	88.06
293.68	89.06
293.91	83.06
294.141	92.06
294.372	86.06
294.603	95.06
294.833	87.06
295.064	82.06
295.295	84.06
295.525	92.06
295.756	84.06
295.987	71.06
296.217	89.06
296.448	89.06
296.679	68.06
296.909	82.06
297.14	76.06
297.37	85.06
297.601	92.06
297.831	84.06
298.062	85.06
298.292	75.06
298.523	86.06
298.753	82.06
298.984	80.06
299.214	67.06
299.445	86.06
299.675	85.06
299.905	75.06
300.136	72.06
300.366	84.06
300.597	90.06
300.827	95.06
301.057	95.06
301.288	91.06
301.518	76.06
301.748	92.06
301.979	83.06
302.209	90.06
302.439	89.06
302.669	89.06
302.9	76.06
303.13	90.06
303.36	98.06
303.59	81.06
303.82	87.06
304.051	100.06
304.281	89.06
304.511	92.06
304.741	92.06
304.971	81.06
305.201	85.06
305.431	89.06
305.661	91.06
305.891	86.06
306.121	96.06
306.352	85.06
306.582	85.06
306.812	91.06
307.042	72.06
307.272	87.06
307.502	101.06
307.731	85.06
307.961	75.06
308.191	74.06
308.421	94.06
308.651	84.06
308.881	79.06
309.111	87.06
309.341	86.06
309.571	68.06
309.8	86.06
310.03	76.06
310.26	92.06
310.49	98.06
310.72	76.06
310.949	75.06
311.179	70.06
311.409	100.06
311.639	88.06
311.868	81.06
312.098	73.06
312.328	89.06
312.557	103.06
312.787	85.06
313.017	91.06
313.246	84.06
313.476	80.06
313.706	95.06
313.935	96.06
314.165	80.06
314.394	75.06
314.624	103.06
314.853	96.06
315.083	84.06
315.312	85.06
315.542	91.06
315.771	82.06
316.001	91.06
316.23	87.06
316.46	75.06
316.689	86.06
316.919	88.06
317.148	72.06
317.377	73.06
317.607	86.06
317.836	67.06
318.065	90.06
318.295	92.06
318.524	93.06
318.753	80.06
318.983	82.06
319.212	80.06
319.441	81.06
319.67	82.06
319.9	80.06
320.129	81.06
320.358	77.06
320.587	102.06
320.816	90.06
321.046	100.06
321.275	81.06
321.504	78.06
321.733	80.06
321.962	70.06
322.191	84.06
322.42	93.06
322.649	86.06
322.878	88.06
323.108	92.06
323.337	83.06
323.566	95.06
323.795	78.06
324.024	89.06
324.253	80.06
324.482	80.06
324.71	83.06
324.939	84.06
325.168	78.06
325.397	81.06
325.626	88.06
325.855	86.06
326.084	71.06
326.313	83.06
326.542	65.06
326.77	91.06
326.999	75.06
327.228	78.06
327.457	74.06
327.686	81.06
327.914	77.06
328.143	90.06
328.372	88.06
328.6	89.06
328.829	82.06
329.058	88.06
329.287	92.06
329.515	90.06
329.744	82.06
329.972	93.06
330.201	78.06
330.43	88.06
330.658	89.06
330.887	88.06
331.115	87.06
331.344	92.06
331.572	82.06
331.801	70.06
332.03	95.06
332.258	77.06
332.486	72.06
332.715	70.06
332.943	86.06
333.172	87.06
333.4	83.06
333.629	83.06
333.857	77.06
334.085	75.06
334.314	86.06
334.542	83.06
334.771	92.06
334.999	88.06
335.227	82.06
335.455	85.06
335.684	90.06
335.912	97.06
336.14	87.06
336.369	75.06
336.597	80.06
336.825	83.06
337.053	83.06
337.281	77.06
337.51	73.06
337.738	98.06
337.966	82.06
338.194	92.06
338.422	82.06
338.65	85.06
338.878	85.06
339.106	89.06
339.334	87.06
339.562	90.06
339.79	84.06
340.018	90.06
340.246	88.06
340.474	94.06
340.702	89.06
340.93	85.06
341.158	91.06
341.386	85.06
341.614	77.06
341.842	91.06
342.07	78.06
342.298	87.06
342.526	89.06
342.754	92.06
342.981	87.06
343.209	89.06
343.437	88.06
343.665	88.06
343.893	85.06
344.12	81.06
344.348	80.06
344.576	91.06
344.804	88.06
345.031	91.06
345.259	81.06
345.487	96.06
345.714	77.06
345.942	90.06
346.17	77.06
346.397	86.06
346.625	74.06
346.853	89.06
347.08	80.06
347.308	82.06
347.535	89.06
347.763	105.06
347.99	77.06
348.218	74.06
348.445	78.06
348.673	79.06
348.9	74.06
349.128	88.06
349.355	85.06
349.583	89.06
349.81	78.06
350.037	90.06
350.265	90.06
350.492	88.06
350.72	103.06
350.947	76.06
351.174	84.06
351.402	76.06
351.629	79.06
351.856	84.06
352.083	96.06
352.311	88.06
352.538	86.06
352.765	82.06
352.992	97.06
353.22	76.06
353.447	86.06
353.674	93.06
353.901	70.06
354.128	82.06
354.355	85.06
354.583	90.06
354.81	81.06
355.037	74.06
355.264	86.06
355.491	83.06
355.718	91.06
355.945	87.06
356.172	71.06
356.399	80.06
356.626	66.06
356.853	87.06
357.08	81.06
357.307	75.06
357.534	72.06
357.761	84.06
357.988	86.06
358.215	96.06
358.441	97.06
358.668	93.06
358.895	94.06
359.122	81.06
359.349	82.06
359.576	100.06
359.802	88.06
360.029	64.06
360.256	88.06
360.483	77.06
360.709	75.06
360.936	84.06
361.163	97.06
361.39	89.06
361.616	92.06
361.843	88.06
362.07	80.06
362.296	81.06
362.523	83.06
362.749	77.06
362.976	90.06
363.203	87.06
363.429	82.06
363.656	89.06
363.882	77.06
364.109	98.06
364.335	89.06
364.562	81.06
364.788	85.06
365.015	94.06
365.241	83.06
365.468	75.06
365.694	98.06
365.92	78.06
366.147	84.06
366.373	77.06
366.599	89.06
366.826	84.06
367.052	87.06
367.278	83.06
367.505	85.06
367.731	97.06
367.957	97.06
368.184	93.06
368.41	80.06
368.636	88.06
368.862	97.06
369.089	92.06
369.315	103.06
369.541	92.06
369.767	91.06
369.993	95.06
370.219	112.06
370.445	85.06
370.672	81.06
370.898	79.06
371.124	79.06
371.35	98.06
371.576	87.06
371.802	82.06
372.028	93.06
372.254	91.06
372.48	88.06
372.706	85.06
372.932	102.06
373.158	98.06
373.384	93.06
373.61	90.06
373.835	93.06
374.061	91.06
374.287	87.06
374.513	90.06
374.739	95.06
374.965	92.06
375.191	102.06
375.416	99.06
375.642	89.06
375.868	90.06
376.094	91.06
376.319	81.06
376.545	101.06
376.771	90.06
376.997	88.06
377.222	89.06
377.448	98.06
377.674	85.06
377.899	91.06
378.125	88.06
378.35	98.06
378.576	91.06
378.802	90.06
379.027	96.06
379.253	93.06
379.478	96.06
379.704	92.06
379.929	97.06
380.155	102.06
380.38	96.06
380.606	93.06
380.831	96.06
381.057	100.06
381.282	97.06
381.507	99.06
381.733	102.06
381.958	95.06
382.184	96.06
382.409	94.06
382.634	96.06
382.86	91.06
383.085	95.06
383.31	96.06
383.535	82.06
383.761	99.06
383.986	92.06
384.211	106.06
384.436	90.06
384.662	104.06
384.887	106.06
385.112	77.06
385.337	102.06
385.562	98.06
385.787	102.06
386.013	119.06
386.238	106.06
386.463	88.06
386.688	87.06
386.913	94.06
387.138	105.06
387.363	113.06
387.588	99.06
387.813	105.06
388.038	103.06
388.263	111.06
388.488	98.06
388.713	95.06
388.938	96.06
389.163	104.06
389.387	100.06
389.612	105.06
389.837	98.06
390.062	100.06
390.287	104.06
390.512	116.06
390.736	98.06
390.961	104.06
391.186	107.06
391.411	93.06
391.636	107.06
391.86	87.06
392.085	104.06
392.31	105.06
392.534	96.06
392.759	112.06
392.984	113.06
393.208	102.06
393.433	93.06
393.658	92.06
393.882	96.06
394.107	112.06
394.331	119.06
394.556	106.06
394.78	118.06
395.005	108.06
395.229	101.06
395.454	113.06
395.678	102.06
395.903	101.06
396.127	103.06
396.352	106.06
396.576	104.06
396.801	98.06
397.025	103.06
397.249	93.06
397.474	108.06
397.698	105.06
397.922	121.06
398.147	100.06
398.371	107.06
398.595	115.06
398.82	139.06
399.044	97.06
399.268	103.06
399.492	116.06
399.717	117.06
399.941	115.06
400.165	109.06
400.389	94.06
400.613	100.06
400.837	93.06
401.062	90.06
401.286	109.06
401.51	121.06
401.734	119.06
401.958	115.06
402.182	113.06
402.406	104.06
402.63	115.06
402.854	106.06
403.078	101.06
403.302	125.06
403.526	123.06
403.75	117.06
403.974	123.06
404.198	118.06
404.422	125.06
404.645	106.06
404.869	115.06
405.093	125.06
405.317	128.06
405.541	107.06
405.765	109.06
405.988	118.06
406.212	127.06
406.436	123.06
406.66	123.06
406.883	105.06
407.107	122.06
407.331	112.06
407.555	111.06
407.778	104.06
408.002	121.06
408.226	112.06
408.449	117.06
408.673	114.06
408.896	118.06
409.12	108.06
409.344	121.06
409.567	108.06
409.791	103.06
410.014	115.06
410.238	125.06
410.461	127.06
410.685	127.06
410.908	125.06
411.132	121.06
411.355	130.06
411.578	105.06
411.802	123.06
412.025	116.06
412.249	116.06
412.472	114.06
412.695	127.06
412.919	117.06
413.142	135.06
413.365	119.06
413.589	119.06
413.812	100.06
414.035	115.06
414.258	129.06
414.482	117.06
414.705	123.06
414.928	125.06
415.151	124.06
415.374	128.06
415.597	116.06
415.821	119.06
416.044	113.06
416.267	121.06
416.49	124.06
416.713	127.06
416.936	127.06
417.159	125.06
417.382	139.06
417.605	123.06
417.828	136.06
418.051	126.06
418.274	128.06
418.497	115.06
418.72	122.06
418.943	132.06
419.166	132.06
419.389	134.06
419.611	119.06
419.834	136.06
420.057	138.06
420.28	132.06
420.503	136.06
420.726	129.06
420.948	124.06
421.171	122.06
421.394	132.06
421.617	141.06
421.839	134.06
422.062	143.06
422.285	145.06
422.507	128.06
422.73	120.06
422.953	122.06
423.175	140.06
423.398	129.06
423.621	127.06
423.843	132.06
424.066	134.06
424.288	146.06
424.511	145.06
424.733	153.06
424.956	130.06
425.178	142.06
425.401	133.06
425.623	132.06
425.846	135.06
426.068	123.06
426.291	124.06
426.513	121.06
426.735	128.06
426.958	118.06
427.18	128.06
427.402	129.06
427.625	129.06
427.847	133.06
428.069	137.06
428.292	123.06
428.514	124.06
428.736	118.06
428.958	117.06
429.181	107.06
429.403	110.06
429.625	109.06
429.847	117.06
430.069	123.06
430.292	132.06
430.514	126.06
430.736	123.06
430.958	128.06
431.18	127.06
431.402	119.06
431.624	123.06
431.846	112.06
432.068	94.06
432.29	85.06
432.512	102.06
432.734	127.06
432.956	135.06
433.178	134.06
433.4	130.06
433.622	134.06
433.844	151.06
434.066	127.06
434.287	99.06
434.509	93.06
434.731	101.06
434.953	102.06
435.175	125.06
435.397	132.06
435.618	107.06
435.84	95.06
436.062	115.06
436.284	122.06
436.505	131.06
436.727	144.06
436.949	120.06
437.17	130.06
437.392	127.06
437.614	131.06
437.835	123.06
438.057	116.06
438.278	104.06
438.5	123.06
438.721	131.06
438.943	135.06
439.165	139.06
439.386	136.06
439.608	147.06
439.829	145.06
440.05	148.06
440.272	134.06
440.493	145.06
440.715	144.06
440.936	139.06
441.158	147.06
441.379	137.06
441.6	144.06
441.822	156.06
442.043	150.06
442.264	118.06
442.486	129.06
442.707	128.06
442.928	131.06
443.149	141.06
443.371	133.06
443.592	127.06
443.813	124.06
444.034	131.06
444.255	137.06
444.476	147.06
444.698	129.06
444.919	147.06
445.14	251.06
445.361	214.06
445.582	148.06
445.803	144.06
446.024	142.06
446.245	170.06
446.466	144.06
446.687	152.06
446.908	141.06
447.129	154.06
447.35	158.06
447.571	153.06
447.792	131.06
448.013	157.06
448.234	128.06
448.455	151.06
448.675	140.06
448.896	139.06
449.117	147.06
449.338	125.06
449.559	134.06
449.779	130.06
450	147.06
450.221	141.06
450.442	128.06
450.662	132.06
450.883	139.06
451.104	125.06
451.324	116.06
451.545	133.06
451.766	123.06
451.986	123.06
452.207	126.06
452.428	124.06
452.648	127.06
452.869	119.06
453.089	104.06
453.31	108.06
453.53	126.06
453.751	120.06
453.971	99.06
454.192	95.06
454.412	115.06
454.633	112.06
454.853	124.06
455.073	106.06
455.294	115.06
455.514	119.06
455.734	115.06
455.955	114.06
456.175	106.06
456.395	103.06
456.616	121.06
456.836	96.06
457.056	113.06
457.276	102.06
457.497	107.06
457.717	97.06
457.937	91.06
458.157	111.06
458.377	103.06
458.598	88.06
458.818	89.06
459.038	91.06
459.258	86.06
459.478	106.06
459.698	89.06
459.918	98.06
460.138	123.06
460.358	119.06
460.578	116.06
460.798	122.06
461.018	121.06
461.238	117.06
461.458	121.06
461.678	111.06
461.898	120.06
462.118	110.06
462.338	105.06
462.558	119.06
462.777	114.06
462.997	115.06
463.217	110.06
463.437	109.06
463.657	104.06
463.876	90.06
464.096	106.06
464.316	89.06
464.536	95.06
464.755	99.06
464.975	107.06
465.195	127.06
465.414	119.06
465.634	123.06
465.854	113.06
466.073	114.06
466.293	108.06
466.512	125.06
466.732	127.06
466.951	126.06
467.171	137.06
467.391	122.06
467.61	135.06
467.829	133.06
468.049	127.06
468.268	139.06
468.488	136.06
468.707	127.06
468.927	131.06
469.146	147.06
469.365	131.06
469.585	123.06
469.804	133.06
470.023	137.06
470.243	146.06
470.462	136.06
470.681	135.06
470.901	127.06
471.12	125.06
471.339	136.06
471.558	148.06
471.777	139.06
471.997	115.06
472.216	120.06
472.435	126.06
472.654	107.06
472.873	103.06
473.092	101.06
473.311	124.06
473.53	131.06
473.749	127.06
473.968	123.06
474.187	124.06
474.406	136.06
474.625	131.06
474.844	137.06
475.063	126.06
475.282	131.06
475.501	124.06
475.72	121.06
475.939	120.06
476.158	113.06
476.377	129.06
476.596	125.06
476.814	119.06
477.033	110.06
477.252	120.06
477.471	127.06
477.69	130.06
477.908	141.06
478.127	142.06
478.346	118.06
478.564	135.06
478.783	123.06
479.002	127.06
479.22	127.06
479.439	128.06
479.658	108.06
479.876	110.06
480.095	106.06
480.313	102.06
480.532	117.06
480.751	107.06
480.969	95.06
481.188	91.06
481.406	86.06
481.624	92.06
481.843	80.06
482.061	87.06
482.28	111.06
482.498	107.06
482.717	101.06
482.935	120.06
483.153	123.06
483.372	147.06
483.59	159.06
483.808	138.06
484.027	121.06
484.245	141.06
484.463	143.06
484.681	172.06
484.9	163.06
485.118	132.06
485.336	127.06
485.554	104.06
485.772	104.06
485.99	106.06
486.209	119.06
486.427	94.06
486.645	117.06
486.863	134.06
487.081	150.06
487.299	122.06
487.517	145.06
487.735	161.06
487.953	186.06
488.171	156.06
488.389	156.06
488.607	160.06
488.825	147.06
489.043	140.06
489.261	132.06
489.479	151.06
489.696	139.06
489.914	139.06
490.132	138.06
490.35	144.06
490.568	153.06
490.786	172.06
491.003	175.06
491.221	165.06
491.439	187.06
491.657	187.06
491.874	203.06
492.092	215.06
492.31	236.06
492.527	211.06
492.745	205.06
492.963	183.06
493.18	180.06
493.398	170.06
493.615	154.06
493.833	159.06
494.05	162.06
494.268	167.06
494.485	164.06
494.703	155.06
494.92	172.06
495.138	168.06
495.355	179.06
495.573	161.06
495.79	161.06
496.008	147.06
496.225	167.06
496.442	171.06
496.66	164.06
496.877	144.06
497.094	161.06
497.312	145.06
497.529	161.06
497.746	135.06
497.963	151.06
498.181	143.06
498.398	129.06
498.615	121.06
498.832	123.06
499.049	124.06
499.267	119.06
499.484	139.06
499.701	133.06
499.918	130.06
500.135	131.06
500.352	124.06
500.569	118.06
500.786	147.06
501.003	143.06
501.22	138.06
501.437	133.06
501.654	117.06
501.871	123.06
502.088	104.06
502.305	135.06
502.522	125.06
502.739	127.06
502.956	114.06
503.172	130.06
503.389	121.06
503.606	129.06
503.823	113.06
504.04	131.06
504.256	112.06
504.473	118.06
504.69	122.06
504.907	125.06
505.123	123.06
505.34	107.06
505.557	128.06
505.773	123.06
505.99	108.06
506.207	111.06
506.423	121.06
506.64	122.06
506.856	128.06
507.073	111.06
507.289	127.06
507.506	116.06
507.722	119.06
507.939	104.06
508.155	117.06
508.372	120.06
508.588	116.06
508.805	115.06
509.021	92.06
509.238	112.06
509.454	95.06
509.67	102.06
509.887	99.06
510.103	90.06
510.319	113.06
510.536	89.06
510.752	99.06
510.968	77.06
511.184	90.06
511.401	92.06
511.617	80.06
511.833	87.06
512.049	98.06
512.265	101.06
512.481	106.06
512.698	87.06
512.914	98.06
513.13	95.06
513.346	82.06
513.562	82.06
513.778	79.06
513.994	88.06
514.21	89.06
514.426	99.06
514.642	91.06
514.858	91.06
515.074	89.06
515.29	93.06
515.506	92.06
515.721	87.06
515.937	88.06
516.153	94.06
516.369	87.06
516.585	95.06
516.801	91.06
517.016	87.06
517.232	96.06
517.448	92.06
517.664	92.06
517.879	95.06
518.095	88.06
518.311	107.06
518.527	90.06
518.742	108.06
518.958	98.06
519.173	92.06
519.389	108.06
519.605	108.06
519.82	106.06
520.036	108.06
520.251	91.06
520.467	88.06
520.682	94.06
520.898	89.06
521.113	87.06
521.329	90.06
521.544	82.06
521.76	99.06
521.975	96.06
522.19	95.06
522.406	103.06
522.621	87.06
522.836	97.06
523.052	113.06
523.267	106.06
523.482	108.06
523.698	110.06
523.913	101.06
524.128	109.06
524.343	124.06
524.559	112.06
524.774	125.06
524.989	131.06
525.204	117.06
525.419	118.06
525.634	113.06
525.849	109.06
526.064	111.06
526.28	111.06
526.495	97.06
526.71	77.06
526.925	83.06
527.14	76.06
527.355	93.06
527.57	88.06
527.785	108.06
527.999	85.06
528.214	108.06
528.429	112.06
528.644	131.06
528.859	131.06
529.074	154.06
529.289	157.06
529.503	167.06
529.718	140.06
529.933	127.06
530.148	104.06
530.363	92.06
530.577	91.06
530.792	90.06
531.007	80.06
531.221	82.06
531.436	83.06
531.651	81.06
531.865	67.06
532.08	87.06
532.295	95.06
532.509	92.06
532.724	86.06
532.938	96.06
533.153	97.06
533.367	120.06
533.582	137.06
533.796	121.06
534.011	102.06
534.225	107.06
534.44	101.06
534.654	99.06
534.868	87.06
535.083	98.06
535.297	72.06
535.511	113.06
535.726	105.06
535.94	106.06
536.154	111.06
536.369	94.06
536.583	76.06
536.797	88.06
537.011	103.06
537.225	91.06
537.44	91.06
537.654	91.06
537.868	91.06
538.082	85.06
538.296	93.06
538.51	101.06
538.724	117.06
538.938	104.06
539.153	112.06
539.367	117.06
539.581	104.06
539.795	103.06
540.009	93.06
540.222	111.06
540.436	103.06
540.65	122.06
540.864	128.06
541.078	142.06
541.292	140.06
541.506	143.06
541.72	171.06
541.934	177.06
542.147	185.06
542.361	163.06
542.575	164.06
542.789	152.06
543.002	139.06
543.216	137.06
543.43	124.06
543.644	122.06
543.857	136.06
544.071	155.06
544.285	170.06
544.498	157.06
544.712	169.06
544.925	167.06
545.139	145.06
545.352	143.06
545.566	161.06
545.779	157.06
545.993	157.06
546.206	160.06
546.42	161.06
546.633	172.06
546.847	167.06
547.06	151.06
547.274	169.06
547.487	186.06
547.7	175.06
547.914	166.06
548.127	138.06
548.34	152.06
548.554	163.06
548.767	158.06
548.98	151.06
549.193	149.06
549.407	161.06
549.62	146.06
549.833	140.06
550.046	166.06
550.259	132.06
550.473	156.06
550.686	158.06
550.899	166.06
551.112	152.06
551.325	142.06
551.538	135.06
551.751	121.06
551.964	120.06
552.177	131.06
552.39	120.06
552.603	130.06
552.816	151.06
553.029	141.06
553.242	178.06
553.455	154.06
553.667	150.06
553.88	147.06
554.093	154.06
554.306	160.06
554.519	124.06
554.732	141.06
554.944	152.06
555.157	145.06
555.37	149.06
555.583	147.06
555.795	151.06
556.008	142.06
556.221	129.06
556.433	131.06
556.646	131.06
556.859	151.06
557.071	147.06
557.284	149.06
557.496	138.06
557.709	130.06
557.921	152.06
558.134	134.06
558.346	127.06
558.559	111.06
558.771	131.06
558.984	132.06
559.196	126.06
559.409	133.06
559.621	126.06
559.833	122.06
560.046	124.06
560.258	133.06
560.47	123.06
560.683	129.06
560.895	141.06
561.107	134.06
561.32	121.06
561.532	123.06
561.744	145.06
561.956	121.06
562.168	124.06
562.381	133.06
562.593	134.06
562.805	128.06
563.017	125.06
563.229	121.06
563.441	115.06
563.653	127.06
563.865	117.06
564.077	125.06
564.289	128.06
564.501	131.06
564.713	123.06
564.925	101.06
565.137	111.06
565.349	115.06
565.561	109.06
565.773	117.06
565.985	117.06
566.197	119.06
566.408	121.06
566.62	116.06
566.832	123.06
567.044	109.06
567.255	115.06
567.467	118.06
567.679	108.06
567.891	107.06
568.102	103.06
568.314	91.06
568.526	88.06
568.737	78.06
568.949	73.06
569.161	72.06
569.372	82.06
569.584	100.06
569.795	93.06
570.007	75.06
570.218	80.06
570.43	89.06
570.641	78.06
570.853	97.06
571.064	111.06
571.276	111.06
571.487	103.06
571.698	109.06
571.91	108.06
572.121	95.06
572.333	107.06
572.544	97.06
572.755	95.06
572.966	103.06
573.178	76.06
573.389	93.06
573.6	82.06
573.811	76.06
574.023	79.06
574.234	86.06
574.445	91.06
574.656	97.06
574.867	91.06
575.078	93.06
575.289	98.06
575.501	96.06
575.712	87.06
575.923	95.06
576.134	96.06
576.345	91.06
576.556	93.06
576.767	93.06
576.978	102.06
577.188	96.06
577.399	98.06
577.61	90.06
577.821	93.06
578.032	82.06
578.243	91.06
578.454	102.06
578.665	100.06
578.875	106.06
579.086	90.06
579.297	65.06
579.508	101.06
579.718	84.06
579.929	107.06
580.14	92.06
580.35	92.06
580.561	93.06
580.772	96.06
580.982	93.06
581.193	108.06
581.403	96.06
581.614	87.06
581.825	89.06
582.035	91.06
582.246	87.06
582.456	96.06
582.667	101.06
582.877	87.06
583.087	98.06
583.298	100.06
583.508	88.06
583.719	89.06
583.929	100.06
584.139	85.06
584.35	85.06
584.56	93.06
584.77	101.06
584.981	88.06
585.191	90.06
585.401	85.06
585.611	105.06
585.821	80.06
586.032	101.06
586.242	71.06
586.452	88.06
586.662	89.06
586.872	87.06
587.082	85.06
587.292	79.06
587.502	79.06
587.713	90.06
587.923	75.06
588.133	82.06
588.343	85.06
588.553	80.06
588.762	81.06
588.972	90.06
589.182	85.06
589.392	77.06
589.602	81.06
589.812	81.06
590.022	88.06
590.232	87.06
590.441	86.06
590.651	63.06
590.861	68.06
591.071	97.06
591.281	82.06
591.49	83.06
591.7	92.06
591.91	82.06
592.119	84.06
592.329	81.06
592.539	73.06
592.748	84.06
592.958	87.06
593.167	62.06
593.377	85.06
593.587	90.06
593.796	77.06
594.006	81.06
594.215	73.06
594.424	88.06
594.634	84.06
594.843	88.06
595.053	91.06
595.262	86.06
595.472	98.06
595.681	90.06
595.89	105.06
596.1	95.06
596.309	88.06
596.518	76.06
596.727	103.06
596.937	87.06
597.146	78.06
597.355	96.06
597.564	89.06
597.774	87.06
597.983	96.06
598.192	85.06
598.401	94.06
598.61	90.06
598.819	89.06
599.028	103.06
599.237	96.06
599.446	89.06
599.655	88.06
599.864	81.06
600.073	102.06
600.282	103.06
600.491	82.06
600.7	91.06
600.909	102.06
601.118	100.06
601.327	96.06
601.536	102.06
601.745	119.06
601.953	101.06
602.162	104.06
602.371	99.06
602.58	107.06
602.789	103.06
602.997	108.06
603.206	113.06
603.415	108.06
603.623	107.06
603.832	109.06
604.041	109.06
604.249	99.06
604.458	100.06
604.666	104.06
604.875	97.06
605.084	104.06
605.292	101.06
605.501	104.06
605.709	92.06
605.918	112.06
606.126	113.06
606.334	126.06
606.543	109.06
606.751	98.06
606.96	105.06
607.168	100.06
607.376	107.06
607.585	119.06
607.793	124.06
608.001	116.06
608.21	116.06
608.418	129.06
608.626	108.06
608.834	113.06
609.043	103.06
609.251	111.06
609.459	123.06
609.667	124.06
609.875	106.06
610.083	116.06
610.291	116.06
610.499	114.06
610.707	103.06
610.916	120.06
611.124	120.06
611.332	107.06
611.54	111.06
611.748	121.06
611.955	123.06
612.163	123.06
612.371	121.06
612.579	107.06
612.787	107.06
612.995	118.06
613.203	113.06
613.411	131.06
613.618	98.06
613.826	125.06
614.034	112.06
614.242	107.06
614.449	108.06
614.657	110.06
614.865	127.06
615.072	122.06
615.28	111.06
615.488	104.06
615.695	98.06
615.903	112.06
616.111	105.06
616.318	111.06
616.526	117.06
616.733	122.06
616.941	120.06
617.148	113.06
617.356	104.06
617.563	116.06
617.771	110.06
617.978	114.06
618.185	106.06
618.393	106.06
618.6	113.06
618.807	107.06
619.015	117.06
619.222	111.06
619.429	96.06
619.637	110.06
619.844	121.06
620.051	95.06
620.258	97.06
620.466	115.06
620.673	97.06
620.88	99.06
621.087	101.06
621.294	111.06
621.501	109.06
621.708	112.06
621.915	100.06
622.122	111.06
622.329	109.06
622.536	106.06
622.743	103.06
622.95	119.06
623.157	114.06
623.364	95.06
623.571	113.06
623.778	88.06
623.985	107.06
624.192	99.06
624.399	121.06
624.606	123.06
624.812	109.06
625.019	114.06
625.226	106.06
625.433	95.06
625.639	97.06
625.846	103.06
626.053	97.06
626.259	85.06
626.466	95.06
626.673	101.06
626.879	108.06
627.086	86.06
627.293	109.06
627.499	94.06
627.706	117.06
627.912	107.06
628.119	81.06
628.325	90.06
628.532	114.06
628.738	120.06
628.945	102.06
629.151	103.06
629.357	106.06
629.564	97.06
629.77	109.06
629.976	94.06
630.183	93.06
630.389	93.06
630.595	98.06
630.802	94.06
631.008	101.06
631.214	99.06
631.42	102.06
631.627	94.06
631.833	99.06
632.039	105.06
632.245	104.06
632.451	106.06
632.657	89.06
632.863	101.06
633.069	111.06
633.275	92.06
633.481	81.06
633.688	111.06
633.893	98.06
634.099	89.06
634.305	92.06
634.511	94.06
634.717	102.06
634.923	109.06
635.129	105.06
635.335	94.06
635.541	112.06
635.747	103.06
635.952	80.06
636.158	106.06
636.364	96.06
636.57	107.06
636.775	120.06
636.981	112.06
637.187	100.06
637.392	100.06
637.598	102.06
637.804	111.06
638.009	95.06
638.215	114.06
638.421	100.06
638.626	101.06
638.832	107.06
639.037	93.06
639.243	111.06
639.448	115.06
639.654	103.06
639.859	102.06
640.065	90.06
640.27	99.06
640.475	108.06
640.681	95.06
640.886	99.06
641.091	98.06
641.297	116.06
641.502	90.06
641.707	94.06
641.913	108.06
642.118	90.06
642.323	94.06
642.528	98.06
642.733	101.06
642.939	97.06
643.144	103.06
643.349	101.06
643.554	87.06
643.759	89.06
643.964	98.06
644.169	92.06
644.374	90.06
644.579	88.06
644.784	101.06
644.989	104.06
645.194	107.06
645.399	101.06
645.604	94.06
645.809	95.06
646.014	89.06
646.219	103.06
646.423	108.06
646.628	97.06
646.833	88.06
647.038	95.06
647.243	99.06
647.447	100.06
647.652	97.06
647.857	97.06
648.062	94.06
648.266	107.06
648.471	94.06
648.676	92.06
648.88	108.06
649.085	95.06
649.289	115.06
649.494	89.06
649.698	86.06
649.903	97.06
650.107	93.06
650.312	116.06
650.516	103.06
650.721	90.06
650.925	97.06
651.13	96.06
651.334	95.06
651.539	89.06
651.743	102.06
651.947	93.06
652.152	100.06
652.356	85.06
652.56	93.06
652.764	101.06
652.969	97.06
653.173	90.06
653.377	92.06
653.581	99.06
653.785	94.06
653.99	96.06
654.194	89.06
654.398	88.06
654.602	107.06
654.806	97.06
655.01	76.06
655.214	91.06
655.418	79.06
655.622	86.06
655.826	78.06
656.03	93.06
656.234	119.06
656.438	96.06
656.642	95.06
656.846	85.06
657.049	80.06
657.253	75.06
657.457	88.06
657.661	79.06
657.865	95.06
658.068	102.06
658.272	78.06
658.476	87.06
658.68	80.06
658.883	87.06
659.087	89.06
659.291	87.06
659.494	85.06
659.698	89.06
659.901	87.06
660.105	85.06
660.309	84.06
660.512	85.06
660.716	82.06
660.919	91.06
661.123	75.06
661.326	83.06
661.53	79.06
661.733	72.06
661.936	81.06
662.14	84.06
662.343	75.06
662.546	88.06
662.75	98.06
662.953	85.06
663.156	91.06
663.36	69.06
663.563	82.06
663.766	74.06
663.969	84.06
664.173	90.06
664.376	86.06
664.579	99.06
664.782	74.06
664.985	68.06
665.188	64.06
665.391	71.06
665.594	87.06
665.797	88.06
666	89.06
666.203	80.06
666.406	75.06
666.609	90.06
666.812	96.06
667.015	81.06
667.218	70.06
667.421	81.06
667.624	84.06
667.827	82.06
668.03	82.06
668.232	88.06
668.435	75.06
668.638	93.06
668.841	85.06
669.043	81.06
669.246	75.06
669.449	79.06
669.651	80.06
669.854	82.06
670.057	96.06
670.259	84.06
670.462	84.06
670.665	76.06
670.867	78.06
671.07	70.06
671.272	83.06
671.475	79.06
671.677	81.06
671.88	92.06
672.082	76.06
672.284	91.06
672.487	81.06
672.689	77.06
672.892	75.06
