Data from Location4.07152019.Energy5.Lamp.07192019.3%Agarose_HRD10591_16-20-23-925.txt Node
Date: Fri Jul 19 16:20:23 EDT 2019
User: cochatt
Spectrometer: HR+D1059
Trigger mode: 1
Integration Time (sec): 1.000000E-1
Scans to average: 1
Electric dark correction enabled: true
Nonlinearity correction enabled: false
Boxcar width: 0
XAxis mode: Wavelengths
Number of Pixels in Spectrum: 2048
>>>>>Begin Spectral Data<<<<<
223.165	-19.31
223.4	-19.31
223.635	-19.31
223.869	-13.31
224.104	-23.31
224.338	-16.31
224.573	-2.31
224.808	-7.31
225.042	-17.31
225.277	-2.31
225.511	-15.31
225.746	19.69
225.98	3.69
226.215	14.69
226.449	11.69
226.683	21.69
226.918	23.69
227.152	21.69
227.387	21.69
227.621	26.69
227.856	48.69
228.09	34.69
228.324	46.69
228.559	56.69
228.793	58.69
229.027	53.69
229.262	52.69
229.496	55.69
229.73	60.69
229.964	70.69
230.199	71.69
230.433	59.69
230.667	66.69
230.901	68.69
231.136	71.69
231.37	89.69
231.604	66.69
231.838	68.69
232.072	79.69
232.306	70.69
232.541	77.69
232.775	74.69
233.009	83.69
233.243	83.69
233.477	74.69
233.711	79.69
233.945	69.69
234.179	86.69
234.413	67.69
234.647	85.69
234.881	62.69
235.115	71.69
235.349	70.69
235.583	80.69
235.817	51.69
236.051	77.69
236.285	84.69
236.519	86.69
236.753	79.69
236.987	72.69
237.221	67.69
237.455	65.69
237.689	73.69
237.922	59.69
238.156	64.69
238.39	70.69
238.624	70.69
238.858	69.69
239.091	66.69
239.325	56.69
239.559	70.69
239.793	70.69
240.027	72.69
240.26	69.69
240.494	77.69
240.728	74.69
240.961	83.69
241.195	78.69
241.429	68.69
241.662	71.69
241.896	71.69
242.13	76.69
242.363	70.69
242.597	72.69
242.83	80.69
243.064	69.69
243.298	81.69
243.531	61.69
243.765	80.69
243.998	68.69
244.232	68.69
244.465	73.69
244.699	78.69
244.932	67.69
245.166	65.69
245.399	61.69
245.633	79.69
245.866	77.69
246.099	76.69
246.333	81.69
246.566	69.69
246.8	62.69
247.033	77.69
247.266	68.69
247.5	87.69
247.733	61.69
247.966	73.69
248.2	70.69
248.433	67.69
248.666	73.69
248.899	79.69
249.133	80.69
249.366	74.69
249.599	77.69
249.832	80.69
250.066	78.69
250.299	63.69
250.532	68.69
250.765	75.69
250.998	69.69
251.231	71.69
251.465	80.69
251.698	76.69
251.931	74.69
252.164	92.69
252.397	63.69
252.63	74.69
252.863	70.69
253.096	69.69
253.329	90.69
253.562	60.69
253.795	73.69
254.028	87.69
254.261	53.69
254.494	70.69
254.727	67.69
254.96	81.69
255.193	66.69
255.426	71.69
255.659	76.69
255.892	80.69
256.124	73.69
256.357	53.69
256.59	76.69
256.823	77.69
257.056	73.69
257.289	85.69
257.521	63.69
257.754	70.69
257.987	83.69
258.22	81.69
258.452	66.69
258.685	83.69
258.918	75.69
259.151	71.69
259.383	77.69
259.616	75.69
259.849	83.69
260.081	82.69
260.314	73.69
260.547	65.69
260.779	62.69
261.012	81.69
261.244	72.69
261.477	67.69
261.71	77.69
261.942	69.69
262.175	72.69
262.407	86.69
262.64	87.69
262.872	63.69
263.105	77.69
263.337	83.69
263.57	67.69
263.802	80.69
264.035	78.69
264.267	81.69
264.499	78.69
264.732	86.69
264.964	68.69
265.197	73.69
265.429	77.69
265.661	80.69
265.894	76.69
266.126	79.69
266.358	74.69
266.591	64.69
266.823	71.69
267.055	77.69
267.287	80.69
267.52	46.69
267.752	68.69
267.984	82.69
268.216	79.69
268.448	77.69
268.681	72.69
268.913	79.69
269.145	71.69
269.377	62.69
269.609	69.69
269.841	86.69
270.073	68.69
270.306	74.69
270.538	80.69
270.77	86.69
271.002	77.69
271.234	78.69
271.466	80.69
271.698	77.69
271.93	80.69
272.162	78.69
272.394	82.69
272.626	69.69
272.858	78.69
273.09	92.69
273.322	84.69
273.553	72.69
273.785	79.69
274.017	84.69
274.249	69.69
274.481	75.69
274.713	72.69
274.945	76.69
275.176	72.69
275.408	81.69
275.64	89.69
275.872	90.69
276.104	93.69
276.335	73.69
276.567	56.69
276.799	71.69
277.031	65.69
277.262	77.69
277.494	75.69
277.726	75.69
277.957	70.69
278.189	79.69
278.421	81.69
278.652	87.69
278.884	66.69
279.115	70.69
279.347	68.69
279.579	83.69
279.81	86.69
280.042	71.69
280.273	86.69
280.505	86.69
280.736	72.69
280.968	73.69
281.199	64.69
281.431	68.69
281.662	76.69
281.894	84.69
282.125	79.69
282.356	74.69
282.588	79.69
282.819	85.69
283.051	82.69
283.282	68.69
283.513	78.69
283.745	69.69
283.976	77.69
284.207	80.69
284.439	77.69
284.67	84.69
284.901	90.69
285.132	87.69
285.364	80.69
285.595	88.69
285.826	89.69
286.057	73.69
286.288	81.69
286.52	87.69
286.751	78.69
286.982	67.69
287.213	71.69
287.444	71.69
287.675	74.69
287.906	81.69
288.138	71.69
288.369	73.69
288.6	66.69
288.831	79.69
289.062	82.69
289.293	82.69
289.524	75.69
289.755	67.69
289.986	83.69
290.217	87.69
290.448	68.69
290.679	77.69
290.91	78.69
291.141	78.69
291.371	80.69
291.602	79.69
291.833	87.69
292.064	81.69
292.295	79.69
292.526	72.69
292.757	81.69
292.987	86.69
293.218	86.69
293.449	68.69
293.68	57.69
293.91	75.69
294.141	77.69
294.372	75.69
294.603	89.69
294.833	67.69
295.064	67.69
295.295	77.69
295.525	76.69
295.756	86.69
295.987	85.69
296.217	71.69
296.448	65.69
296.679	79.69
296.909	102.69
297.14	78.69
297.37	81.69
297.601	85.69
297.831	84.69
298.062	83.69
298.292	72.69
298.523	68.69
298.753	76.69
298.984	87.69
299.214	87.69
299.445	81.69
299.675	81.69
299.905	77.69
300.136	100.69
300.366	91.69
300.597	83.69
300.827	89.69
301.057	63.69
301.288	84.69
301.518	79.69
301.748	80.69
301.979	94.69
302.209	73.69
302.439	74.69
302.669	72.69
302.9	83.69
303.13	79.69
303.36	83.69
303.59	87.69
303.82	70.69
304.051	71.69
304.281	76.69
304.511	89.69
304.741	82.69
304.971	84.69
305.201	87.69
305.431	76.69
305.661	69.69
305.891	81.69
306.121	77.69
306.352	84.69
306.582	68.69
306.812	83.69
307.042	89.69
307.272	96.69
307.502	66.69
307.731	72.69
307.961	77.69
308.191	73.69
308.421	85.69
308.651	68.69
308.881	74.69
309.111	79.69
309.341	71.69
309.571	67.69
309.8	64.69
310.03	87.69
310.26	80.69
310.49	83.69
310.72	86.69
310.949	86.69
311.179	79.69
311.409	80.69
311.639	98.69
311.868	81.69
312.098	91.69
312.328	71.69
312.557	76.69
312.787	88.69
313.017	79.69
313.246	90.69
313.476	71.69
313.706	81.69
313.935	81.69
314.165	91.69
314.394	89.69
314.624	74.69
314.853	87.69
315.083	92.69
315.312	100.69
315.542	72.69
315.771	95.69
316.001	76.69
316.23	85.69
316.46	81.69
316.689	87.69
316.919	86.69
317.148	76.69
317.377	79.69
317.607	88.69
317.836	75.69
318.065	80.69
318.295	84.69
318.524	83.69
318.753	88.69
318.983	89.69
319.212	91.69
319.441	65.69
319.67	71.69
319.9	98.69
320.129	82.69
320.358	83.69
320.587	74.69
320.816	89.69
321.046	86.69
321.275	88.69
321.504	82.69
321.733	88.69
321.962	93.69
322.191	84.69
322.42	67.69
322.649	72.69
322.878	87.69
323.108	74.69
323.337	92.69
323.566	83.69
323.795	83.69
324.024	85.69
324.253	88.69
324.482	69.69
324.71	74.69
324.939	75.69
325.168	76.69
325.397	92.69
325.626	68.69
325.855	96.69
326.084	88.69
326.313	89.69
326.542	91.69
326.77	74.69
326.999	80.69
327.228	86.69
327.457	82.69
327.686	80.69
327.914	86.69
328.143	89.69
328.372	84.69
328.6	78.69
328.829	69.69
329.058	86.69
329.287	65.69
329.515	76.69
329.744	68.69
329.972	75.69
330.201	73.69
330.43	81.69
330.658	78.69
330.887	73.69
331.115	85.69
331.344	85.69
331.572	80.69
331.801	79.69
332.03	79.69
332.258	79.69
332.486	88.69
332.715	81.69
332.943	93.69
333.172	87.69
333.4	71.69
333.629	95.69
333.857	87.69
334.085	92.69
334.314	73.69
334.542	69.69
334.771	92.69
334.999	86.69
335.227	77.69
335.455	88.69
335.684	84.69
335.912	67.69
336.14	79.69
336.369	76.69
336.597	85.69
336.825	86.69
337.053	78.69
337.281	81.69
337.51	73.69
337.738	77.69
337.966	89.69
338.194	86.69
338.422	83.69
338.65	66.69
338.878	87.69
339.106	85.69
339.334	100.69
339.562	97.69
339.79	81.69
340.018	84.69
340.246	73.69
340.474	80.69
340.702	67.69
340.93	77.69
341.158	90.69
341.386	81.69
341.614	86.69
341.842	88.69
342.07	80.69
342.298	67.69
342.526	80.69
342.754	75.69
342.981	76.69
343.209	72.69
343.437	79.69
343.665	77.69
343.893	77.69
344.12	84.69
344.348	84.69
344.576	90.69
344.804	80.69
345.031	68.69
345.259	72.69
345.487	75.69
345.714	75.69
345.942	78.69
346.17	75.69
346.397	80.69
346.625	81.69
346.853	88.69
347.08	71.69
347.308	86.69
347.535	75.69
347.763	86.69
347.99	67.69
348.218	69.69
348.445	76.69
348.673	76.69
348.9	79.69
349.128	78.69
349.355	87.69
349.583	82.69
349.81	86.69
350.037	85.69
350.265	84.69
350.492	67.69
350.72	88.69
350.947	82.69
351.174	85.69
351.402	86.69
351.629	80.69
351.856	74.69
352.083	85.69
352.311	75.69
352.538	82.69
352.765	68.69
352.992	72.69
353.22	87.69
353.447	83.69
353.674	75.69
353.901	72.69
354.128	79.69
354.355	78.69
354.583	69.69
354.81	81.69
355.037	77.69
355.264	91.69
355.491	82.69
355.718	81.69
355.945	71.69
356.172	72.69
356.399	84.69
356.626	86.69
356.853	91.69
357.08	85.69
357.307	87.69
357.534	81.69
357.761	80.69
357.988	84.69
358.215	83.69
358.441	82.69
358.668	69.69
358.895	92.69
359.122	79.69
359.349	76.69
359.576	76.69
359.802	82.69
360.029	79.69
360.256	84.69
360.483	83.69
360.709	72.69
360.936	73.69
361.163	67.69
361.39	89.69
361.616	97.69
361.843	83.69
362.07	73.69
362.296	82.69
362.523	93.69
362.749	76.69
362.976	85.69
363.203	84.69
363.429	81.69
363.656	80.69
363.882	78.69
364.109	88.69
364.335	77.69
364.562	81.69
364.788	79.69
365.015	94.69
365.241	87.69
365.468	87.69
365.694	84.69
365.92	77.69
366.147	69.69
366.373	81.69
366.599	79.69
366.826	97.69
367.052	93.69
367.278	82.69
367.505	93.69
367.731	76.69
367.957	78.69
368.184	84.69
368.41	88.69
368.636	95.69
368.862	99.69
369.089	98.69
369.315	75.69
369.541	85.69
369.767	97.69
369.993	84.69
370.219	82.69
370.445	94.69
370.672	74.69
370.898	82.69
371.124	85.69
371.35	92.69
371.576	77.69
371.802	88.69
372.028	83.69
372.254	81.69
372.48	83.69
372.706	103.69
372.932	98.69
373.158	93.69
373.384	80.69
373.61	94.69
373.835	78.69
374.061	83.69
374.287	81.69
374.513	85.69
374.739	86.69
374.965	84.69
375.191	76.69
375.416	101.69
375.642	82.69
375.868	91.69
376.094	87.69
376.319	83.69
376.545	69.69
376.771	82.69
376.997	83.69
377.222	102.69
377.448	89.69
377.674	97.69
377.899	80.69
378.125	87.69
378.35	91.69
378.576	93.69
378.802	89.69
379.027	86.69
379.253	94.69
379.478	98.69
379.704	96.69
379.929	66.69
380.155	85.69
380.38	94.69
380.606	91.69
380.831	77.69
381.057	95.69
381.282	90.69
381.507	108.69
381.733	101.69
381.958	102.69
382.184	83.69
382.409	89.69
382.634	85.69
382.86	105.69
383.085	99.69
383.31	95.69
383.535	85.69
383.761	105.69
383.986	84.69
384.211	85.69
384.436	100.69
384.662	84.69
384.887	92.69
385.112	87.69
385.337	81.69
385.562	97.69
385.787	85.69
386.013	93.69
386.238	100.69
386.463	91.69
386.688	88.69
386.913	93.69
387.138	89.69
387.363	86.69
387.588	104.69
387.813	97.69
388.038	92.69
388.263	89.69
388.488	103.69
388.713	99.69
388.938	89.69
389.163	96.69
389.387	98.69
389.612	108.69
389.837	91.69
390.062	102.69
390.287	105.69
390.512	108.69
390.736	93.69
390.961	98.69
391.186	96.69
391.411	93.69
391.636	91.69
391.86	101.69
392.085	97.69
392.31	100.69
392.534	102.69
392.759	114.69
392.984	113.69
393.208	107.69
393.433	93.69
393.658	103.69
393.882	85.69
394.107	103.69
394.331	111.69
394.556	108.69
394.78	97.69
395.005	105.69
395.229	108.69
395.454	102.69
395.678	91.69
395.903	108.69
396.127	113.69
396.352	100.69
396.576	98.69
396.801	121.69
397.025	99.69
397.249	92.69
397.474	105.69
397.698	105.69
397.922	111.69
398.147	100.69
398.371	98.69
398.595	96.69
398.82	114.69
399.044	93.69
399.268	104.69
399.492	109.69
399.717	112.69
399.941	110.69
400.165	113.69
400.389	108.69
400.613	111.69
400.837	102.69
401.062	112.69
401.286	105.69
401.51	99.69
401.734	89.69
401.958	98.69
402.182	111.69
402.406	102.69
402.63	103.69
402.854	114.69
403.078	119.69
403.302	119.69
403.526	119.69
403.75	123.69
403.974	113.69
404.198	102.69
404.422	107.69
404.645	113.69
404.869	102.69
405.093	119.69
405.317	120.69
405.541	109.69
405.765	125.69
405.988	111.69
406.212	101.69
406.436	113.69
406.66	119.69
406.883	113.69
407.107	104.69
407.331	108.69
407.555	118.69
407.778	109.69
408.002	115.69
408.226	106.69
408.449	101.69
408.673	109.69
408.896	111.69
409.12	108.69
409.344	102.69
409.567	111.69
409.791	119.69
410.014	113.69
410.238	129.69
410.461	120.69
410.685	109.69
410.908	103.69
411.132	112.69
411.355	123.69
411.578	101.69
411.802	109.69
412.025	116.69
412.249	127.69
412.472	131.69
412.695	117.69
412.919	115.69
413.142	116.69
413.365	104.69
413.589	118.69
413.812	113.69
414.035	123.69
414.258	123.69
414.482	127.69
414.705	128.69
414.928	119.69
415.151	97.69
415.374	103.69
415.597	115.69
415.821	115.69
416.044	116.69
416.267	109.69
416.49	117.69
416.713	124.69
416.936	120.69
417.159	109.69
417.382	114.69
417.605	118.69
417.828	122.69
418.051	113.69
418.274	119.69
418.497	132.69
418.72	121.69
418.943	121.69
419.166	136.69
419.389	117.69
419.611	122.69
419.834	134.69
420.057	129.69
420.28	112.69
420.503	131.69
420.726	113.69
420.948	123.69
421.171	142.69
421.394	131.69
421.617	125.69
421.839	128.69
422.062	118.69
422.285	131.69
422.507	137.69
422.73	115.69
422.953	115.69
423.175	107.69
423.398	118.69
423.621	129.69
423.843	131.69
424.066	145.69
424.288	137.69
424.511	140.69
424.733	123.69
424.956	130.69
425.178	120.69
425.401	131.69
425.623	128.69
425.846	125.69
426.068	135.69
426.291	119.69
426.513	118.69
426.735	119.69
426.958	135.69
427.18	127.69
427.402	126.69
427.625	105.69
427.847	114.69
428.069	134.69
428.292	125.69
428.514	117.69
428.736	116.69
428.958	134.69
429.181	120.69
429.403	116.69
429.625	127.69
429.847	123.69
430.069	115.69
430.292	132.69
430.514	119.69
430.736	116.69
430.958	104.69
431.18	111.69
431.402	113.69
431.624	98.69
431.846	96.69
432.068	95.69
432.29	93.69
432.512	96.69
432.734	117.69
432.956	127.69
433.178	127.69
433.4	131.69
433.622	116.69
433.844	142.69
434.066	118.69
434.287	93.69
434.509	79.69
434.731	110.69
434.953	107.69
435.175	112.69
435.397	114.69
435.618	109.69
435.84	105.69
436.062	112.69
436.284	119.69
436.505	131.69
436.727	123.69
436.949	123.69
437.17	119.69
437.392	130.69
437.614	110.69
437.835	115.69
438.057	103.69
438.278	110.69
438.5	112.69
438.721	135.69
438.943	139.69
439.165	129.69
439.386	119.69
439.608	129.69
439.829	143.69
440.05	144.69
440.272	134.69
440.493	135.69
440.715	127.69
440.936	138.69
441.158	125.69
441.379	144.69
441.6	149.69
441.822	137.69
442.043	142.69
442.264	131.69
442.486	129.69
442.707	114.69
442.928	129.69
443.149	133.69
443.371	150.69
443.592	135.69
443.813	114.69
444.034	139.69
444.255	117.69
444.476	118.69
444.698	141.69
444.919	129.69
445.14	241.69
445.361	196.69
445.582	131.69
445.803	127.69
446.024	142.69
446.245	145.69
446.466	138.69
446.687	160.69
446.908	147.69
447.129	144.69
447.35	139.69
447.571	136.69
447.792	130.69
448.013	141.69
448.234	118.69
448.455	129.69
448.675	134.69
448.896	137.69
449.117	123.69
449.338	116.69
449.559	135.69
449.779	128.69
450	133.69
450.221	131.69
450.442	133.69
450.662	132.69
450.883	127.69
451.104	123.69
451.324	123.69
451.545	124.69
451.766	120.69
451.986	136.69
452.207	120.69
452.428	123.69
452.648	119.69
452.869	123.69
453.089	121.69
453.31	108.69
453.53	100.69
453.751	93.69
453.971	88.69
454.192	112.69
454.412	115.69
454.633	113.69
454.853	109.69
455.073	127.69
455.294	108.69
455.514	117.69
455.734	102.69
455.955	116.69
456.175	107.69
456.395	107.69
456.616	105.69
456.836	110.69
457.056	94.69
457.276	115.69
457.497	107.69
457.717	102.69
457.937	103.69
458.157	99.69
458.377	85.69
458.598	80.69
458.818	85.69
459.038	84.69
459.258	80.69
459.478	87.69
459.698	86.69
459.918	98.69
460.138	93.69
460.358	118.69
460.578	115.69
460.798	101.69
461.018	100.69
461.238	110.69
461.458	114.69
461.678	111.69
461.898	93.69
462.118	108.69
462.338	105.69
462.558	107.69
462.777	104.69
462.997	112.69
463.217	87.69
463.437	104.69
463.657	109.69
463.876	107.69
464.096	104.69
464.316	111.69
464.536	104.69
464.755	103.69
464.975	96.69
465.195	119.69
465.414	119.69
465.634	100.69
465.854	93.69
466.073	121.69
466.293	120.69
466.512	114.69
466.732	136.69
466.951	129.69
467.171	117.69
467.391	129.69
467.61	121.69
467.829	139.69
468.049	127.69
468.268	147.69
468.488	137.69
468.707	126.69
468.927	134.69
469.146	136.69
469.365	136.69
469.585	122.69
469.804	120.69
470.023	139.69
470.243	131.69
470.462	134.69
470.681	126.69
470.901	120.69
471.12	138.69
471.339	132.69
471.558	127.69
471.777	144.69
471.997	131.69
472.216	137.69
472.435	124.69
472.654	111.69
472.873	114.69
473.092	100.69
473.311	135.69
473.53	112.69
473.749	121.69
473.968	101.69
474.187	119.69
474.406	113.69
474.625	120.69
474.844	123.69
475.063	119.69
475.282	103.69
475.501	121.69
475.72	119.69
475.939	119.69
476.158	116.69
476.377	126.69
476.596	112.69
476.814	102.69
477.033	101.69
477.252	102.69
477.471	116.69
477.69	115.69
477.908	129.69
478.127	140.69
478.346	125.69
478.564	150.69
478.783	120.69
479.002	108.69
479.22	127.69
479.439	115.69
479.658	101.69
479.876	116.69
480.095	97.69
480.313	109.69
480.532	102.69
480.751	104.69
480.969	100.69
481.188	64.69
481.406	68.69
481.624	96.69
481.843	95.69
482.061	84.69
482.28	114.69
482.498	109.69
482.717	101.69
482.935	100.69
483.153	133.69
483.372	125.69
483.59	137.69
483.808	120.69
484.027	118.69
484.245	128.69
484.463	146.69
484.681	141.69
484.9	142.69
485.118	131.69
485.336	114.69
485.554	107.69
485.772	86.69
485.99	93.69
486.209	100.69
486.427	104.69
486.645	124.69
486.863	146.69
487.081	129.69
487.299	120.69
487.517	129.69
487.735	150.69
487.953	171.69
488.171	173.69
488.389	155.69
488.607	158.69
488.825	153.69
489.043	128.69
489.261	121.69
489.479	146.69
489.696	125.69
489.914	120.69
490.132	134.69
490.35	144.69
490.568	156.69
490.786	159.69
491.003	148.69
491.221	160.69
491.439	177.69
491.657	173.69
491.874	208.69
492.092	209.69
492.31	231.69
492.527	225.69
492.745	199.69
492.963	179.69
493.18	179.69
493.398	173.69
493.615	162.69
493.833	167.69
494.05	177.69
494.268	159.69
494.485	163.69
494.703	155.69
494.92	159.69
495.138	162.69
495.355	151.69
495.573	160.69
495.79	151.69
496.008	148.69
496.225	167.69
496.442	162.69
496.66	168.69
496.877	153.69
497.094	145.69
497.312	151.69
497.529	145.69
497.746	147.69
497.963	138.69
498.181	123.69
498.398	135.69
498.615	110.69
498.832	105.69
499.049	105.69
499.267	116.69
499.484	134.69
499.701	121.69
499.918	123.69
500.135	141.69
500.352	143.69
500.569	141.69
500.786	132.69
501.003	133.69
501.22	132.69
501.437	134.69
501.654	122.69
501.871	124.69
502.088	123.69
502.305	120.69
502.522	141.69
502.739	112.69
502.956	117.69
503.172	108.69
503.389	102.69
503.606	113.69
503.823	117.69
504.04	124.69
504.256	126.69
504.473	118.69
504.69	122.69
504.907	125.69
505.123	117.69
505.34	107.69
505.557	119.69
505.773	125.69
505.99	116.69
506.207	118.69
506.423	110.69
506.64	126.69
506.856	104.69
507.073	119.69
507.289	108.69
507.506	103.69
507.722	111.69
507.939	120.69
508.155	114.69
508.372	108.69
508.588	106.69
508.805	109.69
509.021	120.69
509.238	115.69
509.454	100.69
509.67	80.69
509.887	92.69
510.103	84.69
510.319	77.69
510.536	97.69
510.752	86.69
510.968	72.69
511.184	81.69
511.401	82.69
511.617	88.69
511.833	92.69
512.049	103.69
512.265	107.69
512.481	95.69
512.698	81.69
512.914	80.69
513.13	87.69
513.346	100.69
513.562	72.69
513.778	97.69
513.994	94.69
514.21	92.69
514.426	94.69
514.642	97.69
514.858	78.69
515.074	83.69
515.29	87.69
515.506	82.69
515.721	90.69
515.937	79.69
516.153	88.69
516.369	76.69
516.585	76.69
516.801	68.69
517.016	89.69
517.232	79.69
517.448	94.69
517.664	86.69
517.879	87.69
518.095	84.69
518.311	96.69
518.527	85.69
518.742	91.69
518.958	95.69
519.173	95.69
519.389	93.69
519.605	110.69
519.82	91.69
520.036	113.69
520.251	90.69
520.467	97.69
520.682	87.69
520.898	97.69
521.113	97.69
521.329	84.69
521.544	82.69
521.76	80.69
521.975	100.69
522.19	85.69
522.406	91.69
522.621	86.69
522.836	107.69
523.052	97.69
523.267	87.69
523.482	107.69
523.698	116.69
523.913	95.69
524.128	123.69
524.343	107.69
524.559	93.69
524.774	115.69
524.989	101.69
525.204	120.69
525.419	127.69
525.634	111.69
525.849	98.69
526.064	109.69
526.28	99.69
526.495	97.69
526.71	80.69
526.925	79.69
527.14	67.69
527.355	77.69
527.57	71.69
527.785	72.69
527.999	92.69
528.214	97.69
528.429	108.69
528.644	113.69
528.859	119.69
529.074	138.69
529.289	142.69
529.503	144.69
529.718	132.69
529.933	115.69
530.148	113.69
530.363	95.69
530.577	89.69
530.792	72.69
531.007	62.69
531.221	78.69
531.436	69.69
531.651	84.69
531.865	68.69
532.08	82.69
532.295	93.69
532.509	77.69
532.724	79.69
532.938	92.69
533.153	92.69
533.367	107.69
533.582	121.69
533.796	119.69
534.011	107.69
534.225	99.69
534.44	76.69
534.654	89.69
534.868	77.69
535.083	92.69
535.297	97.69
535.511	100.69
535.726	100.69
535.94	90.69
536.154	93.69
536.369	73.69
536.583	76.69
536.797	83.69
537.011	86.69
537.225	71.69
537.44	77.69
537.654	89.69
537.868	109.69
538.082	104.69
538.296	102.69
538.51	97.69
538.724	109.69
538.938	119.69
539.153	115.69
539.367	95.69
539.581	100.69
539.795	93.69
540.009	81.69
540.222	97.69
540.436	110.69
540.65	118.69
540.864	121.69
541.078	144.69
541.292	136.69
541.506	158.69
541.72	169.69
541.934	183.69
542.147	188.69
542.361	175.69
542.575	151.69
542.789	130.69
543.002	119.69
543.216	123.69
543.43	132.69
543.644	136.69
543.857	147.69
544.071	151.69
544.285	159.69
544.498	160.69
544.712	143.69
544.925	145.69
545.139	146.69
545.352	140.69
545.566	145.69
545.779	143.69
545.993	150.69
546.206	156.69
546.42	160.69
546.633	148.69
546.847	158.69
547.06	171.69
547.274	152.69
547.487	177.69
547.7	156.69
547.914	143.69
548.127	135.69
548.34	142.69
548.554	148.69
548.767	148.69
548.98	159.69
549.193	151.69
549.407	142.69
549.62	148.69
549.833	142.69
550.046	143.69
550.259	141.69
550.473	151.69
550.686	146.69
550.899	143.69
551.112	145.69
551.325	133.69
551.538	133.69
551.751	118.69
551.964	114.69
552.177	130.69
552.39	131.69
552.603	143.69
552.816	147.69
553.029	149.69
553.242	146.69
553.455	143.69
553.667	148.69
553.88	148.69
554.093	135.69
554.306	130.69
554.519	132.69
554.732	135.69
554.944	135.69
555.157	133.69
555.37	129.69
555.583	127.69
555.795	141.69
556.008	146.69
556.221	119.69
556.433	121.69
556.646	121.69
556.859	131.69
557.071	122.69
557.284	138.69
557.496	151.69
557.709	131.69
557.921	135.69
558.134	135.69
558.346	132.69
558.559	134.69
558.771	109.69
558.984	136.69
559.196	121.69
559.409	129.69
559.621	139.69
559.833	128.69
560.046	120.69
560.258	116.69
560.47	111.69
560.683	127.69
560.895	114.69
561.107	127.69
561.32	123.69
561.532	116.69
561.744	118.69
561.956	122.69
562.168	125.69
562.381	120.69
562.593	110.69
562.805	117.69
563.017	115.69
563.229	112.69
563.441	117.69
563.653	109.69
563.865	99.69
564.077	113.69
564.289	123.69
564.501	124.69
564.713	126.69
564.925	105.69
565.137	115.69
565.349	103.69
565.561	102.69
565.773	122.69
565.985	124.69
566.197	98.69
566.408	99.69
566.62	112.69
566.832	113.69
567.044	111.69
567.255	107.69
567.467	111.69
567.679	102.69
567.891	106.69
568.102	97.69
568.314	103.69
568.526	90.69
568.737	93.69
568.949	79.69
569.161	68.69
569.372	78.69
569.584	83.69
569.795	72.69
570.007	80.69
570.218	82.69
570.43	89.69
570.641	93.69
570.853	83.69
571.064	74.69
571.276	93.69
571.487	108.69
571.698	95.69
571.91	102.69
572.121	84.69
572.333	80.69
572.544	103.69
572.755	88.69
572.966	82.69
573.178	91.69
573.389	74.69
573.6	76.69
573.811	70.69
574.023	89.69
574.234	78.69
574.445	91.69
574.656	85.69
574.867	89.69
575.078	92.69
575.289	89.69
575.501	82.69
575.712	96.69
575.923	87.69
576.134	90.69
576.345	76.69
576.556	88.69
576.767	90.69
576.978	100.69
577.188	83.69
577.399	94.69
577.61	87.69
577.821	89.69
578.032	93.69
578.243	88.69
578.454	87.69
578.665	91.69
578.875	86.69
579.086	101.69
579.297	91.69
579.508	82.69
579.718	73.69
579.929	93.69
580.14	82.69
580.35	79.69
580.561	81.69
580.772	81.69
580.982	81.69
581.193	84.69
581.403	84.69
581.614	83.69
581.825	90.69
582.035	103.69
582.246	91.69
582.456	107.69
582.667	84.69
582.877	80.69
583.087	85.69
583.298	84.69
583.508	94.69
583.719	81.69
583.929	80.69
584.139	76.69
584.35	87.69
584.56	77.69
584.77	80.69
584.981	83.69
585.191	75.69
585.401	75.69
585.611	84.69
585.821	77.69
586.032	83.69
586.242	81.69
586.452	89.69
586.662	83.69
586.872	81.69
587.082	87.69
587.292	70.69
587.502	76.69
587.713	80.69
587.923	88.69
588.133	85.69
588.343	73.69
588.553	83.69
588.762	77.69
588.972	88.69
589.182	75.69
589.392	97.69
589.602	69.69
589.812	79.69
590.022	83.69
590.232	92.69
590.441	85.69
590.651	85.69
590.861	74.69
591.071	82.69
591.281	82.69
591.49	82.69
591.7	77.69
591.91	85.69
592.119	84.69
592.329	75.69
592.539	81.69
592.748	107.69
592.958	87.69
593.167	79.69
593.377	71.69
593.587	89.69
593.796	81.69
594.006	88.69
594.215	85.69
594.424	79.69
594.634	79.69
594.843	79.69
595.053	91.69
595.262	78.69
595.472	81.69
595.681	80.69
595.89	86.69
596.1	92.69
596.309	101.69
596.518	91.69
596.727	107.69
596.937	85.69
597.146	83.69
597.355	99.69
597.564	83.69
597.774	98.69
597.983	85.69
598.192	69.69
598.401	85.69
598.61	77.69
598.819	89.69
599.028	93.69
599.237	99.69
599.446	81.69
599.655	87.69
599.864	97.69
600.073	102.69
600.282	97.69
600.491	84.69
600.7	77.69
600.909	93.69
601.118	92.69
601.327	95.69
601.536	98.69
601.745	105.69
601.953	92.69
602.162	101.69
602.371	85.69
602.58	99.69
602.789	108.69
602.997	99.69
603.206	104.69
603.415	122.69
603.623	103.69
603.832	102.69
604.041	90.69
604.249	97.69
604.458	90.69
604.666	101.69
604.875	81.69
605.084	87.69
605.292	99.69
605.501	92.69
605.709	103.69
605.918	100.69
606.126	118.69
606.334	113.69
606.543	109.69
606.751	109.69
606.96	100.69
607.168	104.69
607.376	108.69
607.585	113.69
607.793	113.69
608.001	99.69
608.21	102.69
608.418	95.69
608.626	103.69
608.834	97.69
609.043	98.69
609.251	110.69
609.459	115.69
609.667	112.69
609.875	120.69
610.083	104.69
610.291	120.69
610.499	112.69
610.707	111.69
610.916	119.69
611.124	122.69
611.332	106.69
611.54	117.69
611.748	112.69
611.955	116.69
612.163	114.69
612.371	107.69
612.579	101.69
612.787	114.69
612.995	91.69
613.203	100.69
613.411	111.69
613.618	90.69
613.826	100.69
614.034	101.69
614.242	94.69
614.449	96.69
614.657	104.69
614.865	91.69
615.072	103.69
615.28	112.69
615.488	106.69
615.695	101.69
615.903	113.69
616.111	97.69
616.318	95.69
616.526	108.69
616.733	107.69
616.941	104.69
617.148	109.69
617.356	129.69
617.563	104.69
617.771	94.69
617.978	102.69
618.185	103.69
618.393	89.69
618.6	118.69
618.807	96.69
619.015	109.69
619.222	117.69
619.429	96.69
619.637	107.69
619.844	98.69
620.051	116.69
620.258	103.69
620.466	100.69
620.673	92.69
620.88	106.69
621.087	110.69
621.294	104.69
621.501	91.69
621.708	103.69
621.915	113.69
622.122	103.69
622.329	96.69
622.536	113.69
622.743	99.69
622.95	107.69
623.157	110.69
623.364	103.69
623.571	111.69
623.778	111.69
623.985	99.69
624.192	112.69
624.399	107.69
624.606	91.69
624.812	120.69
625.019	103.69
625.226	86.69
625.433	96.69
625.639	91.69
625.846	96.69
626.053	89.69
626.259	91.69
626.466	85.69
626.673	93.69
626.879	90.69
627.086	87.69
627.293	101.69
627.499	100.69
627.706	88.69
627.912	117.69
628.119	104.69
628.325	111.69
628.532	92.69
628.738	90.69
628.945	97.69
629.151	95.69
629.357	94.69
629.564	90.69
629.77	87.69
629.976	99.69
630.183	95.69
630.389	91.69
630.595	100.69
630.802	102.69
631.008	92.69
631.214	85.69
631.42	94.69
631.627	105.69
631.833	99.69
632.039	96.69
632.245	90.69
632.451	95.69
632.657	96.69
632.863	95.69
633.069	107.69
633.275	97.69
633.481	100.69
633.688	106.69
633.893	116.69
634.099	102.69
634.305	104.69
634.511	91.69
634.717	88.69
634.923	82.69
635.129	91.69
635.335	95.69
635.541	91.69
635.747	98.69
635.952	98.69
636.158	99.69
636.364	98.69
636.57	103.69
636.775	104.69
636.981	97.69
637.187	84.69
637.392	84.69
637.598	111.69
637.804	93.69
638.009	100.69
638.215	93.69
638.421	94.69
638.626	79.69
638.832	100.69
639.037	97.69
639.243	101.69
639.448	95.69
639.654	105.69
639.859	95.69
640.065	79.69
640.27	99.69
640.475	83.69
640.681	104.69
640.886	95.69
641.091	98.69
641.297	89.69
641.502	83.69
641.707	103.69
641.913	98.69
642.118	73.69
642.323	96.69
642.528	100.69
642.733	93.69
642.939	94.69
643.144	89.69
643.349	87.69
643.554	93.69
643.759	99.69
643.964	101.69
644.169	93.69
644.374	93.69
644.579	96.69
644.784	99.69
644.989	96.69
645.194	97.69
645.399	95.69
645.604	99.69
645.809	95.69
646.014	94.69
646.219	103.69
646.423	83.69
646.628	89.69
646.833	81.69
647.038	95.69
647.243	96.69
647.447	118.69
647.652	101.69
647.857	93.69
648.062	84.69
648.266	89.69
648.471	98.69
648.676	79.69
648.88	85.69
649.085	96.69
649.289	92.69
649.494	88.69
649.698	104.69
649.903	92.69
650.107	91.69
650.312	108.69
650.516	93.69
650.721	103.69
650.925	83.69
651.13	88.69
651.334	96.69
651.539	79.69
651.743	90.69
651.947	94.69
652.152	84.69
652.356	95.69
652.56	95.69
652.764	81.69
652.969	83.69
653.173	101.69
653.377	100.69
653.581	79.69
653.785	80.69
653.99	88.69
654.194	107.69
654.398	85.69
654.602	98.69
654.806	85.69
655.01	96.69
655.214	97.69
655.418	85.69
655.622	86.69
655.826	74.69
656.03	81.69
656.234	104.69
656.438	87.69
656.642	69.69
656.846	85.69
657.049	70.69
657.253	88.69
657.457	92.69
657.661	82.69
657.865	69.69
658.068	84.69
658.272	87.69
658.476	91.69
658.68	80.69
658.883	82.69
659.087	94.69
659.291	91.69
659.494	65.69
659.698	77.69
659.901	104.69
660.105	93.69
660.309	86.69
660.512	63.69
660.716	76.69
660.919	80.69
661.123	70.69
661.326	76.69
661.53	73.69
661.733	80.69
661.936	80.69
662.14	83.69
662.343	82.69
662.546	88.69
662.75	75.69
662.953	76.69
663.156	84.69
663.36	84.69
663.563	78.69
663.766	79.69
663.969	90.69
664.173	80.69
664.376	86.69
664.579	76.69
664.782	87.69
664.985	74.69
665.188	61.69
665.391	60.69
665.594	79.69
665.797	85.69
666	73.69
666.203	93.69
666.406	69.69
666.609	82.69
666.812	83.69
667.015	70.69
667.218	79.69
667.421	70.69
667.624	75.69
667.827	79.69
668.03	85.69
668.232	75.69
668.435	87.69
668.638	79.69
668.841	74.69
669.043	74.69
669.246	73.69
669.449	75.69
669.651	84.69
669.854	81.69
670.057	84.69
670.259	76.69
670.462	85.69
670.665	82.69
670.867	80.69
671.07	81.69
671.272	73.69
671.475	86.69
671.677	79.69
671.88	87.69
672.082	91.69
672.284	82.69
672.487	85.69
672.689	91.69
672.892	88.69
