Data from Location4.07152019.Energy5.Lamp.07192019.3%Agarose_HRD10591_16-20-03-926.txt Node
Date: Fri Jul 19 16:20:03 EDT 2019
User: cochatt
Spectrometer: HR+D1059
Trigger mode: 1
Integration Time (sec): 1.000000E-1
Scans to average: 1
Electric dark correction enabled: true
Nonlinearity correction enabled: false
Boxcar width: 0
XAxis mode: Wavelengths
Number of Pixels in Spectrum: 2048
>>>>>Begin Spectral Data<<<<<
223.165	-18.31
223.4	-18.31
223.635	-18.31
223.869	-16.31
224.104	-18.31
224.338	-24.31
224.573	-6.31
224.808	-11.31
225.042	-14.31
225.277	1.69
225.511	-1.31
225.746	1.69
225.98	2.69
226.215	12.69
226.449	21.69
226.683	13.69
226.918	33.69
227.152	22.69
227.387	16.69
227.621	24.69
227.856	46.69
228.09	43.69
228.324	53.69
228.559	48.69
228.793	41.69
229.027	48.69
229.262	78.69
229.496	68.69
229.73	71.69
229.964	79.69
230.199	83.69
230.433	67.69
230.667	80.69
230.901	83.69
231.136	65.69
231.37	83.69
231.604	84.69
231.838	85.69
232.072	86.69
232.306	74.69
232.541	77.69
232.775	83.69
233.009	78.69
233.243	77.69
233.477	78.69
233.711	73.69
233.945	81.69
234.179	84.69
234.413	83.69
234.647	86.69
234.881	84.69
235.115	72.69
235.349	77.69
235.583	87.69
235.817	72.69
236.051	75.69
236.285	62.69
236.519	81.69
236.753	75.69
236.987	67.69
237.221	69.69
237.455	80.69
237.689	81.69
237.922	86.69
238.156	61.69
238.39	87.69
238.624	77.69
238.858	75.69
239.091	77.69
239.325	78.69
239.559	74.69
239.793	63.69
240.027	82.69
240.26	60.69
240.494	65.69
240.728	73.69
240.961	72.69
241.195	71.69
241.429	93.69
241.662	69.69
241.896	80.69
242.13	74.69
242.363	72.69
242.597	74.69
242.83	73.69
243.064	71.69
243.298	61.69
243.531	63.69
243.765	74.69
243.998	65.69
244.232	86.69
244.465	88.69
244.699	68.69
244.932	72.69
245.166	88.69
245.399	80.69
245.633	76.69
245.866	86.69
246.099	75.69
246.333	76.69
246.566	66.69
246.8	67.69
247.033	84.69
247.266	80.69
247.5	84.69
247.733	80.69
247.966	80.69
248.2	77.69
248.433	78.69
248.666	83.69
248.899	81.69
249.133	84.69
249.366	75.69
249.599	88.69
249.832	89.69
250.066	78.69
250.299	77.69
250.532	70.69
250.765	72.69
250.998	92.69
251.231	71.69
251.465	76.69
251.698	71.69
251.931	84.69
252.164	72.69
252.397	70.69
252.63	69.69
252.863	85.69
253.096	78.69
253.329	102.69
253.562	94.69
253.795	79.69
254.028	88.69
254.261	80.69
254.494	62.69
254.727	86.69
254.96	71.69
255.193	73.69
255.426	79.69
255.659	90.69
255.892	77.69
256.124	74.69
256.357	84.69
256.59	73.69
256.823	67.69
257.056	78.69
257.289	81.69
257.521	67.69
257.754	74.69
257.987	82.69
258.22	79.69
258.452	94.69
258.685	83.69
258.918	76.69
259.151	74.69
259.383	83.69
259.616	93.69
259.849	66.69
260.081	79.69
260.314	82.69
260.547	84.69
260.779	76.69
261.012	78.69
261.244	62.69
261.477	87.69
261.71	79.69
261.942	65.69
262.175	77.69
262.407	72.69
262.64	78.69
262.872	74.69
263.105	72.69
263.337	81.69
263.57	74.69
263.802	74.69
264.035	83.69
264.267	66.69
264.499	72.69
264.732	74.69
264.964	91.69
265.197	76.69
265.429	84.69
265.661	77.69
265.894	89.69
266.126	78.69
266.358	90.69
266.591	87.69
266.823	74.69
267.055	79.69
267.287	92.69
267.52	95.69
267.752	85.69
267.984	71.69
268.216	69.69
268.448	80.69
268.681	88.69
268.913	68.69
269.145	72.69
269.377	77.69
269.609	78.69
269.841	81.69
270.073	71.69
270.306	70.69
270.538	62.69
270.77	70.69
271.002	71.69
271.234	74.69
271.466	69.69
271.698	62.69
271.93	84.69
272.162	92.69
272.394	82.69
272.626	79.69
272.858	87.69
273.09	99.69
273.322	80.69
273.553	88.69
273.785	81.69
274.017	71.69
274.249	76.69
274.481	68.69
274.713	72.69
274.945	78.69
275.176	85.69
275.408	82.69
275.64	96.69
275.872	77.69
276.104	83.69
276.335	78.69
276.567	89.69
276.799	77.69
277.031	93.69
277.262	78.69
277.494	100.69
277.726	84.69
277.957	73.69
278.189	86.69
278.421	68.69
278.652	73.69
278.884	89.69
279.115	78.69
279.347	79.69
279.579	88.69
279.81	68.69
280.042	84.69
280.273	79.69
280.505	78.69
280.736	82.69
280.968	81.69
281.199	67.69
281.431	72.69
281.662	74.69
281.894	74.69
282.125	82.69
282.356	68.69
282.588	74.69
282.819	84.69
283.051	72.69
283.282	82.69
283.513	84.69
283.745	73.69
283.976	80.69
284.207	72.69
284.439	76.69
284.67	91.69
284.901	68.69
285.132	87.69
285.364	77.69
285.595	84.69
285.826	82.69
286.057	76.69
286.288	85.69
286.52	88.69
286.751	84.69
286.982	84.69
287.213	79.69
287.444	97.69
287.675	88.69
287.906	92.69
288.138	85.69
288.369	76.69
288.6	83.69
288.831	88.69
289.062	85.69
289.293	81.69
289.524	84.69
289.755	93.69
289.986	77.69
290.217	84.69
290.448	74.69
290.679	87.69
290.91	92.69
291.141	88.69
291.371	88.69
291.602	90.69
291.833	73.69
292.064	80.69
292.295	83.69
292.526	82.69
292.757	92.69
292.987	93.69
293.218	79.69
293.449	78.69
293.68	87.69
293.91	82.69
294.141	76.69
294.372	79.69
294.603	74.69
294.833	85.69
295.064	84.69
295.295	84.69
295.525	87.69
295.756	72.69
295.987	89.69
296.217	86.69
296.448	80.69
296.679	82.69
296.909	94.69
297.14	82.69
297.37	90.69
297.601	76.69
297.831	90.69
298.062	87.69
298.292	70.69
298.523	89.69
298.753	84.69
298.984	95.69
299.214	72.69
299.445	95.69
299.675	78.69
299.905	68.69
300.136	84.69
300.366	85.69
300.597	85.69
300.827	78.69
301.057	81.69
301.288	80.69
301.518	93.69
301.748	87.69
301.979	72.69
302.209	81.69
302.439	103.69
302.669	81.69
302.9	87.69
303.13	83.69
303.36	82.69
303.59	82.69
303.82	87.69
304.051	82.69
304.281	75.69
304.511	87.69
304.741	93.69
304.971	78.69
305.201	80.69
305.431	72.69
305.661	78.69
305.891	94.69
306.121	86.69
306.352	88.69
306.582	78.69
306.812	79.69
307.042	82.69
307.272	79.69
307.502	74.69
307.731	87.69
307.961	93.69
308.191	78.69
308.421	76.69
308.651	89.69
308.881	84.69
309.111	76.69
309.341	76.69
309.571	92.69
309.8	80.69
310.03	77.69
310.26	85.69
310.49	67.69
310.72	71.69
310.949	75.69
311.179	80.69
311.409	79.69
311.639	82.69
311.868	65.69
312.098	77.69
312.328	77.69
312.557	94.69
312.787	88.69
313.017	75.69
313.246	76.69
313.476	71.69
313.706	89.69
313.935	82.69
314.165	78.69
314.394	77.69
314.624	88.69
314.853	90.69
315.083	95.69
315.312	79.69
315.542	71.69
315.771	84.69
316.001	94.69
316.23	85.69
316.46	79.69
316.689	79.69
316.919	78.69
317.148	79.69
317.377	84.69
317.607	69.69
317.836	85.69
318.065	88.69
318.295	90.69
318.524	84.69
318.753	94.69
318.983	91.69
319.212	85.69
319.441	84.69
319.67	92.69
319.9	70.69
320.129	76.69
320.358	63.69
320.587	74.69
320.816	71.69
321.046	88.69
321.275	80.69
321.504	77.69
321.733	82.69
321.962	78.69
322.191	72.69
322.42	72.69
322.649	82.69
322.878	78.69
323.108	81.69
323.337	87.69
323.566	81.69
323.795	92.69
324.024	82.69
324.253	86.69
324.482	85.69
324.71	78.69
324.939	88.69
325.168	88.69
325.397	74.69
325.626	90.69
325.855	98.69
326.084	79.69
326.313	95.69
326.542	88.69
326.77	77.69
326.999	78.69
327.228	87.69
327.457	63.69
327.686	73.69
327.914	82.69
328.143	94.69
328.372	68.69
328.6	83.69
328.829	83.69
329.058	87.69
329.287	76.69
329.515	86.69
329.744	84.69
329.972	87.69
330.201	87.69
330.43	71.69
330.658	86.69
330.887	85.69
331.115	93.69
331.344	73.69
331.572	97.69
331.801	89.69
332.03	81.69
332.258	71.69
332.486	80.69
332.715	79.69
332.943	80.69
333.172	83.69
333.4	80.69
333.629	83.69
333.857	90.69
334.085	80.69
334.314	70.69
334.542	76.69
334.771	86.69
334.999	81.69
335.227	95.69
335.455	71.69
335.684	79.69
335.912	81.69
336.14	84.69
336.369	80.69
336.597	80.69
336.825	90.69
337.053	78.69
337.281	78.69
337.51	80.69
337.738	86.69
337.966	83.69
338.194	94.69
338.422	88.69
338.65	88.69
338.878	89.69
339.106	69.69
339.334	77.69
339.562	75.69
339.79	82.69
340.018	79.69
340.246	81.69
340.474	80.69
340.702	88.69
340.93	84.69
341.158	74.69
341.386	81.69
341.614	93.69
341.842	93.69
342.07	77.69
342.298	89.69
342.526	97.69
342.754	104.69
342.981	82.69
343.209	84.69
343.437	86.69
343.665	76.69
343.893	97.69
344.12	82.69
344.348	79.69
344.576	82.69
344.804	88.69
345.031	83.69
345.259	80.69
345.487	83.69
345.714	68.69
345.942	94.69
346.17	66.69
346.397	86.69
346.625	85.69
346.853	74.69
347.08	85.69
347.308	78.69
347.535	73.69
347.763	84.69
347.99	82.69
348.218	80.69
348.445	82.69
348.673	69.69
348.9	73.69
349.128	93.69
349.355	87.69
349.583	81.69
349.81	83.69
350.037	88.69
350.265	89.69
350.492	78.69
350.72	80.69
350.947	82.69
351.174	84.69
351.402	83.69
351.629	93.69
351.856	84.69
352.083	84.69
352.311	73.69
352.538	85.69
352.765	85.69
352.992	92.69
353.22	77.69
353.447	90.69
353.674	69.69
353.901	79.69
354.128	76.69
354.355	70.69
354.583	95.69
354.81	72.69
355.037	79.69
355.264	74.69
355.491	86.69
355.718	78.69
355.945	85.69
356.172	61.69
356.399	82.69
356.626	85.69
356.853	88.69
357.08	101.69
357.307	79.69
357.534	77.69
357.761	87.69
357.988	92.69
358.215	82.69
358.441	93.69
358.668	86.69
358.895	86.69
359.122	84.69
359.349	71.69
359.576	70.69
359.802	79.69
360.029	95.69
360.256	85.69
360.483	86.69
360.709	98.69
360.936	95.69
361.163	90.69
361.39	84.69
361.616	78.69
361.843	80.69
362.07	77.69
362.296	77.69
362.523	81.69
362.749	75.69
362.976	93.69
363.203	85.69
363.429	72.69
363.656	91.69
363.882	82.69
364.109	82.69
364.335	81.69
364.562	82.69
364.788	61.69
365.015	83.69
365.241	90.69
365.468	82.69
365.694	89.69
365.92	91.69
366.147	81.69
366.373	81.69
366.599	87.69
366.826	90.69
367.052	81.69
367.278	88.69
367.505	87.69
367.731	101.69
367.957	88.69
368.184	96.69
368.41	81.69
368.636	91.69
368.862	102.69
369.089	85.69
369.315	89.69
369.541	81.69
369.767	90.69
369.993	93.69
370.219	100.69
370.445	80.69
370.672	87.69
370.898	93.69
371.124	90.69
371.35	97.69
371.576	87.69
371.802	92.69
372.028	82.69
372.254	95.69
372.48	92.69
372.706	85.69
372.932	80.69
373.158	88.69
373.384	90.69
373.61	97.69
373.835	95.69
374.061	92.69
374.287	88.69
374.513	90.69
374.739	93.69
374.965	82.69
375.191	86.69
375.416	92.69
375.642	96.69
375.868	79.69
376.094	92.69
376.319	87.69
376.545	98.69
376.771	93.69
376.997	67.69
377.222	96.69
377.448	84.69
377.674	94.69
377.899	84.69
378.125	89.69
378.35	100.69
378.576	92.69
378.802	83.69
379.027	89.69
379.253	96.69
379.478	79.69
379.704	86.69
379.929	101.69
380.155	96.69
380.38	92.69
380.606	87.69
380.831	82.69
381.057	97.69
381.282	110.69
381.507	85.69
381.733	105.69
381.958	89.69
382.184	95.69
382.409	87.69
382.634	112.69
382.86	88.69
383.085	95.69
383.31	102.69
383.535	93.69
383.761	97.69
383.986	102.69
384.211	105.69
384.436	99.69
384.662	93.69
384.887	92.69
385.112	94.69
385.337	82.69
385.562	90.69
385.787	95.69
386.013	96.69
386.238	99.69
386.463	92.69
386.688	97.69
386.913	90.69
387.138	111.69
387.363	102.69
387.588	94.69
387.813	90.69
388.038	104.69
388.263	98.69
388.488	92.69
388.713	104.69
388.938	111.69
389.163	100.69
389.387	98.69
389.612	88.69
389.837	101.69
390.062	108.69
390.287	94.69
390.512	87.69
390.736	68.69
390.961	88.69
391.186	106.69
391.411	97.69
391.636	108.69
391.86	94.69
392.085	100.69
392.31	95.69
392.534	108.69
392.759	94.69
392.984	97.69
393.208	92.69
393.433	104.69
393.658	105.69
393.882	100.69
394.107	114.69
394.331	99.69
394.556	114.69
394.78	90.69
395.005	95.69
395.229	100.69
395.454	104.69
395.678	106.69
395.903	109.69
396.127	117.69
396.352	106.69
396.576	91.69
396.801	116.69
397.025	100.69
397.249	94.69
397.474	110.69
397.698	97.69
397.922	110.69
398.147	118.69
398.371	121.69
398.595	110.69
398.82	109.69
399.044	96.69
399.268	106.69
399.492	109.69
399.717	100.69
399.941	109.69
400.165	108.69
400.389	114.69
400.613	121.69
400.837	113.69
401.062	118.69
401.286	111.69
401.51	112.69
401.734	112.69
401.958	108.69
402.182	101.69
402.406	121.69
402.63	127.69
402.854	116.69
403.078	108.69
403.302	110.69
403.526	110.69
403.75	116.69
403.974	101.69
404.198	105.69
404.422	117.69
404.645	120.69
404.869	127.69
405.093	119.69
405.317	104.69
405.541	114.69
405.765	120.69
405.988	102.69
406.212	120.69
406.436	107.69
406.66	121.69
406.883	120.69
407.107	114.69
407.331	121.69
407.555	126.69
407.778	115.69
408.002	110.69
408.226	124.69
408.449	108.69
408.673	127.69
408.896	111.69
409.12	117.69
409.344	130.69
409.567	124.69
409.791	124.69
410.014	114.69
410.238	120.69
410.461	118.69
410.685	120.69
410.908	128.69
411.132	124.69
411.355	132.69
411.578	119.69
411.802	119.69
412.025	117.69
412.249	113.69
412.472	113.69
412.695	129.69
412.919	121.69
413.142	116.69
413.365	120.69
413.589	124.69
413.812	125.69
414.035	121.69
414.258	114.69
414.482	127.69
414.705	112.69
414.928	124.69
415.151	119.69
415.374	119.69
415.597	116.69
415.821	132.69
416.044	132.69
416.267	121.69
416.49	115.69
416.713	127.69
416.936	132.69
417.159	117.69
417.382	108.69
417.605	100.69
417.828	130.69
418.051	131.69
418.274	117.69
418.497	143.69
418.72	135.69
418.943	142.69
419.166	148.69
419.389	125.69
419.611	122.69
419.834	127.69
420.057	133.69
420.28	134.69
420.503	118.69
420.726	114.69
420.948	126.69
421.171	141.69
421.394	124.69
421.617	128.69
421.839	137.69
422.062	121.69
422.285	125.69
422.507	121.69
422.73	134.69
422.953	130.69
423.175	121.69
423.398	117.69
423.621	125.69
423.843	110.69
424.066	128.69
424.288	139.69
424.511	128.69
424.733	111.69
424.956	134.69
425.178	138.69
425.401	136.69
425.623	126.69
425.846	134.69
426.068	136.69
426.291	125.69
426.513	134.69
426.735	144.69
426.958	116.69
427.18	137.69
427.402	138.69
427.625	124.69
427.847	120.69
428.069	118.69
428.292	123.69
428.514	119.69
428.736	123.69
428.958	124.69
429.181	133.69
429.403	123.69
429.625	126.69
429.847	129.69
430.069	131.69
430.292	138.69
430.514	122.69
430.736	118.69
430.958	113.69
431.18	133.69
431.402	121.69
431.624	115.69
431.846	105.69
432.068	93.69
432.29	88.69
432.512	118.69
432.734	114.69
432.956	132.69
433.178	131.69
433.4	120.69
433.622	138.69
433.844	133.69
434.066	115.69
434.287	104.69
434.509	108.69
434.731	91.69
434.953	100.69
435.175	113.69
435.397	118.69
435.618	116.69
435.84	110.69
436.062	108.69
436.284	119.69
436.505	131.69
436.727	126.69
436.949	128.69
437.17	116.69
437.392	123.69
437.614	124.69
437.835	109.69
438.057	102.69
438.278	114.69
438.5	118.69
438.721	130.69
438.943	132.69
439.165	132.69
439.386	134.69
439.608	135.69
439.829	133.69
440.05	127.69
440.272	142.69
440.493	139.69
440.715	136.69
440.936	147.69
441.158	134.69
441.379	152.69
441.6	134.69
441.822	140.69
442.043	137.69
442.264	129.69
442.486	126.69
442.707	133.69
442.928	134.69
443.149	149.69
443.371	141.69
443.592	121.69
443.813	132.69
444.034	142.69
444.255	139.69
444.476	119.69
444.698	149.69
444.919	146.69
445.14	284.69
445.361	203.69
445.582	146.69
445.803	128.69
446.024	135.69
446.245	136.69
446.466	161.69
446.687	150.69
446.908	156.69
447.129	147.69
447.35	150.69
447.571	142.69
447.792	142.69
448.013	143.69
448.234	139.69
448.455	124.69
448.675	131.69
448.896	144.69
449.117	150.69
449.338	124.69
449.559	132.69
449.779	134.69
450	110.69
450.221	144.69
450.442	122.69
450.662	124.69
450.883	130.69
451.104	131.69
451.324	134.69
451.545	124.69
451.766	98.69
451.986	128.69
452.207	128.69
452.428	120.69
452.648	128.69
452.869	123.69
453.089	125.69
453.31	118.69
453.53	115.69
453.751	101.69
453.971	89.69
454.192	98.69
454.412	108.69
454.633	108.69
454.853	110.69
455.073	125.69
455.294	123.69
455.514	121.69
455.734	119.69
455.955	120.69
456.175	116.69
456.395	119.69
456.616	115.69
456.836	92.69
457.056	93.69
457.276	116.69
457.497	116.69
457.717	104.69
457.937	83.69
458.157	104.69
458.377	100.69
458.598	101.69
458.818	90.69
459.038	96.69
459.258	81.69
459.478	84.69
459.698	89.69
459.918	97.69
460.138	97.69
460.358	102.69
460.578	115.69
460.798	122.69
461.018	106.69
461.238	116.69
461.458	120.69
461.678	125.69
461.898	93.69
462.118	116.69
462.338	114.69
462.558	124.69
462.777	116.69
462.997	105.69
463.217	99.69
463.437	108.69
463.657	98.69
463.876	97.69
464.096	109.69
464.316	101.69
464.536	113.69
464.755	110.69
464.975	116.69
465.195	104.69
465.414	112.69
465.634	112.69
465.854	108.69
466.073	120.69
466.293	119.69
466.512	126.69
466.732	126.69
466.951	139.69
467.171	129.69
467.391	112.69
467.61	130.69
467.829	133.69
468.049	144.69
468.268	130.69
468.488	124.69
468.707	121.69
468.927	128.69
469.146	134.69
469.365	126.69
469.585	145.69
469.804	146.69
470.023	138.69
470.243	138.69
470.462	138.69
470.681	132.69
470.901	150.69
471.12	136.69
471.339	128.69
471.558	131.69
471.777	131.69
471.997	127.69
472.216	117.69
472.435	112.69
472.654	96.69
472.873	102.69
473.092	108.69
473.311	124.69
473.53	115.69
473.749	128.69
473.968	139.69
474.187	119.69
474.406	109.69
474.625	130.69
474.844	130.69
475.063	132.69
475.282	102.69
475.501	122.69
475.72	128.69
475.939	110.69
476.158	128.69
476.377	121.69
476.596	115.69
476.814	123.69
477.033	103.69
477.252	110.69
477.471	132.69
477.69	121.69
477.908	121.69
478.127	125.69
478.346	145.69
478.564	143.69
478.783	137.69
479.002	140.69
479.22	134.69
479.439	128.69
479.658	106.69
479.876	116.69
480.095	97.69
480.313	106.69
480.532	119.69
480.751	95.69
480.969	88.69
481.188	96.69
481.406	72.69
481.624	81.69
481.843	85.69
482.061	97.69
482.28	105.69
482.498	113.69
482.717	114.69
482.935	121.69
483.153	143.69
483.372	138.69
483.59	144.69
483.808	129.69
484.027	114.69
484.245	137.69
484.463	144.69
484.681	176.69
484.9	133.69
485.118	128.69
485.336	122.69
485.554	109.69
485.772	102.69
485.99	98.69
486.209	98.69
486.427	109.69
486.645	117.69
486.863	133.69
487.081	129.69
487.299	130.69
487.517	135.69
487.735	169.69
487.953	183.69
488.171	190.69
488.389	160.69
488.607	165.69
488.825	130.69
489.043	129.69
489.261	150.69
489.479	122.69
489.696	139.69
489.914	142.69
490.132	139.69
490.35	125.69
490.568	135.69
490.786	160.69
491.003	170.69
491.221	175.69
491.439	163.69
491.657	174.69
491.874	194.69
492.092	216.69
492.31	252.69
492.527	232.69
492.745	205.69
492.963	192.69
493.18	173.69
493.398	164.69
493.615	174.69
493.833	178.69
494.05	175.69
494.268	169.69
494.485	167.69
494.703	180.69
494.92	166.69
495.138	174.69
495.355	158.69
495.573	167.69
495.79	156.69
496.008	170.69
496.225	165.69
496.442	162.69
496.66	165.69
496.877	157.69
497.094	170.69
497.312	146.69
497.529	160.69
497.746	150.69
497.963	148.69
498.181	129.69
498.398	133.69
498.615	126.69
498.832	117.69
499.049	114.69
499.267	126.69
499.484	126.69
499.701	130.69
499.918	135.69
500.135	133.69
500.352	132.69
500.569	136.69
500.786	141.69
501.003	139.69
501.22	128.69
501.437	130.69
501.654	136.69
501.871	138.69
502.088	128.69
502.305	139.69
502.522	133.69
502.739	128.69
502.956	106.69
503.172	115.69
503.389	120.69
503.606	116.69
503.823	126.69
504.04	119.69
504.256	121.69
504.473	105.69
504.69	106.69
504.907	118.69
505.123	107.69
505.34	110.69
505.557	117.69
505.773	123.69
505.99	126.69
506.207	124.69
506.423	114.69
506.64	122.69
506.856	104.69
507.073	123.69
507.289	127.69
507.506	116.69
507.722	124.69
507.939	118.69
508.155	115.69
508.372	120.69
508.588	117.69
508.805	106.69
509.021	90.69
509.238	110.69
509.454	98.69
509.67	102.69
509.887	102.69
510.103	84.69
510.319	92.69
510.536	87.69
510.752	95.69
510.968	93.69
511.184	73.69
511.401	78.69
511.617	80.69
511.833	78.69
512.049	90.69
512.265	92.69
512.481	102.69
512.698	92.69
512.914	110.69
513.13	86.69
513.346	93.69
513.562	92.69
513.778	96.69
513.994	98.69
514.21	102.69
514.426	94.69
514.642	94.69
514.858	93.69
515.074	87.69
515.29	87.69
515.506	73.69
515.721	84.69
515.937	96.69
516.153	83.69
516.369	78.69
516.585	73.69
516.801	75.69
517.016	72.69
517.232	86.69
517.448	82.69
517.664	90.69
517.879	88.69
518.095	94.69
518.311	80.69
518.527	95.69
518.742	93.69
518.958	98.69
519.173	101.69
519.389	109.69
519.605	106.69
519.82	118.69
520.036	106.69
520.251	97.69
520.467	110.69
520.682	92.69
520.898	107.69
521.113	96.69
521.329	97.69
521.544	88.69
521.76	98.69
521.975	85.69
522.19	95.69
522.406	87.69
522.621	103.69
522.836	101.69
523.052	94.69
523.267	110.69
523.482	116.69
523.698	93.69
523.913	106.69
524.128	103.69
524.343	112.69
524.559	116.69
524.774	120.69
524.989	103.69
525.204	118.69
525.419	112.69
525.634	117.69
525.849	101.69
526.064	105.69
526.28	95.69
526.495	100.69
526.71	95.69
526.925	89.69
527.14	78.69
527.355	90.69
527.57	73.69
527.785	82.69
527.999	94.69
528.214	94.69
528.429	115.69
528.644	114.69
528.859	120.69
529.074	141.69
529.289	146.69
529.503	160.69
529.718	142.69
529.933	121.69
530.148	100.69
530.363	105.69
530.577	90.69
530.792	85.69
531.007	93.69
531.221	69.69
531.436	94.69
531.651	74.69
531.865	82.69
532.08	95.69
532.295	78.69
532.509	88.69
532.724	84.69
532.938	90.69
533.153	85.69
533.367	104.69
533.582	114.69
533.796	124.69
534.011	111.69
534.225	98.69
534.44	90.69
534.654	92.69
534.868	97.69
535.083	86.69
535.297	104.69
535.511	108.69
535.726	102.69
535.94	104.69
536.154	90.69
536.369	85.69
536.583	88.69
536.797	78.69
537.011	78.69
537.225	88.69
537.44	86.69
537.654	97.69
537.868	92.69
538.082	93.69
538.296	85.69
538.51	92.69
538.724	100.69
538.938	119.69
539.153	108.69
539.367	127.69
539.581	101.69
539.795	95.69
540.009	90.69
540.222	101.69
540.436	97.69
540.65	125.69
540.864	115.69
541.078	125.69
541.292	138.69
541.506	164.69
541.72	144.69
541.934	168.69
542.147	180.69
542.361	178.69
542.575	157.69
542.789	145.69
543.002	150.69
543.216	130.69
543.43	123.69
543.644	138.69
543.857	134.69
544.071	158.69
544.285	140.69
544.498	154.69
544.712	152.69
544.925	153.69
545.139	145.69
545.352	152.69
545.566	156.69
545.779	149.69
545.993	158.69
546.206	172.69
546.42	157.69
546.633	147.69
546.847	156.69
547.06	170.69
547.274	160.69
547.487	188.69
547.7	173.69
547.914	153.69
548.127	161.69
548.34	143.69
548.554	143.69
548.767	146.69
548.98	138.69
549.193	133.69
549.407	147.69
549.62	165.69
549.833	130.69
550.046	150.69
550.259	153.69
550.473	136.69
550.686	152.69
550.899	147.69
551.112	145.69
551.325	143.69
551.538	140.69
551.751	121.69
551.964	125.69
552.177	118.69
552.39	138.69
552.603	133.69
552.816	136.69
553.029	140.69
553.242	158.69
553.455	146.69
553.667	152.69
553.88	157.69
554.093	145.69
554.306	150.69
554.519	141.69
554.732	141.69
554.944	136.69
555.157	146.69
555.37	136.69
555.583	131.69
555.795	136.69
556.008	126.69
556.221	131.69
556.433	129.69
556.646	137.69
556.859	121.69
557.071	144.69
557.284	139.69
557.496	138.69
557.709	144.69
557.921	144.69
558.134	144.69
558.346	134.69
558.559	136.69
558.771	137.69
558.984	134.69
559.196	130.69
559.409	125.69
559.621	119.69
559.833	126.69
560.046	124.69
560.258	120.69
560.47	126.69
560.683	124.69
560.895	128.69
561.107	128.69
561.32	120.69
561.532	129.69
561.744	118.69
561.956	129.69
562.168	129.69
562.381	140.69
562.593	118.69
562.805	121.69
563.017	120.69
563.229	108.69
563.441	125.69
563.653	120.69
563.865	122.69
564.077	124.69
564.289	122.69
564.501	111.69
564.713	131.69
564.925	121.69
565.137	125.69
565.349	120.69
565.561	121.69
565.773	99.69
565.985	118.69
566.197	104.69
566.408	119.69
566.62	123.69
566.832	108.69
567.044	102.69
567.255	109.69
567.467	118.69
567.679	112.69
567.891	91.69
568.102	100.69
568.314	100.69
568.526	89.69
568.737	93.69
568.949	80.69
569.161	73.69
569.372	80.69
569.584	71.69
569.795	88.69
570.007	80.69
570.218	82.69
570.43	94.69
570.641	93.69
570.853	102.69
571.064	90.69
571.276	97.69
571.487	89.69
571.698	91.69
571.91	96.69
572.121	110.69
572.333	90.69
572.544	92.69
572.755	90.69
572.966	105.69
573.178	83.69
573.389	90.69
573.6	74.69
573.811	85.69
574.023	80.69
574.234	90.69
574.445	79.69
574.656	83.69
574.867	80.69
575.078	99.69
575.289	106.69
575.501	95.69
575.712	86.69
575.923	98.69
576.134	88.69
576.345	90.69
576.556	101.69
576.767	96.69
576.978	112.69
577.188	96.69
577.399	94.69
577.61	86.69
577.821	102.69
578.032	109.69
578.243	108.69
578.454	97.69
578.665	92.69
578.875	85.69
579.086	98.69
579.297	80.69
579.508	84.69
579.718	89.69
579.929	95.69
580.14	88.69
580.35	87.69
580.561	82.69
580.772	96.69
580.982	89.69
581.193	95.69
581.403	100.69
581.614	94.69
581.825	90.69
582.035	85.69
582.246	100.69
582.456	87.69
582.667	93.69
582.877	95.69
583.087	85.69
583.298	94.69
583.508	94.69
583.719	82.69
583.929	82.69
584.139	72.69
584.35	91.69
584.56	89.69
584.77	82.69
584.981	63.69
585.191	95.69
585.401	77.69
585.611	77.69
585.821	92.69
586.032	89.69
586.242	105.69
586.452	94.69
586.662	81.69
586.872	93.69
587.082	82.69
587.292	83.69
587.502	97.69
587.713	87.69
587.923	89.69
588.133	85.69
588.343	75.69
588.553	79.69
588.762	82.69
588.972	78.69
589.182	87.69
589.392	84.69
589.602	77.69
589.812	76.69
590.022	79.69
590.232	87.69
590.441	66.69
590.651	71.69
590.861	80.69
591.071	77.69
591.281	79.69
591.49	88.69
591.7	94.69
591.91	78.69
592.119	80.69
592.329	86.69
592.539	101.69
592.748	90.69
592.958	86.69
593.167	81.69
593.377	73.69
593.587	94.69
593.796	84.69
594.006	104.69
594.215	81.69
594.424	100.69
594.634	96.69
594.843	102.69
595.053	89.69
595.262	86.69
595.472	85.69
595.681	77.69
595.89	97.69
596.1	95.69
596.309	95.69
596.518	93.69
596.727	112.69
596.937	81.69
597.146	98.69
597.355	88.69
597.564	85.69
597.774	89.69
597.983	93.69
598.192	84.69
598.401	88.69
598.61	76.69
598.819	84.69
599.028	90.69
599.237	94.69
599.446	93.69
599.655	98.69
599.864	91.69
600.073	88.69
600.282	100.69
600.491	89.69
600.7	77.69
600.909	76.69
601.118	94.69
601.327	119.69
601.536	96.69
601.745	117.69
601.953	101.69
602.162	114.69
602.371	116.69
602.58	94.69
602.789	106.69
602.997	111.69
603.206	96.69
603.415	104.69
603.623	118.69
603.832	109.69
604.041	103.69
604.249	101.69
604.458	107.69
604.666	88.69
604.875	97.69
605.084	102.69
605.292	91.69
605.501	100.69
605.709	106.69
605.918	112.69
606.126	104.69
606.334	110.69
606.543	96.69
606.751	105.69
606.96	120.69
607.168	106.69
607.376	116.69
607.585	96.69
607.793	100.69
608.001	120.69
608.21	108.69
608.418	114.69
608.626	113.69
608.834	92.69
609.043	115.69
609.251	117.69
609.459	120.69
609.667	106.69
609.875	111.69
610.083	116.69
610.291	97.69
610.499	118.69
610.707	113.69
610.916	112.69
611.124	111.69
611.332	108.69
611.54	112.69
611.748	95.69
611.955	107.69
612.163	122.69
612.371	118.69
612.579	113.69
612.787	112.69
612.995	116.69
613.203	114.69
613.411	115.69
613.618	111.69
613.826	103.69
614.034	105.69
614.242	108.69
614.449	116.69
614.657	93.69
614.865	110.69
615.072	116.69
615.28	112.69
615.488	115.69
615.695	116.69
615.903	115.69
616.111	91.69
616.318	119.69
616.526	111.69
616.733	100.69
616.941	122.69
617.148	96.69
617.356	93.69
617.563	96.69
617.771	103.69
617.978	106.69
618.185	96.69
618.393	104.69
618.6	108.69
618.807	105.69
619.015	97.69
619.222	110.69
619.429	121.69
619.637	103.69
619.844	84.69
620.051	98.69
620.258	102.69
620.466	95.69
620.673	103.69
620.88	86.69
621.087	89.69
621.294	108.69
621.501	87.69
621.708	101.69
621.915	101.69
622.122	112.69
622.329	106.69
622.536	95.69
622.743	99.69
622.95	116.69
623.157	109.69
623.364	96.69
623.571	113.69
623.778	100.69
623.985	102.69
624.192	109.69
624.399	109.69
624.606	96.69
624.812	108.69
625.019	109.69
625.226	99.69
625.433	91.69
625.639	81.69
625.846	84.69
626.053	96.69
626.259	100.69
626.466	104.69
626.673	99.69
626.879	80.69
627.086	101.69
627.293	110.69
627.499	88.69
627.706	101.69
627.912	93.69
628.119	96.69
628.325	104.69
628.532	94.69
628.738	96.69
628.945	119.69
629.151	80.69
629.357	90.69
629.564	105.69
629.77	97.69
629.976	97.69
630.183	110.69
630.389	98.69
630.595	108.69
630.802	107.69
631.008	111.69
631.214	119.69
631.42	98.69
631.627	94.69
631.833	80.69
632.039	100.69
632.245	97.69
632.451	93.69
632.657	101.69
632.863	84.69
633.069	113.69
633.275	109.69
633.481	96.69
633.688	89.69
633.893	97.69
634.099	109.69
634.305	85.69
634.511	101.69
634.717	97.69
634.923	93.69
635.129	110.69
635.335	79.69
635.541	93.69
635.747	101.69
635.952	97.69
636.158	102.69
636.364	96.69
636.57	113.69
636.775	97.69
636.981	95.69
637.187	102.69
637.392	90.69
637.598	102.69
637.804	115.69
638.009	108.69
638.215	109.69
638.421	92.69
638.626	93.69
638.832	88.69
639.037	100.69
639.243	110.69
639.448	86.69
639.654	116.69
639.859	88.69
640.065	90.69
640.27	97.69
640.475	90.69
640.681	103.69
640.886	96.69
641.091	86.69
641.297	96.69
641.502	94.69
641.707	99.69
641.913	101.69
642.118	88.69
642.323	85.69
642.528	97.69
642.733	96.69
642.939	95.69
643.144	93.69
643.349	82.69
643.554	97.69
643.759	86.69
643.964	86.69
644.169	80.69
644.374	86.69
644.579	105.69
644.784	98.69
644.989	104.69
645.194	104.69
645.399	120.69
645.604	98.69
645.809	111.69
646.014	87.69
646.219	91.69
646.423	93.69
646.628	82.69
646.833	97.69
647.038	90.69
647.243	95.69
647.447	103.69
647.652	87.69
647.857	99.69
648.062	75.69
648.266	85.69
648.471	93.69
648.676	102.69
648.88	106.69
649.085	98.69
649.289	98.69
649.494	80.69
649.698	87.69
649.903	88.69
650.107	97.69
650.312	108.69
650.516	101.69
650.721	93.69
650.925	95.69
651.13	104.69
651.334	83.69
651.539	90.69
651.743	99.69
651.947	98.69
652.152	92.69
652.356	95.69
652.56	95.69
652.764	102.69
652.969	93.69
653.173	85.69
653.377	73.69
653.581	100.69
653.785	87.69
653.99	86.69
654.194	90.69
654.398	81.69
654.602	81.69
654.806	85.69
655.01	99.69
655.214	99.69
655.418	87.69
655.622	102.69
655.826	95.69
656.03	82.69
656.234	93.69
656.438	92.69
656.642	90.69
656.846	98.69
657.049	91.69
657.253	83.69
657.457	94.69
657.661	79.69
657.865	92.69
658.068	74.69
658.272	84.69
658.476	97.69
658.68	85.69
658.883	89.69
659.087	75.69
659.291	79.69
659.494	87.69
659.698	77.69
659.901	85.69
660.105	100.69
660.309	82.69
660.512	104.69
660.716	96.69
660.919	90.69
661.123	83.69
661.326	80.69
661.53	92.69
661.733	79.69
661.936	94.69
662.14	75.69
662.343	85.69
662.546	79.69
662.75	93.69
662.953	93.69
663.156	72.69
663.36	79.69
663.563	86.69
663.766	79.69
663.969	88.69
664.173	73.69
664.376	78.69
664.579	81.69
664.782	81.69
664.985	79.69
665.188	77.69
665.391	83.69
665.594	78.69
665.797	83.69
666	76.69
666.203	87.69
666.406	89.69
666.609	73.69
666.812	75.69
667.015	84.69
667.218	90.69
667.421	72.69
667.624	76.69
667.827	59.69
668.03	83.69
668.232	76.69
668.435	80.69
668.638	85.69
668.841	77.69
669.043	65.69
669.246	83.69
669.449	78.69
669.651	69.69
669.854	78.69
670.057	95.69
670.259	72.69
670.462	84.69
670.665	78.69
670.867	80.69
671.07	73.69
671.272	73.69
671.475	82.69
671.677	91.69
671.88	91.69
672.082	72.69
672.284	87.69
672.487	100.69
672.689	76.69
672.892	80.69
