Data from Location4.07152019.Energy5.Lamp.07192019.3%Agarose_HRD10591_16-18-34-926.txt Node
Date: Fri Jul 19 16:18:34 EDT 2019
User: cochatt
Spectrometer: HR+D1059
Trigger mode: 1
Integration Time (sec): 1.000000E-1
Scans to average: 1
Electric dark correction enabled: true
Nonlinearity correction enabled: false
Boxcar width: 0
XAxis mode: Wavelengths
Number of Pixels in Spectrum: 2048
>>>>>Begin Spectral Data<<<<<
223.165	-26.25
223.4	-26.25
223.635	-26.25
223.869	-9.25
224.104	-10.25
224.338	-20.25
224.573	-5.25
224.808	-19.25
225.042	-6.25
225.277	-10.25
225.511	-10.25
225.746	10.75
225.98	12.75
226.215	5.75
226.449	16.75
226.683	14.75
226.918	20.75
227.152	35.75
227.387	36.75
227.621	44.75
227.856	39.75
228.09	39.75
228.324	43.75
228.559	63.75
228.793	53.75
229.027	62.75
229.262	62.75
229.496	56.75
229.73	74.75
229.964	67.75
230.199	76.75
230.433	58.75
230.667	65.75
230.901	79.75
231.136	75.75
231.37	80.75
231.604	82.75
231.838	78.75
232.072	90.75
232.306	79.75
232.541	85.75
232.775	96.75
233.009	86.75
233.243	87.75
233.477	87.75
233.711	69.75
233.945	95.75
234.179	86.75
234.413	86.75
234.647	85.75
234.881	81.75
235.115	85.75
235.349	69.75
235.583	67.75
235.817	76.75
236.051	64.75
236.285	77.75
236.519	71.75
236.753	74.75
236.987	76.75
237.221	82.75
237.455	80.75
237.689	64.75
237.922	76.75
238.156	79.75
238.39	74.75
238.624	87.75
238.858	75.75
239.091	65.75
239.325	66.75
239.559	76.75
239.793	71.75
240.027	91.75
240.26	70.75
240.494	82.75
240.728	76.75
240.961	77.75
241.195	84.75
241.429	84.75
241.662	72.75
241.896	79.75
242.13	76.75
242.363	85.75
242.597	70.75
242.83	68.75
243.064	67.75
243.298	76.75
243.531	88.75
243.765	81.75
243.998	91.75
244.232	82.75
244.465	84.75
244.699	75.75
244.932	76.75
245.166	69.75
245.399	71.75
245.633	71.75
245.866	83.75
246.099	70.75
246.333	80.75
246.566	69.75
246.8	60.75
247.033	71.75
247.266	67.75
247.5	77.75
247.733	83.75
247.966	75.75
248.2	96.75
248.433	74.75
248.666	71.75
248.899	81.75
249.133	85.75
249.366	78.75
249.599	82.75
249.832	61.75
250.066	78.75
250.299	95.75
250.532	79.75
250.765	90.75
250.998	67.75
251.231	80.75
251.465	71.75
251.698	80.75
251.931	92.75
252.164	75.75
252.397	65.75
252.63	75.75
252.863	70.75
253.096	85.75
253.329	86.75
253.562	81.75
253.795	67.75
254.028	79.75
254.261	71.75
254.494	76.75
254.727	88.75
254.96	83.75
255.193	84.75
255.426	85.75
255.659	68.75
255.892	70.75
256.124	88.75
256.357	81.75
256.59	82.75
256.823	73.75
257.056	80.75
257.289	80.75
257.521	81.75
257.754	74.75
257.987	80.75
258.22	96.75
258.452	67.75
258.685	95.75
258.918	73.75
259.151	74.75
259.383	72.75
259.616	70.75
259.849	98.75
260.081	111.75
260.314	83.75
260.547	89.75
260.779	89.75
261.012	77.75
261.244	85.75
261.477	79.75
261.71	70.75
261.942	74.75
262.175	82.75
262.407	87.75
262.64	72.75
262.872	92.75
263.105	94.75
263.337	82.75
263.57	83.75
263.802	82.75
264.035	71.75
264.267	78.75
264.499	70.75
264.732	76.75
264.964	91.75
265.197	82.75
265.429	84.75
265.661	67.75
265.894	81.75
266.126	90.75
266.358	76.75
266.591	82.75
266.823	76.75
267.055	80.75
267.287	86.75
267.52	76.75
267.752	94.75
267.984	80.75
268.216	96.75
268.448	83.75
268.681	87.75
268.913	82.75
269.145	74.75
269.377	74.75
269.609	79.75
269.841	88.75
270.073	79.75
270.306	81.75
270.538	99.75
270.77	93.75
271.002	87.75
271.234	85.75
271.466	89.75
271.698	89.75
271.93	76.75
272.162	69.75
272.394	74.75
272.626	89.75
272.858	84.75
273.09	85.75
273.322	80.75
273.553	81.75
273.785	79.75
274.017	76.75
274.249	86.75
274.481	80.75
274.713	88.75
274.945	83.75
275.176	74.75
275.408	91.75
275.64	86.75
275.872	79.75
276.104	62.75
276.335	79.75
276.567	84.75
276.799	86.75
277.031	83.75
277.262	88.75
277.494	75.75
277.726	88.75
277.957	92.75
278.189	81.75
278.421	81.75
278.652	88.75
278.884	90.75
279.115	78.75
279.347	88.75
279.579	90.75
279.81	89.75
280.042	78.75
280.273	78.75
280.505	80.75
280.736	79.75
280.968	85.75
281.199	99.75
281.431	96.75
281.662	94.75
281.894	73.75
282.125	78.75
282.356	91.75
282.588	97.75
282.819	81.75
283.051	71.75
283.282	88.75
283.513	90.75
283.745	97.75
283.976	90.75
284.207	82.75
284.439	79.75
284.67	61.75
284.901	80.75
285.132	97.75
285.364	76.75
285.595	80.75
285.826	80.75
286.057	73.75
286.288	78.75
286.52	88.75
286.751	82.75
286.982	75.75
287.213	81.75
287.444	82.75
287.675	95.75
287.906	88.75
288.138	83.75
288.369	78.75
288.6	81.75
288.831	92.75
289.062	80.75
289.293	87.75
289.524	91.75
289.755	102.75
289.986	88.75
290.217	88.75
290.448	81.75
290.679	80.75
290.91	91.75
291.141	90.75
291.371	95.75
291.602	91.75
291.833	86.75
292.064	76.75
292.295	76.75
292.526	83.75
292.757	79.75
292.987	72.75
293.218	94.75
293.449	75.75
293.68	83.75
293.91	72.75
294.141	75.75
294.372	78.75
294.603	90.75
294.833	86.75
295.064	84.75
295.295	80.75
295.525	86.75
295.756	99.75
295.987	78.75
296.217	90.75
296.448	82.75
296.679	79.75
296.909	88.75
297.14	86.75
297.37	89.75
297.601	87.75
297.831	79.75
298.062	85.75
298.292	83.75
298.523	78.75
298.753	91.75
298.984	89.75
299.214	83.75
299.445	80.75
299.675	95.75
299.905	76.75
300.136	73.75
300.366	76.75
300.597	89.75
300.827	80.75
301.057	74.75
301.288	76.75
301.518	83.75
301.748	96.75
301.979	71.75
302.209	79.75
302.439	87.75
302.669	91.75
302.9	79.75
303.13	94.75
303.36	73.75
303.59	81.75
303.82	86.75
304.051	85.75
304.281	81.75
304.511	84.75
304.741	87.75
304.971	78.75
305.201	78.75
305.431	63.75
305.661	75.75
305.891	76.75
306.121	85.75
306.352	83.75
306.582	87.75
306.812	94.75
307.042	92.75
307.272	78.75
307.502	82.75
307.731	80.75
307.961	75.75
308.191	88.75
308.421	86.75
308.651	88.75
308.881	78.75
309.111	75.75
309.341	84.75
309.571	103.75
309.8	94.75
310.03	74.75
310.26	65.75
310.49	87.75
310.72	95.75
310.949	84.75
311.179	80.75
311.409	87.75
311.639	63.75
311.868	82.75
312.098	78.75
312.328	79.75
312.557	79.75
312.787	87.75
313.017	90.75
313.246	74.75
313.476	75.75
313.706	82.75
313.935	92.75
314.165	87.75
314.394	91.75
314.624	86.75
314.853	77.75
315.083	84.75
315.312	89.75
315.542	85.75
315.771	87.75
316.001	78.75
316.23	83.75
316.46	100.75
316.689	74.75
316.919	82.75
317.148	91.75
317.377	90.75
317.607	86.75
317.836	80.75
318.065	81.75
318.295	80.75
318.524	75.75
318.753	87.75
318.983	80.75
319.212	86.75
319.441	112.75
319.67	76.75
319.9	89.75
320.129	78.75
320.358	83.75
320.587	69.75
320.816	88.75
321.046	73.75
321.275	76.75
321.504	71.75
321.733	81.75
321.962	87.75
322.191	90.75
322.42	90.75
322.649	88.75
322.878	91.75
323.108	90.75
323.337	76.75
323.566	72.75
323.795	81.75
324.024	82.75
324.253	83.75
324.482	87.75
324.71	80.75
324.939	82.75
325.168	91.75
325.397	90.75
325.626	74.75
325.855	77.75
326.084	68.75
326.313	83.75
326.542	89.75
326.77	80.75
326.999	72.75
327.228	89.75
327.457	106.75
327.686	85.75
327.914	90.75
328.143	90.75
328.372	76.75
328.6	94.75
328.829	74.75
329.058	81.75
329.287	94.75
329.515	72.75
329.744	86.75
329.972	96.75
330.201	84.75
330.43	75.75
330.658	95.75
330.887	82.75
331.115	80.75
331.344	91.75
331.572	88.75
331.801	83.75
332.03	84.75
332.258	90.75
332.486	85.75
332.715	91.75
332.943	83.75
333.172	85.75
333.4	76.75
333.629	85.75
333.857	92.75
334.085	85.75
334.314	93.75
334.542	84.75
334.771	74.75
334.999	77.75
335.227	82.75
335.455	85.75
335.684	95.75
335.912	56.75
336.14	71.75
336.369	84.75
336.597	88.75
336.825	87.75
337.053	88.75
337.281	83.75
337.51	66.75
337.738	77.75
337.966	86.75
338.194	94.75
338.422	84.75
338.65	92.75
338.878	75.75
339.106	88.75
339.334	92.75
339.562	76.75
339.79	82.75
340.018	88.75
340.246	89.75
340.474	82.75
340.702	88.75
340.93	75.75
341.158	84.75
341.386	85.75
341.614	67.75
341.842	88.75
342.07	90.75
342.298	92.75
342.526	68.75
342.754	81.75
342.981	83.75
343.209	74.75
343.437	84.75
343.665	78.75
343.893	83.75
344.12	87.75
344.348	76.75
344.576	92.75
344.804	76.75
345.031	74.75
345.259	79.75
345.487	89.75
345.714	86.75
345.942	75.75
346.17	75.75
346.397	78.75
346.625	71.75
346.853	82.75
347.08	74.75
347.308	91.75
347.535	81.75
347.763	83.75
347.99	87.75
348.218	95.75
348.445	80.75
348.673	85.75
348.9	94.75
349.128	78.75
349.355	97.75
349.583	82.75
349.81	89.75
350.037	74.75
350.265	74.75
350.492	88.75
350.72	88.75
350.947	86.75
351.174	90.75
351.402	84.75
351.629	92.75
351.856	66.75
352.083	84.75
352.311	95.75
352.538	82.75
352.765	80.75
352.992	82.75
353.22	80.75
353.447	99.75
353.674	67.75
353.901	85.75
354.128	91.75
354.355	80.75
354.583	87.75
354.81	87.75
355.037	87.75
355.264	88.75
355.491	79.75
355.718	82.75
355.945	96.75
356.172	85.75
356.399	78.75
356.626	83.75
356.853	95.75
357.08	87.75
357.307	67.75
357.534	83.75
357.761	91.75
357.988	77.75
358.215	100.75
358.441	84.75
358.668	67.75
358.895	76.75
359.122	88.75
359.349	86.75
359.576	82.75
359.802	74.75
360.029	76.75
360.256	77.75
360.483	87.75
360.709	77.75
360.936	96.75
361.163	82.75
361.39	75.75
361.616	82.75
361.843	85.75
362.07	79.75
362.296	93.75
362.523	75.75
362.749	79.75
362.976	80.75
363.203	94.75
363.429	87.75
363.656	98.75
363.882	86.75
364.109	91.75
364.335	86.75
364.562	82.75
364.788	70.75
365.015	66.75
365.241	85.75
365.468	90.75
365.694	98.75
365.92	83.75
366.147	90.75
366.373	89.75
366.599	90.75
366.826	80.75
367.052	85.75
367.278	91.75
367.505	92.75
367.731	86.75
367.957	104.75
368.184	82.75
368.41	102.75
368.636	84.75
368.862	84.75
369.089	81.75
369.315	86.75
369.541	85.75
369.767	95.75
369.993	86.75
370.219	93.75
370.445	80.75
370.672	94.75
370.898	88.75
371.124	86.75
371.35	84.75
371.576	86.75
371.802	86.75
372.028	89.75
372.254	92.75
372.48	86.75
372.706	95.75
372.932	75.75
373.158	104.75
373.384	97.75
373.61	92.75
373.835	76.75
374.061	89.75
374.287	90.75
374.513	91.75
374.739	84.75
374.965	80.75
375.191	104.75
375.416	91.75
375.642	87.75
375.868	88.75
376.094	86.75
376.319	93.75
376.545	87.75
376.771	84.75
376.997	91.75
377.222	88.75
377.448	110.75
377.674	115.75
377.899	90.75
378.125	88.75
378.35	87.75
378.576	101.75
378.802	100.75
379.027	95.75
379.253	100.75
379.478	97.75
379.704	81.75
379.929	87.75
380.155	83.75
380.38	97.75
380.606	101.75
380.831	101.75
381.057	98.75
381.282	99.75
381.507	83.75
381.733	102.75
381.958	111.75
382.184	94.75
382.409	97.75
382.634	90.75
382.86	87.75
383.085	87.75
383.31	90.75
383.535	96.75
383.761	98.75
383.986	96.75
384.211	102.75
384.436	102.75
384.662	98.75
384.887	83.75
385.112	99.75
385.337	87.75
385.562	80.75
385.787	101.75
386.013	90.75
386.238	100.75
386.463	95.75
386.688	86.75
386.913	87.75
387.138	92.75
387.363	88.75
387.588	96.75
387.813	113.75
388.038	95.75
388.263	95.75
388.488	105.75
388.713	107.75
388.938	85.75
389.163	86.75
389.387	96.75
389.612	89.75
389.837	96.75
390.062	96.75
390.287	98.75
390.512	94.75
390.736	106.75
390.961	104.75
391.186	115.75
391.411	90.75
391.636	94.75
391.86	102.75
392.085	103.75
392.31	106.75
392.534	100.75
392.759	109.75
392.984	100.75
393.208	109.75
393.433	94.75
393.658	103.75
393.882	100.75
394.107	106.75
394.331	96.75
394.556	120.75
394.78	105.75
395.005	102.75
395.229	101.75
395.454	107.75
395.678	103.75
395.903	126.75
396.127	102.75
396.352	95.75
396.576	116.75
396.801	100.75
397.025	105.75
397.249	107.75
397.474	108.75
397.698	114.75
397.922	94.75
398.147	107.75
398.371	90.75
398.595	108.75
398.82	89.75
399.044	111.75
399.268	100.75
399.492	114.75
399.717	104.75
399.941	102.75
400.165	127.75
400.389	110.75
400.613	113.75
400.837	96.75
401.062	96.75
401.286	105.75
401.51	106.75
401.734	108.75
401.958	112.75
402.182	111.75
402.406	114.75
402.63	108.75
402.854	107.75
403.078	123.75
403.302	98.75
403.526	121.75
403.75	116.75
403.974	120.75
404.198	97.75
404.422	112.75
404.645	130.75
404.869	130.75
405.093	124.75
405.317	107.75
405.541	103.75
405.765	123.75
405.988	103.75
406.212	112.75
406.436	120.75
406.66	118.75
406.883	114.75
407.107	106.75
407.331	99.75
407.555	113.75
407.778	112.75
408.002	120.75
408.226	112.75
408.449	101.75
408.673	113.75
408.896	110.75
409.12	120.75
409.344	117.75
409.567	104.75
409.791	92.75
410.014	118.75
410.238	102.75
410.461	122.75
410.685	113.75
410.908	115.75
411.132	119.75
411.355	128.75
411.578	121.75
411.802	124.75
412.025	120.75
412.249	133.75
412.472	119.75
412.695	132.75
412.919	121.75
413.142	118.75
413.365	110.75
413.589	106.75
413.812	131.75
414.035	123.75
414.258	113.75
414.482	115.75
414.705	119.75
414.928	117.75
415.151	111.75
415.374	129.75
415.597	113.75
415.821	133.75
416.044	130.75
416.267	120.75
416.49	116.75
416.713	124.75
416.936	129.75
417.159	118.75
417.382	132.75
417.605	134.75
417.828	125.75
418.051	134.75
418.274	122.75
418.497	138.75
418.72	125.75
418.943	131.75
419.166	132.75
419.389	128.75
419.611	120.75
419.834	118.75
420.057	132.75
420.28	121.75
420.503	122.75
420.726	123.75
420.948	127.75
421.171	132.75
421.394	122.75
421.617	151.75
421.839	141.75
422.062	130.75
422.285	133.75
422.507	141.75
422.73	120.75
422.953	124.75
423.175	126.75
423.398	135.75
423.621	124.75
423.843	118.75
424.066	146.75
424.288	147.75
424.511	144.75
424.733	149.75
424.956	130.75
425.178	130.75
425.401	118.75
425.623	130.75
425.846	135.75
426.068	127.75
426.291	124.75
426.513	131.75
426.735	131.75
426.958	126.75
427.18	118.75
427.402	130.75
427.625	130.75
427.847	127.75
428.069	129.75
428.292	128.75
428.514	126.75
428.736	127.75
428.958	126.75
429.181	133.75
429.403	128.75
429.625	114.75
429.847	134.75
430.069	135.75
430.292	126.75
430.514	127.75
430.736	116.75
430.958	115.75
431.18	126.75
431.402	131.75
431.624	107.75
431.846	99.75
432.068	100.75
432.29	92.75
432.512	97.75
432.734	107.75
432.956	126.75
433.178	147.75
433.4	139.75
433.622	136.75
433.844	137.75
434.066	108.75
434.287	111.75
434.509	110.75
434.731	105.75
434.953	103.75
435.175	124.75
435.397	113.75
435.618	116.75
435.84	111.75
436.062	110.75
436.284	118.75
436.505	128.75
436.727	122.75
436.949	143.75
437.17	126.75
437.392	114.75
437.614	113.75
437.835	99.75
438.057	118.75
438.278	116.75
438.5	123.75
438.721	141.75
438.943	120.75
439.165	142.75
439.386	137.75
439.608	146.75
439.829	147.75
440.05	135.75
440.272	130.75
440.493	149.75
440.715	145.75
440.936	148.75
441.158	136.75
441.379	142.75
441.6	132.75
441.822	132.75
442.043	137.75
442.264	152.75
442.486	141.75
442.707	130.75
442.928	132.75
443.149	133.75
443.371	126.75
443.592	140.75
443.813	132.75
444.034	147.75
444.255	152.75
444.476	135.75
444.698	140.75
444.919	151.75
445.14	264.75
445.361	204.75
445.582	148.75
445.803	134.75
446.024	151.75
446.245	153.75
446.466	146.75
446.687	145.75
446.908	142.75
447.129	136.75
447.35	157.75
447.571	144.75
447.792	145.75
448.013	154.75
448.234	138.75
448.455	133.75
448.675	140.75
448.896	140.75
449.117	133.75
449.338	135.75
449.559	133.75
449.779	125.75
450	131.75
450.221	128.75
450.442	146.75
450.662	126.75
450.883	129.75
451.104	124.75
451.324	127.75
451.545	119.75
451.766	112.75
451.986	124.75
452.207	121.75
452.428	113.75
452.648	127.75
452.869	131.75
453.089	130.75
453.31	110.75
453.53	100.75
453.751	91.75
453.971	98.75
454.192	102.75
454.412	96.75
454.633	122.75
454.853	119.75
455.073	122.75
455.294	126.75
455.514	123.75
455.734	115.75
455.955	116.75
456.175	107.75
456.395	115.75
456.616	103.75
456.836	103.75
457.056	114.75
457.276	119.75
457.497	97.75
457.717	104.75
457.937	113.75
458.157	107.75
458.377	104.75
458.598	106.75
458.818	105.75
459.038	96.75
459.258	88.75
459.478	106.75
459.698	84.75
459.918	95.75
460.138	107.75
460.358	106.75
460.578	114.75
460.798	119.75
461.018	119.75
461.238	113.75
461.458	104.75
461.678	103.75
461.898	113.75
462.118	114.75
462.338	126.75
462.558	117.75
462.777	122.75
462.997	119.75
463.217	95.75
463.437	108.75
463.657	113.75
463.876	109.75
464.096	112.75
464.316	98.75
464.536	100.75
464.755	119.75
464.975	122.75
465.195	129.75
465.414	120.75
465.634	117.75
465.854	114.75
466.073	121.75
466.293	129.75
466.512	120.75
466.732	124.75
466.951	141.75
467.171	144.75
467.391	130.75
467.61	129.75
467.829	131.75
468.049	132.75
468.268	138.75
468.488	135.75
468.707	135.75
468.927	123.75
469.146	141.75
469.365	143.75
469.585	133.75
469.804	130.75
470.023	134.75
470.243	154.75
470.462	158.75
470.681	139.75
470.901	138.75
471.12	147.75
471.339	132.75
471.558	132.75
471.777	139.75
471.997	133.75
472.216	123.75
472.435	108.75
472.654	120.75
472.873	125.75
473.092	110.75
473.311	127.75
473.53	130.75
473.749	129.75
473.968	120.75
474.187	124.75
474.406	126.75
474.625	123.75
474.844	134.75
475.063	130.75
475.282	134.75
475.501	100.75
475.72	122.75
475.939	123.75
476.158	132.75
476.377	128.75
476.596	125.75
476.814	111.75
477.033	99.75
477.252	132.75
477.471	119.75
477.69	126.75
477.908	134.75
478.127	134.75
478.346	128.75
478.564	132.75
478.783	135.75
479.002	145.75
479.22	127.75
479.439	150.75
479.658	109.75
479.876	119.75
480.095	100.75
480.313	107.75
480.532	123.75
480.751	104.75
480.969	95.75
481.188	83.75
481.406	94.75
481.624	90.75
481.843	101.75
482.061	105.75
482.28	108.75
482.498	103.75
482.717	106.75
482.935	122.75
483.153	145.75
483.372	138.75
483.59	142.75
483.808	146.75
484.027	139.75
484.245	138.75
484.463	145.75
484.681	163.75
484.9	141.75
485.118	172.75
485.336	122.75
485.554	119.75
485.772	99.75
485.99	91.75
486.209	107.75
486.427	111.75
486.645	115.75
486.863	138.75
487.081	136.75
487.299	132.75
487.517	139.75
487.735	161.75
487.953	191.75
488.171	171.75
488.389	155.75
488.607	145.75
488.825	139.75
489.043	124.75
489.261	133.75
489.479	146.75
489.696	140.75
489.914	139.75
490.132	135.75
490.35	141.75
490.568	150.75
490.786	177.75
491.003	164.75
491.221	190.75
491.439	185.75
491.657	194.75
491.874	200.75
492.092	208.75
492.31	216.75
492.527	234.75
492.745	220.75
492.963	194.75
493.18	169.75
493.398	180.75
493.615	171.75
493.833	176.75
494.05	166.75
494.268	174.75
494.485	169.75
494.703	171.75
494.92	156.75
495.138	162.75
495.355	178.75
495.573	160.75
495.79	152.75
496.008	170.75
496.225	181.75
496.442	171.75
496.66	164.75
496.877	155.75
497.094	158.75
497.312	165.75
497.529	144.75
497.746	153.75
497.963	138.75
498.181	138.75
498.398	121.75
498.615	118.75
498.832	127.75
499.049	122.75
499.267	143.75
499.484	136.75
499.701	127.75
499.918	129.75
500.135	135.75
500.352	140.75
500.569	136.75
500.786	133.75
501.003	134.75
501.22	146.75
501.437	126.75
501.654	129.75
501.871	117.75
502.088	132.75
502.305	123.75
502.522	128.75
502.739	134.75
502.956	128.75
503.172	126.75
503.389	102.75
503.606	124.75
503.823	116.75
504.04	119.75
504.256	126.75
504.473	120.75
504.69	126.75
504.907	134.75
505.123	121.75
505.34	136.75
505.557	132.75
505.773	110.75
505.99	120.75
506.207	128.75
506.423	120.75
506.64	114.75
506.856	99.75
507.073	105.75
507.289	125.75
507.506	112.75
507.722	126.75
507.939	131.75
508.155	130.75
508.372	111.75
508.588	106.75
508.805	113.75
509.021	113.75
509.238	95.75
509.454	101.75
509.67	86.75
509.887	98.75
510.103	80.75
510.319	99.75
510.536	92.75
510.752	91.75
510.968	87.75
511.184	80.75
511.401	97.75
511.617	102.75
511.833	87.75
512.049	90.75
512.265	87.75
512.481	97.75
512.698	102.75
512.914	94.75
513.13	90.75
513.346	94.75
513.562	103.75
513.778	94.75
513.994	97.75
514.21	94.75
514.426	91.75
514.642	112.75
514.858	105.75
515.074	92.75
515.29	93.75
515.506	77.75
515.721	98.75
515.937	93.75
516.153	96.75
516.369	92.75
516.585	88.75
516.801	93.75
517.016	83.75
517.232	88.75
517.448	92.75
517.664	89.75
517.879	96.75
518.095	87.75
518.311	75.75
518.527	102.75
518.742	101.75
518.958	104.75
519.173	108.75
519.389	106.75
519.605	113.75
519.82	111.75
520.036	122.75
520.251	102.75
520.467	115.75
520.682	94.75
520.898	100.75
521.113	102.75
521.329	79.75
521.544	89.75
521.76	101.75
521.975	97.75
522.19	107.75
522.406	93.75
522.621	95.75
522.836	95.75
523.052	106.75
523.267	101.75
523.482	107.75
523.698	120.75
523.913	116.75
524.128	108.75
524.343	110.75
524.559	123.75
524.774	104.75
524.989	110.75
525.204	110.75
525.419	105.75
525.634	118.75
525.849	99.75
526.064	97.75
526.28	117.75
526.495	90.75
526.71	87.75
526.925	96.75
527.14	97.75
527.355	74.75
527.57	82.75
527.785	97.75
527.999	91.75
528.214	87.75
528.429	123.75
528.644	118.75
528.859	126.75
529.074	147.75
529.289	160.75
529.503	152.75
529.718	148.75
529.933	130.75
530.148	124.75
530.363	114.75
530.577	81.75
530.792	100.75
531.007	91.75
531.221	86.75
531.436	103.75
531.651	89.75
531.865	87.75
532.08	78.75
532.295	92.75
532.509	88.75
532.724	85.75
532.938	88.75
533.153	100.75
533.367	110.75
533.582	125.75
533.796	111.75
534.011	109.75
534.225	105.75
534.44	103.75
534.654	93.75
534.868	114.75
535.083	85.75
535.297	99.75
535.511	88.75
535.726	99.75
535.94	115.75
536.154	102.75
536.369	109.75
536.583	76.75
536.797	88.75
537.011	83.75
537.225	89.75
537.44	89.75
537.654	82.75
537.868	95.75
538.082	90.75
538.296	92.75
538.51	100.75
538.724	114.75
538.938	126.75
539.153	129.75
539.367	117.75
539.581	112.75
539.795	103.75
540.009	97.75
540.222	106.75
540.436	114.75
540.65	106.75
540.864	125.75
541.078	149.75
541.292	133.75
541.506	154.75
541.72	180.75
541.934	196.75
542.147	188.75
542.361	184.75
542.575	168.75
542.789	150.75
543.002	131.75
543.216	122.75
543.43	106.75
543.644	128.75
543.857	146.75
544.071	156.75
544.285	150.75
544.498	157.75
544.712	168.75
544.925	156.75
545.139	167.75
545.352	154.75
545.566	162.75
545.779	155.75
545.993	150.75
546.206	152.75
546.42	157.75
546.633	169.75
546.847	163.75
547.06	169.75
547.274	163.75
547.487	180.75
547.7	162.75
547.914	158.75
548.127	160.75
548.34	153.75
548.554	145.75
548.767	155.75
548.98	159.75
549.193	170.75
549.407	139.75
549.62	151.75
549.833	143.75
550.046	147.75
550.259	124.75
550.473	138.75
550.686	145.75
550.899	146.75
551.112	137.75
551.325	132.75
551.538	122.75
551.751	124.75
551.964	126.75
552.177	139.75
552.39	133.75
552.603	140.75
552.816	159.75
553.029	159.75
553.242	177.75
553.455	159.75
553.667	150.75
553.88	163.75
554.093	132.75
554.306	133.75
554.519	136.75
554.732	136.75
554.944	139.75
555.157	115.75
555.37	145.75
555.583	134.75
555.795	137.75
556.008	135.75
556.221	124.75
556.433	130.75
556.646	128.75
556.859	157.75
557.071	154.75
557.284	146.75
557.496	144.75
557.709	136.75
557.921	139.75
558.134	140.75
558.346	119.75
558.559	122.75
558.771	126.75
558.984	140.75
559.196	139.75
559.409	130.75
559.621	141.75
559.833	128.75
560.046	122.75
560.258	128.75
560.47	126.75
560.683	145.75
560.895	146.75
561.107	131.75
561.32	134.75
561.532	137.75
561.744	133.75
561.956	142.75
562.168	146.75
562.381	133.75
562.593	128.75
562.805	137.75
563.017	124.75
563.229	123.75
563.441	122.75
563.653	127.75
563.865	127.75
564.077	127.75
564.289	127.75
564.501	123.75
564.713	123.75
564.925	112.75
565.137	114.75
565.349	111.75
565.561	125.75
565.773	130.75
565.985	107.75
566.197	96.75
566.408	125.75
566.62	108.75
566.832	122.75
567.044	130.75
567.255	115.75
567.467	116.75
567.679	104.75
567.891	107.75
568.102	103.75
568.314	94.75
568.526	96.75
568.737	91.75
568.949	86.75
569.161	87.75
569.372	84.75
569.584	82.75
569.795	80.75
570.007	84.75
570.218	86.75
570.43	100.75
570.641	90.75
570.853	111.75
571.064	113.75
571.276	111.75
571.487	102.75
571.698	93.75
571.91	98.75
572.121	86.75
572.333	94.75
572.544	113.75
572.755	93.75
572.966	83.75
573.178	90.75
573.389	86.75
573.6	100.75
573.811	78.75
574.023	88.75
574.234	88.75
574.445	98.75
574.656	86.75
574.867	105.75
575.078	94.75
575.289	90.75
575.501	93.75
575.712	90.75
575.923	91.75
576.134	103.75
576.345	98.75
576.556	88.75
576.767	113.75
576.978	98.75
577.188	98.75
577.399	96.75
577.61	78.75
577.821	94.75
578.032	94.75
578.243	93.75
578.454	103.75
578.665	100.75
578.875	96.75
579.086	95.75
579.297	88.75
579.508	72.75
579.718	79.75
579.929	70.75
580.14	71.75
580.35	69.75
580.561	102.75
580.772	90.75
580.982	95.75
581.193	81.75
581.403	97.75
581.614	87.75
581.825	92.75
582.035	93.75
582.246	98.75
582.456	85.75
582.667	84.75
582.877	87.75
583.087	86.75
583.298	89.75
583.508	83.75
583.719	96.75
583.929	95.75
584.139	83.75
584.35	91.75
584.56	92.75
584.77	83.75
584.981	82.75
585.191	88.75
585.401	83.75
585.611	86.75
585.821	92.75
586.032	84.75
586.242	94.75
586.452	87.75
586.662	72.75
586.872	77.75
587.082	81.75
587.292	91.75
587.502	80.75
587.713	101.75
587.923	82.75
588.133	87.75
588.343	70.75
588.553	78.75
588.762	87.75
588.972	90.75
589.182	87.75
589.392	89.75
589.602	88.75
589.812	99.75
590.022	92.75
590.232	89.75
590.441	73.75
590.651	94.75
590.861	85.75
591.071	92.75
591.281	82.75
591.49	82.75
591.7	68.75
591.91	86.75
592.119	83.75
592.329	83.75
592.539	84.75
592.748	96.75
592.958	79.75
593.167	84.75
593.377	80.75
593.587	84.75
593.796	81.75
594.006	76.75
594.215	78.75
594.424	90.75
594.634	99.75
594.843	87.75
595.053	106.75
595.262	96.75
595.472	91.75
595.681	97.75
595.89	89.75
596.1	88.75
596.309	95.75
596.518	91.75
596.727	100.75
596.937	78.75
597.146	90.75
597.355	98.75
597.564	79.75
597.774	88.75
597.983	86.75
598.192	82.75
598.401	95.75
598.61	82.75
598.819	87.75
599.028	91.75
599.237	88.75
599.446	97.75
599.655	88.75
599.864	95.75
600.073	87.75
600.282	94.75
600.491	81.75
600.7	95.75
600.909	112.75
601.118	85.75
601.327	95.75
601.536	89.75
601.745	109.75
601.953	105.75
602.162	110.75
602.371	100.75
602.58	98.75
602.789	109.75
602.997	102.75
603.206	118.75
603.415	114.75
603.623	107.75
603.832	116.75
604.041	112.75
604.249	95.75
604.458	113.75
604.666	97.75
604.875	102.75
605.084	96.75
605.292	102.75
605.501	105.75
605.709	112.75
605.918	107.75
606.126	100.75
606.334	107.75
606.543	102.75
606.751	117.75
606.96	118.75
607.168	102.75
607.376	108.75
607.585	123.75
607.793	104.75
608.001	107.75
608.21	111.75
608.418	106.75
608.626	103.75
608.834	107.75
609.043	101.75
609.251	106.75
609.459	103.75
609.667	110.75
609.875	100.75
610.083	118.75
610.291	116.75
610.499	114.75
610.707	107.75
610.916	120.75
611.124	105.75
611.332	114.75
611.54	117.75
611.748	106.75
611.955	110.75
612.163	102.75
612.371	117.75
612.579	114.75
612.787	114.75
612.995	111.75
613.203	108.75
613.411	121.75
613.618	111.75
613.826	118.75
614.034	104.75
614.242	110.75
614.449	107.75
614.657	110.75
614.865	118.75
615.072	112.75
615.28	115.75
615.488	114.75
615.695	99.75
615.903	112.75
616.111	103.75
616.318	118.75
616.526	106.75
616.733	97.75
616.941	104.75
617.148	121.75
617.356	118.75
617.563	120.75
617.771	113.75
617.978	107.75
618.185	115.75
618.393	105.75
618.6	115.75
618.807	120.75
619.015	100.75
619.222	109.75
619.429	96.75
619.637	96.75
619.844	95.75
620.051	114.75
620.258	106.75
620.466	118.75
620.673	92.75
620.88	118.75
621.087	111.75
621.294	113.75
621.501	90.75
621.708	100.75
621.915	112.75
622.122	115.75
622.329	124.75
622.536	115.75
622.743	106.75
622.95	107.75
623.157	92.75
623.364	91.75
623.571	105.75
623.778	111.75
623.985	99.75
624.192	104.75
624.399	112.75
624.606	116.75
624.812	110.75
625.019	120.75
625.226	106.75
625.433	110.75
625.639	104.75
625.846	99.75
626.053	95.75
626.259	103.75
626.466	84.75
626.673	90.75
626.879	96.75
627.086	110.75
627.293	104.75
627.499	95.75
627.706	100.75
627.912	76.75
628.119	107.75
628.325	95.75
628.532	99.75
628.738	97.75
628.945	101.75
629.151	110.75
629.357	98.75
629.564	95.75
629.77	113.75
629.976	104.75
630.183	102.75
630.389	102.75
630.595	100.75
630.802	103.75
631.008	92.75
631.214	111.75
631.42	107.75
631.627	103.75
631.833	98.75
632.039	92.75
632.245	98.75
632.451	108.75
632.657	112.75
632.863	119.75
633.069	103.75
633.275	98.75
633.481	97.75
633.688	93.75
633.893	91.75
634.099	106.75
634.305	114.75
634.511	94.75
634.717	106.75
634.923	106.75
635.129	93.75
635.335	89.75
635.541	102.75
635.747	92.75
635.952	89.75
636.158	93.75
636.364	114.75
636.57	116.75
636.775	125.75
636.981	90.75
637.187	102.75
637.392	107.75
637.598	114.75
637.804	113.75
638.009	104.75
638.215	97.75
638.421	104.75
638.626	89.75
638.832	104.75
639.037	88.75
639.243	74.75
639.448	91.75
639.654	115.75
639.859	114.75
640.065	98.75
640.27	100.75
640.475	90.75
640.681	102.75
640.886	103.75
641.091	105.75
641.297	104.75
641.502	116.75
641.707	95.75
641.913	99.75
642.118	104.75
642.323	107.75
642.528	89.75
642.733	99.75
642.939	105.75
643.144	92.75
643.349	103.75
643.554	104.75
643.759	112.75
643.964	114.75
644.169	99.75
644.374	90.75
644.579	85.75
644.784	104.75
644.989	95.75
645.194	104.75
645.399	92.75
645.604	95.75
645.809	92.75
646.014	96.75
646.219	89.75
646.423	95.75
646.628	112.75
646.833	99.75
647.038	102.75
647.243	98.75
647.447	103.75
647.652	89.75
647.857	96.75
648.062	120.75
648.266	94.75
648.471	82.75
648.676	100.75
648.88	104.75
649.085	100.75
649.289	105.75
649.494	110.75
649.698	111.75
649.903	91.75
650.107	108.75
650.312	95.75
650.516	99.75
650.721	108.75
650.925	85.75
651.13	90.75
651.334	104.75
651.539	92.75
651.743	93.75
651.947	82.75
652.152	92.75
652.356	95.75
652.56	108.75
652.764	93.75
652.969	96.75
653.173	86.75
653.377	96.75
653.581	89.75
653.785	89.75
653.99	104.75
654.194	97.75
654.398	94.75
654.602	87.75
654.806	91.75
655.01	91.75
655.214	94.75
655.418	92.75
655.622	108.75
655.826	83.75
656.03	91.75
656.234	89.75
656.438	91.75
656.642	68.75
656.846	99.75
657.049	85.75
657.253	89.75
657.457	88.75
657.661	89.75
657.865	87.75
658.068	82.75
658.272	86.75
658.476	85.75
658.68	84.75
658.883	90.75
659.087	91.75
659.291	75.75
659.494	84.75
659.698	86.75
659.901	89.75
660.105	84.75
660.309	90.75
660.512	77.75
660.716	90.75
660.919	79.75
661.123	79.75
661.326	76.75
661.53	75.75
661.733	87.75
661.936	78.75
662.14	80.75
662.343	78.75
662.546	66.75
662.75	87.75
662.953	69.75
663.156	80.75
663.36	88.75
663.563	75.75
663.766	84.75
663.969	81.75
664.173	78.75
664.376	86.75
664.579	83.75
664.782	95.75
664.985	72.75
665.188	77.75
665.391	69.75
665.594	77.75
665.797	75.75
666	84.75
666.203	83.75
666.406	82.75
666.609	70.75
666.812	85.75
667.015	79.75
667.218	82.75
667.421	74.75
667.624	93.75
667.827	77.75
668.03	95.75
668.232	78.75
668.435	80.75
668.638	77.75
668.841	76.75
669.043	73.75
669.246	74.75
669.449	88.75
669.651	90.75
669.854	76.75
670.057	85.75
670.259	76.75
670.462	91.75
670.665	83.75
670.867	68.75
671.07	85.75
671.272	92.75
671.475	83.75
671.677	86.75
671.88	92.75
672.082	84.75
672.284	87.75
672.487	86.75
672.689	78.75
672.892	79.75
