Data from 1980.PennyLincolnUp.Lamp.En5.5.200Scan.071819.P1_HRD10591_16-39-21-957.txt Node
Date: Thu Jul 18 16:39:21 EDT 2019
User: cochatt
Spectrometer: HR+D1059
Trigger mode: 1
Integration Time (sec): 1.000000E-1
Scans to average: 1
Electric dark correction enabled: true
Nonlinearity correction enabled: false
Boxcar width: 0
XAxis mode: Wavelengths
Number of Pixels in Spectrum: 2048
>>>>>Begin Spectral Data<<<<<
223.165	-21.94
223.4	-21.94
223.635	-21.94
223.869	-8.94
224.104	-23.94
224.338	-10.94
224.573	-20.94
224.808	-5.94
225.042	-3.94
225.277	-7.94
225.511	2.06
225.746	4.06
225.98	6.06
226.215	10.06
226.449	12.06
226.683	9.06
226.918	20.06
227.152	41.06
227.387	41.06
227.621	21.06
227.856	42.06
228.09	28.06
228.324	54.06
228.559	46.06
228.793	62.06
229.027	105.06
229.262	102.06
229.496	130.06
229.73	143.06
229.964	169.06
230.199	144.06
230.433	130.06
230.667	124.06
230.901	98.06
231.136	111.06
231.37	102.06
231.604	107.06
231.838	123.06
232.072	122.06
232.306	118.06
232.541	112.06
232.775	130.06
233.009	122.06
233.243	120.06
233.477	98.06
233.711	117.06
233.945	106.06
234.179	116.06
234.413	123.06
234.647	125.06
234.881	122.06
235.115	112.06
235.349	118.06
235.583	120.06
235.817	122.06
236.051	126.06
236.285	130.06
236.519	124.06
236.753	138.06
236.987	152.06
237.221	195.06
237.455	235.06
237.689	199.06
237.922	148.06
238.156	143.06
238.39	152.06
238.624	128.06
238.858	131.06
239.091	128.06
239.325	132.06
239.559	134.06
239.793	129.06
240.027	132.06
240.26	159.06
240.494	188.06
240.728	173.06
240.961	167.06
241.195	153.06
241.429	145.06
241.662	132.06
241.896	130.06
242.13	142.06
242.363	144.06
242.597	143.06
242.83	145.06
243.064	148.06
243.298	144.06
243.531	152.06
243.765	156.06
243.998	136.06
244.232	151.06
244.465	152.06
244.699	139.06
244.932	150.06
245.166	148.06
245.399	142.06
245.633	148.06
245.866	152.06
246.099	144.06
246.333	161.06
246.566	158.06
246.8	158.06
247.033	128.06
247.266	161.06
247.5	160.06
247.733	166.06
247.966	184.06
248.2	172.06
248.433	164.06
248.666	194.06
248.899	184.06
249.133	210.06
249.366	234.06
249.599	220.06
249.832	206.06
250.066	197.06
250.299	202.06
250.532	197.06
250.765	221.06
250.998	229.06
251.231	244.06
251.465	231.06
251.698	235.06
251.931	207.06
252.164	223.06
252.397	213.06
252.63	213.06
252.863	231.06
253.096	240.06
253.329	231.06
253.562	240.06
253.795	243.06
254.028	236.06
254.261	245.06
254.494	262.06
254.727	278.06
254.96	298.06
255.193	278.06
255.426	274.06
255.659	239.06
255.892	243.06
256.124	249.06
256.357	248.06
256.59	231.06
256.823	238.06
257.056	228.06
257.289	233.06
257.521	222.06
257.754	210.06
257.987	216.06
258.22	226.06
258.452	216.06
258.685	211.06
258.918	222.06
259.151	224.06
259.383	227.06
259.616	244.06
259.849	244.06
260.081	235.06
260.314	258.06
260.547	290.06
260.779	272.06
261.012	263.06
261.244	233.06
261.477	246.06
261.71	231.06
261.942	248.06
262.175	262.06
262.407	266.06
262.64	216.06
262.872	221.06
263.105	211.06
263.337	216.06
263.57	221.06
263.802	212.06
264.035	218.06
264.267	234.06
264.499	226.06
264.732	235.06
264.964	214.06
265.197	201.06
265.429	215.06
265.661	215.06
265.894	214.06
266.126	200.06
266.358	222.06
266.591	214.06
266.823	236.06
267.055	228.06
267.287	235.06
267.52	220.06
267.752	235.06
267.984	226.06
268.216	215.06
268.448	237.06
268.681	240.06
268.913	267.06
269.145	278.06
269.377	302.06
269.609	279.06
269.841	291.06
270.073	295.06
270.306	318.06
270.538	319.06
270.77	323.06
271.002	325.06
271.234	311.06
271.466	324.06
271.698	324.06
271.93	337.06
272.162	325.06
272.394	333.06
272.626	345.06
272.858	300.06
273.09	312.06
273.322	294.06
273.553	282.06
273.785	282.06
274.017	265.06
274.249	260.06
274.481	271.06
274.713	271.06
274.945	264.06
275.176	270.06
275.408	282.06
275.64	274.06
275.872	266.06
276.104	261.06
276.335	263.06
276.567	283.06
276.799	290.06
277.031	291.06
277.262	332.06
277.494	340.06
277.726	324.06
277.957	318.06
278.189	287.06
278.421	279.06
278.652	289.06
278.884	278.06
279.115	262.06
279.347	254.06
279.579	278.06
279.81	259.06
280.042	238.06
280.273	263.06
280.505	266.06
280.736	276.06
280.968	282.06
281.199	265.06
281.431	258.06
281.662	251.06
281.894	269.06
282.125	279.06
282.356	292.06
282.588	307.06
282.819	312.06
283.051	279.06
283.282	270.06
283.513	271.06
283.745	283.06
283.976	274.06
284.207	286.06
284.439	275.06
284.67	270.06
284.901	272.06
285.132	279.06
285.364	264.06
285.595	268.06
285.826	277.06
286.057	272.06
286.288	260.06
286.52	270.06
286.751	281.06
286.982	274.06
287.213	287.06
287.444	281.06
287.675	291.06
287.906	288.06
288.138	291.06
288.369	301.06
288.6	296.06
288.831	290.06
289.062	298.06
289.293	272.06
289.524	281.06
289.755	287.06
289.986	271.06
290.217	268.06
290.448	259.06
290.679	285.06
290.91	270.06
291.141	277.06
291.371	279.06
291.602	287.06
291.833	286.06
292.064	279.06
292.295	282.06
292.526	275.06
292.757	288.06
292.987	282.06
293.218	289.06
293.449	277.06
293.68	281.06
293.91	275.06
294.141	274.06
294.372	280.06
294.603	292.06
294.833	285.06
295.064	300.06
295.295	283.06
295.525	284.06
295.756	284.06
295.987	285.06
296.217	345.06
296.448	330.06
296.679	291.06
296.909	294.06
297.14	269.06
297.37	301.06
297.601	281.06
297.831	291.06
298.062	275.06
298.292	294.06
298.523	279.06
298.753	279.06
298.984	300.06
299.214	284.06
299.445	289.06
299.675	290.06
299.905	315.06
300.136	304.06
300.366	303.06
300.597	301.06
300.827	293.06
301.057	307.06
301.288	324.06
301.518	313.06
301.748	303.06
301.979	313.06
302.209	325.06
302.439	317.06
302.669	315.06
302.9	297.06
303.13	304.06
303.36	311.06
303.59	322.06
303.82	335.06
304.051	321.06
304.281	307.06
304.511	308.06
304.741	301.06
304.971	316.06
305.201	313.06
305.431	309.06
305.661	304.06
305.891	307.06
306.121	318.06
306.352	319.06
306.582	360.06
306.812	320.06
307.042	326.06
307.272	317.06
307.502	310.06
307.731	326.06
307.961	318.06
308.191	320.06
308.421	317.06
308.651	337.06
308.881	316.06
309.111	333.06
309.341	330.06
309.571	342.06
309.8	334.06
310.03	363.06
310.26	383.06
310.49	366.06
310.72	386.06
310.949	399.06
311.179	401.06
311.409	376.06
311.639	388.06
311.868	383.06
312.098	372.06
312.328	375.06
312.557	414.06
312.787	424.06
313.017	415.06
313.246	397.06
313.476	377.06
313.706	377.06
313.935	382.06
314.165	399.06
314.394	413.06
314.624	398.06
314.853	388.06
315.083	380.06
315.312	364.06
315.542	373.06
315.771	356.06
316.001	352.06
316.23	352.06
316.46	361.06
316.689	364.06
316.919	375.06
317.148	397.06
317.377	379.06
317.607	383.06
317.836	386.06
318.065	355.06
318.295	372.06
318.524	365.06
318.753	372.06
318.983	378.06
319.212	377.06
319.441	386.06
319.67	376.06
319.9	370.06
320.129	386.06
320.358	379.06
320.587	391.06
320.816	380.06
321.046	410.06
321.275	409.06
321.504	405.06
321.733	387.06
321.962	417.06
322.191	430.06
322.42	432.06
322.649	440.06
322.878	450.06
323.108	490.06
323.337	500.06
323.566	537.06
323.795	599.06
324.024	645.06
324.253	825.06
324.482	1172.06
324.71	1820.06
324.939	2614.06
325.168	2238.06
325.397	1172.06
325.626	757.06
325.855	605.06
326.084	571.06
326.313	529.06
326.542	542.06
326.77	618.06
326.999	732.06
327.228	1029.06
327.457	1584.06
327.686	1930.06
327.914	1297.06
328.143	861.06
328.372	736.06
328.6	674.06
328.829	628.06
329.058	620.06
329.287	662.06
329.515	607.06
329.744	590.06
329.972	562.06
330.201	575.06
330.43	632.06
330.658	648.06
330.887	680.06
331.115	674.06
331.344	584.06
331.572	525.06
331.801	526.06
332.03	518.06
332.258	479.06
332.486	446.06
332.715	427.06
332.943	450.06
333.172	474.06
333.4	466.06
333.629	468.06
333.857	484.06
334.085	478.06
334.314	488.06
334.542	567.06
334.771	578.06
334.999	488.06
335.227	481.06
335.455	457.06
335.684	434.06
335.912	415.06
336.14	421.06
336.369	440.06
336.597	447.06
336.825	453.06
337.053	427.06
337.281	420.06
337.51	430.06
337.738	426.06
337.966	412.06
338.194	427.06
338.422	424.06
338.65	413.06
338.878	418.06
339.106	404.06
339.334	398.06
339.562	408.06
339.79	432.06
340.018	448.06
340.246	421.06
340.474	422.06
340.702	436.06
340.93	417.06
341.158	419.06
341.386	423.06
341.614	406.06
341.842	401.06
342.07	391.06
342.298	408.06
342.526	396.06
342.754	389.06
342.981	382.06
343.209	398.06
343.437	383.06
343.665	391.06
343.893	379.06
344.12	411.06
344.348	406.06
344.576	418.06
344.804	438.06
345.031	416.06
345.259	441.06
345.487	439.06
345.714	427.06
345.942	397.06
346.17	399.06
346.397	412.06
346.625	402.06
346.853	397.06
347.08	418.06
347.308	410.06
347.535	422.06
347.763	430.06
347.99	439.06
348.218	442.06
348.445	442.06
348.673	430.06
348.9	423.06
349.128	407.06
349.355	382.06
349.583	398.06
349.81	391.06
350.037	387.06
350.265	381.06
350.492	392.06
350.72	402.06
350.947	400.06
351.174	412.06
351.402	398.06
351.629	414.06
351.856	402.06
352.083	425.06
352.311	426.06
352.538	430.06
352.765	444.06
352.992	439.06
353.22	400.06
353.447	406.06
353.674	399.06
353.901	383.06
354.128	393.06
354.355	383.06
354.583	350.06
354.81	392.06
355.037	390.06
355.264	373.06
355.491	372.06
355.718	359.06
355.945	368.06
356.172	368.06
356.399	356.06
356.626	370.06
356.853	365.06
357.08	358.06
357.307	382.06
357.534	352.06
357.761	359.06
357.988	372.06
358.215	371.06
358.441	378.06
358.668	378.06
358.895	372.06
359.122	379.06
359.349	404.06
359.576	410.06
359.802	453.06
360.029	452.06
360.256	493.06
360.483	482.06
360.709	427.06
360.936	412.06
361.163	398.06
361.39	419.06
361.616	413.06
361.843	386.06
362.07	424.06
362.296	420.06
362.523	394.06
362.749	397.06
362.976	393.06
363.203	386.06
363.429	384.06
363.656	402.06
363.882	404.06
364.109	394.06
364.335	388.06
364.562	371.06
364.788	386.06
365.015	381.06
365.241	385.06
365.468	383.06
365.694	390.06
365.92	383.06
366.147	404.06
366.373	380.06
366.599	374.06
366.826	382.06
367.052	380.06
367.278	367.06
367.505	382.06
367.731	384.06
367.957	395.06
368.184	394.06
368.41	399.06
368.636	409.06
368.862	387.06
369.089	379.06
369.315	387.06
369.541	378.06
369.767	375.06
369.993	377.06
370.219	371.06
370.445	370.06
370.672	354.06
370.898	366.06
371.124	372.06
371.35	382.06
371.576	370.06
371.802	363.06
372.028	370.06
372.254	373.06
372.48	363.06
372.706	364.06
372.932	373.06
373.158	380.06
373.384	375.06
373.61	390.06
373.835	379.06
374.061	358.06
374.287	362.06
374.513	349.06
374.739	375.06
374.965	379.06
375.191	360.06
375.416	374.06
375.642	366.06
375.868	380.06
376.094	367.06
376.319	364.06
376.545	384.06
376.771	376.06
376.997	378.06
377.222	375.06
377.448	373.06
377.674	382.06
377.899	376.06
378.125	356.06
378.35	377.06
378.576	367.06
378.802	372.06
379.027	358.06
379.253	365.06
379.478	365.06
379.704	368.06
379.929	369.06
380.155	375.06
380.38	375.06
380.606	375.06
380.831	376.06
381.057	364.06
381.282	364.06
381.507	374.06
381.733	357.06
381.958	358.06
382.184	352.06
382.409	364.06
382.634	381.06
382.86	378.06
383.085	364.06
383.31	366.06
383.535	373.06
383.761	376.06
383.986	392.06
384.211	368.06
384.436	372.06
384.662	368.06
384.887	372.06
385.112	380.06
385.337	386.06
385.562	378.06
385.787	388.06
386.013	401.06
386.238	373.06
386.463	402.06
386.688	394.06
386.913	400.06
387.138	398.06
387.363	396.06
387.588	400.06
387.813	381.06
388.038	387.06
388.263	400.06
388.488	395.06
388.713	413.06
388.938	398.06
389.163	408.06
389.387	388.06
389.612	384.06
389.837	390.06
390.062	386.06
390.287	399.06
390.512	394.06
390.736	376.06
390.961	392.06
391.186	378.06
391.411	384.06
391.636	392.06
391.86	393.06
392.085	392.06
392.31	404.06
392.534	384.06
392.759	361.06
392.984	377.06
393.208	392.06
393.433	388.06
393.658	390.06
393.882	386.06
394.107	396.06
394.331	397.06
394.556	372.06
394.78	384.06
395.005	389.06
395.229	396.06
395.454	400.06
395.678	398.06
395.903	411.06
396.127	420.06
396.352	453.06
396.576	423.06
396.801	399.06
397.025	410.06
397.249	428.06
397.474	418.06
397.698	398.06
397.922	420.06
398.147	444.06
398.371	422.06
398.595	458.06
398.82	432.06
399.044	438.06
399.268	445.06
399.492	447.06
399.717	468.06
399.941	514.06
400.165	536.06
400.389	546.06
400.613	514.06
400.837	483.06
401.062	431.06
401.286	432.06
401.51	450.06
401.734	433.06
401.958	430.06
402.182	444.06
402.406	481.06
402.63	457.06
402.854	439.06
403.078	459.06
403.302	480.06
403.526	478.06
403.75	463.06
403.974	464.06
404.198	457.06
404.422	450.06
404.645	466.06
404.869	474.06
405.093	510.06
405.317	538.06
405.541	581.06
405.765	523.06
405.988	486.06
406.212	500.06
406.436	522.06
406.66	523.06
406.883	509.06
407.107	530.06
407.331	582.06
407.555	634.06
407.778	634.06
408.002	572.06
408.226	498.06
408.449	511.06
408.673	538.06
408.896	548.06
409.12	607.06
409.344	554.06
409.567	499.06
409.791	469.06
410.014	462.06
410.238	470.06
410.461	481.06
410.685	474.06
410.908	481.06
411.132	512.06
411.355	564.06
411.578	536.06
411.802	493.06
412.025	448.06
412.249	476.06
412.472	494.06
412.695	530.06
412.919	548.06
413.142	461.06
413.365	460.06
413.589	484.06
413.812	458.06
414.035	459.06
414.258	441.06
414.482	446.06
414.705	460.06
414.928	422.06
415.151	446.06
415.374	444.06
415.597	412.06
415.821	443.06
416.044	442.06
416.267	437.06
416.49	429.06
416.713	453.06
416.936	442.06
417.159	461.06
417.382	462.06
417.605	463.06
417.828	450.06
418.051	481.06
418.274	470.06
418.497	429.06
418.72	432.06
418.943	442.06
419.166	457.06
419.389	480.06
419.611	464.06
419.834	474.06
420.057	480.06
420.28	475.06
420.503	470.06
420.726	463.06
420.948	476.06
421.171	534.06
421.394	558.06
421.617	507.06
421.839	495.06
422.062	496.06
422.285	495.06
422.507	560.06
422.73	637.06
422.953	614.06
423.175	532.06
423.398	528.06
423.621	495.06
423.843	534.06
424.066	529.06
424.288	507.06
424.511	542.06
424.733	593.06
424.956	671.06
425.178	643.06
425.401	641.06
425.623	662.06
425.846	580.06
426.068	526.06
426.291	529.06
426.513	546.06
426.735	551.06
426.958	597.06
427.18	679.06
427.402	818.06
427.625	932.06
427.847	793.06
428.069	700.06
428.292	611.06
428.514	544.06
428.736	505.06
428.958	494.06
429.181	501.06
429.403	484.06
429.625	506.06
429.847	537.06
430.069	617.06
430.292	616.06
430.514	528.06
430.736	487.06
430.958	476.06
431.18	458.06
431.402	459.06
431.624	468.06
431.846	453.06
432.068	454.06
432.29	456.06
432.512	446.06
432.734	464.06
432.956	460.06
433.178	472.06
433.4	476.06
433.622	453.06
433.844	445.06
434.066	438.06
434.287	442.06
434.509	455.06
434.731	468.06
434.953	449.06
435.175	485.06
435.397	505.06
435.618	548.06
435.84	584.06
436.062	680.06
436.284	722.06
436.505	631.06
436.727	553.06
436.949	525.06
437.17	508.06
437.392	487.06
437.614	503.06
437.835	544.06
438.057	652.06
438.278	791.06
438.5	764.06
438.721	796.06
438.943	778.06
439.165	623.06
439.386	581.06
439.608	542.06
439.829	578.06
440.05	593.06
440.272	646.06
440.493	596.06
440.715	541.06
440.936	500.06
441.158	501.06
441.379	480.06
441.6	506.06
441.822	538.06
442.043	574.06
442.264	660.06
442.486	701.06
442.707	589.06
442.928	552.06
443.149	568.06
443.371	590.06
443.592	629.06
443.813	719.06
444.034	759.06
444.255	642.06
444.476	545.06
444.698	552.06
444.919	518.06
445.14	607.06
445.361	599.06
445.582	548.06
445.803	654.06
446.024	783.06
446.245	812.06
446.466	743.06
446.687	600.06
446.908	545.06
447.129	536.06
447.35	487.06
447.571	474.06
447.792	491.06
448.013	506.06
448.234	530.06
448.455	566.06
448.675	668.06
448.896	798.06
449.117	674.06
449.338	653.06
449.559	755.06
449.779	825.06
450	692.06
450.221	567.06
450.442	559.06
450.662	505.06
450.883	517.06
451.104	540.06
451.324	538.06
451.545	491.06
451.766	469.06
451.986	462.06
452.207	439.06
452.428	444.06
452.648	435.06
452.869	442.06
453.089	455.06
453.31	460.06
453.53	468.06
453.751	477.06
453.971	463.06
454.192	474.06
454.412	471.06
454.633	425.06
454.853	426.06
455.073	427.06
455.294	471.06
455.514	526.06
455.734	548.06
455.955	440.06
456.175	449.06
456.395	408.06
456.616	406.06
456.836	416.06
457.056	408.06
457.276	406.06
457.497	414.06
457.717	419.06
457.937	424.06
458.157	419.06
458.377	435.06
458.598	460.06
458.818	536.06
459.038	630.06
459.258	638.06
459.478	520.06
459.698	460.06
459.918	472.06
460.138	442.06
460.358	446.06
460.578	453.06
460.798	430.06
461.018	439.06
461.238	454.06
461.458	455.06
461.678	421.06
461.898	420.06
462.118	435.06
462.338	409.06
462.558	443.06
462.777	447.06
462.997	455.06
463.217	458.06
463.437	468.06
463.657	456.06
463.876	445.06
464.096	468.06
464.316	450.06
464.536	500.06
464.755	469.06
464.975	486.06
465.195	542.06
465.414	651.06
465.634	560.06
465.854	527.06
466.073	485.06
466.293	452.06
466.512	456.06
466.732	452.06
466.951	450.06
467.171	428.06
467.391	421.06
467.61	448.06
467.829	450.06
468.049	460.06
468.268	468.06
468.488	448.06
468.707	464.06
468.927	441.06
469.146	438.06
469.365	423.06
469.585	431.06
469.804	426.06
470.023	447.06
470.243	466.06
470.462	470.06
470.681	468.06
470.901	464.06
471.12	467.06
471.339	450.06
471.558	459.06
471.777	459.06
471.997	443.06
472.216	463.06
472.435	514.06
472.654	479.06
472.873	456.06
473.092	453.06
473.311	459.06
473.53	466.06
473.749	440.06
473.968	495.06
474.187	595.06
474.406	662.06
474.625	523.06
474.844	483.06
475.063	456.06
475.282	439.06
475.501	435.06
475.72	454.06
475.939	461.06
476.158	464.06
476.377	475.06
476.596	466.06
476.814	470.06
477.033	479.06
477.252	461.06
477.471	474.06
477.69	496.06
477.908	482.06
478.127	479.06
478.346	514.06
478.564	498.06
478.783	475.06
479.002	519.06
479.22	505.06
479.439	508.06
479.658	539.06
479.876	546.06
480.095	558.06
480.313	575.06
480.532	539.06
480.751	547.06
480.969	580.06
481.188	637.06
481.406	690.06
481.624	589.06
481.843	572.06
482.061	577.06
482.28	572.06
482.498	541.06
482.717	533.06
482.935	521.06
483.153	551.06
483.372	541.06
483.59	535.06
483.808	513.06
484.027	504.06
484.245	540.06
484.463	540.06
484.681	550.06
484.9	520.06
485.118	557.06
485.336	551.06
485.554	552.06
485.772	543.06
485.99	558.06
486.209	552.06
486.427	558.06
486.645	565.06
486.863	597.06
487.081	604.06
487.299	569.06
487.517	610.06
487.735	591.06
487.953	605.06
488.171	588.06
488.389	580.06
488.607	584.06
488.825	597.06
489.043	580.06
489.261	576.06
489.479	575.06
489.696	598.06
489.914	593.06
490.132	604.06
490.35	597.06
490.568	612.06
490.786	643.06
491.003	616.06
491.221	651.06
491.439	647.06
491.657	681.06
491.874	656.06
492.092	676.06
492.31	670.06
492.527	714.06
492.745	687.06
492.963	694.06
493.18	691.06
493.398	688.06
493.615	670.06
493.833	700.06
494.05	692.06
494.268	670.06
494.485	671.06
494.703	670.06
494.92	690.06
495.138	686.06
495.355	696.06
495.573	686.06
495.79	714.06
496.008	706.06
496.225	700.06
496.442	694.06
496.66	679.06
496.877	676.06
497.094	679.06
497.312	695.06
497.529	709.06
497.746	728.06
497.963	706.06
498.181	730.06
498.398	727.06
498.615	720.06
498.832	755.06
499.049	755.06
499.267	738.06
499.484	788.06
499.701	802.06
499.918	790.06
500.135	806.06
500.352	833.06
500.569	859.06
500.786	866.06
501.003	840.06
501.22	838.06
501.437	832.06
501.654	845.06
501.871	829.06
502.088	837.06
502.305	756.06
502.522	776.06
502.739	755.06
502.956	714.06
503.172	711.06
503.389	739.06
503.606	722.06
503.823	743.06
504.04	706.06
504.256	685.06
504.473	674.06
504.69	672.06
504.907	676.06
505.123	701.06
505.34	690.06
505.557	666.06
505.773	678.06
505.99	671.06
506.207	674.06
506.423	684.06
506.64	655.06
506.856	665.06
507.073	666.06
507.289	682.06
507.506	664.06
507.722	678.06
507.939	678.06
508.155	647.06
508.372	640.06
508.588	676.06
508.805	652.06
509.021	643.06
509.238	676.06
509.454	662.06
509.67	654.06
509.887	638.06
510.103	671.06
510.319	667.06
510.536	788.06
510.752	1383.06
510.968	1120.06
511.184	679.06
511.401	625.06
511.617	664.06
511.833	675.06
512.049	630.06
512.265	609.06
512.481	648.06
512.698	612.06
512.914	625.06
513.13	625.06
513.346	604.06
513.562	612.06
513.778	599.06
513.994	630.06
514.21	642.06
514.426	673.06
514.642	753.06
514.858	810.06
515.074	838.06
515.29	1007.06
515.506	1563.06
515.721	1248.06
515.937	823.06
516.153	719.06
516.369	670.06
516.585	624.06
516.801	637.06
517.016	638.06
517.232	628.06
517.448	615.06
517.664	614.06
517.879	592.06
518.095	607.06
518.311	607.06
518.527	613.06
518.742	636.06
518.958	603.06
519.173	627.06
519.389	634.06
519.605	617.06
519.82	615.06
520.036	640.06
520.251	668.06
520.467	700.06
520.682	714.06
520.898	703.06
521.113	734.06
521.329	816.06
521.544	969.06
521.76	1213.06
521.975	2091.06
522.19	2052.06
522.406	1066.06
522.621	768.06
522.836	662.06
523.052	636.06
523.267	596.06
523.482	582.06
523.698	576.06
523.913	557.06
524.128	578.06
524.343	566.06
524.559	550.06
524.774	543.06
524.989	548.06
525.204	566.06
525.419	557.06
525.634	536.06
525.849	525.06
526.064	518.06
526.28	516.06
526.495	499.06
526.71	515.06
526.925	494.06
527.14	492.06
527.355	492.06
527.57	478.06
527.785	485.06
527.999	487.06
528.214	507.06
528.429	486.06
528.644	510.06
528.859	496.06
529.074	488.06
529.289	527.06
529.503	629.06
529.718	620.06
529.933	540.06
530.148	515.06
530.363	501.06
530.577	481.06
530.792	481.06
531.007	476.06
531.221	465.06
531.436	461.06
531.651	488.06
531.865	469.06
532.08	463.06
532.295	474.06
532.509	463.06
532.724	470.06
532.938	446.06
533.153	471.06
533.367	474.06
533.582	478.06
533.796	439.06
534.011	452.06
534.225	448.06
534.44	451.06
534.654	456.06
534.868	438.06
535.083	491.06
535.297	456.06
535.511	450.06
535.726	469.06
535.94	458.06
536.154	495.06
536.369	454.06
536.583	456.06
536.797	430.06
537.011	436.06
537.225	448.06
537.44	454.06
537.654	445.06
537.868	450.06
538.082	454.06
538.296	448.06
538.51	483.06
538.724	439.06
538.938	469.06
539.153	456.06
539.367	465.06
539.581	443.06
539.795	463.06
540.009	435.06
540.222	427.06
540.436	434.06
540.65	426.06
540.864	451.06
541.078	466.06
541.292	462.06
541.506	480.06
541.72	430.06
541.934	455.06
542.147	438.06
542.361	416.06
542.575	443.06
542.789	452.06
543.002	440.06
543.216	432.06
543.43	442.06
543.644	448.06
543.857	463.06
544.071	448.06
544.285	444.06
544.498	429.06
544.712	410.06
544.925	444.06
545.139	440.06
545.352	420.06
545.566	431.06
545.779	451.06
545.993	408.06
546.206	420.06
546.42	436.06
546.633	438.06
546.847	411.06
547.06	434.06
547.274	417.06
547.487	419.06
547.7	432.06
547.914	416.06
548.127	407.06
548.34	411.06
548.554	393.06
548.767	405.06
548.98	417.06
549.193	396.06
549.407	428.06
549.62	423.06
549.833	406.06
550.046	419.06
550.259	393.06
550.473	411.06
550.686	431.06
550.899	391.06
551.112	406.06
551.325	403.06
551.538	404.06
551.751	383.06
551.964	410.06
552.177	385.06
552.39	412.06
552.603	407.06
552.816	396.06
553.029	393.06
553.242	382.06
553.455	415.06
553.667	408.06
553.88	422.06
554.093	439.06
554.306	437.06
554.519	422.06
554.732	382.06
554.944	396.06
555.157	403.06
555.37	397.06
555.583	403.06
555.795	394.06
556.008	380.06
556.221	390.06
556.433	391.06
556.646	373.06
556.859	395.06
557.071	399.06
557.284	368.06
557.496	390.06
557.709	382.06
557.921	394.06
558.134	378.06
558.346	370.06
558.559	372.06
558.771	383.06
558.984	373.06
559.196	364.06
559.409	379.06
559.621	364.06
559.833	380.06
560.046	372.06
560.258	379.06
560.47	377.06
560.683	359.06
560.895	364.06
561.107	367.06
561.32	363.06
561.532	381.06
561.744	362.06
561.956	340.06
562.168	352.06
562.381	372.06
562.593	352.06
562.805	357.06
563.017	356.06
563.229	377.06
563.441	370.06
563.653	374.06
563.865	378.06
564.077	372.06
564.289	366.06
564.501	379.06
564.713	382.06
564.925	379.06
565.137	386.06
565.349	406.06
565.561	390.06
565.773	402.06
565.985	386.06
566.197	381.06
566.408	386.06
566.62	402.06
566.832	414.06
567.044	412.06
567.255	398.06
567.467	400.06
567.679	408.06
567.891	403.06
568.102	401.06
568.314	400.06
568.526	382.06
568.737	386.06
568.949	386.06
569.161	383.06
569.372	358.06
569.584	363.06
569.795	366.06
570.007	378.06
570.218	418.06
570.43	392.06
570.641	354.06
570.853	344.06
571.064	341.06
571.276	340.06
571.487	348.06
571.698	339.06
571.91	346.06
572.121	333.06
572.333	334.06
572.544	341.06
572.755	338.06
572.966	308.06
573.178	317.06
573.389	335.06
573.6	319.06
573.811	339.06
574.023	315.06
574.234	332.06
574.445	314.06
574.656	316.06
574.867	301.06
575.078	303.06
575.289	327.06
575.501	321.06
575.712	331.06
575.923	318.06
576.134	301.06
576.345	309.06
576.556	331.06
576.767	305.06
576.978	300.06
577.188	315.06
577.399	296.06
577.61	303.06
577.821	303.06
578.032	312.06
578.243	356.06
578.454	636.06
578.665	478.06
578.875	312.06
579.086	296.06
579.297	313.06
579.508	292.06
579.718	281.06
579.929	315.06
580.14	278.06
580.35	290.06
580.561	294.06
580.772	288.06
580.982	291.06
581.193	291.06
581.403	296.06
581.614	287.06
581.825	293.06
582.035	313.06
582.246	307.06
582.456	283.06
582.667	285.06
582.877	294.06
583.087	284.06
583.298	282.06
583.508	277.06
583.719	282.06
583.929	290.06
584.139	294.06
584.35	279.06
584.56	281.06
584.77	281.06
584.981	278.06
585.191	266.06
585.401	290.06
585.611	289.06
585.821	298.06
586.032	293.06
586.242	279.06
586.452	275.06
586.662	282.06
586.872	274.06
587.082	274.06
587.292	274.06
587.502	295.06
587.713	276.06
587.923	272.06
588.133	279.06
588.343	274.06
588.553	280.06
588.762	286.06
588.972	281.06
589.182	270.06
589.392	270.06
589.602	258.06
589.812	266.06
590.022	288.06
590.232	271.06
590.441	275.06
590.651	277.06
590.861	255.06
591.071	270.06
591.281	298.06
591.49	287.06
591.7	282.06
591.91	284.06
592.119	267.06
592.329	265.06
592.539	286.06
592.748	299.06
592.958	299.06
593.167	290.06
593.377	262.06
593.587	274.06
593.796	285.06
594.006	298.06
594.215	281.06
594.424	272.06
594.634	275.06
594.843	287.06
595.053	274.06
595.262	273.06
595.472	271.06
595.681	275.06
595.89	270.06
596.1	254.06
596.309	268.06
596.518	270.06
596.727	271.06
596.937	246.06
597.146	267.06
597.355	265.06
597.564	246.06
597.774	273.06
597.983	271.06
598.192	249.06
598.401	249.06
598.61	261.06
598.819	268.06
599.028	238.06
599.237	250.06
599.446	250.06
599.655	254.06
599.864	247.06
600.073	221.06
600.282	239.06
600.491	237.06
600.7	255.06
600.909	238.06
601.118	244.06
601.327	251.06
601.536	262.06
601.745	233.06
601.953	262.06
602.162	243.06
602.371	248.06
602.58	255.06
602.789	249.06
602.997	238.06
603.206	241.06
603.415	260.06
603.623	240.06
603.832	234.06
604.041	242.06
604.249	221.06
604.458	247.06
604.666	213.06
604.875	235.06
605.084	235.06
605.292	235.06
605.501	230.06
605.709	234.06
605.918	234.06
606.126	216.06
606.334	247.06
606.543	229.06
606.751	250.06
606.96	239.06
607.168	254.06
607.376	235.06
607.585	239.06
607.793	228.06
608.001	247.06
608.21	226.06
608.418	236.06
608.626	198.06
608.834	230.06
609.043	223.06
609.251	227.06
609.459	222.06
609.667	239.06
609.875	225.06
610.083	236.06
610.291	250.06
610.499	236.06
610.707	233.06
610.916	224.06
611.124	243.06
611.332	248.06
611.54	244.06
611.748	245.06
611.955	232.06
612.163	232.06
612.371	230.06
612.579	222.06
612.787	227.06
612.995	220.06
613.203	216.06
613.411	245.06
613.618	238.06
613.826	217.06
614.034	218.06
614.242	214.06
614.449	229.06
614.657	236.06
614.865	231.06
615.072	223.06
615.28	217.06
615.488	214.06
615.695	211.06
615.903	206.06
616.111	207.06
616.318	218.06
616.526	223.06
616.733	220.06
616.941	228.06
617.148	227.06
617.356	224.06
617.563	222.06
617.771	218.06
617.978	215.06
618.185	220.06
618.393	216.06
618.6	230.06
618.807	220.06
619.015	222.06
619.222	217.06
619.429	206.06
619.637	227.06
619.844	209.06
620.051	205.06
620.258	217.06
620.466	223.06
620.673	213.06
620.88	220.06
621.087	201.06
621.294	227.06
621.501	204.06
621.708	219.06
621.915	200.06
622.122	211.06
622.329	210.06
622.536	206.06
622.743	216.06
622.95	213.06
623.157	217.06
623.364	207.06
623.571	215.06
623.778	196.06
623.985	214.06
624.192	207.06
624.399	194.06
624.606	200.06
624.812	204.06
625.019	207.06
625.226	195.06
625.433	196.06
625.639	193.06
625.846	189.06
626.053	196.06
626.259	212.06
626.466	183.06
626.673	199.06
626.879	197.06
627.086	201.06
627.293	202.06
627.499	202.06
627.706	201.06
627.912	212.06
628.119	194.06
628.325	170.06
628.532	196.06
628.738	197.06
628.945	194.06
629.151	200.06
629.357	185.06
629.564	192.06
629.77	181.06
629.976	194.06
630.183	184.06
630.389	197.06
630.595	203.06
630.802	181.06
631.008	184.06
631.214	194.06
631.42	183.06
631.627	190.06
631.833	190.06
632.039	198.06
632.245	183.06
632.451	176.06
632.657	184.06
632.863	169.06
633.069	183.06
633.275	178.06
633.481	173.06
633.688	169.06
633.893	190.06
634.099	179.06
634.305	189.06
634.511	182.06
634.717	180.06
634.923	177.06
635.129	181.06
635.335	186.06
635.541	182.06
635.747	184.06
635.952	184.06
636.158	175.06
636.364	188.06
636.57	186.06
636.775	178.06
636.981	178.06
637.187	189.06
637.392	178.06
637.598	188.06
637.804	182.06
638.009	185.06
638.215	183.06
638.421	162.06
638.626	166.06
638.832	170.06
639.037	157.06
639.243	168.06
639.448	170.06
639.654	165.06
639.859	176.06
640.065	167.06
640.27	174.06
640.475	166.06
640.681	165.06
640.886	162.06
641.091	177.06
641.297	163.06
641.502	167.06
641.707	157.06
641.913	164.06
642.118	152.06
642.323	166.06
642.528	163.06
642.733	154.06
642.939	174.06
643.144	169.06
643.349	171.06
643.554	163.06
643.759	167.06
643.964	136.06
644.169	149.06
644.374	167.06
644.579	165.06
644.784	153.06
644.989	160.06
645.194	152.06
645.399	165.06
645.604	165.06
645.809	162.06
646.014	163.06
646.219	156.06
646.423	162.06
646.628	183.06
646.833	156.06
647.038	164.06
647.243	165.06
647.447	156.06
647.652	152.06
647.857	159.06
648.062	175.06
648.266	152.06
648.471	164.06
648.676	164.06
648.88	163.06
649.085	146.06
649.289	167.06
649.494	171.06
649.698	162.06
649.903	185.06
650.107	178.06
650.312	154.06
650.516	152.06
650.721	160.06
650.925	152.06
651.13	163.06
651.334	163.06
651.539	149.06
651.743	156.06
651.947	141.06
652.152	137.06
652.356	150.06
652.56	128.06
652.764	139.06
652.969	141.06
653.173	133.06
653.377	152.06
653.581	150.06
653.785	134.06
653.99	137.06
654.194	124.06
654.398	144.06
654.602	131.06
654.806	134.06
655.01	137.06
655.214	153.06
655.418	131.06
655.622	121.06
655.826	146.06
656.03	134.06
656.234	135.06
656.438	124.06
656.642	145.06
656.846	136.06
657.049	130.06
657.253	120.06
657.457	109.06
657.661	120.06
657.865	122.06
658.068	123.06
658.272	124.06
658.476	102.06
658.68	106.06
658.883	118.06
659.087	101.06
659.291	108.06
659.494	92.06
659.698	91.06
659.901	103.06
660.105	98.06
660.309	103.06
660.512	90.06
660.716	100.06
660.919	94.06
661.123	98.06
661.326	76.06
661.53	87.06
661.733	86.06
661.936	84.06
662.14	107.06
662.343	87.06
662.546	89.06
662.75	83.06
662.953	95.06
663.156	87.06
663.36	101.06
663.563	98.06
663.766	90.06
663.969	85.06
664.173	89.06
664.376	79.06
664.579	93.06
664.782	78.06
664.985	86.06
665.188	87.06
665.391	80.06
665.594	89.06
665.797	86.06
666	64.06
666.203	85.06
666.406	76.06
666.609	86.06
666.812	84.06
667.015	89.06
667.218	87.06
667.421	89.06
667.624	90.06
667.827	83.06
668.03	74.06
668.232	80.06
668.435	92.06
668.638	101.06
668.841	99.06
669.043	82.06
669.246	86.06
669.449	79.06
669.651	95.06
669.854	79.06
670.057	74.06
670.259	90.06
670.462	95.06
670.665	94.06
670.867	95.06
671.07	92.06
671.272	78.06
671.475	89.06
671.677	85.06
671.88	85.06
672.082	76.06
672.284	94.06
672.487	73.06
672.689	92.06
672.892	91.06
