Data from 1980.PennyLincolnUp.Lamp.En5.5.200Scan.071819.P1_HRD10591_16-38-11-957.txt Node
Date: Thu Jul 18 16:38:11 EDT 2019
User: cochatt
Spectrometer: HR+D1059
Trigger mode: 1
Integration Time (sec): 1.000000E-1
Scans to average: 1
Electric dark correction enabled: true
Nonlinearity correction enabled: false
Boxcar width: 0
XAxis mode: Wavelengths
Number of Pixels in Spectrum: 2048
>>>>>Begin Spectral Data<<<<<
223.165	-12.62
223.4	-12.62
223.635	-12.62
223.869	-5.62
224.104	-17.62
224.338	-18.62
224.573	-14.62
224.808	-24.62
225.042	7.38
225.277	7.38
225.511	-20.62
225.746	10.38
225.98	0.38
226.215	-4.62
226.449	15.38
226.683	23.38
226.918	23.38
227.152	31.38
227.387	27.38
227.621	51.38
227.856	31.38
228.09	30.38
228.324	53.38
228.559	59.38
228.793	75.38
229.027	86.38
229.262	112.38
229.496	105.38
229.73	135.38
229.964	152.38
230.199	131.38
230.433	129.38
230.667	101.38
230.901	123.38
231.136	115.38
231.37	107.38
231.604	110.38
231.838	110.38
232.072	125.38
232.306	105.38
232.541	119.38
232.775	90.38
233.009	118.38
233.243	116.38
233.477	111.38
233.711	118.38
233.945	113.38
234.179	125.38
234.413	117.38
234.647	111.38
234.881	109.38
235.115	123.38
235.349	113.38
235.583	125.38
235.817	127.38
236.051	131.38
236.285	143.38
236.519	138.38
236.753	143.38
236.987	168.38
237.221	213.38
237.455	253.38
237.689	204.38
237.922	157.38
238.156	135.38
238.39	129.38
238.624	135.38
238.858	128.38
239.091	124.38
239.325	118.38
239.559	127.38
239.793	127.38
240.027	119.38
240.26	142.38
240.494	158.38
240.728	161.38
240.961	157.38
241.195	143.38
241.429	148.38
241.662	126.38
241.896	130.38
242.13	124.38
242.363	151.38
242.597	146.38
242.83	141.38
243.064	141.38
243.298	126.38
243.531	150.38
243.765	136.38
243.998	142.38
244.232	143.38
244.465	155.38
244.699	148.38
244.932	152.38
245.166	151.38
245.399	130.38
245.633	148.38
245.866	131.38
246.099	143.38
246.333	145.38
246.566	165.38
246.8	151.38
247.033	155.38
247.266	165.38
247.5	176.38
247.733	163.38
247.966	170.38
248.2	178.38
248.433	161.38
248.666	168.38
248.899	182.38
249.133	204.38
249.366	218.38
249.599	218.38
249.832	198.38
250.066	203.38
250.299	180.38
250.532	204.38
250.765	212.38
250.998	218.38
251.231	255.38
251.465	235.38
251.698	231.38
251.931	199.38
252.164	218.38
252.397	185.38
252.63	213.38
252.863	221.38
253.096	230.38
253.329	220.38
253.562	241.38
253.795	240.38
254.028	227.38
254.261	214.38
254.494	243.38
254.727	251.38
254.96	312.38
255.193	292.38
255.426	265.38
255.659	257.38
255.892	249.38
256.124	232.38
256.357	250.38
256.59	240.38
256.823	218.38
257.056	215.38
257.289	207.38
257.521	227.38
257.754	207.38
257.987	194.38
258.22	203.38
258.452	212.38
258.685	213.38
258.918	222.38
259.151	224.38
259.383	231.38
259.616	223.38
259.849	225.38
260.081	234.38
260.314	257.38
260.547	283.38
260.779	238.38
261.012	249.38
261.244	239.38
261.477	238.38
261.71	222.38
261.942	254.38
262.175	248.38
262.407	242.38
262.64	230.38
262.872	229.38
263.105	217.38
263.337	213.38
263.57	213.38
263.802	232.38
264.035	226.38
264.267	199.38
264.499	199.38
264.732	202.38
264.964	212.38
265.197	214.38
265.429	217.38
265.661	206.38
265.894	215.38
266.126	222.38
266.358	216.38
266.591	212.38
266.823	210.38
267.055	233.38
267.287	222.38
267.52	211.38
267.752	222.38
267.984	208.38
268.216	226.38
268.448	245.38
268.681	246.38
268.913	240.38
269.145	259.38
269.377	289.38
269.609	290.38
269.841	279.38
270.073	271.38
270.306	293.38
270.538	342.38
270.77	333.38
271.002	315.38
271.234	311.38
271.466	300.38
271.698	317.38
271.93	337.38
272.162	336.38
272.394	330.38
272.626	307.38
272.858	286.38
273.09	308.38
273.322	293.38
273.553	280.38
273.785	264.38
274.017	266.38
274.249	280.38
274.481	278.38
274.713	256.38
274.945	283.38
275.176	262.38
275.408	268.38
275.64	259.38
275.872	283.38
276.104	269.38
276.335	263.38
276.567	287.38
276.799	281.38
277.031	314.38
277.262	320.38
277.494	330.38
277.726	310.38
277.957	305.38
278.189	263.38
278.421	282.38
278.652	276.38
278.884	259.38
279.115	261.38
279.347	262.38
279.579	257.38
279.81	255.38
280.042	259.38
280.273	262.38
280.505	256.38
280.736	258.38
280.968	243.38
281.199	241.38
281.431	251.38
281.662	260.38
281.894	258.38
282.125	273.38
282.356	283.38
282.588	309.38
282.819	321.38
283.051	266.38
283.282	266.38
283.513	255.38
283.745	274.38
283.976	281.38
284.207	283.38
284.439	247.38
284.67	299.38
284.901	254.38
285.132	252.38
285.364	258.38
285.595	253.38
285.826	265.38
286.057	274.38
286.288	256.38
286.52	268.38
286.751	264.38
286.982	257.38
287.213	276.38
287.444	267.38
287.675	276.38
287.906	275.38
288.138	302.38
288.369	303.38
288.6	303.38
288.831	279.38
289.062	268.38
289.293	270.38
289.524	281.38
289.755	266.38
289.986	276.38
290.217	274.38
290.448	260.38
290.679	272.38
290.91	256.38
291.141	286.38
291.371	282.38
291.602	250.38
291.833	271.38
292.064	252.38
292.295	266.38
292.526	280.38
292.757	269.38
292.987	276.38
293.218	279.38
293.449	268.38
293.68	274.38
293.91	250.38
294.141	273.38
294.372	278.38
294.603	269.38
294.833	260.38
295.064	266.38
295.295	257.38
295.525	291.38
295.756	284.38
295.987	280.38
296.217	325.38
296.448	332.38
296.679	291.38
296.909	276.38
297.14	276.38
297.37	275.38
297.601	286.38
297.831	276.38
298.062	278.38
298.292	287.38
298.523	297.38
298.753	284.38
298.984	282.38
299.214	277.38
299.445	283.38
299.675	284.38
299.905	299.38
300.136	275.38
300.366	311.38
300.597	290.38
300.827	284.38
301.057	284.38
301.288	330.38
301.518	306.38
301.748	306.38
301.979	316.38
302.209	297.38
302.439	310.38
302.669	316.38
302.9	304.38
303.13	308.38
303.36	311.38
303.59	305.38
303.82	327.38
304.051	319.38
304.281	310.38
304.511	315.38
304.741	329.38
304.971	298.38
305.201	310.38
305.431	285.38
305.661	306.38
305.891	291.38
306.121	310.38
306.352	302.38
306.582	330.38
306.812	329.38
307.042	326.38
307.272	307.38
307.502	307.38
307.731	320.38
307.961	315.38
308.191	299.38
308.421	318.38
308.651	294.38
308.881	310.38
309.111	326.38
309.341	321.38
309.571	333.38
309.8	359.38
310.03	368.38
310.26	374.38
310.49	379.38
310.72	380.38
310.949	396.38
311.179	411.38
311.409	382.38
311.639	366.38
311.868	377.38
312.098	375.38
312.328	388.38
312.557	406.38
312.787	415.38
313.017	402.38
313.246	387.38
313.476	367.38
313.706	359.38
313.935	369.38
314.165	384.38
314.394	392.38
314.624	399.38
314.853	395.38
315.083	371.38
315.312	372.38
315.542	356.38
315.771	366.38
316.001	368.38
316.23	355.38
316.46	339.38
316.689	357.38
316.919	373.38
317.148	370.38
317.377	388.38
317.607	378.38
317.836	356.38
318.065	355.38
318.295	355.38
318.524	362.38
318.753	358.38
318.983	360.38
319.212	358.38
319.441	384.38
319.67	355.38
319.9	363.38
320.129	363.38
320.358	352.38
320.587	384.38
320.816	370.38
321.046	409.38
321.275	403.38
321.504	413.38
321.733	395.38
321.962	411.38
322.191	435.38
322.42	434.38
322.649	466.38
322.878	471.38
323.108	464.38
323.337	511.38
323.566	539.38
323.795	566.38
324.024	642.38
324.253	776.38
324.482	1114.38
324.71	1739.38
324.939	2473.38
325.168	2185.38
325.397	1123.38
325.626	750.38
325.855	609.38
326.084	548.38
326.313	542.38
326.542	558.38
326.77	610.38
326.999	713.38
327.228	983.38
327.457	1554.38
327.686	1916.38
327.914	1305.38
328.143	845.38
328.372	705.38
328.6	660.38
328.829	637.38
329.058	648.38
329.287	649.38
329.515	600.38
329.744	550.38
329.972	549.38
330.201	549.38
330.43	632.38
330.658	644.38
330.887	671.38
331.115	643.38
331.344	541.38
331.572	499.38
331.801	513.38
332.03	508.38
332.258	496.38
332.486	461.38
332.715	436.38
332.943	430.38
333.172	424.38
333.4	441.38
333.629	450.38
333.857	459.38
334.085	468.38
334.314	482.38
334.542	541.38
334.771	546.38
334.999	482.38
335.227	459.38
335.455	430.38
335.684	442.38
335.912	434.38
336.14	423.38
336.369	402.38
336.597	432.38
336.825	421.38
337.053	425.38
337.281	422.38
337.51	415.38
337.738	423.38
337.966	406.38
338.194	430.38
338.422	418.38
338.65	400.38
338.878	416.38
339.106	392.38
339.334	400.38
339.562	399.38
339.79	388.38
340.018	409.38
340.246	409.38
340.474	420.38
340.702	425.38
340.93	396.38
341.158	419.38
341.386	414.38
341.614	397.38
341.842	409.38
342.07	402.38
342.298	406.38
342.526	391.38
342.754	369.38
342.981	384.38
343.209	378.38
343.437	403.38
343.665	392.38
343.893	377.38
344.12	387.38
344.348	406.38
344.576	394.38
344.804	408.38
345.031	426.38
345.259	430.38
345.487	429.38
345.714	428.38
345.942	400.38
346.17	416.38
346.397	404.38
346.625	401.38
346.853	396.38
347.08	406.38
347.308	392.38
347.535	401.38
347.763	413.38
347.99	421.38
348.218	419.38
348.445	426.38
348.673	414.38
348.9	386.38
349.128	383.38
349.355	368.38
349.583	382.38
349.81	388.38
350.037	386.38
350.265	391.38
350.492	377.38
350.72	385.38
350.947	400.38
351.174	410.38
351.402	415.38
351.629	393.38
351.856	410.38
352.083	427.38
352.311	433.38
352.538	447.38
352.765	420.38
352.992	430.38
353.22	412.38
353.447	414.38
353.674	377.38
353.901	382.38
354.128	381.38
354.355	371.38
354.583	363.38
354.81	378.38
355.037	372.38
355.264	356.38
355.491	354.38
355.718	353.38
355.945	336.38
356.172	370.38
356.399	354.38
356.626	348.38
356.853	374.38
357.08	362.38
357.307	343.38
357.534	366.38
357.761	341.38
357.988	363.38
358.215	387.38
358.441	346.38
358.668	352.38
358.895	382.38
359.122	374.38
359.349	384.38
359.576	394.38
359.802	434.38
360.029	468.38
360.256	491.38
360.483	473.38
360.709	434.38
360.936	406.38
361.163	394.38
361.39	394.38
361.616	421.38
361.843	418.38
362.07	375.38
362.296	394.38
362.523	375.38
362.749	401.38
362.976	403.38
363.203	390.38
363.429	370.38
363.656	380.38
363.882	376.38
364.109	387.38
364.335	380.38
364.562	377.38
364.788	369.38
365.015	369.38
365.241	367.38
365.468	375.38
365.694	367.38
365.92	405.38
366.147	384.38
366.373	373.38
366.599	349.38
366.826	375.38
367.052	366.38
367.278	376.38
367.505	378.38
367.731	366.38
367.957	382.38
368.184	379.38
368.41	359.38
368.636	376.38
368.862	386.38
369.089	368.38
369.315	380.38
369.541	376.38
369.767	363.38
369.993	376.38
370.219	374.38
370.445	350.38
370.672	361.38
370.898	373.38
371.124	368.38
371.35	370.38
371.576	375.38
371.802	356.38
372.028	366.38
372.254	366.38
372.48	347.38
372.706	362.38
372.932	350.38
373.158	370.38
373.384	355.38
373.61	355.38
373.835	355.38
374.061	359.38
374.287	375.38
374.513	369.38
374.739	370.38
374.965	363.38
375.191	361.38
375.416	372.38
375.642	350.38
375.868	370.38
376.094	376.38
376.319	358.38
376.545	350.38
376.771	370.38
376.997	359.38
377.222	354.38
377.448	371.38
377.674	384.38
377.899	346.38
378.125	368.38
378.35	350.38
378.576	344.38
378.802	372.38
379.027	361.38
379.253	347.38
379.478	346.38
379.704	364.38
379.929	366.38
380.155	360.38
380.38	359.38
380.606	363.38
380.831	358.38
381.057	367.38
381.282	366.38
381.507	356.38
381.733	360.38
381.958	357.38
382.184	366.38
382.409	368.38
382.634	373.38
382.86	378.38
383.085	362.38
383.31	375.38
383.535	372.38
383.761	387.38
383.986	388.38
384.211	364.38
384.436	384.38
384.662	377.38
384.887	372.38
385.112	378.38
385.337	395.38
385.562	370.38
385.787	383.38
386.013	391.38
386.238	421.38
386.463	400.38
386.688	386.38
386.913	371.38
387.138	390.38
387.363	388.38
387.588	386.38
387.813	386.38
388.038	375.38
388.263	385.38
388.488	382.38
388.713	393.38
388.938	374.38
389.163	420.38
389.387	384.38
389.612	385.38
389.837	385.38
390.062	383.38
390.287	371.38
390.512	398.38
390.736	369.38
390.961	392.38
391.186	390.38
391.411	375.38
391.636	396.38
391.86	401.38
392.085	380.38
392.31	402.38
392.534	392.38
392.759	404.38
392.984	385.38
393.208	371.38
393.433	382.38
393.658	378.38
393.882	390.38
394.107	400.38
394.331	376.38
394.556	386.38
394.78	374.38
395.005	362.38
395.229	388.38
395.454	402.38
395.678	391.38
395.903	410.38
396.127	415.38
396.352	413.38
396.576	419.38
396.801	400.38
397.025	407.38
397.249	400.38
397.474	415.38
397.698	415.38
397.922	414.38
398.147	428.38
398.371	451.38
398.595	416.38
398.82	416.38
399.044	437.38
399.268	433.38
399.492	459.38
399.717	481.38
399.941	477.38
400.165	528.38
400.389	534.38
400.613	487.38
400.837	491.38
401.062	457.38
401.286	455.38
401.51	418.38
401.734	438.38
401.958	444.38
402.182	446.38
402.406	455.38
402.63	459.38
402.854	443.38
403.078	436.38
403.302	450.38
403.526	472.38
403.75	460.38
403.974	450.38
404.198	455.38
404.422	475.38
404.645	465.38
404.869	464.38
405.093	502.38
405.317	515.38
405.541	576.38
405.765	523.38
405.988	507.38
406.212	516.38
406.436	519.38
406.66	539.38
406.883	507.38
407.107	538.38
407.331	576.38
407.555	617.38
407.778	630.38
408.002	584.38
408.226	530.38
408.449	524.38
408.673	508.38
408.896	529.38
409.12	570.38
409.344	527.38
409.567	479.38
409.791	466.38
410.014	470.38
410.238	452.38
410.461	449.38
410.685	467.38
410.908	487.38
411.132	534.38
411.355	533.38
411.578	520.38
411.802	494.38
412.025	472.38
412.249	481.38
412.472	504.38
412.695	538.38
412.919	536.38
413.142	465.38
413.365	460.38
413.589	450.38
413.812	438.38
414.035	456.38
414.258	431.38
414.482	444.38
414.705	432.38
414.928	427.38
415.151	411.38
415.374	437.38
415.597	425.38
415.821	416.38
416.044	440.38
416.267	431.38
416.49	440.38
416.713	420.38
416.936	417.38
417.159	430.38
417.382	440.38
417.605	424.38
417.828	477.38
418.051	456.38
418.274	460.38
418.497	427.38
418.72	427.38
418.943	449.38
419.166	457.38
419.389	475.38
419.611	463.38
419.834	449.38
420.057	475.38
420.28	475.38
420.503	471.38
420.726	475.38
420.948	480.38
421.171	519.38
421.394	555.38
421.617	499.38
421.839	458.38
422.062	466.38
422.285	495.38
422.507	552.38
422.73	625.38
422.953	598.38
423.175	524.38
423.398	495.38
423.621	477.38
423.843	518.38
424.066	520.38
424.288	525.38
424.511	554.38
424.733	588.38
424.956	695.38
425.178	631.38
425.401	651.38
425.623	652.38
425.846	555.38
426.068	511.38
426.291	532.38
426.513	531.38
426.735	565.38
426.958	584.38
427.18	660.38
427.402	781.38
427.625	862.38
427.847	774.38
428.069	675.38
428.292	607.38
428.514	558.38
428.736	495.38
428.958	488.38
429.181	479.38
429.403	474.38
429.625	494.38
429.847	520.38
430.069	600.38
430.292	581.38
430.514	512.38
430.736	478.38
430.958	486.38
431.18	478.38
431.402	447.38
431.624	456.38
431.846	417.38
432.068	451.38
432.29	448.38
432.512	420.38
432.734	467.38
432.956	447.38
433.178	454.38
433.4	489.38
433.622	474.38
433.844	465.38
434.066	447.38
434.287	442.38
434.509	442.38
434.731	461.38
434.953	468.38
435.175	466.38
435.397	498.38
435.618	534.38
435.84	576.38
436.062	651.38
436.284	738.38
436.505	602.38
436.727	557.38
436.949	502.38
437.17	492.38
437.392	480.38
437.614	501.38
437.835	566.38
438.057	626.38
438.278	744.38
438.5	751.38
438.721	804.38
438.943	775.38
439.165	598.38
439.386	564.38
439.608	554.38
439.829	548.38
440.05	574.38
440.272	624.38
440.493	590.38
440.715	513.38
440.936	498.38
441.158	486.38
441.379	485.38
441.6	485.38
441.822	521.38
442.043	561.38
442.264	670.38
442.486	708.38
442.707	578.38
442.928	553.38
443.149	572.38
443.371	572.38
443.592	599.38
443.813	683.38
444.034	767.38
444.255	636.38
444.476	536.38
444.698	518.38
444.919	522.38
445.14	589.38
445.361	588.38
445.582	589.38
445.803	649.38
446.024	735.38
446.245	743.38
446.466	691.38
446.687	584.38
446.908	534.38
447.129	515.38
447.35	512.38
447.571	497.38
447.792	475.38
448.013	487.38
448.234	489.38
448.455	559.38
448.675	666.38
448.896	790.38
449.117	661.38
449.338	638.38
449.559	737.38
449.779	814.38
450	688.38
450.221	570.38
450.442	514.38
450.662	515.38
450.883	496.38
451.104	544.38
451.324	509.38
451.545	488.38
451.766	461.38
451.986	441.38
452.207	422.38
452.428	456.38
452.648	413.38
452.869	436.38
453.089	451.38
453.31	453.38
453.53	455.38
453.751	469.38
453.971	424.38
454.192	479.38
454.412	468.38
454.633	444.38
454.853	425.38
455.073	435.38
455.294	475.38
455.514	555.38
455.734	523.38
455.955	434.38
456.175	422.38
456.395	410.38
456.616	408.38
456.836	411.38
457.056	391.38
457.276	396.38
457.497	415.38
457.717	421.38
457.937	424.38
458.157	419.38
458.377	440.38
458.598	439.38
458.818	510.38
459.038	601.38
459.258	617.38
459.478	523.38
459.698	471.38
459.918	438.38
460.138	418.38
460.358	445.38
460.578	465.38
460.798	443.38
461.018	443.38
461.238	435.38
461.458	417.38
461.678	427.38
461.898	436.38
462.118	443.38
462.338	428.38
462.558	452.38
462.777	445.38
462.997	458.38
463.217	437.38
463.437	450.38
463.657	447.38
463.876	448.38
464.096	456.38
464.316	450.38
464.536	462.38
464.755	485.38
464.975	491.38
465.195	551.38
465.414	649.38
465.634	554.38
465.854	491.38
466.073	470.38
466.293	452.38
466.512	455.38
466.732	429.38
466.951	446.38
467.171	420.38
467.391	430.38
467.61	466.38
467.829	464.38
468.049	472.38
468.268	441.38
468.488	459.38
468.707	439.38
468.927	442.38
469.146	411.38
469.365	421.38
469.585	425.38
469.804	451.38
470.023	464.38
470.243	455.38
470.462	456.38
470.681	467.38
470.901	483.38
471.12	436.38
471.339	451.38
471.558	460.38
471.777	433.38
471.997	442.38
472.216	456.38
472.435	514.38
472.654	469.38
472.873	471.38
473.092	450.38
473.311	442.38
473.53	450.38
473.749	460.38
473.968	501.38
474.187	621.38
474.406	636.38
474.625	523.38
474.844	456.38
475.063	452.38
475.282	459.38
475.501	439.38
475.72	439.38
475.939	445.38
476.158	462.38
476.377	467.38
476.596	431.38
476.814	470.38
477.033	483.38
477.252	469.38
477.471	468.38
477.69	490.38
477.908	474.38
478.127	481.38
478.346	491.38
478.564	467.38
478.783	503.38
479.002	494.38
479.22	469.38
479.439	498.38
479.658	551.38
479.876	529.38
480.095	530.38
480.313	565.38
480.532	564.38
480.751	524.38
480.969	586.38
481.188	629.38
481.406	694.38
481.624	614.38
481.843	546.38
482.061	545.38
482.28	548.38
482.498	544.38
482.717	528.38
482.935	519.38
483.153	512.38
483.372	523.38
483.59	514.38
483.808	524.38
484.027	528.38
484.245	532.38
484.463	501.38
484.681	532.38
484.9	534.38
485.118	533.38
485.336	559.38
485.554	546.38
485.772	551.38
485.99	546.38
486.209	534.38
486.427	542.38
486.645	560.38
486.863	592.38
487.081	609.38
487.299	570.38
487.517	576.38
487.735	574.38
487.953	576.38
488.171	580.38
488.389	598.38
488.607	551.38
488.825	569.38
489.043	574.38
489.261	564.38
489.479	590.38
489.696	588.38
489.914	594.38
490.132	588.38
490.35	611.38
490.568	618.38
490.786	630.38
491.003	632.38
491.221	635.38
491.439	638.38
491.657	660.38
491.874	683.38
492.092	660.38
492.31	683.38
492.527	651.38
492.745	670.38
492.963	700.38
493.18	696.38
493.398	690.38
493.615	666.38
493.833	677.38
494.05	699.38
494.268	690.38
494.485	722.38
494.703	715.38
494.92	706.38
495.138	687.38
495.355	680.38
495.573	692.38
495.79	681.38
496.008	692.38
496.225	691.38
496.442	676.38
496.66	686.38
496.877	684.38
497.094	680.38
497.312	712.38
497.529	707.38
497.746	697.38
497.963	704.38
498.181	712.38
498.398	722.38
498.615	719.38
498.832	732.38
499.049	723.38
499.267	740.38
499.484	747.38
499.701	755.38
499.918	787.38
500.135	823.38
500.352	815.38
500.569	818.38
500.786	822.38
501.003	838.38
501.22	844.38
501.437	803.38
501.654	818.38
501.871	798.38
502.088	812.38
502.305	773.38
502.522	780.38
502.739	727.38
502.956	733.38
503.172	708.38
503.389	707.38
503.606	702.38
503.823	718.38
504.04	681.38
504.256	686.38
504.473	678.38
504.69	691.38
504.907	676.38
505.123	646.38
505.34	660.38
505.557	658.38
505.773	680.38
505.99	682.38
506.207	658.38
506.423	668.38
506.64	681.38
506.856	683.38
507.073	656.38
507.289	646.38
507.506	678.38
507.722	669.38
507.939	691.38
508.155	664.38
508.372	640.38
508.588	632.38
508.805	644.38
509.021	668.38
509.238	660.38
509.454	671.38
509.67	645.38
509.887	641.38
510.103	642.38
510.319	667.38
510.536	779.38
510.752	1331.38
510.968	1106.38
511.184	676.38
511.401	644.38
511.617	623.38
511.833	605.38
512.049	614.38
512.265	626.38
512.481	619.38
512.698	596.38
512.914	607.38
513.13	630.38
513.346	603.38
513.562	605.38
513.778	628.38
513.994	626.38
514.21	636.38
514.426	665.38
514.642	715.38
514.858	747.38
515.074	819.38
515.29	1006.38
515.506	1538.38
515.721	1217.38
515.937	789.38
516.153	690.38
516.369	674.38
516.585	620.38
516.801	641.38
517.016	628.38
517.232	612.38
517.448	599.38
517.664	610.38
517.879	614.38
518.095	604.38
518.311	598.38
518.527	598.38
518.742	585.38
518.958	595.38
519.173	601.38
519.389	598.38
519.605	613.38
519.82	610.38
520.036	629.38
520.251	665.38
520.467	702.38
520.682	699.38
520.898	720.38
521.113	738.38
521.329	801.38
521.544	920.38
521.76	1222.38
521.975	2016.38
522.19	2006.38
522.406	1030.38
522.621	762.38
522.836	687.38
523.052	628.38
523.267	597.38
523.482	582.38
523.698	572.38
523.913	588.38
524.128	542.38
524.343	544.38
524.559	540.38
524.774	529.38
524.989	551.38
525.204	519.38
525.419	528.38
525.634	537.38
525.849	535.38
526.064	494.38
526.28	511.38
526.495	519.38
526.71	483.38
526.925	502.38
527.14	488.38
527.355	503.38
527.57	481.38
527.785	505.38
527.999	467.38
528.214	459.38
528.429	467.38
528.644	485.38
528.859	494.38
529.074	497.38
529.289	525.38
529.503	616.38
529.718	609.38
529.933	521.38
530.148	514.38
530.363	481.38
530.577	486.38
530.792	488.38
531.007	479.38
531.221	483.38
531.436	465.38
531.651	476.38
531.865	477.38
532.08	437.38
532.295	459.38
532.509	460.38
532.724	451.38
532.938	458.38
533.153	458.38
533.367	446.38
533.582	457.38
533.796	455.38
534.011	447.38
534.225	452.38
534.44	447.38
534.654	444.38
534.868	444.38
535.083	433.38
535.297	452.38
535.511	438.38
535.726	468.38
535.94	466.38
536.154	446.38
536.369	427.38
536.583	448.38
536.797	453.38
537.011	447.38
537.225	434.38
537.44	418.38
537.654	424.38
537.868	425.38
538.082	455.38
538.296	448.38
538.51	445.38
538.724	443.38
538.938	445.38
539.153	446.38
539.367	454.38
539.581	461.38
539.795	450.38
540.009	439.38
540.222	432.38
540.436	437.38
540.65	453.38
540.864	452.38
541.078	461.38
541.292	444.38
541.506	446.38
541.72	434.38
541.934	419.38
542.147	452.38
542.361	437.38
542.575	438.38
542.789	449.38
543.002	426.38
543.216	425.38
543.43	458.38
543.644	423.38
543.857	444.38
544.071	442.38
544.285	443.38
544.498	438.38
544.712	449.38
544.925	440.38
545.139	428.38
545.352	434.38
545.566	405.38
545.779	427.38
545.993	420.38
546.206	419.38
546.42	415.38
546.633	412.38
546.847	423.38
547.06	410.38
547.274	409.38
547.487	397.38
547.7	434.38
547.914	393.38
548.127	406.38
548.34	414.38
548.554	402.38
548.767	399.38
548.98	417.38
549.193	412.38
549.407	396.38
549.62	420.38
549.833	407.38
550.046	398.38
550.259	401.38
550.473	407.38
550.686	390.38
550.899	401.38
551.112	389.38
551.325	401.38
551.538	395.38
551.751	392.38
551.964	392.38
552.177	395.38
552.39	363.38
552.603	396.38
552.816	393.38
553.029	392.38
553.242	413.38
553.455	392.38
553.667	418.38
553.88	401.38
554.093	398.38
554.306	418.38
554.519	403.38
554.732	416.38
554.944	400.38
555.157	399.38
555.37	392.38
555.583	363.38
555.795	390.38
556.008	376.38
556.221	385.38
556.433	390.38
556.646	370.38
556.859	382.38
557.071	372.38
557.284	380.38
557.496	380.38
557.709	362.38
557.921	362.38
558.134	372.38
558.346	372.38
558.559	372.38
558.771	352.38
558.984	348.38
559.196	354.38
559.409	378.38
559.621	375.38
559.833	367.38
560.046	369.38
560.258	355.38
560.47	352.38
560.683	349.38
560.895	355.38
561.107	366.38
561.32	371.38
561.532	344.38
561.744	348.38
561.956	350.38
562.168	363.38
562.381	371.38
562.593	372.38
562.805	358.38
563.017	350.38
563.229	364.38
563.441	368.38
563.653	366.38
563.865	379.38
564.077	356.38
564.289	372.38
564.501	352.38
564.713	370.38
564.925	384.38
565.137	373.38
565.349	381.38
565.561	383.38
565.773	393.38
565.985	380.38
566.197	378.38
566.408	395.38
566.62	381.38
566.832	395.38
567.044	396.38
567.255	404.38
567.467	396.38
567.679	392.38
567.891	412.38
568.102	406.38
568.314	400.38
568.526	399.38
568.737	374.38
568.949	395.38
569.161	369.38
569.372	357.38
569.584	355.38
569.795	359.38
570.007	374.38
570.218	408.38
570.43	392.38
570.641	349.38
570.853	350.38
571.064	354.38
571.276	363.38
571.487	332.38
571.698	332.38
571.91	330.38
572.121	340.38
572.333	320.38
572.544	342.38
572.755	338.38
572.966	310.38
573.178	322.38
573.389	321.38
573.6	336.38
573.811	321.38
574.023	339.38
574.234	322.38
574.445	310.38
574.656	320.38
574.867	310.38
575.078	302.38
575.289	294.38
575.501	320.38
575.712	320.38
575.923	310.38
576.134	296.38
576.345	306.38
576.556	304.38
576.767	307.38
576.978	313.38
577.188	307.38
577.399	311.38
577.61	300.38
577.821	310.38
578.032	308.38
578.243	336.38
578.454	616.38
578.665	448.38
578.875	342.38
579.086	322.38
579.297	295.38
579.508	299.38
579.718	287.38
579.929	294.38
580.14	296.38
580.35	286.38
580.561	296.38
580.772	272.38
580.982	271.38
581.193	295.38
581.403	297.38
581.614	285.38
581.825	297.38
582.035	296.38
582.246	288.38
582.456	281.38
582.667	297.38
582.877	280.38
583.087	279.38
583.298	279.38
583.508	290.38
583.719	275.38
583.929	279.38
584.139	278.38
584.35	284.38
584.56	301.38
584.77	283.38
584.981	266.38
585.191	283.38
585.401	284.38
585.611	296.38
585.821	295.38
586.032	278.38
586.242	278.38
586.452	269.38
586.662	283.38
586.872	287.38
587.082	279.38
587.292	289.38
587.502	267.38
587.713	283.38
587.923	268.38
588.133	276.38
588.343	280.38
588.553	270.38
588.762	270.38
588.972	272.38
589.182	273.38
589.392	265.38
589.602	277.38
589.812	251.38
590.022	264.38
590.232	293.38
590.441	262.38
590.651	256.38
590.861	265.38
591.071	265.38
591.281	274.38
591.49	260.38
591.7	263.38
591.91	268.38
592.119	257.38
592.329	282.38
592.539	274.38
592.748	284.38
592.958	272.38
593.167	284.38
593.377	272.38
593.587	272.38
593.796	274.38
594.006	271.38
594.215	285.38
594.424	284.38
594.634	269.38
594.843	266.38
595.053	291.38
595.262	271.38
595.472	281.38
595.681	262.38
595.89	263.38
596.1	254.38
596.309	245.38
596.518	262.38
596.727	272.38
596.937	282.38
597.146	256.38
597.355	264.38
597.564	265.38
597.774	268.38
597.983	252.38
598.192	263.38
598.401	227.38
598.61	243.38
598.819	251.38
599.028	259.38
599.237	250.38
599.446	254.38
599.655	239.38
599.864	256.38
600.073	244.38
600.282	233.38
600.491	233.38
600.7	235.38
600.909	236.38
601.118	249.38
601.327	244.38
601.536	235.38
601.745	239.38
601.953	250.38
602.162	250.38
602.371	234.38
602.58	225.38
602.789	234.38
602.997	220.38
603.206	232.38
603.415	252.38
603.623	233.38
603.832	236.38
604.041	225.38
604.249	225.38
604.458	234.38
604.666	245.38
604.875	216.38
605.084	242.38
605.292	233.38
605.501	233.38
605.709	235.38
605.918	238.38
606.126	229.38
606.334	234.38
606.543	236.38
606.751	231.38
606.96	221.38
607.168	233.38
607.376	216.38
607.585	241.38
607.793	216.38
608.001	230.38
608.21	229.38
608.418	235.38
608.626	220.38
608.834	217.38
609.043	210.38
609.251	240.38
609.459	216.38
609.667	222.38
609.875	233.38
610.083	226.38
610.291	210.38
610.499	219.38
610.707	220.38
610.916	221.38
611.124	231.38
611.332	232.38
611.54	229.38
611.748	255.38
611.955	218.38
612.163	207.38
612.371	222.38
612.579	221.38
612.787	212.38
612.995	231.38
613.203	220.38
613.411	238.38
613.618	239.38
613.826	212.38
614.034	231.38
614.242	210.38
614.449	227.38
614.657	217.38
614.865	209.38
615.072	218.38
615.28	225.38
615.488	217.38
615.695	231.38
615.903	207.38
616.111	204.38
616.318	225.38
616.526	225.38
616.733	216.38
616.941	208.38
617.148	223.38
617.356	225.38
617.563	210.38
617.771	217.38
617.978	195.38
618.185	217.38
618.393	212.38
618.6	219.38
618.807	212.38
619.015	207.38
619.222	205.38
619.429	199.38
619.637	211.38
619.844	219.38
620.051	208.38
620.258	214.38
620.466	196.38
620.673	201.38
620.88	219.38
621.087	204.38
621.294	206.38
621.501	208.38
621.708	200.38
621.915	208.38
622.122	196.38
622.329	199.38
622.536	206.38
622.743	198.38
622.95	206.38
623.157	208.38
623.364	212.38
623.571	210.38
623.778	194.38
623.985	200.38
624.192	210.38
624.399	211.38
624.606	218.38
624.812	197.38
625.019	201.38
625.226	204.38
625.433	201.38
625.639	197.38
625.846	208.38
626.053	200.38
626.259	189.38
626.466	199.38
626.673	190.38
626.879	201.38
627.086	191.38
627.293	199.38
627.499	201.38
627.706	200.38
627.912	192.38
628.119	183.38
628.325	209.38
628.532	195.38
628.738	191.38
628.945	196.38
629.151	179.38
629.357	179.38
629.564	193.38
629.77	191.38
629.976	188.38
630.183	205.38
630.389	191.38
630.595	181.38
630.802	183.38
631.008	183.38
631.214	178.38
631.42	184.38
631.627	164.38
631.833	180.38
632.039	180.38
632.245	177.38
632.451	172.38
632.657	181.38
632.863	171.38
633.069	174.38
633.275	165.38
633.481	192.38
633.688	180.38
633.893	183.38
634.099	164.38
634.305	160.38
634.511	163.38
634.717	171.38
634.923	172.38
635.129	175.38
635.335	182.38
635.541	166.38
635.747	187.38
635.952	180.38
636.158	164.38
636.364	197.38
636.57	182.38
636.775	177.38
636.981	176.38
637.187	165.38
637.392	159.38
637.598	161.38
637.804	178.38
638.009	175.38
638.215	169.38
638.421	171.38
638.626	159.38
638.832	169.38
639.037	161.38
639.243	161.38
639.448	148.38
639.654	158.38
639.859	153.38
640.065	162.38
640.27	169.38
640.475	167.38
640.681	154.38
640.886	152.38
641.091	164.38
641.297	151.38
641.502	169.38
641.707	157.38
641.913	169.38
642.118	174.38
642.323	166.38
642.528	154.38
642.733	155.38
642.939	166.38
643.144	161.38
643.349	162.38
643.554	171.38
643.759	160.38
643.964	161.38
644.169	168.38
644.374	159.38
644.579	159.38
644.784	140.38
644.989	166.38
645.194	161.38
645.399	154.38
645.604	166.38
645.809	151.38
646.014	153.38
646.219	153.38
646.423	159.38
646.628	157.38
646.833	154.38
647.038	162.38
647.243	160.38
647.447	159.38
647.652	148.38
647.857	147.38
648.062	177.38
648.266	168.38
648.471	157.38
648.676	150.38
648.88	159.38
649.085	154.38
649.289	161.38
649.494	155.38
649.698	187.38
649.903	181.38
650.107	163.38
650.312	128.38
650.516	146.38
650.721	137.38
650.925	149.38
651.13	144.38
651.334	139.38
651.539	121.38
651.743	136.38
651.947	135.38
652.152	131.38
652.356	137.38
652.56	126.38
652.764	132.38
652.969	136.38
653.173	129.38
653.377	132.38
653.581	131.38
653.785	133.38
653.99	145.38
654.194	140.38
654.398	138.38
654.602	126.38
654.806	126.38
655.01	138.38
655.214	133.38
655.418	119.38
655.622	119.38
655.826	127.38
656.03	124.38
656.234	128.38
656.438	125.38
656.642	124.38
656.846	120.38
657.049	117.38
657.253	120.38
657.457	123.38
657.661	123.38
657.865	100.38
658.068	110.38
658.272	105.38
658.476	99.38
658.68	100.38
658.883	98.38
659.087	102.38
659.291	98.38
659.494	94.38
659.698	100.38
659.901	89.38
660.105	92.38
660.309	98.38
660.512	90.38
660.716	86.38
660.919	95.38
661.123	87.38
661.326	105.38
661.53	78.38
661.733	82.38
661.936	92.38
662.14	87.38
662.343	93.38
662.546	87.38
662.75	95.38
662.953	84.38
663.156	81.38
663.36	92.38
663.563	79.38
663.766	91.38
663.969	81.38
664.173	89.38
664.376	86.38
664.579	83.38
664.782	86.38
664.985	94.38
665.188	74.38
665.391	83.38
665.594	83.38
665.797	82.38
666	100.38
666.203	75.38
666.406	72.38
666.609	86.38
666.812	76.38
667.015	80.38
667.218	80.38
667.421	65.38
667.624	78.38
667.827	79.38
668.03	69.38
668.232	80.38
668.435	71.38
668.638	74.38
668.841	77.38
669.043	82.38
669.246	98.38
669.449	82.38
669.651	80.38
669.854	79.38
670.057	74.38
670.259	88.38
670.462	79.38
670.665	82.38
670.867	86.38
671.07	87.38
671.272	77.38
671.475	75.38
671.677	68.38
671.88	94.38
672.082	75.38
672.284	89.38
672.487	90.38
672.689	67.38
672.892	88.38
