Data from 1980.PennyLincolnUp.Lamp.En5.5.200Scan.071819.P1_HRD10591_16-36-26-959.txt Node
Date: Thu Jul 18 16:36:26 EDT 2019
User: cochatt
Spectrometer: HR+D1059
Trigger mode: 1
Integration Time (sec): 1.000000E-1
Scans to average: 1
Electric dark correction enabled: true
Nonlinearity correction enabled: false
Boxcar width: 0
XAxis mode: Wavelengths
Number of Pixels in Spectrum: 2048
>>>>>Begin Spectral Data<<<<<
223.165	-18.62
223.4	-18.62
223.635	-18.62
223.869	-2.62
224.104	-20.62
224.338	-6.62
224.573	-15.62
224.808	-11.62
225.042	-17.62
225.277	-4.62
225.511	2.38
225.746	8.38
225.98	-1.62
226.215	-0.62
226.449	15.38
226.683	24.38
226.918	20.38
227.152	29.38
227.387	30.38
227.621	38.38
227.856	38.38
228.09	54.38
228.324	53.38
228.559	62.38
228.793	83.38
229.027	94.38
229.262	92.38
229.496	99.38
229.73	127.38
229.964	132.38
230.199	122.38
230.433	105.38
230.667	118.38
230.901	110.38
231.136	105.38
231.37	96.38
231.604	114.38
231.838	92.38
232.072	104.38
232.306	125.38
232.541	116.38
232.775	107.38
233.009	102.38
233.243	108.38
233.477	128.38
233.711	120.38
233.945	119.38
234.179	109.38
234.413	105.38
234.647	126.38
234.881	114.38
235.115	103.38
235.349	103.38
235.583	106.38
235.817	106.38
236.051	106.38
236.285	124.38
236.519	127.38
236.753	124.38
236.987	138.38
237.221	161.38
237.455	209.38
237.689	173.38
237.922	129.38
238.156	134.38
238.39	105.38
238.624	108.38
238.858	102.38
239.091	115.38
239.325	121.38
239.559	109.38
239.793	120.38
240.027	130.38
240.26	126.38
240.494	152.38
240.728	145.38
240.961	130.38
241.195	134.38
241.429	137.38
241.662	129.38
241.896	116.38
242.13	129.38
242.363	120.38
242.597	112.38
242.83	124.38
243.064	138.38
243.298	123.38
243.531	132.38
243.765	125.38
243.998	135.38
244.232	128.38
244.465	130.38
244.699	143.38
244.932	142.38
245.166	140.38
245.399	137.38
245.633	124.38
245.866	143.38
246.099	129.38
246.333	139.38
246.566	126.38
246.8	144.38
247.033	125.38
247.266	156.38
247.5	157.38
247.733	162.38
247.966	160.38
248.2	166.38
248.433	159.38
248.666	167.38
248.899	186.38
249.133	178.38
249.366	188.38
249.599	188.38
249.832	169.38
250.066	178.38
250.299	172.38
250.532	172.38
250.765	197.38
250.998	203.38
251.231	211.38
251.465	199.38
251.698	192.38
251.931	188.38
252.164	188.38
252.397	188.38
252.63	201.38
252.863	190.38
253.096	201.38
253.329	202.38
253.562	204.38
253.795	216.38
254.028	212.38
254.261	203.38
254.494	204.38
254.727	220.38
254.96	263.38
255.193	250.38
255.426	222.38
255.659	216.38
255.892	207.38
256.124	212.38
256.357	211.38
256.59	201.38
256.823	203.38
257.056	202.38
257.289	189.38
257.521	186.38
257.754	202.38
257.987	189.38
258.22	191.38
258.452	197.38
258.685	198.38
258.918	205.38
259.151	197.38
259.383	193.38
259.616	210.38
259.849	202.38
260.081	218.38
260.314	216.38
260.547	229.38
260.779	227.38
261.012	202.38
261.244	216.38
261.477	200.38
261.71	201.38
261.942	220.38
262.175	217.38
262.407	206.38
262.64	184.38
262.872	198.38
263.105	188.38
263.337	187.38
263.57	191.38
263.802	189.38
264.035	188.38
264.267	185.38
264.499	185.38
264.732	188.38
264.964	191.38
265.197	189.38
265.429	204.38
265.661	182.38
265.894	199.38
266.126	196.38
266.358	197.38
266.591	188.38
266.823	202.38
267.055	196.38
267.287	227.38
267.52	213.38
267.752	207.38
267.984	195.38
268.216	213.38
268.448	211.38
268.681	222.38
268.913	217.38
269.145	224.38
269.377	232.38
269.609	228.38
269.841	231.38
270.073	238.38
270.306	247.38
270.538	275.38
270.77	267.38
271.002	284.38
271.234	266.38
271.466	275.38
271.698	266.38
271.93	264.38
272.162	269.38
272.394	266.38
272.626	269.38
272.858	260.38
273.09	239.38
273.322	234.38
273.553	240.38
273.785	226.38
274.017	221.38
274.249	227.38
274.481	213.38
274.713	227.38
274.945	247.38
275.176	248.38
275.408	215.38
275.64	242.38
275.872	220.38
276.104	228.38
276.335	243.38
276.567	235.38
276.799	251.38
277.031	285.38
277.262	275.38
277.494	259.38
277.726	262.38
277.957	242.38
278.189	246.38
278.421	231.38
278.652	214.38
278.884	226.38
279.115	230.38
279.347	229.38
279.579	225.38
279.81	237.38
280.042	223.38
280.273	227.38
280.505	223.38
280.736	220.38
280.968	242.38
281.199	211.38
281.431	230.38
281.662	221.38
281.894	238.38
282.125	240.38
282.356	231.38
282.588	259.38
282.819	248.38
283.051	258.38
283.282	238.38
283.513	213.38
283.745	224.38
283.976	224.38
284.207	226.38
284.439	243.38
284.67	255.38
284.901	237.38
285.132	223.38
285.364	227.38
285.595	231.38
285.826	232.38
286.057	224.38
286.288	216.38
286.52	219.38
286.751	217.38
286.982	244.38
287.213	244.38
287.444	234.38
287.675	256.38
287.906	236.38
288.138	250.38
288.369	244.38
288.6	257.38
288.831	243.38
289.062	227.38
289.293	230.38
289.524	242.38
289.755	250.38
289.986	233.38
290.217	238.38
290.448	236.38
290.679	222.38
290.91	245.38
291.141	255.38
291.371	240.38
291.602	235.38
291.833	239.38
292.064	246.38
292.295	239.38
292.526	249.38
292.757	226.38
292.987	229.38
293.218	227.38
293.449	267.38
293.68	226.38
293.91	215.38
294.141	246.38
294.372	226.38
294.603	223.38
294.833	240.38
295.064	229.38
295.295	240.38
295.525	239.38
295.756	232.38
295.987	255.38
296.217	287.38
296.448	298.38
296.679	236.38
296.909	239.38
297.14	242.38
297.37	248.38
297.601	236.38
297.831	238.38
298.062	231.38
298.292	244.38
298.523	248.38
298.753	253.38
298.984	272.38
299.214	246.38
299.445	256.38
299.675	260.38
299.905	268.38
300.136	262.38
300.366	259.38
300.597	260.38
300.827	263.38
301.057	250.38
301.288	276.38
301.518	262.38
301.748	278.38
301.979	259.38
302.209	276.38
302.439	249.38
302.669	251.38
302.9	265.38
303.13	260.38
303.36	274.38
303.59	282.38
303.82	283.38
304.051	272.38
304.281	277.38
304.511	274.38
304.741	248.38
304.971	248.38
305.201	248.38
305.431	264.38
305.661	268.38
305.891	266.38
306.121	251.38
306.352	246.38
306.582	289.38
306.812	284.38
307.042	269.38
307.272	266.38
307.502	260.38
307.731	284.38
307.961	270.38
308.191	276.38
308.421	257.38
308.651	288.38
308.881	288.38
309.111	279.38
309.341	287.38
309.571	296.38
309.8	299.38
310.03	290.38
310.26	303.38
310.49	320.38
310.72	320.38
310.949	332.38
311.179	351.38
311.409	325.38
311.639	315.38
311.868	308.38
312.098	306.38
312.328	317.38
312.557	342.38
312.787	340.38
313.017	328.38
313.246	304.38
313.476	325.38
313.706	300.38
313.935	302.38
314.165	328.38
314.394	311.38
314.624	330.38
314.853	316.38
315.083	314.38
315.312	325.38
315.542	304.38
315.771	306.38
316.001	297.38
316.23	307.38
316.46	306.38
316.689	308.38
316.919	313.38
317.148	320.38
317.377	331.38
317.607	310.38
317.836	328.38
318.065	295.38
318.295	291.38
318.524	308.38
318.753	303.38
318.983	322.38
319.212	339.38
319.441	331.38
319.67	311.38
319.9	318.38
320.129	303.38
320.358	317.38
320.587	313.38
320.816	303.38
321.046	340.38
321.275	338.38
321.504	335.38
321.733	330.38
321.962	345.38
322.191	342.38
322.42	363.38
322.649	356.38
322.878	362.38
323.108	372.38
323.337	392.38
323.566	438.38
323.795	458.38
324.024	478.38
324.253	600.38
324.482	819.38
324.71	1241.38
324.939	1806.38
325.168	1622.38
325.397	859.38
325.626	578.38
325.855	470.38
326.084	438.38
326.313	425.38
326.542	424.38
326.77	454.38
326.999	530.38
327.228	749.38
327.457	1115.38
327.686	1366.38
327.914	950.38
328.143	633.38
328.372	524.38
328.6	527.38
328.829	481.38
329.058	501.38
329.287	504.38
329.515	466.38
329.744	420.38
329.972	422.38
330.201	440.38
330.43	478.38
330.658	476.38
330.887	515.38
331.115	503.38
331.344	431.38
331.572	406.38
331.801	393.38
332.03	387.38
332.258	373.38
332.486	370.38
332.715	359.38
332.943	367.38
333.172	383.38
333.4	368.38
333.629	376.38
333.857	395.38
334.085	385.38
334.314	388.38
334.542	401.38
334.771	420.38
334.999	394.38
335.227	380.38
335.455	355.38
335.684	362.38
335.912	339.38
336.14	356.38
336.369	361.38
336.597	375.38
336.825	370.38
337.053	359.38
337.281	350.38
337.51	363.38
337.738	361.38
337.966	371.38
338.194	355.38
338.422	353.38
338.65	358.38
338.878	359.38
339.106	378.38
339.334	341.38
339.562	331.38
339.79	355.38
340.018	343.38
340.246	342.38
340.474	331.38
340.702	358.38
340.93	351.38
341.158	333.38
341.386	335.38
341.614	356.38
341.842	341.38
342.07	330.38
342.298	348.38
342.526	345.38
342.754	336.38
342.981	328.38
343.209	343.38
343.437	342.38
343.665	356.38
343.893	330.38
344.12	357.38
344.348	352.38
344.576	335.38
344.804	359.38
345.031	366.38
345.259	372.38
345.487	378.38
345.714	341.38
345.942	359.38
346.17	330.38
346.397	336.38
346.625	336.38
346.853	331.38
347.08	333.38
347.308	355.38
347.535	336.38
347.763	347.38
347.99	351.38
348.218	344.38
348.445	347.38
348.673	357.38
348.9	347.38
349.128	333.38
349.355	326.38
349.583	322.38
349.81	348.38
350.037	338.38
350.265	344.38
350.492	342.38
350.72	343.38
350.947	345.38
351.174	335.38
351.402	365.38
351.629	365.38
351.856	334.38
352.083	341.38
352.311	371.38
352.538	374.38
352.765	350.38
352.992	382.38
353.22	352.38
353.447	345.38
353.674	346.38
353.901	325.38
354.128	321.38
354.355	329.38
354.583	326.38
354.81	325.38
355.037	313.38
355.264	307.38
355.491	318.38
355.718	326.38
355.945	294.38
356.172	315.38
356.399	296.38
356.626	317.38
356.853	322.38
357.08	324.38
357.307	337.38
357.534	321.38
357.761	304.38
357.988	310.38
358.215	331.38
358.441	324.38
358.668	309.38
358.895	333.38
359.122	318.38
359.349	342.38
359.576	353.38
359.802	380.38
360.029	382.38
360.256	383.38
360.483	384.38
360.709	341.38
360.936	342.38
361.163	331.38
361.39	332.38
361.616	346.38
361.843	336.38
362.07	341.38
362.296	346.38
362.523	338.38
362.749	342.38
362.976	326.38
363.203	312.38
363.429	330.38
363.656	326.38
363.882	333.38
364.109	340.38
364.335	326.38
364.562	321.38
364.788	320.38
365.015	338.38
365.241	314.38
365.468	326.38
365.694	324.38
365.92	345.38
366.147	338.38
366.373	322.38
366.599	320.38
366.826	319.38
367.052	315.38
367.278	331.38
367.505	314.38
367.731	322.38
367.957	313.38
368.184	331.38
368.41	337.38
368.636	327.38
368.862	338.38
369.089	326.38
369.315	334.38
369.541	336.38
369.767	331.38
369.993	317.38
370.219	315.38
370.445	320.38
370.672	312.38
370.898	332.38
371.124	320.38
371.35	322.38
371.576	323.38
371.802	328.38
372.028	346.38
372.254	328.38
372.48	306.38
372.706	333.38
372.932	324.38
373.158	315.38
373.384	320.38
373.61	325.38
373.835	338.38
374.061	327.38
374.287	337.38
374.513	341.38
374.739	331.38
374.965	330.38
375.191	338.38
375.416	324.38
375.642	316.38
375.868	318.38
376.094	317.38
376.319	341.38
376.545	331.38
376.771	326.38
376.997	331.38
377.222	326.38
377.448	312.38
377.674	323.38
377.899	323.38
378.125	308.38
378.35	328.38
378.576	328.38
378.802	325.38
379.027	325.38
379.253	322.38
379.478	315.38
379.704	316.38
379.929	339.38
380.155	328.38
380.38	319.38
380.606	316.38
380.831	308.38
381.057	334.38
381.282	335.38
381.507	315.38
381.733	331.38
381.958	320.38
382.184	344.38
382.409	332.38
382.634	334.38
382.86	320.38
383.085	345.38
383.31	328.38
383.535	335.38
383.761	316.38
383.986	351.38
384.211	318.38
384.436	350.38
384.662	342.38
384.887	358.38
385.112	330.38
385.337	338.38
385.562	347.38
385.787	349.38
386.013	362.38
386.238	359.38
386.463	354.38
386.688	349.38
386.913	360.38
387.138	341.38
387.363	333.38
387.588	331.38
387.813	330.38
388.038	358.38
388.263	358.38
388.488	332.38
388.713	336.38
388.938	337.38
389.163	345.38
389.387	321.38
389.612	351.38
389.837	322.38
390.062	346.38
390.287	347.38
390.512	343.38
390.736	342.38
390.961	336.38
391.186	336.38
391.411	340.38
391.636	352.38
391.86	358.38
392.085	343.38
392.31	347.38
392.534	349.38
392.759	350.38
392.984	341.38
393.208	365.38
393.433	371.38
393.658	349.38
393.882	344.38
394.107	342.38
394.331	343.38
394.556	358.38
394.78	331.38
395.005	339.38
395.229	333.38
395.454	354.38
395.678	355.38
395.903	365.38
396.127	381.38
396.352	386.38
396.576	348.38
396.801	364.38
397.025	370.38
397.249	335.38
397.474	340.38
397.698	375.38
397.922	377.38
398.147	360.38
398.371	386.38
398.595	378.38
398.82	375.38
399.044	386.38
399.268	388.38
399.492	418.38
399.717	419.38
399.941	450.38
400.165	471.38
400.389	489.38
400.613	438.38
400.837	406.38
401.062	406.38
401.286	409.38
401.51	406.38
401.734	388.38
401.958	394.38
402.182	405.38
402.406	387.38
402.63	408.38
402.854	403.38
403.078	399.38
403.302	388.38
403.526	393.38
403.75	411.38
403.974	402.38
404.198	387.38
404.422	392.38
404.645	405.38
404.869	402.38
405.093	424.38
405.317	452.38
405.541	480.38
405.765	451.38
405.988	410.38
406.212	443.38
406.436	453.38
406.66	471.38
406.883	445.38
407.107	475.38
407.331	482.38
407.555	538.38
407.778	543.38
408.002	471.38
408.226	458.38
408.449	436.38
408.673	447.38
408.896	462.38
409.12	501.38
409.344	485.38
409.567	424.38
409.791	428.38
410.014	414.38
410.238	407.38
410.461	411.38
410.685	421.38
410.908	425.38
411.132	459.38
411.355	488.38
411.578	458.38
411.802	419.38
412.025	423.38
412.249	381.38
412.472	424.38
412.695	450.38
412.919	447.38
413.142	420.38
413.365	412.38
413.589	405.38
413.812	410.38
414.035	394.38
414.258	380.38
414.482	386.38
414.705	379.38
414.928	390.38
415.151	361.38
415.374	372.38
415.597	382.38
415.821	415.38
416.044	393.38
416.267	371.38
416.49	402.38
416.713	379.38
416.936	399.38
417.159	395.38
417.382	410.38
417.605	396.38
417.828	388.38
418.051	407.38
418.274	399.38
418.497	391.38
418.72	391.38
418.943	387.38
419.166	383.38
419.389	403.38
419.611	411.38
419.834	399.38
420.057	408.38
420.28	402.38
420.503	388.38
420.726	409.38
420.948	408.38
421.171	449.38
421.394	462.38
421.617	416.38
421.839	424.38
422.062	415.38
422.285	409.38
422.507	484.38
422.73	531.38
422.953	522.38
423.175	451.38
423.398	436.38
423.621	437.38
423.843	434.38
424.066	458.38
424.288	430.38
424.511	463.38
424.733	522.38
424.956	576.38
425.178	566.38
425.401	540.38
425.623	550.38
425.846	507.38
426.068	456.38
426.291	464.38
426.513	452.38
426.735	460.38
426.958	484.38
427.18	579.38
427.402	658.38
427.625	721.38
427.847	658.38
428.069	592.38
428.292	498.38
428.514	471.38
428.736	421.38
428.958	446.38
429.181	414.38
429.403	417.38
429.625	412.38
429.847	456.38
430.069	485.38
430.292	495.38
430.514	434.38
430.736	410.38
430.958	415.38
431.18	419.38
431.402	408.38
431.624	400.38
431.846	386.38
432.068	399.38
432.29	382.38
432.512	422.38
432.734	402.38
432.956	397.38
433.178	411.38
433.4	408.38
433.622	388.38
433.844	388.38
434.066	410.38
434.287	395.38
434.509	391.38
434.731	389.38
434.953	412.38
435.175	428.38
435.397	460.38
435.618	467.38
435.84	486.38
436.062	566.38
436.284	607.38
436.505	515.38
436.727	486.38
436.949	439.38
437.17	422.38
437.392	429.38
437.614	430.38
437.835	459.38
438.057	554.38
438.278	659.38
438.5	605.38
438.721	681.38
438.943	667.38
439.165	540.38
439.386	469.38
439.608	475.38
439.829	456.38
440.05	482.38
440.272	544.38
440.493	507.38
440.715	445.38
440.936	445.38
441.158	426.38
441.379	440.38
441.6	450.38
441.822	453.38
442.043	480.38
442.264	571.38
442.486	581.38
442.707	489.38
442.928	471.38
443.149	473.38
443.371	489.38
443.592	519.38
443.813	590.38
444.034	642.38
444.255	544.38
444.476	470.38
444.698	452.38
444.919	456.38
445.14	538.38
445.361	479.38
445.582	474.38
445.803	523.38
446.024	611.38
446.245	623.38
446.466	559.38
446.687	502.38
446.908	468.38
447.129	436.38
447.35	417.38
447.571	431.38
447.792	460.38
448.013	420.38
448.234	441.38
448.455	490.38
448.675	577.38
448.896	660.38
449.117	596.38
449.338	543.38
449.559	628.38
449.779	698.38
450	587.38
450.221	459.38
450.442	451.38
450.662	424.38
450.883	432.38
451.104	446.38
451.324	428.38
451.545	398.38
451.766	392.38
451.986	388.38
452.207	383.38
452.428	350.38
452.648	392.38
452.869	390.38
453.089	382.38
453.31	402.38
453.53	371.38
453.751	375.38
453.971	363.38
454.192	395.38
454.412	396.38
454.633	379.38
454.853	380.38
455.073	381.38
455.294	386.38
455.514	453.38
455.734	433.38
455.955	384.38
456.175	373.38
456.395	341.38
456.616	358.38
456.836	359.38
457.056	347.38
457.276	363.38
457.497	360.38
457.717	368.38
457.937	363.38
458.157	374.38
458.377	366.38
458.598	376.38
458.818	439.38
459.038	523.38
459.258	516.38
459.478	427.38
459.698	400.38
459.918	382.38
460.138	399.38
460.358	382.38
460.578	392.38
460.798	398.38
461.018	381.38
461.238	393.38
461.458	388.38
461.678	363.38
461.898	407.38
462.118	397.38
462.338	407.38
462.558	392.38
462.777	395.38
462.997	406.38
463.217	394.38
463.437	423.38
463.657	404.38
463.876	391.38
464.096	417.38
464.316	418.38
464.536	425.38
464.755	418.38
464.975	420.38
465.195	474.38
465.414	531.38
465.634	466.38
465.854	458.38
466.073	398.38
466.293	395.38
466.512	379.38
466.732	387.38
466.951	374.38
467.171	351.38
467.391	374.38
467.61	372.38
467.829	409.38
468.049	394.38
468.268	418.38
468.488	395.38
468.707	394.38
468.927	383.38
469.146	367.38
469.365	370.38
469.585	350.38
469.804	388.38
470.023	408.38
470.243	394.38
470.462	397.38
470.681	403.38
470.901	393.38
471.12	398.38
471.339	375.38
471.558	377.38
471.777	393.38
471.997	396.38
472.216	386.38
472.435	399.38
472.654	402.38
472.873	389.38
473.092	372.38
473.311	384.38
473.53	403.38
473.749	414.38
473.968	431.38
474.187	528.38
474.406	553.38
474.625	457.38
474.844	424.38
475.063	384.38
475.282	404.38
475.501	394.38
475.72	421.38
475.939	391.38
476.158	419.38
476.377	421.38
476.596	435.38
476.814	404.38
477.033	393.38
477.252	426.38
477.471	400.38
477.69	419.38
477.908	416.38
478.127	403.38
478.346	421.38
478.564	427.38
478.783	438.38
479.002	419.38
479.22	473.38
479.439	447.38
479.658	458.38
479.876	466.38
480.095	470.38
480.313	467.38
480.532	464.38
480.751	482.38
480.969	472.38
481.188	506.38
481.406	528.38
481.624	489.38
481.843	442.38
482.061	463.38
482.28	467.38
482.498	463.38
482.717	444.38
482.935	452.38
483.153	451.38
483.372	455.38
483.59	453.38
483.808	465.38
484.027	450.38
484.245	454.38
484.463	470.38
484.681	482.38
484.9	471.38
485.118	463.38
485.336	454.38
485.554	482.38
485.772	495.38
485.99	473.38
486.209	471.38
486.427	469.38
486.645	482.38
486.863	521.38
487.081	494.38
487.299	488.38
487.517	500.38
487.735	500.38
487.953	506.38
488.171	512.38
488.389	509.38
488.607	503.38
488.825	480.38
489.043	496.38
489.261	500.38
489.479	524.38
489.696	509.38
489.914	510.38
490.132	514.38
490.35	530.38
490.568	524.38
490.786	543.38
491.003	549.38
491.221	529.38
491.439	548.38
491.657	553.38
491.874	573.38
492.092	569.38
492.31	557.38
492.527	562.38
492.745	574.38
492.963	565.38
493.18	570.38
493.398	596.38
493.615	587.38
493.833	578.38
494.05	581.38
494.268	573.38
494.485	596.38
494.703	570.38
494.92	573.38
495.138	586.38
495.355	589.38
495.573	584.38
495.79	578.38
496.008	573.38
496.225	595.38
496.442	596.38
496.66	589.38
496.877	610.38
497.094	605.38
497.312	578.38
497.529	621.38
497.746	621.38
497.963	612.38
498.181	623.38
498.398	626.38
498.615	642.38
498.832	654.38
499.049	667.38
499.267	653.38
499.484	670.38
499.701	687.38
499.918	676.38
500.135	718.38
500.352	746.38
500.569	722.38
500.786	746.38
501.003	730.38
501.22	710.38
501.437	699.38
501.654	719.38
501.871	696.38
502.088	686.38
502.305	652.38
502.522	645.38
502.739	656.38
502.956	622.38
503.172	604.38
503.389	607.38
503.606	652.38
503.823	609.38
504.04	617.38
504.256	591.38
504.473	595.38
504.69	586.38
504.907	618.38
505.123	552.38
505.34	586.38
505.557	595.38
505.773	565.38
505.99	576.38
506.207	579.38
506.423	572.38
506.64	567.38
506.856	540.38
507.073	566.38
507.289	556.38
507.506	552.38
507.722	575.38
507.939	592.38
508.155	573.38
508.372	569.38
508.588	552.38
508.805	553.38
509.021	543.38
509.238	548.38
509.454	572.38
509.67	554.38
509.887	552.38
510.103	553.38
510.319	586.38
510.536	652.38
510.752	1072.38
510.968	885.38
511.184	586.38
511.401	540.38
511.617	530.38
511.833	539.38
512.049	534.38
512.265	510.38
512.481	512.38
512.698	504.38
512.914	534.38
513.13	515.38
513.346	524.38
513.562	510.38
513.778	514.38
513.994	527.38
514.21	543.38
514.426	575.38
514.642	625.38
514.858	620.38
515.074	656.38
515.29	769.38
515.506	1164.38
515.721	964.38
515.937	637.38
516.153	596.38
516.369	560.38
516.585	538.38
516.801	542.38
517.016	532.38
517.232	528.38
517.448	516.38
517.664	516.38
517.879	520.38
518.095	523.38
518.311	541.38
518.527	529.38
518.742	505.38
518.958	496.38
519.173	520.38
519.389	526.38
519.605	529.38
519.82	532.38
520.036	535.38
520.251	542.38
520.467	581.38
520.682	576.38
520.898	588.38
521.113	576.38
521.329	623.38
521.544	712.38
521.76	902.38
521.975	1531.38
522.19	1506.38
522.406	835.38
522.621	603.38
522.836	538.38
523.052	532.38
523.267	529.38
523.482	495.38
523.698	494.38
523.913	486.38
524.128	444.38
524.343	465.38
524.559	472.38
524.774	468.38
524.989	470.38
525.204	446.38
525.419	458.38
525.634	447.38
525.849	448.38
526.064	430.38
526.28	436.38
526.495	443.38
526.71	417.38
526.925	428.38
527.14	418.38
527.355	412.38
527.57	440.38
527.785	418.38
527.999	399.38
528.214	411.38
528.429	426.38
528.644	427.38
528.859	413.38
529.074	446.38
529.289	433.38
529.503	522.38
529.718	513.38
529.933	451.38
530.148	418.38
530.363	410.38
530.577	412.38
530.792	406.38
531.007	412.38
531.221	440.38
531.436	435.38
531.651	415.38
531.865	390.38
532.08	394.38
532.295	390.38
532.509	397.38
532.724	399.38
532.938	395.38
533.153	402.38
533.367	406.38
533.582	389.38
533.796	398.38
534.011	401.38
534.225	386.38
534.44	392.38
534.654	380.38
534.868	390.38
535.083	373.38
535.297	406.38
535.511	412.38
535.726	398.38
535.94	395.38
536.154	404.38
536.369	390.38
536.583	389.38
536.797	388.38
537.011	402.38
537.225	386.38
537.44	370.38
537.654	385.38
537.868	386.38
538.082	374.38
538.296	380.38
538.51	390.38
538.724	382.38
538.938	411.38
539.153	378.38
539.367	408.38
539.581	411.38
539.795	402.38
540.009	381.38
540.222	367.38
540.436	387.38
540.65	398.38
540.864	391.38
541.078	406.38
541.292	392.38
541.506	398.38
541.72	397.38
541.934	379.38
542.147	380.38
542.361	384.38
542.575	358.38
542.789	383.38
543.002	391.38
543.216	384.38
543.43	372.38
543.644	392.38
543.857	386.38
544.071	403.38
544.285	376.38
544.498	375.38
544.712	376.38
544.925	378.38
545.139	390.38
545.352	380.38
545.566	378.38
545.779	367.38
545.993	367.38
546.206	382.38
546.42	376.38
546.633	371.38
546.847	371.38
547.06	374.38
547.274	380.38
547.487	379.38
547.7	368.38
547.914	382.38
548.127	374.38
548.34	359.38
548.554	365.38
548.767	350.38
548.98	364.38
549.193	358.38
549.407	360.38
549.62	363.38
549.833	378.38
550.046	362.38
550.259	354.38
550.473	360.38
550.686	339.38
550.899	382.38
551.112	361.38
551.325	344.38
551.538	347.38
551.751	341.38
551.964	358.38
552.177	364.38
552.39	384.38
552.603	374.38
552.816	351.38
553.029	372.38
553.242	392.38
553.455	360.38
553.667	351.38
553.88	383.38
554.093	388.38
554.306	371.38
554.519	368.38
554.732	363.38
554.944	368.38
555.157	348.38
555.37	350.38
555.583	371.38
555.795	334.38
556.008	366.38
556.221	345.38
556.433	345.38
556.646	344.38
556.859	353.38
557.071	328.38
557.284	341.38
557.496	351.38
557.709	338.38
557.921	322.38
558.134	330.38
558.346	344.38
558.559	334.38
558.771	331.38
558.984	341.38
559.196	312.38
559.409	332.38
559.621	320.38
559.833	325.38
560.046	334.38
560.258	335.38
560.47	339.38
560.683	322.38
560.895	338.38
561.107	346.38
561.32	342.38
561.532	324.38
561.744	320.38
561.956	332.38
562.168	310.38
562.381	334.38
562.593	328.38
562.805	323.38
563.017	322.38
563.229	350.38
563.441	344.38
563.653	341.38
563.865	324.38
564.077	327.38
564.289	324.38
564.501	324.38
564.713	341.38
564.925	336.38
565.137	343.38
565.349	348.38
565.561	365.38
565.773	340.38
565.985	338.38
566.197	348.38
566.408	360.38
566.62	356.38
566.832	366.38
567.044	364.38
567.255	374.38
567.467	378.38
567.679	383.38
567.891	378.38
568.102	356.38
568.314	376.38
568.526	363.38
568.737	364.38
568.949	353.38
569.161	343.38
569.372	334.38
569.584	313.38
569.795	340.38
570.007	344.38
570.218	367.38
570.43	364.38
570.641	344.38
570.853	314.38
571.064	321.38
571.276	324.38
571.487	327.38
571.698	303.38
571.91	319.38
572.121	300.38
572.333	317.38
572.544	291.38
572.755	306.38
572.966	306.38
573.178	278.38
573.389	288.38
573.6	285.38
573.811	281.38
574.023	282.38
574.234	296.38
574.445	302.38
574.656	291.38
574.867	297.38
575.078	281.38
575.289	276.38
575.501	281.38
575.712	286.38
575.923	298.38
576.134	287.38
576.345	280.38
576.556	297.38
576.767	288.38
576.978	288.38
577.188	285.38
577.399	271.38
577.61	280.38
577.821	266.38
578.032	284.38
578.243	316.38
578.454	515.38
578.665	384.38
578.875	295.38
579.086	280.38
579.297	273.38
579.508	295.38
579.718	267.38
579.929	268.38
580.14	263.38
580.35	256.38
580.561	281.38
580.772	266.38
580.982	262.38
581.193	260.38
581.403	268.38
581.614	248.38
581.825	261.38
582.035	264.38
582.246	263.38
582.456	262.38
582.667	267.38
582.877	260.38
583.087	256.38
583.298	270.38
583.508	267.38
583.719	276.38
583.929	266.38
584.139	257.38
584.35	275.38
584.56	270.38
584.77	258.38
584.981	267.38
585.191	256.38
585.401	246.38
585.611	245.38
585.821	254.38
586.032	263.38
586.242	260.38
586.452	262.38
586.662	253.38
586.872	247.38
587.082	237.38
587.292	269.38
587.502	275.38
587.713	264.38
587.923	265.38
588.133	248.38
588.343	247.38
588.553	251.38
588.762	224.38
588.972	243.38
589.182	270.38
589.392	230.38
589.602	253.38
589.812	235.38
590.022	240.38
590.232	257.38
590.441	253.38
590.651	249.38
590.861	237.38
591.071	244.38
591.281	260.38
591.49	247.38
591.7	256.38
591.91	236.38
592.119	258.38
592.329	251.38
592.539	244.38
592.748	280.38
592.958	264.38
593.167	253.38
593.377	251.38
593.587	260.38
593.796	250.38
594.006	254.38
594.215	250.38
594.424	256.38
594.634	264.38
594.843	256.38
595.053	250.38
595.262	251.38
595.472	242.38
595.681	243.38
595.89	247.38
596.1	222.38
596.309	231.38
596.518	256.38
596.727	257.38
596.937	236.38
597.146	236.38
597.355	229.38
597.564	221.38
597.774	239.38
597.983	243.38
598.192	233.38
598.401	221.38
598.61	233.38
598.819	230.38
599.028	237.38
599.237	234.38
599.446	223.38
599.655	215.38
599.864	246.38
600.073	230.38
600.282	222.38
600.491	219.38
600.7	221.38
600.909	223.38
601.118	232.38
601.327	241.38
601.536	228.38
601.745	226.38
601.953	211.38
602.162	237.38
602.371	224.38
602.58	219.38
602.789	223.38
602.997	225.38
603.206	207.38
603.415	215.38
603.623	222.38
603.832	232.38
604.041	211.38
604.249	215.38
604.458	220.38
604.666	211.38
604.875	210.38
605.084	205.38
605.292	209.38
605.501	207.38
605.709	214.38
605.918	225.38
606.126	215.38
606.334	205.38
606.543	209.38
606.751	214.38
606.96	201.38
607.168	216.38
607.376	199.38
607.585	198.38
607.793	218.38
608.001	212.38
608.21	197.38
608.418	216.38
608.626	200.38
608.834	195.38
609.043	187.38
609.251	205.38
609.459	212.38
609.667	210.38
609.875	214.38
610.083	213.38
610.291	223.38
610.499	215.38
610.707	206.38
610.916	222.38
611.124	226.38
611.332	209.38
611.54	215.38
611.748	216.38
611.955	210.38
612.163	208.38
612.371	209.38
612.579	219.38
612.787	218.38
612.995	212.38
613.203	219.38
613.411	199.38
613.618	218.38
613.826	210.38
614.034	203.38
614.242	210.38
614.449	223.38
614.657	214.38
614.865	215.38
615.072	216.38
615.28	215.38
615.488	201.38
615.695	216.38
615.903	205.38
616.111	194.38
616.318	205.38
616.526	206.38
616.733	216.38
616.941	211.38
617.148	201.38
617.356	194.38
617.563	194.38
617.771	216.38
617.978	215.38
618.185	188.38
618.393	203.38
618.6	215.38
618.807	212.38
619.015	204.38
619.222	196.38
619.429	195.38
619.637	208.38
619.844	191.38
620.051	183.38
620.258	185.38
620.466	170.38
620.673	195.38
620.88	185.38
621.087	199.38
621.294	192.38
621.501	197.38
621.708	197.38
621.915	195.38
622.122	194.38
622.329	202.38
622.536	196.38
622.743	197.38
622.95	212.38
623.157	189.38
623.364	198.38
623.571	191.38
623.778	207.38
623.985	205.38
624.192	198.38
624.399	180.38
624.606	206.38
624.812	191.38
625.019	205.38
625.226	193.38
625.433	183.38
625.639	188.38
625.846	170.38
626.053	164.38
626.259	187.38
626.466	174.38
626.673	192.38
626.879	182.38
627.086	185.38
627.293	188.38
627.499	173.38
627.706	177.38
627.912	176.38
628.119	184.38
628.325	181.38
628.532	183.38
628.738	171.38
628.945	183.38
629.151	172.38
629.357	178.38
629.564	178.38
629.77	175.38
629.976	170.38
630.183	183.38
630.389	180.38
630.595	173.38
630.802	176.38
631.008	178.38
631.214	173.38
631.42	162.38
631.627	183.38
631.833	176.38
632.039	174.38
632.245	175.38
632.451	164.38
632.657	162.38
632.863	167.38
633.069	155.38
633.275	181.38
633.481	174.38
633.688	159.38
633.893	168.38
634.099	172.38
634.305	179.38
634.511	169.38
634.717	154.38
634.923	154.38
635.129	160.38
635.335	170.38
635.541	162.38
635.747	164.38
635.952	158.38
636.158	162.38
636.364	168.38
636.57	175.38
636.775	161.38
636.981	154.38
637.187	164.38
637.392	170.38
637.598	165.38
637.804	163.38
638.009	165.38
638.215	150.38
638.421	164.38
638.626	160.38
638.832	157.38
639.037	152.38
639.243	161.38
639.448	171.38
639.654	154.38
639.859	168.38
640.065	156.38
640.27	155.38
640.475	159.38
640.681	154.38
640.886	154.38
641.091	154.38
641.297	151.38
641.502	166.38
641.707	152.38
641.913	156.38
642.118	147.38
642.323	159.38
642.528	149.38
642.733	170.38
642.939	170.38
643.144	139.38
643.349	164.38
643.554	157.38
643.759	136.38
643.964	140.38
644.169	142.38
644.374	138.38
644.579	160.38
644.784	155.38
644.989	150.38
645.194	149.38
645.399	157.38
645.604	149.38
645.809	144.38
646.014	142.38
646.219	148.38
646.423	132.38
646.628	166.38
646.833	151.38
647.038	158.38
647.243	168.38
647.447	153.38
647.652	152.38
647.857	145.38
648.062	158.38
648.266	131.38
648.471	132.38
648.676	154.38
648.88	149.38
649.085	164.38
649.289	158.38
649.494	150.38
649.698	171.38
649.903	154.38
650.107	153.38
650.312	164.38
650.516	150.38
650.721	153.38
650.925	141.38
651.13	126.38
651.334	135.38
651.539	135.38
651.743	139.38
651.947	134.38
652.152	137.38
652.356	130.38
652.56	130.38
652.764	133.38
652.969	123.38
653.173	131.38
653.377	130.38
653.581	125.38
653.785	140.38
653.99	144.38
654.194	134.38
654.398	126.38
654.602	118.38
654.806	136.38
655.01	138.38
655.214	109.38
655.418	128.38
655.622	132.38
655.826	118.38
656.03	126.38
656.234	120.38
656.438	112.38
656.642	125.38
656.846	107.38
657.049	122.38
657.253	114.38
657.457	112.38
657.661	118.38
657.865	112.38
658.068	103.38
658.272	120.38
658.476	116.38
658.68	111.38
658.883	103.38
659.087	105.38
659.291	107.38
659.494	98.38
659.698	106.38
659.901	95.38
660.105	102.38
660.309	90.38
660.512	88.38
660.716	92.38
660.919	87.38
661.123	88.38
661.326	99.38
661.53	95.38
661.733	77.38
661.936	78.38
662.14	84.38
662.343	92.38
662.546	77.38
662.75	87.38
662.953	90.38
663.156	77.38
663.36	82.38
663.563	98.38
663.766	77.38
663.969	90.38
664.173	80.38
664.376	85.38
664.579	83.38
664.782	80.38
664.985	70.38
665.188	91.38
665.391	90.38
665.594	95.38
665.797	93.38
666	86.38
666.203	84.38
666.406	80.38
666.609	77.38
666.812	84.38
667.015	86.38
667.218	83.38
667.421	75.38
667.624	73.38
667.827	84.38
668.03	92.38
668.232	70.38
668.435	97.38
668.638	77.38
668.841	80.38
669.043	83.38
669.246	78.38
669.449	74.38
669.651	80.38
669.854	84.38
670.057	87.38
670.259	88.38
670.462	78.38
670.665	81.38
670.867	79.38
671.07	73.38
671.272	85.38
671.475	89.38
671.677	87.38
671.88	87.38
672.082	80.38
672.284	67.38
672.487	86.38
672.689	95.38
672.892	86.38
