Data from 1980.PennyLincolnUp.Lamp.En5.5.200Scan.071819.P1_HRD10591_16-37-00-956.txt Node
Date: Thu Jul 18 16:37:00 EDT 2019
User: cochatt
Spectrometer: HR+D1059
Trigger mode: 1
Integration Time (sec): 1.000000E-1
Scans to average: 1
Electric dark correction enabled: true
Nonlinearity correction enabled: false
Boxcar width: 0
XAxis mode: Wavelengths
Number of Pixels in Spectrum: 2048
>>>>>Begin Spectral Data<<<<<
223.165	-24.94
223.4	-24.94
223.635	-24.94
223.869	-0.94
224.104	-11.94
224.338	-2.94
224.573	-12.94
224.808	-12.94
225.042	-2.94
225.277	-18.94
225.511	-3.94
225.746	4.06
225.98	-10.94
226.215	-0.94
226.449	13.06
226.683	33.06
226.918	27.06
227.152	27.06
227.387	46.06
227.621	33.06
227.856	39.06
228.09	40.06
228.324	36.06
228.559	56.06
228.793	79.06
229.027	85.06
229.262	92.06
229.496	112.06
229.73	141.06
229.964	149.06
230.199	116.06
230.433	127.06
230.667	110.06
230.901	128.06
231.136	106.06
231.37	100.06
231.604	109.06
231.838	103.06
232.072	117.06
232.306	122.06
232.541	129.06
232.775	124.06
233.009	111.06
233.243	108.06
233.477	108.06
233.711	102.06
233.945	117.06
234.179	109.06
234.413	99.06
234.647	123.06
234.881	119.06
235.115	116.06
235.349	110.06
235.583	105.06
235.817	111.06
236.051	103.06
236.285	129.06
236.519	111.06
236.753	116.06
236.987	153.06
237.221	175.06
237.455	236.06
237.689	195.06
237.922	151.06
238.156	136.06
238.39	125.06
238.624	132.06
238.858	135.06
239.091	127.06
239.325	127.06
239.559	125.06
239.793	131.06
240.027	142.06
240.26	130.06
240.494	144.06
240.728	151.06
240.961	149.06
241.195	151.06
241.429	130.06
241.662	124.06
241.896	137.06
242.13	132.06
242.363	128.06
242.597	133.06
242.83	134.06
243.064	133.06
243.298	141.06
243.531	130.06
243.765	118.06
243.998	138.06
244.232	144.06
244.465	150.06
244.699	136.06
244.932	130.06
245.166	124.06
245.399	142.06
245.633	138.06
245.866	141.06
246.099	145.06
246.333	149.06
246.566	164.06
246.8	149.06
247.033	160.06
247.266	155.06
247.5	146.06
247.733	178.06
247.966	169.06
248.2	169.06
248.433	173.06
248.666	182.06
248.899	187.06
249.133	208.06
249.366	223.06
249.599	202.06
249.832	179.06
250.066	172.06
250.299	181.06
250.532	191.06
250.765	204.06
250.998	222.06
251.231	236.06
251.465	212.06
251.698	186.06
251.931	189.06
252.164	184.06
252.397	194.06
252.63	212.06
252.863	196.06
253.096	215.06
253.329	225.06
253.562	219.06
253.795	228.06
254.028	239.06
254.261	214.06
254.494	225.06
254.727	243.06
254.96	273.06
255.193	253.06
255.426	253.06
255.659	244.06
255.892	272.06
256.124	253.06
256.357	240.06
256.59	239.06
256.823	220.06
257.056	220.06
257.289	196.06
257.521	212.06
257.754	220.06
257.987	204.06
258.22	202.06
258.452	204.06
258.685	209.06
258.918	205.06
259.151	213.06
259.383	225.06
259.616	219.06
259.849	222.06
260.081	220.06
260.314	255.06
260.547	261.06
260.779	258.06
261.012	235.06
261.244	219.06
261.477	229.06
261.71	240.06
261.942	225.06
262.175	231.06
262.407	228.06
262.64	236.06
262.872	211.06
263.105	207.06
263.337	212.06
263.57	206.06
263.802	223.06
264.035	220.06
264.267	212.06
264.499	202.06
264.732	221.06
264.964	197.06
265.197	191.06
265.429	212.06
265.661	196.06
265.894	191.06
266.126	215.06
266.358	205.06
266.591	208.06
266.823	205.06
267.055	218.06
267.287	226.06
267.52	216.06
267.752	205.06
267.984	225.06
268.216	230.06
268.448	224.06
268.681	216.06
268.913	243.06
269.145	251.06
269.377	260.06
269.609	245.06
269.841	269.06
270.073	262.06
270.306	268.06
270.538	316.06
270.77	309.06
271.002	291.06
271.234	288.06
271.466	279.06
271.698	292.06
271.93	311.06
272.162	327.06
272.394	324.06
272.626	280.06
272.858	283.06
273.09	292.06
273.322	284.06
273.553	271.06
273.785	255.06
274.017	264.06
274.249	255.06
274.481	264.06
274.713	255.06
274.945	245.06
275.176	261.06
275.408	259.06
275.64	259.06
275.872	229.06
276.104	273.06
276.335	277.06
276.567	274.06
276.799	275.06
277.031	281.06
277.262	284.06
277.494	299.06
277.726	285.06
277.957	274.06
278.189	272.06
278.421	263.06
278.652	237.06
278.884	254.06
279.115	258.06
279.347	252.06
279.579	245.06
279.81	265.06
280.042	271.06
280.273	258.06
280.505	254.06
280.736	243.06
280.968	244.06
281.199	240.06
281.431	255.06
281.662	244.06
281.894	261.06
282.125	253.06
282.356	274.06
282.588	292.06
282.819	281.06
283.051	267.06
283.282	244.06
283.513	250.06
283.745	248.06
283.976	249.06
284.207	269.06
284.439	260.06
284.67	249.06
284.901	253.06
285.132	246.06
285.364	252.06
285.595	269.06
285.826	248.06
286.057	244.06
286.288	261.06
286.52	255.06
286.751	248.06
286.982	266.06
287.213	260.06
287.444	239.06
287.675	263.06
287.906	262.06
288.138	278.06
288.369	284.06
288.6	284.06
288.831	285.06
289.062	274.06
289.293	259.06
289.524	275.06
289.755	260.06
289.986	257.06
290.217	245.06
290.448	257.06
290.679	259.06
290.91	260.06
291.141	242.06
291.371	243.06
291.602	263.06
291.833	267.06
292.064	275.06
292.295	269.06
292.526	232.06
292.757	242.06
292.987	259.06
293.218	257.06
293.449	258.06
293.68	271.06
293.91	246.06
294.141	267.06
294.372	261.06
294.603	256.06
294.833	284.06
295.064	259.06
295.295	258.06
295.525	249.06
295.756	281.06
295.987	282.06
296.217	313.06
296.448	305.06
296.679	271.06
296.909	267.06
297.14	276.06
297.37	281.06
297.601	295.06
297.831	269.06
298.062	275.06
298.292	263.06
298.523	283.06
298.753	276.06
298.984	281.06
299.214	276.06
299.445	268.06
299.675	299.06
299.905	289.06
300.136	283.06
300.366	287.06
300.597	290.06
300.827	290.06
301.057	308.06
301.288	305.06
301.518	312.06
301.748	289.06
301.979	303.06
302.209	279.06
302.439	310.06
302.669	314.06
302.9	301.06
303.13	289.06
303.36	295.06
303.59	281.06
303.82	312.06
304.051	303.06
304.281	297.06
304.511	301.06
304.741	298.06
304.971	288.06
305.201	311.06
305.431	291.06
305.661	284.06
305.891	300.06
306.121	300.06
306.352	307.06
306.582	301.06
306.812	298.06
307.042	296.06
307.272	291.06
307.502	322.06
307.731	328.06
307.961	313.06
308.191	322.06
308.421	300.06
308.651	299.06
308.881	303.06
309.111	301.06
309.341	311.06
309.571	325.06
309.8	338.06
310.03	354.06
310.26	354.06
310.49	355.06
310.72	354.06
310.949	379.06
311.179	367.06
311.409	336.06
311.639	343.06
311.868	334.06
312.098	362.06
312.328	373.06
312.557	379.06
312.787	381.06
313.017	381.06
313.246	390.06
313.476	357.06
313.706	367.06
313.935	361.06
314.165	373.06
314.394	379.06
314.624	374.06
314.853	360.06
315.083	349.06
315.312	330.06
315.542	354.06
315.771	337.06
316.001	354.06
316.23	337.06
316.46	343.06
316.689	347.06
316.919	354.06
317.148	369.06
317.377	368.06
317.607	348.06
317.836	348.06
318.065	327.06
318.295	359.06
318.524	334.06
318.753	332.06
318.983	334.06
319.212	356.06
319.441	351.06
319.67	371.06
319.9	358.06
320.129	343.06
320.358	342.06
320.587	355.06
320.816	362.06
321.046	361.06
321.275	385.06
321.504	391.06
321.733	397.06
321.962	364.06
322.191	402.06
322.42	395.06
322.649	417.06
322.878	430.06
323.108	437.06
323.337	462.06
323.566	523.06
323.795	525.06
324.024	581.06
324.253	729.06
324.482	1023.06
324.71	1543.06
324.939	2252.06
325.168	2003.06
325.397	1063.06
325.626	697.06
325.855	558.06
326.084	497.06
326.313	499.06
326.542	500.06
326.77	561.06
326.999	661.06
327.228	878.06
327.457	1359.06
327.686	1661.06
327.914	1168.06
328.143	769.06
328.372	646.06
328.6	599.06
328.829	590.06
329.058	591.06
329.287	581.06
329.515	551.06
329.744	520.06
329.972	513.06
330.201	509.06
330.43	571.06
330.658	582.06
330.887	617.06
331.115	595.06
331.344	505.06
331.572	495.06
331.801	459.06
332.03	460.06
332.258	445.06
332.486	416.06
332.715	395.06
332.943	419.06
333.172	429.06
333.4	411.06
333.629	415.06
333.857	441.06
334.085	456.06
334.314	464.06
334.542	475.06
334.771	472.06
334.999	450.06
335.227	422.06
335.455	422.06
335.684	402.06
335.912	388.06
336.14	391.06
336.369	388.06
336.597	432.06
336.825	390.06
337.053	397.06
337.281	392.06
337.51	406.06
337.738	383.06
337.966	401.06
338.194	404.06
338.422	382.06
338.65	407.06
338.878	407.06
339.106	385.06
339.334	380.06
339.562	381.06
339.79	383.06
340.018	392.06
340.246	394.06
340.474	408.06
340.702	396.06
340.93	379.06
341.158	366.06
341.386	411.06
341.614	384.06
341.842	383.06
342.07	389.06
342.298	390.06
342.526	368.06
342.754	366.06
342.981	374.06
343.209	378.06
343.437	385.06
343.665	380.06
343.893	393.06
344.12	369.06
344.348	369.06
344.576	388.06
344.804	387.06
345.031	392.06
345.259	419.06
345.487	400.06
345.714	390.06
345.942	383.06
346.17	394.06
346.397	377.06
346.625	370.06
346.853	367.06
347.08	370.06
347.308	381.06
347.535	381.06
347.763	418.06
347.99	377.06
348.218	398.06
348.445	387.06
348.673	406.06
348.9	388.06
349.128	375.06
349.355	362.06
349.583	372.06
349.81	365.06
350.037	383.06
350.265	381.06
350.492	364.06
350.72	379.06
350.947	370.06
351.174	390.06
351.402	391.06
351.629	389.06
351.856	378.06
352.083	418.06
352.311	396.06
352.538	422.06
352.765	397.06
352.992	398.06
353.22	385.06
353.447	377.06
353.674	401.06
353.901	365.06
354.128	360.06
354.355	338.06
354.583	363.06
354.81	353.06
355.037	349.06
355.264	336.06
355.491	346.06
355.718	364.06
355.945	344.06
356.172	347.06
356.399	335.06
356.626	365.06
356.853	358.06
357.08	342.06
357.307	351.06
357.534	348.06
357.761	347.06
357.988	358.06
358.215	382.06
358.441	349.06
358.668	347.06
358.895	357.06
359.122	356.06
359.349	378.06
359.576	393.06
359.802	413.06
360.029	435.06
360.256	467.06
360.483	434.06
360.709	390.06
360.936	387.06
361.163	365.06
361.39	403.06
361.616	404.06
361.843	368.06
362.07	362.06
362.296	393.06
362.523	374.06
362.749	377.06
362.976	388.06
363.203	372.06
363.429	386.06
363.656	367.06
363.882	376.06
364.109	356.06
364.335	377.06
364.562	365.06
364.788	379.06
365.015	352.06
365.241	373.06
365.468	375.06
365.694	353.06
365.92	367.06
366.147	361.06
366.373	343.06
366.599	362.06
366.826	358.06
367.052	371.06
367.278	358.06
367.505	344.06
367.731	367.06
367.957	379.06
368.184	368.06
368.41	386.06
368.636	382.06
368.862	383.06
369.089	368.06
369.315	379.06
369.541	371.06
369.767	361.06
369.993	363.06
370.219	356.06
370.445	346.06
370.672	349.06
370.898	359.06
371.124	349.06
371.35	347.06
371.576	332.06
371.802	359.06
372.028	347.06
372.254	359.06
372.48	348.06
372.706	355.06
372.932	357.06
373.158	353.06
373.384	361.06
373.61	370.06
373.835	357.06
374.061	375.06
374.287	369.06
374.513	376.06
374.739	376.06
374.965	377.06
375.191	363.06
375.416	355.06
375.642	348.06
375.868	364.06
376.094	356.06
376.319	351.06
376.545	361.06
376.771	355.06
376.997	351.06
377.222	341.06
377.448	353.06
377.674	358.06
377.899	350.06
378.125	351.06
378.35	377.06
378.576	338.06
378.802	330.06
379.027	347.06
379.253	360.06
379.478	356.06
379.704	342.06
379.929	356.06
380.155	357.06
380.38	371.06
380.606	379.06
380.831	360.06
381.057	363.06
381.282	362.06
381.507	359.06
381.733	378.06
381.958	363.06
382.184	353.06
382.409	370.06
382.634	353.06
382.86	372.06
383.085	360.06
383.31	362.06
383.535	349.06
383.761	360.06
383.986	354.06
384.211	368.06
384.436	397.06
384.662	382.06
384.887	370.06
385.112	374.06
385.337	380.06
385.562	386.06
385.787	373.06
386.013	387.06
386.238	388.06
386.463	379.06
386.688	393.06
386.913	369.06
387.138	376.06
387.363	377.06
387.588	381.06
387.813	390.06
388.038	387.06
388.263	376.06
388.488	369.06
388.713	380.06
388.938	379.06
389.163	354.06
389.387	371.06
389.612	360.06
389.837	378.06
390.062	380.06
390.287	368.06
390.512	371.06
390.736	387.06
390.961	377.06
391.186	384.06
391.411	375.06
391.636	352.06
391.86	373.06
392.085	389.06
392.31	396.06
392.534	375.06
392.759	386.06
392.984	378.06
393.208	365.06
393.433	378.06
393.658	390.06
393.882	373.06
394.107	385.06
394.331	378.06
394.556	409.06
394.78	356.06
395.005	381.06
395.229	387.06
395.454	383.06
395.678	388.06
395.903	409.06
396.127	388.06
396.352	438.06
396.576	401.06
396.801	375.06
397.025	386.06
397.249	384.06
397.474	402.06
397.698	408.06
397.922	405.06
398.147	422.06
398.371	428.06
398.595	426.06
398.82	434.06
399.044	439.06
399.268	425.06
399.492	439.06
399.717	460.06
399.941	466.06
400.165	499.06
400.389	530.06
400.613	484.06
400.837	465.06
401.062	429.06
401.286	441.06
401.51	420.06
401.734	408.06
401.958	433.06
402.182	416.06
402.406	444.06
402.63	435.06
402.854	458.06
403.078	446.06
403.302	452.06
403.526	444.06
403.75	435.06
403.974	450.06
404.198	441.06
404.422	443.06
404.645	470.06
404.869	462.06
405.093	472.06
405.317	508.06
405.541	542.06
405.765	507.06
405.988	501.06
406.212	466.06
406.436	517.06
406.66	526.06
406.883	513.06
407.107	512.06
407.331	552.06
407.555	605.06
407.778	603.06
408.002	548.06
408.226	521.06
408.449	493.06
408.673	495.06
408.896	525.06
409.12	561.06
409.344	516.06
409.567	478.06
409.791	443.06
410.014	459.06
410.238	434.06
410.461	444.06
410.685	459.06
410.908	483.06
411.132	501.06
411.355	535.06
411.578	514.06
411.802	453.06
412.025	449.06
412.249	456.06
412.472	480.06
412.695	500.06
412.919	508.06
413.142	458.06
413.365	455.06
413.589	445.06
413.812	434.06
414.035	409.06
414.258	428.06
414.482	437.06
414.705	421.06
414.928	432.06
415.151	406.06
415.374	429.06
415.597	420.06
415.821	406.06
416.044	431.06
416.267	424.06
416.49	418.06
416.713	441.06
416.936	435.06
417.159	431.06
417.382	431.06
417.605	431.06
417.828	460.06
418.051	495.06
418.274	445.06
418.497	445.06
418.72	444.06
418.943	426.06
419.166	453.06
419.389	448.06
419.611	450.06
419.834	457.06
420.057	467.06
420.28	468.06
420.503	462.06
420.726	457.06
420.948	467.06
421.171	514.06
421.394	541.06
421.617	470.06
421.839	457.06
422.062	458.06
422.285	465.06
422.507	513.06
422.73	596.06
422.953	563.06
423.175	489.06
423.398	477.06
423.621	455.06
423.843	511.06
424.066	481.06
424.288	530.06
424.511	499.06
424.733	574.06
424.956	661.06
425.178	620.06
425.401	617.06
425.623	649.06
425.846	553.06
426.068	500.06
426.291	519.06
426.513	508.06
426.735	513.06
426.958	552.06
427.18	619.06
427.402	775.06
427.625	816.06
427.847	746.06
428.069	669.06
428.292	561.06
428.514	509.06
428.736	480.06
428.958	491.06
429.181	487.06
429.403	472.06
429.625	465.06
429.847	521.06
430.069	569.06
430.292	585.06
430.514	520.06
430.736	470.06
430.958	460.06
431.18	445.06
431.402	432.06
431.624	435.06
431.846	427.06
432.068	421.06
432.29	435.06
432.512	431.06
432.734	442.06
432.956	458.06
433.178	451.06
433.4	465.06
433.622	444.06
433.844	435.06
434.066	436.06
434.287	444.06
434.509	422.06
434.731	447.06
434.953	450.06
435.175	472.06
435.397	504.06
435.618	507.06
435.84	557.06
436.062	631.06
436.284	699.06
436.505	583.06
436.727	533.06
436.949	490.06
437.17	463.06
437.392	470.06
437.614	507.06
437.835	525.06
438.057	656.06
438.278	718.06
438.5	708.06
438.721	778.06
438.943	753.06
439.165	603.06
439.386	529.06
439.608	515.06
439.829	523.06
440.05	554.06
440.272	554.06
440.493	555.06
440.715	528.06
440.936	487.06
441.158	476.06
441.379	459.06
441.6	473.06
441.822	507.06
442.043	523.06
442.264	603.06
442.486	665.06
442.707	567.06
442.928	541.06
443.149	539.06
443.371	543.06
443.592	587.06
443.813	687.06
444.034	719.06
444.255	601.06
444.476	548.06
444.698	501.06
444.919	493.06
445.14	605.06
445.361	562.06
445.582	547.06
445.803	633.06
446.024	715.06
446.245	730.06
446.466	647.06
446.687	569.06
446.908	539.06
447.129	487.06
447.35	494.06
447.571	487.06
447.792	495.06
448.013	472.06
448.234	492.06
448.455	541.06
448.675	665.06
448.896	758.06
449.117	664.06
449.338	594.06
449.559	728.06
449.779	763.06
450	635.06
450.221	551.06
450.442	487.06
450.662	472.06
450.883	471.06
451.104	504.06
451.324	504.06
451.545	461.06
451.766	448.06
451.986	427.06
452.207	415.06
452.428	427.06
452.648	424.06
452.869	431.06
453.089	441.06
453.31	457.06
453.53	453.06
453.751	431.06
453.971	425.06
454.192	463.06
454.412	456.06
454.633	420.06
454.853	422.06
455.073	431.06
455.294	443.06
455.514	532.06
455.734	518.06
455.955	427.06
456.175	398.06
456.395	391.06
456.616	391.06
456.836	389.06
457.056	370.06
457.276	378.06
457.497	374.06
457.717	391.06
457.937	391.06
458.157	424.06
458.377	423.06
458.598	420.06
458.818	499.06
459.038	588.06
459.258	589.06
459.478	498.06
459.698	469.06
459.918	442.06
460.138	433.06
460.358	441.06
460.578	427.06
460.798	442.06
461.018	448.06
461.238	420.06
461.458	438.06
461.678	433.06
461.898	432.06
462.118	433.06
462.338	445.06
462.558	454.06
462.777	457.06
462.997	436.06
463.217	445.06
463.437	438.06
463.657	434.06
463.876	451.06
464.096	448.06
464.316	456.06
464.536	455.06
464.755	433.06
464.975	479.06
465.195	513.06
465.414	611.06
465.634	515.06
465.854	459.06
466.073	451.06
466.293	429.06
466.512	424.06
466.732	432.06
466.951	424.06
467.171	405.06
467.391	451.06
467.61	441.06
467.829	454.06
468.049	448.06
468.268	438.06
468.488	429.06
468.707	419.06
468.927	415.06
469.146	415.06
469.365	399.06
469.585	410.06
469.804	427.06
470.023	453.06
470.243	411.06
470.462	438.06
470.681	479.06
470.901	450.06
471.12	439.06
471.339	420.06
471.558	440.06
471.777	425.06
471.997	456.06
472.216	431.06
472.435	479.06
472.654	464.06
472.873	447.06
473.092	444.06
473.311	442.06
473.53	425.06
473.749	438.06
473.968	474.06
474.187	592.06
474.406	638.06
474.625	520.06
474.844	473.06
475.063	424.06
475.282	420.06
475.501	453.06
475.72	443.06
475.939	435.06
476.158	431.06
476.377	431.06
476.596	435.06
476.814	461.06
477.033	445.06
477.252	444.06
477.471	456.06
477.69	460.06
477.908	449.06
478.127	437.06
478.346	482.06
478.564	468.06
478.783	458.06
479.002	483.06
479.22	484.06
479.439	502.06
479.658	523.06
479.876	518.06
480.095	510.06
480.313	541.06
480.532	536.06
480.751	544.06
480.969	537.06
481.188	594.06
481.406	626.06
481.624	569.06
481.843	537.06
482.061	525.06
482.28	525.06
482.498	509.06
482.717	517.06
482.935	515.06
483.153	504.06
483.372	511.06
483.59	517.06
483.808	506.06
484.027	496.06
484.245	502.06
484.463	516.06
484.681	528.06
484.9	495.06
485.118	520.06
485.336	509.06
485.554	525.06
485.772	519.06
485.99	537.06
486.209	519.06
486.427	553.06
486.645	538.06
486.863	543.06
487.081	538.06
487.299	559.06
487.517	557.06
487.735	568.06
487.953	556.06
488.171	560.06
488.389	563.06
488.607	560.06
488.825	557.06
489.043	552.06
489.261	556.06
489.479	553.06
489.696	559.06
489.914	565.06
490.132	565.06
490.35	582.06
490.568	571.06
490.786	583.06
491.003	591.06
491.221	594.06
491.439	639.06
491.657	613.06
491.874	632.06
492.092	650.06
492.31	655.06
492.527	652.06
492.745	660.06
492.963	647.06
493.18	650.06
493.398	669.06
493.615	631.06
493.833	665.06
494.05	660.06
494.268	641.06
494.485	661.06
494.703	652.06
494.92	648.06
495.138	671.06
495.355	652.06
495.573	660.06
495.79	664.06
496.008	644.06
496.225	642.06
496.442	683.06
496.66	695.06
496.877	679.06
497.094	674.06
497.312	659.06
497.529	640.06
497.746	669.06
497.963	696.06
498.181	697.06
498.398	712.06
498.615	693.06
498.832	716.06
499.049	735.06
499.267	743.06
499.484	697.06
499.701	736.06
499.918	745.06
500.135	756.06
500.352	815.06
500.569	831.06
500.786	808.06
501.003	804.06
501.22	789.06
501.437	763.06
501.654	791.06
501.871	781.06
502.088	780.06
502.305	732.06
502.522	710.06
502.739	724.06
502.956	705.06
503.172	688.06
503.389	674.06
503.606	672.06
503.823	687.06
504.04	695.06
504.256	666.06
504.473	643.06
504.69	663.06
504.907	653.06
505.123	645.06
505.34	618.06
505.557	633.06
505.773	641.06
505.99	636.06
506.207	645.06
506.423	623.06
506.64	633.06
506.856	604.06
507.073	629.06
507.289	637.06
507.506	617.06
507.722	636.06
507.939	681.06
508.155	655.06
508.372	612.06
508.588	626.06
508.805	610.06
509.021	641.06
509.238	637.06
509.454	633.06
509.67	618.06
509.887	611.06
510.103	617.06
510.319	630.06
510.536	737.06
510.752	1276.06
510.968	1023.06
511.184	648.06
511.401	606.06
511.617	619.06
511.833	603.06
512.049	600.06
512.265	563.06
512.481	583.06
512.698	572.06
512.914	583.06
513.13	582.06
513.346	579.06
513.562	562.06
513.778	563.06
513.994	584.06
514.21	600.06
514.426	633.06
514.642	691.06
514.858	693.06
515.074	768.06
515.29	947.06
515.506	1435.06
515.721	1168.06
515.937	738.06
516.153	690.06
516.369	628.06
516.585	628.06
516.801	594.06
517.016	601.06
517.232	581.06
517.448	587.06
517.664	587.06
517.879	595.06
518.095	565.06
518.311	593.06
518.527	572.06
518.742	571.06
518.958	564.06
519.173	582.06
519.389	564.06
519.605	565.06
519.82	591.06
520.036	596.06
520.251	653.06
520.467	641.06
520.682	665.06
520.898	685.06
521.113	684.06
521.329	725.06
521.544	875.06
521.76	1101.06
521.975	1921.06
522.19	1827.06
522.406	979.06
522.621	711.06
522.836	617.06
523.052	590.06
523.267	587.06
523.482	553.06
523.698	550.06
523.913	571.06
524.128	541.06
524.343	507.06
524.559	505.06
524.774	507.06
524.989	501.06
525.204	519.06
525.419	518.06
525.634	496.06
525.849	503.06
526.064	478.06
526.28	469.06
526.495	468.06
526.71	467.06
526.925	473.06
527.14	476.06
527.355	473.06
527.57	463.06
527.785	461.06
527.999	446.06
528.214	467.06
528.429	451.06
528.644	474.06
528.859	472.06
529.074	481.06
529.289	479.06
529.503	593.06
529.718	579.06
529.933	515.06
530.148	488.06
530.363	487.06
530.577	472.06
530.792	473.06
531.007	466.06
531.221	461.06
531.436	474.06
531.651	457.06
531.865	453.06
532.08	451.06
532.295	445.06
532.509	425.06
532.724	424.06
532.938	452.06
533.153	445.06
533.367	451.06
533.582	428.06
533.796	434.06
534.011	422.06
534.225	413.06
534.44	453.06
534.654	416.06
534.868	435.06
535.083	421.06
535.297	431.06
535.511	449.06
535.726	452.06
535.94	440.06
536.154	435.06
536.369	433.06
536.583	406.06
536.797	433.06
537.011	431.06
537.225	423.06
537.44	425.06
537.654	408.06
537.868	425.06
538.082	419.06
538.296	417.06
538.51	422.06
538.724	424.06
538.938	422.06
539.153	419.06
539.367	470.06
539.581	439.06
539.795	442.06
540.009	414.06
540.222	409.06
540.436	421.06
540.65	422.06
540.864	433.06
541.078	441.06
541.292	462.06
541.506	431.06
541.72	430.06
541.934	432.06
542.147	421.06
542.361	427.06
542.575	399.06
542.789	421.06
543.002	433.06
543.216	427.06
543.43	430.06
543.644	420.06
543.857	420.06
544.071	426.06
544.285	427.06
544.498	409.06
544.712	410.06
544.925	424.06
545.139	412.06
545.352	404.06
545.566	395.06
545.779	407.06
545.993	409.06
546.206	416.06
546.42	399.06
546.633	441.06
546.847	398.06
547.06	405.06
547.274	409.06
547.487	395.06
547.7	390.06
547.914	413.06
548.127	416.06
548.34	396.06
548.554	411.06
548.767	397.06
548.98	387.06
549.193	382.06
549.407	385.06
549.62	399.06
549.833	392.06
550.046	395.06
550.259	373.06
550.473	385.06
550.686	398.06
550.899	385.06
551.112	386.06
551.325	373.06
551.538	381.06
551.751	376.06
551.964	378.06
552.177	379.06
552.39	385.06
552.603	381.06
552.816	386.06
553.029	389.06
553.242	401.06
553.455	391.06
553.667	405.06
553.88	412.06
554.093	413.06
554.306	383.06
554.519	398.06
554.732	373.06
554.944	377.06
555.157	378.06
555.37	370.06
555.583	368.06
555.795	376.06
556.008	362.06
556.221	389.06
556.433	376.06
556.646	358.06
556.859	367.06
557.071	361.06
557.284	352.06
557.496	370.06
557.709	352.06
557.921	359.06
558.134	371.06
558.346	369.06
558.559	353.06
558.771	343.06
558.984	351.06
559.196	351.06
559.409	363.06
559.621	339.06
559.833	367.06
560.046	356.06
560.258	352.06
560.47	363.06
560.683	351.06
560.895	348.06
561.107	348.06
561.32	355.06
561.532	354.06
561.744	372.06
561.956	368.06
562.168	348.06
562.381	356.06
562.593	360.06
562.805	367.06
563.017	367.06
563.229	368.06
563.441	347.06
563.653	349.06
563.865	347.06
564.077	357.06
564.289	356.06
564.501	349.06
564.713	375.06
564.925	359.06
565.137	365.06
565.349	364.06
565.561	374.06
565.773	377.06
565.985	383.06
566.197	380.06
566.408	406.06
566.62	389.06
566.832	387.06
567.044	404.06
567.255	399.06
567.467	383.06
567.679	409.06
567.891	391.06
568.102	408.06
568.314	412.06
568.526	394.06
568.737	380.06
568.949	349.06
569.161	370.06
569.372	351.06
569.584	337.06
569.795	365.06
570.007	344.06
570.218	402.06
570.43	394.06
570.641	354.06
570.853	375.06
571.064	355.06
571.276	337.06
571.487	334.06
571.698	352.06
571.91	318.06
572.121	341.06
572.333	335.06
572.544	321.06
572.755	332.06
572.966	303.06
573.178	330.06
573.389	309.06
573.6	316.06
573.811	313.06
574.023	313.06
574.234	317.06
574.445	311.06
574.656	290.06
574.867	315.06
575.078	300.06
575.289	314.06
575.501	299.06
575.712	321.06
575.923	298.06
576.134	273.06
576.345	323.06
576.556	313.06
576.767	311.06
576.978	312.06
577.188	320.06
577.399	305.06
577.61	312.06
577.821	300.06
578.032	297.06
578.243	374.06
578.454	609.06
578.665	439.06
578.875	332.06
579.086	303.06
579.297	285.06
579.508	287.06
579.718	271.06
579.929	294.06
580.14	297.06
580.35	303.06
580.561	290.06
580.772	299.06
580.982	282.06
581.193	275.06
581.403	295.06
581.614	292.06
581.825	300.06
582.035	279.06
582.246	259.06
582.456	307.06
582.667	280.06
582.877	285.06
583.087	287.06
583.298	278.06
583.508	265.06
583.719	298.06
583.929	293.06
584.139	279.06
584.35	288.06
584.56	267.06
584.77	280.06
584.981	281.06
585.191	273.06
585.401	284.06
585.611	279.06
585.821	279.06
586.032	301.06
586.242	274.06
586.452	268.06
586.662	265.06
586.872	280.06
587.082	248.06
587.292	273.06
587.502	268.06
587.713	262.06
587.923	270.06
588.133	267.06
588.343	273.06
588.553	257.06
588.762	282.06
588.972	280.06
589.182	287.06
589.392	285.06
589.602	250.06
589.812	265.06
590.022	258.06
590.232	261.06
590.441	258.06
590.651	272.06
590.861	282.06
591.071	247.06
591.281	244.06
591.49	287.06
591.7	268.06
591.91	285.06
592.119	261.06
592.329	272.06
592.539	289.06
592.748	287.06
592.958	263.06
593.167	266.06
593.377	273.06
593.587	283.06
593.796	300.06
594.006	283.06
594.215	268.06
594.424	258.06
594.634	266.06
594.843	255.06
595.053	261.06
595.262	244.06
595.472	279.06
595.681	255.06
595.89	268.06
596.1	260.06
596.309	259.06
596.518	247.06
596.727	261.06
596.937	256.06
597.146	236.06
597.355	259.06
597.564	267.06
597.774	256.06
597.983	255.06
598.192	248.06
598.401	251.06
598.61	249.06
598.819	238.06
599.028	253.06
599.237	245.06
599.446	224.06
599.655	242.06
599.864	243.06
600.073	249.06
600.282	239.06
600.491	235.06
600.7	236.06
600.909	229.06
601.118	222.06
601.327	233.06
601.536	229.06
601.745	217.06
601.953	233.06
602.162	216.06
602.371	227.06
602.58	223.06
602.789	239.06
602.997	245.06
603.206	248.06
603.415	238.06
603.623	226.06
603.832	214.06
604.041	219.06
604.249	235.06
604.458	241.06
604.666	224.06
604.875	221.06
605.084	227.06
605.292	225.06
605.501	231.06
605.709	230.06
605.918	233.06
606.126	239.06
606.334	225.06
606.543	229.06
606.751	241.06
606.96	228.06
607.168	212.06
607.376	198.06
607.585	225.06
607.793	222.06
608.001	217.06
608.21	220.06
608.418	214.06
608.626	216.06
608.834	235.06
609.043	233.06
609.251	216.06
609.459	227.06
609.667	233.06
609.875	232.06
610.083	217.06
610.291	225.06
610.499	231.06
610.707	213.06
610.916	207.06
611.124	225.06
611.332	247.06
611.54	213.06
611.748	225.06
611.955	229.06
612.163	229.06
612.371	223.06
612.579	203.06
612.787	223.06
612.995	211.06
613.203	212.06
613.411	215.06
613.618	223.06
613.826	219.06
614.034	210.06
614.242	212.06
614.449	222.06
614.657	208.06
614.865	220.06
615.072	223.06
615.28	216.06
615.488	211.06
615.695	223.06
615.903	208.06
616.111	215.06
616.318	220.06
616.526	225.06
616.733	219.06
616.941	203.06
617.148	214.06
617.356	203.06
617.563	223.06
617.771	203.06
617.978	206.06
618.185	204.06
618.393	208.06
618.6	226.06
618.807	209.06
619.015	221.06
619.222	210.06
619.429	222.06
619.637	217.06
619.844	208.06
620.051	185.06
620.258	213.06
620.466	209.06
620.673	200.06
620.88	196.06
621.087	205.06
621.294	214.06
621.501	193.06
621.708	195.06
621.915	198.06
622.122	188.06
622.329	209.06
622.536	212.06
622.743	210.06
622.95	195.06
623.157	205.06
623.364	205.06
623.571	202.06
623.778	211.06
623.985	183.06
624.192	207.06
624.399	201.06
624.606	199.06
624.812	204.06
625.019	220.06
625.226	195.06
625.433	184.06
625.639	193.06
625.846	183.06
626.053	198.06
626.259	198.06
626.466	176.06
626.673	193.06
626.879	203.06
627.086	188.06
627.293	197.06
627.499	189.06
627.706	184.06
627.912	186.06
628.119	201.06
628.325	198.06
628.532	204.06
628.738	191.06
628.945	211.06
629.151	188.06
629.357	188.06
629.564	187.06
629.77	182.06
629.976	194.06
630.183	192.06
630.389	172.06
630.595	172.06
630.802	194.06
631.008	180.06
631.214	184.06
631.42	189.06
631.627	179.06
631.833	185.06
632.039	187.06
632.245	169.06
632.451	181.06
632.657	179.06
632.863	183.06
633.069	165.06
633.275	183.06
633.481	168.06
633.688	167.06
633.893	167.06
634.099	174.06
634.305	175.06
634.511	178.06
634.717	167.06
634.923	159.06
635.129	166.06
635.335	177.06
635.541	171.06
635.747	175.06
635.952	172.06
636.158	166.06
636.364	168.06
636.57	176.06
636.775	170.06
636.981	163.06
637.187	187.06
637.392	166.06
637.598	160.06
637.804	157.06
638.009	179.06
638.215	162.06
638.421	158.06
638.626	162.06
638.832	166.06
639.037	171.06
639.243	163.06
639.448	164.06
639.654	164.06
639.859	165.06
640.065	171.06
640.27	171.06
640.475	168.06
640.681	164.06
640.886	167.06
641.091	176.06
641.297	167.06
641.502	172.06
641.707	172.06
641.913	159.06
642.118	159.06
642.323	145.06
642.528	151.06
642.733	159.06
642.939	158.06
643.144	161.06
643.349	160.06
643.554	154.06
643.759	162.06
643.964	160.06
644.169	145.06
644.374	152.06
644.579	156.06
644.784	153.06
644.989	149.06
645.194	164.06
645.399	163.06
645.604	165.06
645.809	142.06
646.014	158.06
646.219	152.06
646.423	155.06
646.628	154.06
646.833	167.06
647.038	152.06
647.243	149.06
647.447	154.06
647.652	164.06
647.857	149.06
648.062	159.06
648.266	146.06
648.471	155.06
648.676	162.06
648.88	165.06
649.085	177.06
649.289	168.06
649.494	163.06
649.698	186.06
649.903	172.06
650.107	175.06
650.312	151.06
650.516	160.06
650.721	151.06
650.925	156.06
651.13	139.06
651.334	150.06
651.539	138.06
651.743	152.06
651.947	152.06
652.152	145.06
652.356	132.06
652.56	131.06
652.764	124.06
652.969	125.06
653.173	148.06
653.377	142.06
653.581	129.06
653.785	145.06
653.99	123.06
654.194	140.06
654.398	125.06
654.602	133.06
654.806	140.06
655.01	138.06
655.214	132.06
655.418	128.06
655.622	120.06
655.826	123.06
656.03	118.06
656.234	120.06
656.438	123.06
656.642	131.06
656.846	128.06
657.049	122.06
657.253	123.06
657.457	119.06
657.661	122.06
657.865	119.06
658.068	109.06
658.272	111.06
658.476	115.06
658.68	110.06
658.883	105.06
659.087	92.06
659.291	92.06
659.494	103.06
659.698	97.06
659.901	101.06
660.105	88.06
660.309	97.06
660.512	83.06
660.716	87.06
660.919	102.06
661.123	98.06
661.326	101.06
661.53	103.06
661.733	106.06
661.936	98.06
662.14	102.06
662.343	89.06
662.546	83.06
662.75	92.06
662.953	85.06
663.156	91.06
663.36	86.06
663.563	84.06
663.766	71.06
663.969	74.06
664.173	75.06
664.376	83.06
664.579	73.06
664.782	80.06
664.985	70.06
665.188	74.06
665.391	76.06
665.594	84.06
665.797	95.06
666	85.06
666.203	71.06
666.406	88.06
666.609	72.06
666.812	81.06
667.015	92.06
667.218	85.06
667.421	91.06
667.624	66.06
667.827	92.06
668.03	86.06
668.232	69.06
668.435	82.06
668.638	75.06
668.841	93.06
669.043	79.06
669.246	80.06
669.449	86.06
669.651	76.06
669.854	92.06
670.057	85.06
670.259	90.06
670.462	90.06
670.665	87.06
670.867	78.06
671.07	74.06
671.272	98.06
671.475	85.06
671.677	74.06
671.88	77.06
672.082	82.06
672.284	82.06
672.487	84.06
672.689	76.06
672.892	73.06
