Data from 1980.PennyLincolnUp.Lamp.En5.5.200Scan.071819.P1_HRD10591_16-37-33-958.txt Node
Date: Thu Jul 18 16:37:33 EDT 2019
User: cochatt
Spectrometer: HR+D1059
Trigger mode: 1
Integration Time (sec): 1.000000E-1
Scans to average: 1
Electric dark correction enabled: true
Nonlinearity correction enabled: false
Boxcar width: 0
XAxis mode: Wavelengths
Number of Pixels in Spectrum: 2048
>>>>>Begin Spectral Data<<<<<
223.165	-12.94
223.4	-12.94
223.635	-12.94
223.869	-12.94
224.104	-10.94
224.338	-19.94
224.573	-12.94
224.808	-8.94
225.042	-17.94
225.277	-3.94
225.511	2.06
225.746	8.06
225.98	22.06
226.215	-5.94
226.449	7.06
226.683	16.06
226.918	16.06
227.152	35.06
227.387	40.06
227.621	39.06
227.856	40.06
228.09	50.06
228.324	52.06
228.559	61.06
228.793	63.06
229.027	102.06
229.262	102.06
229.496	110.06
229.73	143.06
229.964	166.06
230.199	140.06
230.433	123.06
230.667	127.06
230.901	114.06
231.136	110.06
231.37	100.06
231.604	115.06
231.838	124.06
232.072	129.06
232.306	126.06
232.541	103.06
232.775	116.06
233.009	107.06
233.243	105.06
233.477	126.06
233.711	110.06
233.945	122.06
234.179	110.06
234.413	118.06
234.647	118.06
234.881	123.06
235.115	118.06
235.349	121.06
235.583	123.06
235.817	120.06
236.051	135.06
236.285	132.06
236.519	127.06
236.753	137.06
236.987	155.06
237.221	185.06
237.455	246.06
237.689	206.06
237.922	159.06
238.156	140.06
238.39	143.06
238.624	137.06
238.858	123.06
239.091	121.06
239.325	132.06
239.559	123.06
239.793	130.06
240.027	135.06
240.26	140.06
240.494	160.06
240.728	147.06
240.961	156.06
241.195	143.06
241.429	140.06
241.662	131.06
241.896	134.06
242.13	142.06
242.363	124.06
242.597	130.06
242.83	141.06
243.064	138.06
243.298	150.06
243.531	137.06
243.765	138.06
243.998	126.06
244.232	133.06
244.465	126.06
244.699	142.06
244.932	136.06
245.166	147.06
245.399	134.06
245.633	159.06
245.866	152.06
246.099	153.06
246.333	158.06
246.566	146.06
246.8	157.06
247.033	161.06
247.266	158.06
247.5	155.06
247.733	162.06
247.966	170.06
248.2	167.06
248.433	168.06
248.666	180.06
248.899	194.06
249.133	199.06
249.366	223.06
249.599	201.06
249.832	200.06
250.066	196.06
250.299	192.06
250.532	204.06
250.765	214.06
250.998	228.06
251.231	244.06
251.465	230.06
251.698	200.06
251.931	189.06
252.164	212.06
252.397	176.06
252.63	208.06
252.863	230.06
253.096	222.06
253.329	245.06
253.562	232.06
253.795	242.06
254.028	217.06
254.261	216.06
254.494	230.06
254.727	261.06
254.96	293.06
255.193	299.06
255.426	268.06
255.659	240.06
255.892	244.06
256.124	247.06
256.357	227.06
256.59	228.06
256.823	232.06
257.056	222.06
257.289	219.06
257.521	231.06
257.754	220.06
257.987	223.06
258.22	226.06
258.452	198.06
258.685	212.06
258.918	221.06
259.151	215.06
259.383	231.06
259.616	234.06
259.849	253.06
260.081	228.06
260.314	254.06
260.547	257.06
260.779	240.06
261.012	224.06
261.244	246.06
261.477	231.06
261.71	230.06
261.942	238.06
262.175	223.06
262.407	235.06
262.64	215.06
262.872	212.06
263.105	200.06
263.337	212.06
263.57	214.06
263.802	200.06
264.035	206.06
264.267	208.06
264.499	202.06
264.732	208.06
264.964	226.06
265.197	213.06
265.429	215.06
265.661	213.06
265.894	208.06
266.126	205.06
266.358	208.06
266.591	199.06
266.823	212.06
267.055	212.06
267.287	219.06
267.52	226.06
267.752	203.06
267.984	221.06
268.216	232.06
268.448	229.06
268.681	236.06
268.913	226.06
269.145	267.06
269.377	268.06
269.609	278.06
269.841	278.06
270.073	263.06
270.306	288.06
270.538	325.06
270.77	316.06
271.002	329.06
271.234	309.06
271.466	323.06
271.698	311.06
271.93	339.06
272.162	335.06
272.394	308.06
272.626	310.06
272.858	297.06
273.09	293.06
273.322	278.06
273.553	278.06
273.785	279.06
274.017	273.06
274.249	267.06
274.481	256.06
274.713	260.06
274.945	262.06
275.176	268.06
275.408	252.06
275.64	271.06
275.872	264.06
276.104	262.06
276.335	275.06
276.567	266.06
276.799	274.06
277.031	296.06
277.262	340.06
277.494	315.06
277.726	312.06
277.957	307.06
278.189	280.06
278.421	279.06
278.652	259.06
278.884	262.06
279.115	248.06
279.347	246.06
279.579	253.06
279.81	259.06
280.042	247.06
280.273	254.06
280.505	244.06
280.736	263.06
280.968	259.06
281.199	236.06
281.431	246.06
281.662	243.06
281.894	256.06
282.125	263.06
282.356	262.06
282.588	314.06
282.819	284.06
283.051	258.06
283.282	261.06
283.513	260.06
283.745	271.06
283.976	262.06
284.207	254.06
284.439	272.06
284.67	279.06
284.901	251.06
285.132	245.06
285.364	263.06
285.595	278.06
285.826	276.06
286.057	250.06
286.288	247.06
286.52	279.06
286.751	269.06
286.982	266.06
287.213	264.06
287.444	268.06
287.675	291.06
287.906	277.06
288.138	270.06
288.369	293.06
288.6	282.06
288.831	268.06
289.062	282.06
289.293	285.06
289.524	268.06
289.755	269.06
289.986	281.06
290.217	250.06
290.448	269.06
290.679	273.06
290.91	246.06
291.141	271.06
291.371	269.06
291.602	272.06
291.833	281.06
292.064	252.06
292.295	253.06
292.526	268.06
292.757	270.06
292.987	245.06
293.218	265.06
293.449	275.06
293.68	270.06
293.91	258.06
294.141	246.06
294.372	242.06
294.603	284.06
294.833	262.06
295.064	271.06
295.295	264.06
295.525	265.06
295.756	283.06
295.987	270.06
296.217	310.06
296.448	340.06
296.679	283.06
296.909	270.06
297.14	271.06
297.37	269.06
297.601	287.06
297.831	277.06
298.062	267.06
298.292	273.06
298.523	291.06
298.753	282.06
298.984	284.06
299.214	306.06
299.445	287.06
299.675	283.06
299.905	276.06
300.136	282.06
300.366	287.06
300.597	288.06
300.827	284.06
301.057	288.06
301.288	295.06
301.518	307.06
301.748	278.06
301.979	306.06
302.209	308.06
302.439	290.06
302.669	295.06
302.9	300.06
303.13	300.06
303.36	295.06
303.59	297.06
303.82	318.06
304.051	312.06
304.281	304.06
304.511	280.06
304.741	309.06
304.971	285.06
305.201	297.06
305.431	298.06
305.661	296.06
305.891	294.06
306.121	301.06
306.352	310.06
306.582	310.06
306.812	293.06
307.042	301.06
307.272	295.06
307.502	300.06
307.731	316.06
307.961	312.06
308.191	291.06
308.421	314.06
308.651	314.06
308.881	314.06
309.111	331.06
309.341	316.06
309.571	349.06
309.8	354.06
310.03	326.06
310.26	342.06
310.49	340.06
310.72	373.06
310.949	386.06
311.179	387.06
311.409	381.06
311.639	367.06
311.868	363.06
312.098	363.06
312.328	381.06
312.557	376.06
312.787	386.06
313.017	385.06
313.246	379.06
313.476	342.06
313.706	353.06
313.935	353.06
314.165	383.06
314.394	371.06
314.624	391.06
314.853	377.06
315.083	366.06
315.312	356.06
315.542	362.06
315.771	329.06
316.001	355.06
316.23	352.06
316.46	343.06
316.689	345.06
316.919	371.06
317.148	372.06
317.377	351.06
317.607	361.06
317.836	360.06
318.065	347.06
318.295	362.06
318.524	350.06
318.753	328.06
318.983	349.06
319.212	363.06
319.441	346.06
319.67	381.06
319.9	363.06
320.129	363.06
320.358	379.06
320.587	350.06
320.816	370.06
321.046	372.06
321.275	384.06
321.504	370.06
321.733	380.06
321.962	366.06
322.191	404.06
322.42	422.06
322.649	431.06
322.878	454.06
323.108	455.06
323.337	490.06
323.566	505.06
323.795	546.06
324.024	606.06
324.253	751.06
324.482	1067.06
324.71	1619.06
324.939	2328.06
325.168	2082.06
325.397	1103.06
325.626	736.06
325.855	572.06
326.084	527.06
326.313	522.06
326.542	515.06
326.77	568.06
326.999	662.06
327.228	932.06
327.457	1447.06
327.686	1788.06
327.914	1211.06
328.143	783.06
328.372	702.06
328.6	649.06
328.829	609.06
329.058	616.06
329.287	620.06
329.515	583.06
329.744	528.06
329.972	515.06
330.201	536.06
330.43	595.06
330.658	635.06
330.887	642.06
331.115	611.06
331.344	528.06
331.572	481.06
331.801	491.06
332.03	474.06
332.258	453.06
332.486	432.06
332.715	423.06
332.943	419.06
333.172	406.06
333.4	432.06
333.629	424.06
333.857	444.06
334.085	471.06
334.314	466.06
334.542	517.06
334.771	526.06
334.999	461.06
335.227	463.06
335.455	443.06
335.684	397.06
335.912	405.06
336.14	386.06
336.369	396.06
336.597	409.06
336.825	443.06
337.053	406.06
337.281	399.06
337.51	407.06
337.738	397.06
337.966	410.06
338.194	410.06
338.422	412.06
338.65	406.06
338.878	377.06
339.106	383.06
339.334	382.06
339.562	398.06
339.79	396.06
340.018	398.06
340.246	401.06
340.474	387.06
340.702	373.06
340.93	393.06
341.158	382.06
341.386	392.06
341.614	395.06
341.842	375.06
342.07	402.06
342.298	355.06
342.526	367.06
342.754	371.06
342.981	365.06
343.209	382.06
343.437	380.06
343.665	391.06
343.893	367.06
344.12	382.06
344.348	400.06
344.576	413.06
344.804	402.06
345.031	393.06
345.259	429.06
345.487	416.06
345.714	389.06
345.942	386.06
346.17	387.06
346.397	378.06
346.625	392.06
346.853	383.06
347.08	383.06
347.308	399.06
347.535	392.06
347.763	397.06
347.99	399.06
348.218	383.06
348.445	399.06
348.673	426.06
348.9	398.06
349.128	400.06
349.355	376.06
349.583	370.06
349.81	380.06
350.037	366.06
350.265	375.06
350.492	380.06
350.72	381.06
350.947	411.06
351.174	393.06
351.402	390.06
351.629	392.06
351.856	387.06
352.083	403.06
352.311	410.06
352.538	418.06
352.765	410.06
352.992	411.06
353.22	391.06
353.447	401.06
353.674	374.06
353.901	373.06
354.128	362.06
354.355	372.06
354.583	362.06
354.81	357.06
355.037	339.06
355.264	375.06
355.491	362.06
355.718	358.06
355.945	346.06
356.172	347.06
356.399	336.06
356.626	341.06
356.853	362.06
357.08	350.06
357.307	347.06
357.534	355.06
357.761	336.06
357.988	358.06
358.215	339.06
358.441	356.06
358.668	349.06
358.895	340.06
359.122	357.06
359.349	362.06
359.576	389.06
359.802	406.06
360.029	453.06
360.256	446.06
360.483	409.06
360.709	397.06
360.936	404.06
361.163	380.06
361.39	407.06
361.616	389.06
361.843	376.06
362.07	395.06
362.296	383.06
362.523	385.06
362.749	391.06
362.976	391.06
363.203	374.06
363.429	382.06
363.656	367.06
363.882	367.06
364.109	372.06
364.335	376.06
364.562	363.06
364.788	365.06
365.015	378.06
365.241	370.06
365.468	383.06
365.694	399.06
365.92	380.06
366.147	377.06
366.373	371.06
366.599	359.06
366.826	352.06
367.052	380.06
367.278	365.06
367.505	361.06
367.731	357.06
367.957	349.06
368.184	359.06
368.41	377.06
368.636	382.06
368.862	369.06
369.089	367.06
369.315	372.06
369.541	331.06
369.767	362.06
369.993	342.06
370.219	358.06
370.445	365.06
370.672	349.06
370.898	372.06
371.124	361.06
371.35	347.06
371.576	343.06
371.802	355.06
372.028	332.06
372.254	346.06
372.48	355.06
372.706	355.06
372.932	363.06
373.158	363.06
373.384	351.06
373.61	367.06
373.835	355.06
374.061	351.06
374.287	364.06
374.513	360.06
374.739	352.06
374.965	341.06
375.191	360.06
375.416	349.06
375.642	336.06
375.868	367.06
376.094	347.06
376.319	350.06
376.545	348.06
376.771	348.06
376.997	344.06
377.222	344.06
377.448	349.06
377.674	367.06
377.899	351.06
378.125	356.06
378.35	334.06
378.576	344.06
378.802	350.06
379.027	339.06
379.253	344.06
379.478	355.06
379.704	356.06
379.929	364.06
380.155	337.06
380.38	346.06
380.606	365.06
380.831	358.06
381.057	339.06
381.282	350.06
381.507	359.06
381.733	364.06
381.958	353.06
382.184	355.06
382.409	336.06
382.634	357.06
382.86	347.06
383.085	358.06
383.31	373.06
383.535	351.06
383.761	356.06
383.986	387.06
384.211	349.06
384.436	373.06
384.662	350.06
384.887	377.06
385.112	361.06
385.337	351.06
385.562	375.06
385.787	383.06
386.013	401.06
386.238	379.06
386.463	377.06
386.688	376.06
386.913	354.06
387.138	386.06
387.363	386.06
387.588	367.06
387.813	366.06
388.038	370.06
388.263	374.06
388.488	381.06
388.713	372.06
388.938	380.06
389.163	379.06
389.387	382.06
389.612	357.06
389.837	368.06
390.062	381.06
390.287	359.06
390.512	359.06
390.736	371.06
390.961	355.06
391.186	359.06
391.411	368.06
391.636	365.06
391.86	376.06
392.085	360.06
392.31	356.06
392.534	365.06
392.759	398.06
392.984	378.06
393.208	382.06
393.433	392.06
393.658	354.06
393.882	378.06
394.107	376.06
394.331	373.06
394.556	362.06
394.78	370.06
395.005	356.06
395.229	372.06
395.454	398.06
395.678	386.06
395.903	400.06
396.127	395.06
396.352	413.06
396.576	386.06
396.801	396.06
397.025	380.06
397.249	367.06
397.474	404.06
397.698	388.06
397.922	407.06
398.147	408.06
398.371	417.06
398.595	408.06
398.82	397.06
399.044	410.06
399.268	395.06
399.492	416.06
399.717	454.06
399.941	476.06
400.165	499.06
400.389	516.06
400.613	476.06
400.837	429.06
401.062	423.06
401.286	432.06
401.51	421.06
401.734	415.06
401.958	402.06
402.182	411.06
402.406	420.06
402.63	432.06
402.854	422.06
403.078	424.06
403.302	435.06
403.526	457.06
403.75	450.06
403.974	433.06
404.198	448.06
404.422	437.06
404.645	424.06
404.869	451.06
405.093	486.06
405.317	532.06
405.541	544.06
405.765	510.06
405.988	485.06
406.212	482.06
406.436	498.06
406.66	534.06
406.883	486.06
407.107	508.06
407.331	538.06
407.555	584.06
407.778	596.06
408.002	542.06
408.226	483.06
408.449	493.06
408.673	480.06
408.896	512.06
409.12	549.06
409.344	530.06
409.567	470.06
409.791	448.06
410.014	460.06
410.238	439.06
410.461	444.06
410.685	451.06
410.908	462.06
411.132	517.06
411.355	526.06
411.578	510.06
411.802	465.06
412.025	437.06
412.249	462.06
412.472	477.06
412.695	539.06
412.919	507.06
413.142	467.06
413.365	439.06
413.589	424.06
413.812	427.06
414.035	406.06
414.258	425.06
414.482	411.06
414.705	411.06
414.928	410.06
415.151	415.06
415.374	406.06
415.597	414.06
415.821	416.06
416.044	416.06
416.267	444.06
416.49	424.06
416.713	416.06
416.936	420.06
417.159	421.06
417.382	402.06
417.605	410.06
417.828	445.06
418.051	432.06
418.274	454.06
418.497	426.06
418.72	420.06
418.943	430.06
419.166	427.06
419.389	445.06
419.611	446.06
419.834	452.06
420.057	452.06
420.28	466.06
420.503	440.06
420.726	461.06
420.948	455.06
421.171	511.06
421.394	538.06
421.617	486.06
421.839	437.06
422.062	450.06
422.285	446.06
422.507	516.06
422.73	591.06
422.953	579.06
423.175	516.06
423.398	489.06
423.621	457.06
423.843	504.06
424.066	482.06
424.288	485.06
424.511	519.06
424.733	581.06
424.956	631.06
425.178	630.06
425.401	629.06
425.623	639.06
425.846	523.06
426.068	504.06
426.291	493.06
426.513	515.06
426.735	517.06
426.958	567.06
427.18	618.06
427.402	759.06
427.625	838.06
427.847	754.06
428.069	634.06
428.292	553.06
428.514	528.06
428.736	500.06
428.958	500.06
429.181	459.06
429.403	460.06
429.625	477.06
429.847	514.06
430.069	559.06
430.292	575.06
430.514	480.06
430.736	447.06
430.958	436.06
431.18	427.06
431.402	424.06
431.624	425.06
431.846	432.06
432.068	422.06
432.29	428.06
432.512	443.06
432.734	455.06
432.956	454.06
433.178	472.06
433.4	455.06
433.622	455.06
433.844	443.06
434.066	442.06
434.287	434.06
434.509	434.06
434.731	438.06
434.953	425.06
435.175	466.06
435.397	488.06
435.618	486.06
435.84	551.06
436.062	637.06
436.284	720.06
436.505	570.06
436.727	541.06
436.949	489.06
437.17	476.06
437.392	466.06
437.614	487.06
437.835	525.06
438.057	626.06
438.278	717.06
438.5	711.06
438.721	756.06
438.943	734.06
439.165	606.06
439.386	546.06
439.608	563.06
439.829	521.06
440.05	554.06
440.272	612.06
440.493	555.06
440.715	522.06
440.936	483.06
441.158	473.06
441.379	497.06
441.6	485.06
441.822	503.06
442.043	556.06
442.264	618.06
442.486	663.06
442.707	579.06
442.928	520.06
443.149	518.06
443.371	563.06
443.592	587.06
443.813	679.06
444.034	727.06
444.255	621.06
444.476	537.06
444.698	516.06
444.919	504.06
445.14	643.06
445.361	576.06
445.582	558.06
445.803	613.06
446.024	734.06
446.245	730.06
446.466	661.06
446.687	555.06
446.908	542.06
447.129	483.06
447.35	478.06
447.571	491.06
447.792	462.06
448.013	464.06
448.234	498.06
448.455	551.06
448.675	682.06
448.896	761.06
449.117	639.06
449.338	617.06
449.559	712.06
449.779	788.06
450	628.06
450.221	532.06
450.442	484.06
450.662	470.06
450.883	473.06
451.104	498.06
451.324	495.06
451.545	458.06
451.766	428.06
451.986	431.06
452.207	416.06
452.428	422.06
452.648	437.06
452.869	431.06
453.089	428.06
453.31	460.06
453.53	441.06
453.751	411.06
453.971	422.06
454.192	455.06
454.412	447.06
454.633	428.06
454.853	426.06
455.073	422.06
455.294	446.06
455.514	521.06
455.734	493.06
455.955	405.06
456.175	410.06
456.395	398.06
456.616	380.06
456.836	400.06
457.056	393.06
457.276	374.06
457.497	395.06
457.717	398.06
457.937	408.06
458.157	411.06
458.377	409.06
458.598	436.06
458.818	510.06
459.038	588.06
459.258	608.06
459.478	507.06
459.698	450.06
459.918	422.06
460.138	434.06
460.358	424.06
460.578	426.06
460.798	431.06
461.018	439.06
461.238	411.06
461.458	418.06
461.678	414.06
461.898	418.06
462.118	424.06
462.338	420.06
462.558	425.06
462.777	424.06
462.997	421.06
463.217	447.06
463.437	442.06
463.657	432.06
463.876	450.06
464.096	432.06
464.316	444.06
464.536	454.06
464.755	458.06
464.975	466.06
465.195	517.06
465.414	633.06
465.634	519.06
465.854	511.06
466.073	452.06
466.293	431.06
466.512	428.06
466.732	413.06
466.951	410.06
467.171	421.06
467.391	437.06
467.61	436.06
467.829	459.06
468.049	440.06
468.268	447.06
468.488	438.06
468.707	412.06
468.927	392.06
469.146	390.06
469.365	405.06
469.585	398.06
469.804	422.06
470.023	441.06
470.243	439.06
470.462	463.06
470.681	451.06
470.901	450.06
471.12	428.06
471.339	404.06
471.558	436.06
471.777	403.06
471.997	446.06
472.216	442.06
472.435	471.06
472.654	469.06
472.873	434.06
473.092	435.06
473.311	442.06
473.53	418.06
473.749	429.06
473.968	464.06
474.187	574.06
474.406	628.06
474.625	528.06
474.844	467.06
475.063	448.06
475.282	450.06
475.501	428.06
475.72	422.06
475.939	442.06
476.158	440.06
476.377	455.06
476.596	451.06
476.814	456.06
477.033	459.06
477.252	448.06
477.471	447.06
477.69	467.06
477.908	461.06
478.127	453.06
478.346	473.06
478.564	478.06
478.783	463.06
479.002	464.06
479.22	487.06
479.439	513.06
479.658	511.06
479.876	502.06
480.095	517.06
480.313	528.06
480.532	542.06
480.751	531.06
480.969	539.06
481.188	602.06
481.406	628.06
481.624	588.06
481.843	534.06
482.061	532.06
482.28	526.06
482.498	519.06
482.717	512.06
482.935	522.06
483.153	512.06
483.372	505.06
483.59	516.06
483.808	490.06
484.027	492.06
484.245	512.06
484.463	486.06
484.681	514.06
484.9	524.06
485.118	519.06
485.336	511.06
485.554	525.06
485.772	535.06
485.99	527.06
486.209	511.06
486.427	523.06
486.645	548.06
486.863	559.06
487.081	566.06
487.299	555.06
487.517	559.06
487.735	524.06
487.953	558.06
488.171	551.06
488.389	575.06
488.607	542.06
488.825	567.06
489.043	556.06
489.261	570.06
489.479	566.06
489.696	586.06
489.914	575.06
490.132	556.06
490.35	598.06
490.568	589.06
490.786	592.06
491.003	602.06
491.221	594.06
491.439	628.06
491.657	619.06
491.874	646.06
492.092	639.06
492.31	667.06
492.527	625.06
492.745	643.06
492.963	642.06
493.18	635.06
493.398	664.06
493.615	687.06
493.833	663.06
494.05	657.06
494.268	680.06
494.485	651.06
494.703	658.06
494.92	672.06
495.138	653.06
495.355	688.06
495.573	682.06
495.79	644.06
496.008	662.06
496.225	649.06
496.442	676.06
496.66	667.06
496.877	656.06
497.094	651.06
497.312	678.06
497.529	655.06
497.746	655.06
497.963	668.06
498.181	690.06
498.398	714.06
498.615	703.06
498.832	708.06
499.049	712.06
499.267	705.06
499.484	740.06
499.701	723.06
499.918	738.06
500.135	767.06
500.352	806.06
500.569	791.06
500.786	797.06
501.003	790.06
501.22	788.06
501.437	796.06
501.654	765.06
501.871	784.06
502.088	770.06
502.305	749.06
502.522	702.06
502.739	708.06
502.956	708.06
503.172	647.06
503.389	675.06
503.606	694.06
503.823	672.06
504.04	673.06
504.256	656.06
504.473	642.06
504.69	653.06
504.907	645.06
505.123	640.06
505.34	662.06
505.557	644.06
505.773	640.06
505.99	652.06
506.207	622.06
506.423	642.06
506.64	638.06
506.856	632.06
507.073	637.06
507.289	623.06
507.506	638.06
507.722	648.06
507.939	669.06
508.155	632.06
508.372	626.06
508.588	607.06
508.805	616.06
509.021	612.06
509.238	618.06
509.454	645.06
509.67	646.06
509.887	636.06
510.103	638.06
510.319	649.06
510.536	756.06
510.752	1296.06
510.968	1038.06
511.184	669.06
511.401	619.06
511.617	619.06
511.833	623.06
512.049	583.06
512.265	574.06
512.481	571.06
512.698	568.06
512.914	599.06
513.13	603.06
513.346	609.06
513.562	594.06
513.778	574.06
513.994	601.06
514.21	630.06
514.426	637.06
514.642	707.06
514.858	711.06
515.074	796.06
515.29	943.06
515.506	1494.06
515.721	1178.06
515.937	778.06
516.153	696.06
516.369	629.06
516.585	616.06
516.801	600.06
517.016	600.06
517.232	608.06
517.448	601.06
517.664	601.06
517.879	582.06
518.095	589.06
518.311	599.06
518.527	580.06
518.742	605.06
518.958	574.06
519.173	564.06
519.389	587.06
519.605	596.06
519.82	570.06
520.036	593.06
520.251	642.06
520.467	674.06
520.682	684.06
520.898	687.06
521.113	703.06
521.329	779.06
521.544	924.06
521.76	1154.06
521.975	2021.06
522.19	1978.06
522.406	1016.06
522.621	761.06
522.836	662.06
523.052	599.06
523.267	584.06
523.482	575.06
523.698	547.06
523.913	549.06
524.128	536.06
524.343	517.06
524.559	536.06
524.774	538.06
524.989	518.06
525.204	520.06
525.419	550.06
525.634	516.06
525.849	488.06
526.064	489.06
526.28	480.06
526.495	478.06
526.71	471.06
526.925	476.06
527.14	453.06
527.355	474.06
527.57	452.06
527.785	456.06
527.999	469.06
528.214	463.06
528.429	464.06
528.644	460.06
528.859	475.06
529.074	471.06
529.289	498.06
529.503	592.06
529.718	590.06
529.933	511.06
530.148	504.06
530.363	485.06
530.577	469.06
530.792	452.06
531.007	445.06
531.221	474.06
531.436	443.06
531.651	460.06
531.865	472.06
532.08	426.06
532.295	432.06
532.509	453.06
532.724	442.06
532.938	438.06
533.153	442.06
533.367	438.06
533.582	440.06
533.796	437.06
534.011	448.06
534.225	422.06
534.44	458.06
534.654	411.06
534.868	409.06
535.083	438.06
535.297	428.06
535.511	447.06
535.726	445.06
535.94	443.06
536.154	464.06
536.369	451.06
536.583	431.06
536.797	423.06
537.011	431.06
537.225	418.06
537.44	435.06
537.654	423.06
537.868	427.06
538.082	435.06
538.296	409.06
538.51	427.06
538.724	431.06
538.938	425.06
539.153	423.06
539.367	446.06
539.581	436.06
539.795	428.06
540.009	444.06
540.222	427.06
540.436	439.06
540.65	425.06
540.864	431.06
541.078	449.06
541.292	426.06
541.506	443.06
541.72	422.06
541.934	417.06
542.147	410.06
542.361	418.06
542.575	422.06
542.789	425.06
543.002	418.06
543.216	406.06
543.43	441.06
543.644	448.06
543.857	422.06
544.071	415.06
544.285	432.06
544.498	415.06
544.712	403.06
544.925	414.06
545.139	408.06
545.352	392.06
545.566	397.06
545.779	408.06
545.993	421.06
546.206	407.06
546.42	413.06
546.633	405.06
546.847	394.06
547.06	403.06
547.274	387.06
547.487	401.06
547.7	390.06
547.914	388.06
548.127	396.06
548.34	395.06
548.554	394.06
548.767	388.06
548.98	383.06
549.193	387.06
549.407	393.06
549.62	393.06
549.833	397.06
550.046	383.06
550.259	363.06
550.473	386.06
550.686	363.06
550.899	392.06
551.112	390.06
551.325	394.06
551.538	379.06
551.751	384.06
551.964	361.06
552.177	372.06
552.39	383.06
552.603	404.06
552.816	386.06
553.029	368.06
553.242	380.06
553.455	392.06
553.667	416.06
553.88	416.06
554.093	402.06
554.306	413.06
554.519	404.06
554.732	392.06
554.944	376.06
555.157	387.06
555.37	386.06
555.583	380.06
555.795	357.06
556.008	363.06
556.221	343.06
556.433	356.06
556.646	373.06
556.859	362.06
557.071	367.06
557.284	377.06
557.496	356.06
557.709	358.06
557.921	358.06
558.134	353.06
558.346	345.06
558.559	362.06
558.771	365.06
558.984	372.06
559.196	343.06
559.409	342.06
559.621	349.06
559.833	358.06
560.046	345.06
560.258	347.06
560.47	354.06
560.683	351.06
560.895	326.06
561.107	358.06
561.32	354.06
561.532	360.06
561.744	334.06
561.956	334.06
562.168	362.06
562.381	353.06
562.593	352.06
562.805	335.06
563.017	347.06
563.229	343.06
563.441	352.06
563.653	358.06
563.865	345.06
564.077	344.06
564.289	358.06
564.501	361.06
564.713	359.06
564.925	349.06
565.137	378.06
565.349	376.06
565.561	382.06
565.773	353.06
565.985	378.06
566.197	380.06
566.408	364.06
566.62	367.06
566.832	392.06
567.044	398.06
567.255	420.06
567.467	396.06
567.679	388.06
567.891	397.06
568.102	396.06
568.314	401.06
568.526	409.06
568.737	379.06
568.949	351.06
569.161	379.06
569.372	354.06
569.584	332.06
569.795	345.06
570.007	370.06
570.218	400.06
570.43	419.06
570.641	344.06
570.853	334.06
571.064	348.06
571.276	333.06
571.487	347.06
571.698	344.06
571.91	339.06
572.121	331.06
572.333	321.06
572.544	322.06
572.755	317.06
572.966	319.06
573.178	310.06
573.389	314.06
573.6	313.06
573.811	312.06
574.023	314.06
574.234	301.06
574.445	309.06
574.656	324.06
574.867	318.06
575.078	321.06
575.289	307.06
575.501	301.06
575.712	298.06
575.923	304.06
576.134	297.06
576.345	286.06
576.556	296.06
576.767	308.06
576.978	300.06
577.188	278.06
577.399	296.06
577.61	315.06
577.821	286.06
578.032	313.06
578.243	348.06
578.454	602.06
578.665	446.06
578.875	317.06
579.086	300.06
579.297	282.06
579.508	308.06
579.718	310.06
579.929	293.06
580.14	284.06
580.35	294.06
580.561	283.06
580.772	283.06
580.982	273.06
581.193	269.06
581.403	270.06
581.614	298.06
581.825	284.06
582.035	273.06
582.246	274.06
582.456	269.06
582.667	262.06
582.877	259.06
583.087	275.06
583.298	282.06
583.508	271.06
583.719	268.06
583.929	306.06
584.139	283.06
584.35	268.06
584.56	276.06
584.77	287.06
584.981	267.06
585.191	282.06
585.401	274.06
585.611	270.06
585.821	273.06
586.032	284.06
586.242	296.06
586.452	289.06
586.662	290.06
586.872	250.06
587.082	281.06
587.292	262.06
587.502	258.06
587.713	276.06
587.923	292.06
588.133	290.06
588.343	263.06
588.553	284.06
588.762	269.06
588.972	295.06
589.182	270.06
589.392	279.06
589.602	266.06
589.812	280.06
590.022	275.06
590.232	271.06
590.441	268.06
590.651	258.06
590.861	266.06
591.071	261.06
591.281	266.06
591.49	264.06
591.7	267.06
591.91	272.06
592.119	272.06
592.329	270.06
592.539	274.06
592.748	263.06
592.958	276.06
593.167	274.06
593.377	269.06
593.587	278.06
593.796	275.06
594.006	254.06
594.215	272.06
594.424	253.06
594.634	268.06
594.843	269.06
595.053	275.06
595.262	269.06
595.472	278.06
595.681	262.06
595.89	261.06
596.1	260.06
596.309	260.06
596.518	241.06
596.727	256.06
596.937	263.06
597.146	258.06
597.355	266.06
597.564	258.06
597.774	259.06
597.983	226.06
598.192	238.06
598.401	238.06
598.61	224.06
598.819	264.06
599.028	236.06
599.237	246.06
599.446	239.06
599.655	251.06
599.864	225.06
600.073	249.06
600.282	235.06
600.491	238.06
600.7	225.06
600.909	235.06
601.118	262.06
601.327	238.06
601.536	228.06
601.745	232.06
601.953	234.06
602.162	229.06
602.371	221.06
602.58	239.06
602.789	246.06
602.997	243.06
603.206	227.06
603.415	234.06
603.623	219.06
603.832	246.06
604.041	214.06
604.249	231.06
604.458	227.06
604.666	226.06
604.875	220.06
605.084	229.06
605.292	224.06
605.501	242.06
605.709	237.06
605.918	222.06
606.126	248.06
606.334	226.06
606.543	230.06
606.751	233.06
606.96	245.06
607.168	220.06
607.376	214.06
607.585	234.06
607.793	210.06
608.001	233.06
608.21	227.06
608.418	235.06
608.626	221.06
608.834	238.06
609.043	214.06
609.251	220.06
609.459	231.06
609.667	229.06
609.875	220.06
610.083	243.06
610.291	226.06
610.499	222.06
610.707	220.06
610.916	244.06
611.124	243.06
611.332	214.06
611.54	226.06
611.748	231.06
611.955	239.06
612.163	221.06
612.371	219.06
612.579	220.06
612.787	219.06
612.995	218.06
613.203	212.06
613.411	202.06
613.618	214.06
613.826	220.06
614.034	221.06
614.242	216.06
614.449	220.06
614.657	218.06
614.865	199.06
615.072	207.06
615.28	224.06
615.488	223.06
615.695	213.06
615.903	211.06
616.111	202.06
616.318	232.06
616.526	224.06
616.733	236.06
616.941	227.06
617.148	221.06
617.356	213.06
617.563	223.06
617.771	215.06
617.978	227.06
618.185	216.06
618.393	221.06
618.6	220.06
618.807	214.06
619.015	213.06
619.222	200.06
619.429	194.06
619.637	199.06
619.844	222.06
620.051	223.06
620.258	206.06
620.466	195.06
620.673	207.06
620.88	207.06
621.087	218.06
621.294	189.06
621.501	209.06
621.708	200.06
621.915	206.06
622.122	230.06
622.329	201.06
622.536	211.06
622.743	202.06
622.95	198.06
623.157	206.06
623.364	224.06
623.571	206.06
623.778	210.06
623.985	211.06
624.192	195.06
624.399	204.06
624.606	213.06
624.812	206.06
625.019	213.06
625.226	216.06
625.433	207.06
625.639	199.06
625.846	190.06
626.053	193.06
626.259	188.06
626.466	172.06
626.673	193.06
626.879	186.06
627.086	191.06
627.293	198.06
627.499	188.06
627.706	173.06
627.912	194.06
628.119	188.06
628.325	197.06
628.532	188.06
628.738	204.06
628.945	186.06
629.151	194.06
629.357	186.06
629.564	187.06
629.77	180.06
629.976	167.06
630.183	191.06
630.389	193.06
630.595	196.06
630.802	184.06
631.008	187.06
631.214	179.06
631.42	181.06
631.627	184.06
631.833	162.06
632.039	176.06
632.245	180.06
632.451	186.06
632.657	188.06
632.863	188.06
633.069	175.06
633.275	173.06
633.481	181.06
633.688	167.06
633.893	182.06
634.099	154.06
634.305	174.06
634.511	169.06
634.717	159.06
634.923	182.06
635.129	167.06
635.335	159.06
635.541	173.06
635.747	186.06
635.952	171.06
636.158	193.06
636.364	175.06
636.57	178.06
636.775	191.06
636.981	185.06
637.187	167.06
637.392	176.06
637.598	168.06
637.804	188.06
638.009	184.06
638.215	165.06
638.421	166.06
638.626	152.06
638.832	175.06
639.037	175.06
639.243	149.06
639.448	184.06
639.654	174.06
639.859	166.06
640.065	149.06
640.27	175.06
640.475	156.06
640.681	163.06
640.886	173.06
641.091	176.06
641.297	182.06
641.502	164.06
641.707	157.06
641.913	174.06
642.118	157.06
642.323	165.06
642.528	161.06
642.733	179.06
642.939	178.06
643.144	171.06
643.349	167.06
643.554	170.06
643.759	164.06
643.964	148.06
644.169	144.06
644.374	166.06
644.579	166.06
644.784	152.06
644.989	169.06
645.194	142.06
645.399	158.06
645.604	164.06
645.809	160.06
646.014	148.06
646.219	160.06
646.423	155.06
646.628	159.06
646.833	145.06
647.038	152.06
647.243	168.06
647.447	152.06
647.652	162.06
647.857	165.06
648.062	163.06
648.266	142.06
648.471	162.06
648.676	166.06
648.88	148.06
649.085	147.06
649.289	144.06
649.494	150.06
649.698	196.06
649.903	178.06
650.107	163.06
650.312	153.06
650.516	158.06
650.721	170.06
650.925	159.06
651.13	147.06
651.334	156.06
651.539	148.06
651.743	145.06
651.947	140.06
652.152	146.06
652.356	125.06
652.56	124.06
652.764	129.06
652.969	140.06
653.173	138.06
653.377	142.06
653.581	135.06
653.785	126.06
653.99	134.06
654.194	130.06
654.398	141.06
654.602	128.06
654.806	132.06
655.01	132.06
655.214	136.06
655.418	126.06
655.622	136.06
655.826	119.06
656.03	126.06
656.234	135.06
656.438	124.06
656.642	113.06
656.846	132.06
657.049	114.06
657.253	127.06
657.457	123.06
657.661	116.06
657.865	120.06
658.068	109.06
658.272	91.06
658.476	106.06
658.68	110.06
658.883	110.06
659.087	103.06
659.291	101.06
659.494	105.06
659.698	112.06
659.901	110.06
660.105	102.06
660.309	102.06
660.512	97.06
660.716	95.06
660.919	115.06
661.123	95.06
661.326	79.06
661.53	89.06
661.733	100.06
661.936	98.06
662.14	89.06
662.343	85.06
662.546	84.06
662.75	99.06
662.953	86.06
663.156	113.06
663.36	91.06
663.563	99.06
663.766	98.06
663.969	87.06
664.173	71.06
664.376	87.06
664.579	94.06
664.782	94.06
664.985	80.06
665.188	79.06
665.391	82.06
665.594	88.06
665.797	84.06
666	90.06
666.203	92.06
666.406	85.06
666.609	72.06
666.812	93.06
667.015	68.06
667.218	79.06
667.421	100.06
667.624	92.06
667.827	94.06
668.03	84.06
668.232	95.06
668.435	74.06
668.638	86.06
668.841	94.06
669.043	89.06
669.246	82.06
669.449	86.06
669.651	94.06
669.854	95.06
670.057	86.06
670.259	95.06
670.462	81.06
670.665	73.06
670.867	97.06
671.07	68.06
671.272	79.06
671.475	85.06
671.677	80.06
671.88	84.06
672.082	85.06
672.284	84.06
672.487	91.06
672.689	77.06
672.892	76.06
