Data from 1980.PennyLincolnUp.Lamp.En5.5.200Scan.071819.P1_HRD10591_16-38-55-961.txt Node
Date: Thu Jul 18 16:38:55 EDT 2019
User: cochatt
Spectrometer: HR+D1059
Trigger mode: 1
Integration Time (sec): 1.000000E-1
Scans to average: 1
Electric dark correction enabled: true
Nonlinearity correction enabled: false
Boxcar width: 0
XAxis mode: Wavelengths
Number of Pixels in Spectrum: 2048
>>>>>Begin Spectral Data<<<<<
223.165	-10.12
223.4	-10.12
223.635	-10.12
223.869	-20.12
224.104	-10.12
224.338	-23.12
224.573	-17.12
224.808	-22.12
225.042	-18.12
225.277	-6.12
225.511	-5.12
225.746	14.88
225.98	2.88
226.215	15.88
226.449	14.88
226.683	15.88
226.918	40.88
227.152	26.88
227.387	26.88
227.621	40.88
227.856	40.88
228.09	41.88
228.324	57.88
228.559	49.88
228.793	79.88
229.027	114.88
229.262	107.88
229.496	114.88
229.73	151.88
229.964	175.88
230.199	132.88
230.433	129.88
230.667	130.88
230.901	117.88
231.136	110.88
231.37	119.88
231.604	120.88
231.838	114.88
232.072	121.88
232.306	123.88
232.541	120.88
232.775	101.88
233.009	113.88
233.243	118.88
233.477	114.88
233.711	111.88
233.945	98.88
234.179	120.88
234.413	96.88
234.647	117.88
234.881	127.88
235.115	124.88
235.349	107.88
235.583	121.88
235.817	127.88
236.051	137.88
236.285	140.88
236.519	138.88
236.753	139.88
236.987	169.88
237.221	215.88
237.455	269.88
237.689	208.88
237.922	167.88
238.156	128.88
238.39	138.88
238.624	133.88
238.858	134.88
239.091	140.88
239.325	120.88
239.559	125.88
239.793	123.88
240.027	138.88
240.26	165.88
240.494	153.88
240.728	143.88
240.961	170.88
241.195	159.88
241.429	140.88
241.662	155.88
241.896	134.88
242.13	129.88
242.363	147.88
242.597	143.88
242.83	127.88
243.064	149.88
243.298	140.88
243.531	146.88
243.765	146.88
243.998	139.88
244.232	150.88
244.465	140.88
244.699	134.88
244.932	147.88
245.166	141.88
245.399	151.88
245.633	148.88
245.866	146.88
246.099	147.88
246.333	161.88
246.566	154.88
246.8	169.88
247.033	179.88
247.266	157.88
247.5	165.88
247.733	194.88
247.966	170.88
248.2	160.88
248.433	177.88
248.666	189.88
248.899	194.88
249.133	209.88
249.366	217.88
249.599	223.88
249.832	195.88
250.066	184.88
250.299	196.88
250.532	205.88
250.765	218.88
250.998	241.88
251.231	257.88
251.465	234.88
251.698	223.88
251.931	225.88
252.164	213.88
252.397	203.88
252.63	199.88
252.863	226.88
253.096	233.88
253.329	261.88
253.562	242.88
253.795	223.88
254.028	245.88
254.261	225.88
254.494	257.88
254.727	269.88
254.96	304.88
255.193	316.88
255.426	284.88
255.659	274.88
255.892	260.88
256.124	260.88
256.357	261.88
256.59	245.88
256.823	222.88
257.056	228.88
257.289	217.88
257.521	225.88
257.754	234.88
257.987	216.88
258.22	223.88
258.452	205.88
258.685	206.88
258.918	222.88
259.151	237.88
259.383	222.88
259.616	225.88
259.849	231.88
260.081	261.88
260.314	269.88
260.547	291.88
260.779	274.88
261.012	260.88
261.244	273.88
261.477	230.88
261.71	228.88
261.942	238.88
262.175	253.88
262.407	263.88
262.64	234.88
262.872	215.88
263.105	224.88
263.337	223.88
263.57	222.88
263.802	212.88
264.035	232.88
264.267	213.88
264.499	229.88
264.732	217.88
264.964	199.88
265.197	212.88
265.429	212.88
265.661	221.88
265.894	210.88
266.126	216.88
266.358	222.88
266.591	220.88
266.823	227.88
267.055	241.88
267.287	254.88
267.52	226.88
267.752	245.88
267.984	230.88
268.216	239.88
268.448	228.88
268.681	257.88
268.913	245.88
269.145	268.88
269.377	313.88
269.609	292.88
269.841	279.88
270.073	282.88
270.306	297.88
270.538	326.88
270.77	351.88
271.002	341.88
271.234	350.88
271.466	322.88
271.698	331.88
271.93	349.88
272.162	365.88
272.394	349.88
272.626	345.88
272.858	318.88
273.09	306.88
273.322	278.88
273.553	289.88
273.785	286.88
274.017	285.88
274.249	274.88
274.481	281.88
274.713	264.88
274.945	276.88
275.176	277.88
275.408	281.88
275.64	255.88
275.872	267.88
276.104	270.88
276.335	285.88
276.567	293.88
276.799	313.88
277.031	313.88
277.262	355.88
277.494	335.88
277.726	328.88
277.957	327.88
278.189	286.88
278.421	290.88
278.652	285.88
278.884	264.88
279.115	292.88
279.347	273.88
279.579	254.88
279.81	252.88
280.042	279.88
280.273	276.88
280.505	269.88
280.736	249.88
280.968	274.88
281.199	279.88
281.431	275.88
281.662	276.88
281.894	270.88
282.125	260.88
282.356	296.88
282.588	314.88
282.819	322.88
283.051	277.88
283.282	255.88
283.513	267.88
283.745	257.88
283.976	257.88
284.207	270.88
284.439	274.88
284.67	271.88
284.901	280.88
285.132	275.88
285.364	274.88
285.595	289.88
285.826	275.88
286.057	273.88
286.288	283.88
286.52	280.88
286.751	275.88
286.982	269.88
287.213	268.88
287.444	274.88
287.675	280.88
287.906	297.88
288.138	302.88
288.369	311.88
288.6	296.88
288.831	289.88
289.062	307.88
289.293	295.88
289.524	294.88
289.755	289.88
289.986	283.88
290.217	282.88
290.448	278.88
290.679	274.88
290.91	265.88
291.141	276.88
291.371	285.88
291.602	279.88
291.833	275.88
292.064	292.88
292.295	273.88
292.526	280.88
292.757	282.88
292.987	260.88
293.218	278.88
293.449	286.88
293.68	273.88
293.91	290.88
294.141	271.88
294.372	269.88
294.603	286.88
294.833	277.88
295.064	275.88
295.295	267.88
295.525	290.88
295.756	293.88
295.987	294.88
296.217	325.88
296.448	340.88
296.679	311.88
296.909	277.88
297.14	265.88
297.37	283.88
297.601	277.88
297.831	292.88
298.062	289.88
298.292	294.88
298.523	295.88
298.753	286.88
298.984	290.88
299.214	287.88
299.445	303.88
299.675	309.88
299.905	309.88
300.136	293.88
300.366	295.88
300.597	300.88
300.827	288.88
301.057	296.88
301.288	323.88
301.518	311.88
301.748	313.88
301.979	311.88
302.209	330.88
302.439	320.88
302.669	326.88
302.9	305.88
303.13	299.88
303.36	307.88
303.59	311.88
303.82	317.88
304.051	338.88
304.281	317.88
304.511	338.88
304.741	322.88
304.971	311.88
305.201	309.88
305.431	310.88
305.661	313.88
305.891	321.88
306.121	333.88
306.352	334.88
306.582	336.88
306.812	329.88
307.042	311.88
307.272	337.88
307.502	332.88
307.731	330.88
307.961	338.88
308.191	331.88
308.421	314.88
308.651	337.88
308.881	332.88
309.111	344.88
309.341	318.88
309.571	320.88
309.8	340.88
310.03	359.88
310.26	400.88
310.49	387.88
310.72	409.88
310.949	438.88
311.179	423.88
311.409	390.88
311.639	391.88
311.868	392.88
312.098	387.88
312.328	390.88
312.557	430.88
312.787	424.88
313.017	417.88
313.246	389.88
313.476	355.88
313.706	361.88
313.935	381.88
314.165	409.88
314.394	417.88
314.624	395.88
314.853	401.88
315.083	374.88
315.312	385.88
315.542	374.88
315.771	369.88
316.001	359.88
316.23	357.88
316.46	374.88
316.689	373.88
316.919	379.88
317.148	399.88
317.377	382.88
317.607	405.88
317.836	389.88
318.065	382.88
318.295	379.88
318.524	365.88
318.753	369.88
318.983	370.88
319.212	377.88
319.441	390.88
319.67	407.88
319.9	381.88
320.129	398.88
320.358	377.88
320.587	385.88
320.816	393.88
321.046	412.88
321.275	406.88
321.504	399.88
321.733	401.88
321.962	406.88
322.191	426.88
322.42	437.88
322.649	484.88
322.878	480.88
323.108	504.88
323.337	527.88
323.566	574.88
323.795	622.88
324.024	671.88
324.253	824.88
324.482	1213.88
324.71	1882.88
324.939	2657.88
325.168	2359.88
325.397	1202.88
325.626	784.88
325.855	632.88
326.084	581.88
326.313	561.88
326.542	577.88
326.77	637.88
326.999	741.88
327.228	1059.88
327.457	1627.88
327.686	2016.88
327.914	1356.88
328.143	893.88
328.372	743.88
328.6	688.88
328.829	639.88
329.058	668.88
329.287	688.88
329.515	632.88
329.744	557.88
329.972	576.88
330.201	600.88
330.43	633.88
330.658	651.88
330.887	729.88
331.115	693.88
331.344	590.88
331.572	534.88
331.801	533.88
332.03	529.88
332.258	484.88
332.486	474.88
332.715	440.88
332.943	448.88
333.172	464.88
333.4	443.88
333.629	464.88
333.857	465.88
334.085	498.88
334.314	530.88
334.542	560.88
334.771	575.88
334.999	512.88
335.227	459.88
335.455	429.88
335.684	435.88
335.912	447.88
336.14	424.88
336.369	425.88
336.597	434.88
336.825	442.88
337.053	456.88
337.281	414.88
337.51	434.88
337.738	435.88
337.966	437.88
338.194	448.88
338.422	439.88
338.65	415.88
338.878	415.88
339.106	418.88
339.334	424.88
339.562	417.88
339.79	418.88
340.018	409.88
340.246	422.88
340.474	462.88
340.702	411.88
340.93	415.88
341.158	420.88
341.386	411.88
341.614	409.88
341.842	407.88
342.07	392.88
342.298	415.88
342.526	413.88
342.754	395.88
342.981	378.88
343.209	403.88
343.437	403.88
343.665	378.88
343.893	394.88
344.12	403.88
344.348	430.88
344.576	431.88
344.804	438.88
345.031	440.88
345.259	442.88
345.487	456.88
345.714	422.88
345.942	415.88
346.17	419.88
346.397	408.88
346.625	419.88
346.853	414.88
347.08	405.88
347.308	405.88
347.535	420.88
347.763	431.88
347.99	431.88
348.218	419.88
348.445	441.88
348.673	435.88
348.9	427.88
349.128	401.88
349.355	385.88
349.583	404.88
349.81	403.88
350.037	413.88
350.265	404.88
350.492	382.88
350.72	392.88
350.947	407.88
351.174	432.88
351.402	423.88
351.629	431.88
351.856	403.88
352.083	443.88
352.311	440.88
352.538	434.88
352.765	452.88
352.992	429.88
353.22	429.88
353.447	419.88
353.674	405.88
353.901	405.88
354.128	388.88
354.355	389.88
354.583	378.88
354.81	387.88
355.037	373.88
355.264	361.88
355.491	357.88
355.718	368.88
355.945	373.88
356.172	390.88
356.399	397.88
356.626	375.88
356.853	368.88
357.08	373.88
357.307	372.88
357.534	357.88
357.761	362.88
357.988	373.88
358.215	373.88
358.441	390.88
358.668	387.88
358.895	379.88
359.122	397.88
359.349	400.88
359.576	406.88
359.802	455.88
360.029	478.88
360.256	499.88
360.483	471.88
360.709	410.88
360.936	405.88
361.163	412.88
361.39	409.88
361.616	439.88
361.843	410.88
362.07	395.88
362.296	419.88
362.523	425.88
362.749	396.88
362.976	407.88
363.203	404.88
363.429	385.88
363.656	395.88
363.882	390.88
364.109	381.88
364.335	373.88
364.562	385.88
364.788	388.88
365.015	406.88
365.241	398.88
365.468	412.88
365.694	402.88
365.92	396.88
366.147	389.88
366.373	392.88
366.599	380.88
366.826	379.88
367.052	377.88
367.278	386.88
367.505	405.88
367.731	390.88
367.957	375.88
368.184	359.88
368.41	385.88
368.636	413.88
368.862	420.88
369.089	413.88
369.315	385.88
369.541	368.88
369.767	368.88
369.993	390.88
370.219	367.88
370.445	369.88
370.672	385.88
370.898	376.88
371.124	378.88
371.35	378.88
371.576	392.88
371.802	358.88
372.028	379.88
372.254	362.88
372.48	377.88
372.706	403.88
372.932	371.88
373.158	376.88
373.384	381.88
373.61	383.88
373.835	368.88
374.061	379.88
374.287	379.88
374.513	369.88
374.739	380.88
374.965	384.88
375.191	386.88
375.416	390.88
375.642	381.88
375.868	364.88
376.094	389.88
376.319	378.88
376.545	360.88
376.771	377.88
376.997	383.88
377.222	355.88
377.448	362.88
377.674	381.88
377.899	355.88
378.125	371.88
378.35	379.88
378.576	374.88
378.802	350.88
379.027	377.88
379.253	364.88
379.478	357.88
379.704	362.88
379.929	362.88
380.155	366.88
380.38	353.88
380.606	375.88
380.831	381.88
381.057	403.88
381.282	378.88
381.507	363.88
381.733	379.88
381.958	371.88
382.184	377.88
382.409	377.88
382.634	391.88
382.86	379.88
383.085	377.88
383.31	393.88
383.535	393.88
383.761	376.88
383.986	371.88
384.211	389.88
384.436	377.88
384.662	394.88
384.887	391.88
385.112	408.88
385.337	381.88
385.562	371.88
385.787	381.88
386.013	409.88
386.238	398.88
386.463	422.88
386.688	399.88
386.913	396.88
387.138	396.88
387.363	400.88
387.588	377.88
387.813	390.88
388.038	375.88
388.263	404.88
388.488	387.88
388.713	378.88
388.938	380.88
389.163	405.88
389.387	412.88
389.612	403.88
389.837	379.88
390.062	412.88
390.287	396.88
390.512	389.88
390.736	391.88
390.961	373.88
391.186	399.88
391.411	402.88
391.636	385.88
391.86	394.88
392.085	394.88
392.31	399.88
392.534	399.88
392.759	400.88
392.984	413.88
393.208	383.88
393.433	391.88
393.658	377.88
393.882	384.88
394.107	385.88
394.331	392.88
394.556	399.88
394.78	381.88
395.005	394.88
395.229	399.88
395.454	417.88
395.678	406.88
395.903	413.88
396.127	435.88
396.352	467.88
396.576	429.88
396.801	419.88
397.025	408.88
397.249	448.88
397.474	415.88
397.698	419.88
397.922	438.88
398.147	450.88
398.371	437.88
398.595	452.88
398.82	439.88
399.044	433.88
399.268	460.88
399.492	473.88
399.717	461.88
399.941	518.88
400.165	563.88
400.389	543.88
400.613	515.88
400.837	480.88
401.062	471.88
401.286	431.88
401.51	459.88
401.734	444.88
401.958	459.88
402.182	452.88
402.406	474.88
402.63	467.88
402.854	455.88
403.078	469.88
403.302	464.88
403.526	469.88
403.75	462.88
403.974	441.88
404.198	453.88
404.422	478.88
404.645	463.88
404.869	477.88
405.093	544.88
405.317	559.88
405.541	587.88
405.765	542.88
405.988	503.88
406.212	507.88
406.436	547.88
406.66	548.88
406.883	545.88
407.107	553.88
407.331	562.88
407.555	656.88
407.778	645.88
408.002	579.88
408.226	547.88
408.449	518.88
408.673	522.88
408.896	562.88
409.12	581.88
409.344	577.88
409.567	501.88
409.791	503.88
410.014	477.88
410.238	448.88
410.461	493.88
410.685	473.88
410.908	511.88
411.132	541.88
411.355	588.88
411.578	552.88
411.802	497.88
412.025	492.88
412.249	481.88
412.472	494.88
412.695	551.88
412.919	549.88
413.142	518.88
413.365	464.88
413.589	453.88
413.812	439.88
414.035	451.88
414.258	445.88
414.482	450.88
414.705	469.88
414.928	434.88
415.151	426.88
415.374	455.88
415.597	455.88
415.821	475.88
416.044	449.88
416.267	462.88
416.49	442.88
416.713	442.88
416.936	447.88
417.159	435.88
417.382	469.88
417.605	493.88
417.828	454.88
418.051	493.88
418.274	485.88
418.497	452.88
418.72	482.88
418.943	439.88
419.166	457.88
419.389	494.88
419.611	493.88
419.834	493.88
420.057	482.88
420.28	491.88
420.503	502.88
420.726	503.88
420.948	500.88
421.171	558.88
421.394	581.88
421.617	516.88
421.839	505.88
422.062	496.88
422.285	497.88
422.507	554.88
422.73	624.88
422.953	626.88
423.175	529.88
423.398	511.88
423.621	516.88
423.843	508.88
424.066	512.88
424.288	526.88
424.511	534.88
424.733	615.88
424.956	696.88
425.178	660.88
425.401	643.88
425.623	689.88
425.846	592.88
426.068	552.88
426.291	550.88
426.513	506.88
426.735	570.88
426.958	603.88
427.18	688.88
427.402	810.88
427.625	905.88
427.847	798.88
428.069	691.88
428.292	616.88
428.514	565.88
428.736	551.88
428.958	507.88
429.181	488.88
429.403	498.88
429.625	481.88
429.847	526.88
430.069	629.88
430.292	632.88
430.514	534.88
430.736	507.88
430.958	487.88
431.18	475.88
431.402	474.88
431.624	468.88
431.846	448.88
432.068	452.88
432.29	457.88
432.512	467.88
432.734	471.88
432.956	472.88
433.178	468.88
433.4	469.88
433.622	462.88
433.844	462.88
434.066	448.88
434.287	467.88
434.509	460.88
434.731	461.88
434.953	477.88
435.175	475.88
435.397	531.88
435.618	549.88
435.84	613.88
436.062	677.88
436.284	780.88
436.505	657.88
436.727	579.88
436.949	523.88
437.17	526.88
437.392	498.88
437.614	501.88
437.835	581.88
438.057	661.88
438.278	777.88
438.5	794.88
438.721	868.88
438.943	805.88
439.165	659.88
439.386	551.88
439.608	571.88
439.829	574.88
440.05	615.88
440.272	650.88
440.493	609.88
440.715	541.88
440.936	527.88
441.158	515.88
441.379	538.88
441.6	520.88
441.822	537.88
442.043	592.88
442.264	677.88
442.486	722.88
442.707	625.88
442.928	569.88
443.149	581.88
443.371	602.88
443.592	620.88
443.813	742.88
444.034	783.88
444.255	659.88
444.476	587.88
444.698	535.88
444.919	536.88
445.14	603.88
445.361	588.88
445.582	584.88
445.803	697.88
446.024	789.88
446.245	795.88
446.466	735.88
446.687	626.88
446.908	565.88
447.129	538.88
447.35	537.88
447.571	492.88
447.792	530.88
448.013	515.88
448.234	522.88
448.455	594.88
448.675	681.88
448.896	823.88
449.117	694.88
449.338	649.88
449.559	765.88
449.779	853.88
450	701.88
450.221	591.88
450.442	529.88
450.662	496.88
450.883	536.88
451.104	524.88
451.324	509.88
451.545	464.88
451.766	495.88
451.986	478.88
452.207	446.88
452.428	453.88
452.648	443.88
452.869	433.88
453.089	488.88
453.31	474.88
453.53	456.88
453.751	460.88
453.971	474.88
454.192	494.88
454.412	502.88
454.633	445.88
454.853	440.88
455.073	423.88
455.294	493.88
455.514	568.88
455.734	561.88
455.955	473.88
456.175	439.88
456.395	441.88
456.616	429.88
456.836	430.88
457.056	405.88
457.276	431.88
457.497	434.88
457.717	422.88
457.937	422.88
458.157	421.88
458.377	417.88
458.598	465.88
458.818	545.88
459.038	662.88
459.258	648.88
459.478	546.88
459.698	487.88
459.918	465.88
460.138	470.88
460.358	463.88
460.578	452.88
460.798	445.88
461.018	453.88
461.238	453.88
461.458	440.88
461.678	443.88
461.898	442.88
462.118	448.88
462.338	461.88
462.558	469.88
462.777	464.88
462.997	457.88
463.217	479.88
463.437	453.88
463.657	455.88
463.876	471.88
464.096	478.88
464.316	447.88
464.536	468.88
464.755	512.88
464.975	517.88
465.195	571.88
465.414	674.88
465.634	591.88
465.854	533.88
466.073	503.88
466.293	494.88
466.512	461.88
466.732	452.88
466.951	455.88
467.171	441.88
467.391	465.88
467.61	457.88
467.829	455.88
468.049	475.88
468.268	476.88
468.488	441.88
468.707	434.88
468.927	433.88
469.146	438.88
469.365	455.88
469.585	431.88
469.804	425.88
470.023	447.88
470.243	461.88
470.462	470.88
470.681	485.88
470.901	477.88
471.12	449.88
471.339	456.88
471.558	464.88
471.777	475.88
471.997	462.88
472.216	487.88
472.435	486.88
472.654	495.88
472.873	459.88
473.092	482.88
473.311	467.88
473.53	455.88
473.749	481.88
473.968	533.88
474.187	623.88
474.406	682.88
474.625	549.88
474.844	509.88
475.063	458.88
475.282	472.88
475.501	445.88
475.72	479.88
475.939	467.88
476.158	468.88
476.377	472.88
476.596	471.88
476.814	467.88
477.033	483.88
477.252	495.88
477.471	469.88
477.69	492.88
477.908	477.88
478.127	484.88
478.346	502.88
478.564	498.88
478.783	494.88
479.002	516.88
479.22	519.88
479.439	546.88
479.658	565.88
479.876	559.88
480.095	551.88
480.313	607.88
480.532	580.88
480.751	561.88
480.969	589.88
481.188	660.88
481.406	719.88
481.624	610.88
481.843	565.88
482.061	568.88
482.28	581.88
482.498	563.88
482.717	541.88
482.935	525.88
483.153	545.88
483.372	531.88
483.59	575.88
483.808	535.88
484.027	535.88
484.245	560.88
484.463	541.88
484.681	553.88
484.9	570.88
485.118	558.88
485.336	552.88
485.554	558.88
485.772	567.88
485.99	571.88
486.209	575.88
486.427	584.88
486.645	576.88
486.863	606.88
487.081	608.88
487.299	593.88
487.517	588.88
487.735	586.88
487.953	599.88
488.171	598.88
488.389	577.88
488.607	583.88
488.825	597.88
489.043	609.88
489.261	621.88
489.479	594.88
489.696	611.88
489.914	622.88
490.132	623.88
490.35	626.88
490.568	607.88
490.786	631.88
491.003	642.88
491.221	647.88
491.439	669.88
491.657	656.88
491.874	705.88
492.092	700.88
492.31	699.88
492.527	691.88
492.745	701.88
492.963	686.88
493.18	709.88
493.398	714.88
493.615	701.88
493.833	715.88
494.05	729.88
494.268	711.88
494.485	716.88
494.703	722.88
494.92	709.88
495.138	711.88
495.355	715.88
495.573	732.88
495.79	747.88
496.008	721.88
496.225	703.88
496.442	690.88
496.66	702.88
496.877	712.88
497.094	723.88
497.312	693.88
497.529	727.88
497.746	728.88
497.963	724.88
498.181	771.88
498.398	742.88
498.615	755.88
498.832	787.88
499.049	772.88
499.267	769.88
499.484	786.88
499.701	820.88
499.918	801.88
500.135	844.88
500.352	855.88
500.569	866.88
500.786	843.88
501.003	861.88
501.22	864.88
501.437	835.88
501.654	834.88
501.871	856.88
502.088	817.88
502.305	798.88
502.522	781.88
502.739	759.88
502.956	737.88
503.172	763.88
503.389	728.88
503.606	722.88
503.823	735.88
504.04	722.88
504.256	673.88
504.473	711.88
504.69	703.88
504.907	732.88
505.123	707.88
505.34	713.88
505.557	671.88
505.773	682.88
505.99	680.88
506.207	677.88
506.423	681.88
506.64	706.88
506.856	669.88
507.073	690.88
507.289	679.88
507.506	659.88
507.722	733.88
507.939	717.88
508.155	692.88
508.372	677.88
508.588	670.88
508.805	656.88
509.021	675.88
509.238	700.88
509.454	702.88
509.67	688.88
509.887	678.88
510.103	653.88
510.319	683.88
510.536	814.88
510.752	1449.88
510.968	1151.88
511.184	711.88
511.401	667.88
511.617	652.88
511.833	639.88
512.049	664.88
512.265	656.88
512.481	645.88
512.698	631.88
512.914	627.88
513.13	620.88
513.346	627.88
513.562	626.88
513.778	625.88
513.994	652.88
514.21	685.88
514.426	679.88
514.642	774.88
514.858	813.88
515.074	861.88
515.29	1038.88
515.506	1617.88
515.721	1259.88
515.937	852.88
516.153	751.88
516.369	699.88
516.585	665.88
516.801	650.88
517.016	643.88
517.232	646.88
517.448	635.88
517.664	638.88
517.879	642.88
518.095	637.88
518.311	612.88
518.527	616.88
518.742	594.88
518.958	617.88
519.173	636.88
519.389	621.88
519.605	631.88
519.82	645.88
520.036	666.88
520.251	686.88
520.467	707.88
520.682	736.88
520.898	717.88
521.113	774.88
521.329	839.88
521.544	995.88
521.76	1288.88
521.975	2187.88
522.19	2158.88
522.406	1129.88
522.621	813.88
522.836	709.88
523.052	670.88
523.267	639.88
523.482	623.88
523.698	588.88
523.913	597.88
524.128	595.88
524.343	574.88
524.559	551.88
524.774	550.88
524.989	542.88
525.204	571.88
525.419	561.88
525.634	538.88
525.849	525.88
526.064	510.88
526.28	519.88
526.495	503.88
526.71	546.88
526.925	495.88
527.14	496.88
527.355	518.88
527.57	488.88
527.785	474.88
527.999	507.88
528.214	518.88
528.429	509.88
528.644	517.88
528.859	495.88
529.074	528.88
529.289	540.88
529.503	654.88
529.718	631.88
529.933	548.88
530.148	529.88
530.363	524.88
530.577	491.88
530.792	477.88
531.007	487.88
531.221	497.88
531.436	485.88
531.651	467.88
531.865	477.88
532.08	485.88
532.295	478.88
532.509	469.88
532.724	473.88
532.938	472.88
533.153	462.88
533.367	457.88
533.582	477.88
533.796	464.88
534.011	479.88
534.225	466.88
534.44	452.88
534.654	434.88
534.868	468.88
535.083	471.88
535.297	461.88
535.511	458.88
535.726	473.88
535.94	487.88
536.154	480.88
536.369	480.88
536.583	448.88
536.797	441.88
537.011	458.88
537.225	440.88
537.44	441.88
537.654	465.88
537.868	453.88
538.082	447.88
538.296	469.88
538.51	457.88
538.724	443.88
538.938	445.88
539.153	477.88
539.367	471.88
539.581	479.88
539.795	463.88
540.009	458.88
540.222	455.88
540.436	438.88
540.65	446.88
540.864	473.88
541.078	462.88
541.292	460.88
541.506	445.88
541.72	455.88
541.934	459.88
542.147	442.88
542.361	447.88
542.575	450.88
542.789	454.88
543.002	457.88
543.216	454.88
543.43	457.88
543.644	462.88
543.857	456.88
544.071	451.88
544.285	452.88
544.498	447.88
544.712	442.88
544.925	456.88
545.139	422.88
545.352	446.88
545.566	440.88
545.779	442.88
545.993	440.88
546.206	420.88
546.42	428.88
546.633	403.88
546.847	425.88
547.06	409.88
547.274	418.88
547.487	423.88
547.7	415.88
547.914	424.88
548.127	423.88
548.34	415.88
548.554	408.88
548.767	423.88
548.98	393.88
549.193	419.88
549.407	433.88
549.62	400.88
549.833	435.88
550.046	408.88
550.259	412.88
550.473	403.88
550.686	415.88
550.899	427.88
551.112	402.88
551.325	417.88
551.538	396.88
551.751	410.88
551.964	410.88
552.177	417.88
552.39	415.88
552.603	426.88
552.816	411.88
553.029	394.88
553.242	409.88
553.455	431.88
553.667	438.88
553.88	449.88
554.093	437.88
554.306	418.88
554.519	407.88
554.732	419.88
554.944	422.88
555.157	383.88
555.37	399.88
555.583	410.88
555.795	385.88
556.008	393.88
556.221	394.88
556.433	382.88
556.646	384.88
556.859	392.88
557.071	386.88
557.284	377.88
557.496	372.88
557.709	357.88
557.921	378.88
558.134	373.88
558.346	375.88
558.559	382.88
558.771	384.88
558.984	356.88
559.196	377.88
559.409	383.88
559.621	391.88
559.833	373.88
560.046	367.88
560.258	360.88
560.47	369.88
560.683	367.88
560.895	368.88
561.107	375.88
561.32	368.88
561.532	371.88
561.744	369.88
561.956	357.88
562.168	354.88
562.381	373.88
562.593	367.88
562.805	377.88
563.017	359.88
563.229	367.88
563.441	366.88
563.653	384.88
563.865	363.88
564.077	353.88
564.289	356.88
564.501	365.88
564.713	368.88
564.925	389.88
565.137	402.88
565.349	391.88
565.561	393.88
565.773	373.88
565.985	400.88
566.197	405.88
566.408	402.88
566.62	401.88
566.832	417.88
567.044	432.88
567.255	420.88
567.467	436.88
567.679	410.88
567.891	424.88
568.102	424.88
568.314	414.88
568.526	391.88
568.737	422.88
568.949	390.88
569.161	382.88
569.372	366.88
569.584	383.88
569.795	374.88
570.007	385.88
570.218	442.88
570.43	409.88
570.641	369.88
570.853	366.88
571.064	352.88
571.276	344.88
571.487	330.88
571.698	351.88
571.91	342.88
572.121	343.88
572.333	332.88
572.544	331.88
572.755	337.88
572.966	346.88
573.178	326.88
573.389	321.88
573.6	336.88
573.811	329.88
574.023	333.88
574.234	328.88
574.445	311.88
574.656	323.88
574.867	321.88
575.078	295.88
575.289	311.88
575.501	334.88
575.712	322.88
575.923	325.88
576.134	295.88
576.345	318.88
576.556	330.88
576.767	312.88
576.978	312.88
577.188	314.88
577.399	319.88
577.61	297.88
577.821	321.88
578.032	327.88
578.243	364.88
578.454	663.88
578.665	471.88
578.875	327.88
579.086	317.88
579.297	318.88
579.508	296.88
579.718	308.88
579.929	302.88
580.14	323.88
580.35	295.88
580.561	290.88
580.772	291.88
580.982	281.88
581.193	304.88
581.403	287.88
581.614	296.88
581.825	290.88
582.035	289.88
582.246	296.88
582.456	273.88
582.667	280.88
582.877	306.88
583.087	281.88
583.298	295.88
583.508	301.88
583.719	307.88
583.929	298.88
584.139	314.88
584.35	281.88
584.56	292.88
584.77	289.88
584.981	279.88
585.191	305.88
585.401	281.88
585.611	290.88
585.821	303.88
586.032	289.88
586.242	285.88
586.452	289.88
586.662	261.88
586.872	264.88
587.082	288.88
587.292	266.88
587.502	280.88
587.713	271.88
587.923	259.88
588.133	262.88
588.343	289.88
588.553	291.88
588.762	286.88
588.972	294.88
589.182	266.88
589.392	277.88
589.602	271.88
589.812	290.88
590.022	280.88
590.232	277.88
590.441	293.88
590.651	289.88
590.861	277.88
591.071	288.88
591.281	281.88
591.49	273.88
591.7	269.88
591.91	274.88
592.119	279.88
592.329	291.88
592.539	298.88
592.748	287.88
592.958	287.88
593.167	282.88
593.377	281.88
593.587	284.88
593.796	289.88
594.006	284.88
594.215	275.88
594.424	273.88
594.634	273.88
594.843	273.88
595.053	266.88
595.262	282.88
595.472	288.88
595.681	277.88
595.89	259.88
596.1	257.88
596.309	277.88
596.518	268.88
596.727	256.88
596.937	257.88
597.146	254.88
597.355	265.88
597.564	262.88
597.774	259.88
597.983	249.88
598.192	241.88
598.401	257.88
598.61	251.88
598.819	238.88
599.028	251.88
599.237	263.88
599.446	235.88
599.655	243.88
599.864	243.88
600.073	238.88
600.282	262.88
600.491	248.88
600.7	231.88
600.909	238.88
601.118	239.88
601.327	241.88
601.536	237.88
601.745	242.88
601.953	251.88
602.162	257.88
602.371	241.88
602.58	238.88
602.789	249.88
602.997	241.88
603.206	239.88
603.415	235.88
603.623	235.88
603.832	246.88
604.041	246.88
604.249	238.88
604.458	229.88
604.666	227.88
604.875	231.88
605.084	261.88
605.292	237.88
605.501	232.88
605.709	221.88
605.918	241.88
606.126	248.88
606.334	248.88
606.543	241.88
606.751	240.88
606.96	240.88
607.168	224.88
607.376	225.88
607.585	229.88
607.793	224.88
608.001	225.88
608.21	229.88
608.418	225.88
608.626	238.88
608.834	250.88
609.043	226.88
609.251	245.88
609.459	205.88
609.667	240.88
609.875	231.88
610.083	233.88
610.291	225.88
610.499	218.88
610.707	229.88
610.916	235.88
611.124	246.88
611.332	237.88
611.54	238.88
611.748	258.88
611.955	231.88
612.163	239.88
612.371	224.88
612.579	241.88
612.787	231.88
612.995	250.88
613.203	225.88
613.411	234.88
613.618	212.88
613.826	222.88
614.034	228.88
614.242	233.88
614.449	224.88
614.657	246.88
614.865	230.88
615.072	218.88
615.28	217.88
615.488	216.88
615.695	225.88
615.903	240.88
616.111	231.88
616.318	230.88
616.526	233.88
616.733	224.88
616.941	220.88
617.148	233.88
617.356	217.88
617.563	232.88
617.771	217.88
617.978	213.88
618.185	212.88
618.393	223.88
618.6	224.88
618.807	218.88
619.015	206.88
619.222	218.88
619.429	197.88
619.637	237.88
619.844	225.88
620.051	217.88
620.258	213.88
620.466	198.88
620.673	203.88
620.88	219.88
621.087	222.88
621.294	197.88
621.501	217.88
621.708	217.88
621.915	209.88
622.122	216.88
622.329	201.88
622.536	224.88
622.743	221.88
622.95	223.88
623.157	201.88
623.364	214.88
623.571	212.88
623.778	197.88
623.985	213.88
624.192	189.88
624.399	189.88
624.606	193.88
624.812	205.88
625.019	210.88
625.226	198.88
625.433	202.88
625.639	207.88
625.846	197.88
626.053	200.88
626.259	193.88
626.466	193.88
626.673	186.88
626.879	182.88
627.086	203.88
627.293	191.88
627.499	202.88
627.706	203.88
627.912	194.88
628.119	202.88
628.325	193.88
628.532	211.88
628.738	198.88
628.945	203.88
629.151	193.88
629.357	187.88
629.564	191.88
629.77	194.88
629.976	185.88
630.183	198.88
630.389	183.88
630.595	195.88
630.802	188.88
631.008	195.88
631.214	162.88
631.42	177.88
631.627	197.88
631.833	181.88
632.039	193.88
632.245	181.88
632.451	177.88
632.657	175.88
632.863	175.88
633.069	177.88
633.275	185.88
633.481	186.88
633.688	170.88
633.893	184.88
634.099	186.88
634.305	165.88
634.511	171.88
634.717	181.88
634.923	172.88
635.129	165.88
635.335	165.88
635.541	184.88
635.747	159.88
635.952	170.88
636.158	177.88
636.364	184.88
636.57	187.88
636.775	173.88
636.981	181.88
637.187	169.88
637.392	173.88
637.598	178.88
637.804	182.88
638.009	188.88
638.215	155.88
638.421	160.88
638.626	155.88
638.832	164.88
639.037	157.88
639.243	158.88
639.448	175.88
639.654	166.88
639.859	155.88
640.065	152.88
640.27	158.88
640.475	147.88
640.681	158.88
640.886	171.88
641.091	161.88
641.297	167.88
641.502	181.88
641.707	163.88
641.913	153.88
642.118	159.88
642.323	175.88
642.528	147.88
642.733	152.88
642.939	161.88
643.144	170.88
643.349	146.88
643.554	167.88
643.759	175.88
643.964	161.88
644.169	163.88
644.374	171.88
644.579	169.88
644.784	144.88
644.989	145.88
645.194	158.88
645.399	153.88
645.604	173.88
645.809	168.88
646.014	153.88
646.219	155.88
646.423	156.88
646.628	154.88
646.833	150.88
647.038	167.88
647.243	152.88
647.447	162.88
647.652	152.88
647.857	156.88
648.062	164.88
648.266	164.88
648.471	169.88
648.676	145.88
648.88	162.88
649.085	153.88
649.289	144.88
649.494	173.88
649.698	193.88
649.903	176.88
650.107	162.88
650.312	139.88
650.516	137.88
650.721	148.88
650.925	152.88
651.13	150.88
651.334	153.88
651.539	127.88
651.743	130.88
651.947	164.88
652.152	140.88
652.356	135.88
652.56	149.88
652.764	133.88
652.969	129.88
653.173	123.88
653.377	126.88
653.581	139.88
653.785	135.88
653.99	135.88
654.194	134.88
654.398	132.88
654.602	111.88
654.806	131.88
655.01	134.88
655.214	142.88
655.418	121.88
655.622	117.88
655.826	126.88
656.03	127.88
656.234	123.88
656.438	122.88
656.642	129.88
656.846	122.88
657.049	117.88
657.253	120.88
657.457	121.88
657.661	117.88
657.865	113.88
658.068	103.88
658.272	99.88
658.476	110.88
658.68	97.88
658.883	92.88
659.087	100.88
659.291	98.88
659.494	98.88
659.698	100.88
659.901	96.88
660.105	98.88
660.309	82.88
660.512	83.88
660.716	96.88
660.919	85.88
661.123	99.88
661.326	103.88
661.53	90.88
661.733	66.88
661.936	81.88
662.14	78.88
662.343	87.88
662.546	87.88
662.75	91.88
662.953	77.88
663.156	77.88
663.36	80.88
663.563	74.88
663.766	99.88
663.969	79.88
664.173	68.88
664.376	80.88
664.579	72.88
664.782	69.88
664.985	82.88
665.188	84.88
665.391	78.88
665.594	85.88
665.797	87.88
666	81.88
666.203	73.88
666.406	84.88
666.609	81.88
666.812	73.88
667.015	83.88
667.218	86.88
667.421	74.88
667.624	70.88
667.827	83.88
668.03	88.88
668.232	95.88
668.435	74.88
668.638	81.88
668.841	74.88
669.043	81.88
669.246	91.88
669.449	84.88
669.651	72.88
669.854	77.88
670.057	83.88
670.259	76.88
670.462	83.88
670.665	73.88
670.867	60.88
671.07	77.88
671.272	96.88
671.475	96.88
671.677	65.88
671.88	75.88
672.082	85.88
672.284	70.88
672.487	82.88
672.689	87.88
672.892	75.88
