Data from 1980.PennyLincolnUp.Lamp.En5.5.200Scan.071819.P1_HRD10591_16-38-39-958.txt Node
Date: Thu Jul 18 16:38:39 EDT 2019
User: cochatt
Spectrometer: HR+D1059
Trigger mode: 1
Integration Time (sec): 1.000000E-1
Scans to average: 1
Electric dark correction enabled: true
Nonlinearity correction enabled: false
Boxcar width: 0
XAxis mode: Wavelengths
Number of Pixels in Spectrum: 2048
>>>>>Begin Spectral Data<<<<<
223.165	-19.12
223.4	-19.12
223.635	-19.12
223.869	-9.12
224.104	-21.12
224.338	-9.12
224.573	-1.12
224.808	-21.12
225.042	-1.12
225.277	-11.12
225.511	-8.12
225.746	-3.12
225.98	14.88
226.215	16.88
226.449	4.88
226.683	21.88
226.918	24.88
227.152	20.88
227.387	37.88
227.621	45.88
227.856	40.88
228.09	41.88
228.324	47.88
228.559	44.88
228.793	55.88
229.027	96.88
229.262	112.88
229.496	120.88
229.73	131.88
229.964	168.88
230.199	140.88
230.433	117.88
230.667	114.88
230.901	108.88
231.136	112.88
231.37	104.88
231.604	116.88
231.838	116.88
232.072	127.88
232.306	96.88
232.541	106.88
232.775	109.88
233.009	112.88
233.243	99.88
233.477	115.88
233.711	112.88
233.945	114.88
234.179	114.88
234.413	121.88
234.647	114.88
234.881	108.88
235.115	115.88
235.349	116.88
235.583	125.88
235.817	131.88
236.051	133.88
236.285	134.88
236.519	131.88
236.753	121.88
236.987	149.88
237.221	189.88
237.455	249.88
237.689	221.88
237.922	162.88
238.156	145.88
238.39	143.88
238.624	125.88
238.858	113.88
239.091	128.88
239.325	118.88
239.559	122.88
239.793	119.88
240.027	119.88
240.26	153.88
240.494	171.88
240.728	162.88
240.961	166.88
241.195	148.88
241.429	139.88
241.662	138.88
241.896	132.88
242.13	142.88
242.363	143.88
242.597	137.88
242.83	140.88
243.064	143.88
243.298	138.88
243.531	140.88
243.765	137.88
243.998	144.88
244.232	131.88
244.465	140.88
244.699	137.88
244.932	155.88
245.166	154.88
245.399	154.88
245.633	149.88
245.866	160.88
246.099	142.88
246.333	164.88
246.566	155.88
246.8	149.88
247.033	160.88
247.266	154.88
247.5	152.88
247.733	179.88
247.966	182.88
248.2	185.88
248.433	178.88
248.666	181.88
248.899	188.88
249.133	209.88
249.366	231.88
249.599	209.88
249.832	181.88
250.066	188.88
250.299	200.88
250.532	204.88
250.765	205.88
250.998	249.88
251.231	231.88
251.465	227.88
251.698	212.88
251.931	207.88
252.164	202.88
252.397	204.88
252.63	206.88
252.863	223.88
253.096	221.88
253.329	220.88
253.562	243.88
253.795	235.88
254.028	233.88
254.261	228.88
254.494	228.88
254.727	284.88
254.96	323.88
255.193	308.88
255.426	265.88
255.659	269.88
255.892	249.88
256.124	237.88
256.357	232.88
256.59	236.88
256.823	232.88
257.056	211.88
257.289	224.88
257.521	233.88
257.754	220.88
257.987	204.88
258.22	217.88
258.452	226.88
258.685	216.88
258.918	202.88
259.151	201.88
259.383	219.88
259.616	224.88
259.849	240.88
260.081	269.88
260.314	256.88
260.547	267.88
260.779	254.88
261.012	256.88
261.244	267.88
261.477	250.88
261.71	238.88
261.942	231.88
262.175	249.88
262.407	242.88
262.64	240.88
262.872	216.88
263.105	228.88
263.337	225.88
263.57	211.88
263.802	225.88
264.035	203.88
264.267	211.88
264.499	220.88
264.732	211.88
264.964	221.88
265.197	210.88
265.429	216.88
265.661	216.88
265.894	206.88
266.126	215.88
266.358	210.88
266.591	222.88
266.823	214.88
267.055	202.88
267.287	217.88
267.52	216.88
267.752	221.88
267.984	223.88
268.216	222.88
268.448	231.88
268.681	234.88
268.913	255.88
269.145	270.88
269.377	285.88
269.609	290.88
269.841	277.88
270.073	283.88
270.306	300.88
270.538	334.88
270.77	355.88
271.002	325.88
271.234	326.88
271.466	317.88
271.698	324.88
271.93	322.88
272.162	332.88
272.394	332.88
272.626	319.88
272.858	299.88
273.09	293.88
273.322	281.88
273.553	274.88
273.785	260.88
274.017	262.88
274.249	251.88
274.481	276.88
274.713	269.88
274.945	288.88
275.176	259.88
275.408	271.88
275.64	258.88
275.872	251.88
276.104	274.88
276.335	276.88
276.567	281.88
276.799	284.88
277.031	322.88
277.262	349.88
277.494	336.88
277.726	311.88
277.957	297.88
278.189	304.88
278.421	274.88
278.652	272.88
278.884	273.88
279.115	273.88
279.347	261.88
279.579	273.88
279.81	256.88
280.042	272.88
280.273	268.88
280.505	272.88
280.736	248.88
280.968	258.88
281.199	264.88
281.431	245.88
281.662	245.88
281.894	251.88
282.125	250.88
282.356	292.88
282.588	284.88
282.819	316.88
283.051	283.88
283.282	277.88
283.513	269.88
283.745	280.88
283.976	270.88
284.207	262.88
284.439	267.88
284.67	270.88
284.901	260.88
285.132	269.88
285.364	258.88
285.595	262.88
285.826	247.88
286.057	274.88
286.288	268.88
286.52	278.88
286.751	265.88
286.982	276.88
287.213	261.88
287.444	274.88
287.675	278.88
287.906	284.88
288.138	299.88
288.369	280.88
288.6	292.88
288.831	288.88
289.062	282.88
289.293	285.88
289.524	269.88
289.755	269.88
289.986	278.88
290.217	267.88
290.448	281.88
290.679	266.88
290.91	272.88
291.141	278.88
291.371	260.88
291.602	285.88
291.833	275.88
292.064	285.88
292.295	279.88
292.526	278.88
292.757	279.88
292.987	274.88
293.218	281.88
293.449	264.88
293.68	266.88
293.91	266.88
294.141	270.88
294.372	263.88
294.603	270.88
294.833	263.88
295.064	258.88
295.295	249.88
295.525	273.88
295.756	290.88
295.987	282.88
296.217	311.88
296.448	325.88
296.679	288.88
296.909	281.88
297.14	268.88
297.37	278.88
297.601	292.88
297.831	280.88
298.062	273.88
298.292	282.88
298.523	284.88
298.753	281.88
298.984	280.88
299.214	276.88
299.445	296.88
299.675	288.88
299.905	294.88
300.136	318.88
300.366	286.88
300.597	291.88
300.827	308.88
301.057	283.88
301.288	298.88
301.518	299.88
301.748	299.88
301.979	303.88
302.209	316.88
302.439	312.88
302.669	299.88
302.9	310.88
303.13	299.88
303.36	321.88
303.59	308.88
303.82	332.88
304.051	328.88
304.281	321.88
304.511	315.88
304.741	312.88
304.971	304.88
305.201	296.88
305.431	313.88
305.661	300.88
305.891	304.88
306.121	310.88
306.352	313.88
306.582	310.88
306.812	328.88
307.042	315.88
307.272	297.88
307.502	326.88
307.731	323.88
307.961	326.88
308.191	308.88
308.421	328.88
308.651	320.88
308.881	328.88
309.111	300.88
309.341	336.88
309.571	336.88
309.8	350.88
310.03	373.88
310.26	378.88
310.49	372.88
310.72	387.88
310.949	407.88
311.179	397.88
311.409	381.88
311.639	366.88
311.868	373.88
312.098	378.88
312.328	385.88
312.557	396.88
312.787	408.88
313.017	439.88
313.246	389.88
313.476	360.88
313.706	370.88
313.935	362.88
314.165	380.88
314.394	387.88
314.624	381.88
314.853	396.88
315.083	388.88
315.312	370.88
315.542	373.88
315.771	373.88
316.001	358.88
316.23	358.88
316.46	353.88
316.689	369.88
316.919	362.88
317.148	360.88
317.377	397.88
317.607	376.88
317.836	386.88
318.065	396.88
318.295	365.88
318.524	361.88
318.753	386.88
318.983	356.88
319.212	380.88
319.441	382.88
319.67	370.88
319.9	389.88
320.129	370.88
320.358	374.88
320.587	379.88
320.816	379.88
321.046	368.88
321.275	385.88
321.504	406.88
321.733	399.88
321.962	421.88
322.191	432.88
322.42	456.88
322.649	460.88
322.878	470.88
323.108	476.88
323.337	520.88
323.566	553.88
323.795	594.88
324.024	647.88
324.253	803.88
324.482	1162.88
324.71	1804.88
324.939	2573.88
325.168	2247.88
325.397	1204.88
325.626	763.88
325.855	632.88
326.084	557.88
326.313	522.88
326.542	552.88
326.77	611.88
326.999	717.88
327.228	1018.88
327.457	1554.88
327.686	1940.88
327.914	1338.88
328.143	849.88
328.372	734.88
328.6	656.88
328.829	614.88
329.058	659.88
329.287	644.88
329.515	602.88
329.744	562.88
329.972	534.88
330.201	576.88
330.43	617.88
330.658	661.88
330.887	694.88
331.115	664.88
331.344	572.88
331.572	517.88
331.801	525.88
332.03	505.88
332.258	492.88
332.486	436.88
332.715	428.88
332.943	434.88
333.172	444.88
333.4	448.88
333.629	446.88
333.857	449.88
334.085	461.88
334.314	482.88
334.542	528.88
334.771	566.88
334.999	518.88
335.227	485.88
335.455	426.88
335.684	424.88
335.912	406.88
336.14	427.88
336.369	444.88
336.597	436.88
336.825	434.88
337.053	426.88
337.281	418.88
337.51	420.88
337.738	419.88
337.966	430.88
338.194	427.88
338.422	423.88
338.65	417.88
338.878	429.88
339.106	407.88
339.334	431.88
339.562	387.88
339.79	394.88
340.018	399.88
340.246	422.88
340.474	415.88
340.702	421.88
340.93	414.88
341.158	421.88
341.386	417.88
341.614	427.88
341.842	418.88
342.07	393.88
342.298	420.88
342.526	404.88
342.754	392.88
342.981	377.88
343.209	395.88
343.437	392.88
343.665	389.88
343.893	397.88
344.12	414.88
344.348	390.88
344.576	389.88
344.804	424.88
345.031	412.88
345.259	432.88
345.487	426.88
345.714	426.88
345.942	407.88
346.17	389.88
346.397	388.88
346.625	395.88
346.853	425.88
347.08	398.88
347.308	420.88
347.535	415.88
347.763	412.88
347.99	441.88
348.218	418.88
348.445	427.88
348.673	410.88
348.9	392.88
349.128	392.88
349.355	382.88
349.583	384.88
349.81	364.88
350.037	364.88
350.265	366.88
350.492	380.88
350.72	396.88
350.947	404.88
351.174	436.88
351.402	411.88
351.629	423.88
351.856	402.88
352.083	428.88
352.311	421.88
352.538	443.88
352.765	449.88
352.992	416.88
353.22	397.88
353.447	410.88
353.674	404.88
353.901	382.88
354.128	384.88
354.355	363.88
354.583	370.88
354.81	370.88
355.037	370.88
355.264	370.88
355.491	363.88
355.718	348.88
355.945	385.88
356.172	354.88
356.399	372.88
356.626	351.88
356.853	372.88
357.08	372.88
357.307	350.88
357.534	352.88
357.761	364.88
357.988	358.88
358.215	341.88
358.441	357.88
358.668	350.88
358.895	377.88
359.122	386.88
359.349	404.88
359.576	402.88
359.802	432.88
360.029	458.88
360.256	473.88
360.483	458.88
360.709	419.88
360.936	417.88
361.163	395.88
361.39	436.88
361.616	419.88
361.843	404.88
362.07	397.88
362.296	392.88
362.523	406.88
362.749	398.88
362.976	401.88
363.203	391.88
363.429	400.88
363.656	394.88
363.882	390.88
364.109	398.88
364.335	377.88
364.562	373.88
364.788	380.88
365.015	373.88
365.241	373.88
365.468	402.88
365.694	382.88
365.92	382.88
366.147	372.88
366.373	370.88
366.599	379.88
366.826	360.88
367.052	361.88
367.278	352.88
367.505	367.88
367.731	393.88
367.957	380.88
368.184	351.88
368.41	382.88
368.636	396.88
368.862	389.88
369.089	375.88
369.315	372.88
369.541	365.88
369.767	374.88
369.993	368.88
370.219	368.88
370.445	358.88
370.672	344.88
370.898	363.88
371.124	362.88
371.35	353.88
371.576	379.88
371.802	349.88
372.028	352.88
372.254	369.88
372.48	369.88
372.706	368.88
372.932	372.88
373.158	362.88
373.384	354.88
373.61	359.88
373.835	358.88
374.061	357.88
374.287	369.88
374.513	350.88
374.739	389.88
374.965	374.88
375.191	372.88
375.416	348.88
375.642	359.88
375.868	358.88
376.094	373.88
376.319	352.88
376.545	358.88
376.771	348.88
376.997	353.88
377.222	370.88
377.448	355.88
377.674	356.88
377.899	359.88
378.125	348.88
378.35	352.88
378.576	348.88
378.802	354.88
379.027	368.88
379.253	349.88
379.478	362.88
379.704	354.88
379.929	344.88
380.155	372.88
380.38	355.88
380.606	346.88
380.831	345.88
381.057	365.88
381.282	357.88
381.507	367.88
381.733	372.88
381.958	382.88
382.184	343.88
382.409	370.88
382.634	373.88
382.86	372.88
383.085	383.88
383.31	392.88
383.535	358.88
383.761	361.88
383.986	351.88
384.211	358.88
384.436	360.88
384.662	375.88
384.887	376.88
385.112	354.88
385.337	382.88
385.562	378.88
385.787	383.88
386.013	399.88
386.238	415.88
386.463	405.88
386.688	394.88
386.913	370.88
387.138	378.88
387.363	373.88
387.588	374.88
387.813	385.88
388.038	386.88
388.263	365.88
388.488	384.88
388.713	380.88
388.938	365.88
389.163	368.88
389.387	379.88
389.612	377.88
389.837	383.88
390.062	370.88
390.287	386.88
390.512	368.88
390.736	390.88
390.961	383.88
391.186	372.88
391.411	370.88
391.636	382.88
391.86	386.88
392.085	381.88
392.31	380.88
392.534	378.88
392.759	383.88
392.984	377.88
393.208	384.88
393.433	378.88
393.658	378.88
393.882	398.88
394.107	389.88
394.331	387.88
394.556	392.88
394.78	394.88
395.005	401.88
395.229	406.88
395.454	399.88
395.678	393.88
395.903	392.88
396.127	432.88
396.352	404.88
396.576	399.88
396.801	401.88
397.025	381.88
397.249	396.88
397.474	413.88
397.698	408.88
397.922	440.88
398.147	438.88
398.371	445.88
398.595	409.88
398.82	421.88
399.044	444.88
399.268	422.88
399.492	434.88
399.717	479.88
399.941	484.88
400.165	519.88
400.389	542.88
400.613	481.88
400.837	459.88
401.062	448.88
401.286	423.88
401.51	434.88
401.734	434.88
401.958	435.88
402.182	438.88
402.406	424.88
402.63	462.88
402.854	451.88
403.078	443.88
403.302	442.88
403.526	460.88
403.75	480.88
403.974	458.88
404.198	434.88
404.422	456.88
404.645	477.88
404.869	461.88
405.093	512.88
405.317	560.88
405.541	558.88
405.765	525.88
405.988	484.88
406.212	484.88
406.436	523.88
406.66	534.88
406.883	493.88
407.107	526.88
407.331	530.88
407.555	618.88
407.778	617.88
408.002	571.88
408.226	503.88
408.449	504.88
408.673	518.88
408.896	540.88
409.12	581.88
409.344	544.88
409.567	483.88
409.791	468.88
410.014	465.88
410.238	473.88
410.461	476.88
410.685	458.88
410.908	472.88
411.132	522.88
411.355	570.88
411.578	541.88
411.802	482.88
412.025	461.88
412.249	483.88
412.472	500.88
412.695	529.88
412.919	534.88
413.142	476.88
413.365	458.88
413.589	437.88
413.812	443.88
414.035	416.88
414.258	437.88
414.482	446.88
414.705	409.88
414.928	428.88
415.151	406.88
415.374	432.88
415.597	438.88
415.821	428.88
416.044	418.88
416.267	433.88
416.49	450.88
416.713	418.88
416.936	442.88
417.159	418.88
417.382	429.88
417.605	448.88
417.828	461.88
418.051	457.88
418.274	438.88
418.497	456.88
418.72	438.88
418.943	432.88
419.166	452.88
419.389	473.88
419.611	458.88
419.834	473.88
420.057	464.88
420.28	454.88
420.503	471.88
420.726	464.88
420.948	479.88
421.171	508.88
421.394	566.88
421.617	486.88
421.839	475.88
422.062	473.88
422.285	488.88
422.507	536.88
422.73	597.88
422.953	592.88
423.175	533.88
423.398	483.88
423.621	513.88
423.843	491.88
424.066	523.88
424.288	515.88
424.511	520.88
424.733	595.88
424.956	698.88
425.178	636.88
425.401	638.88
425.623	651.88
425.846	574.88
426.068	528.88
426.291	521.88
426.513	546.88
426.735	518.88
426.958	582.88
427.18	644.88
427.402	761.88
427.625	851.88
427.847	792.88
428.069	682.88
428.292	592.88
428.514	542.88
428.736	520.88
428.958	509.88
429.181	472.88
429.403	466.88
429.625	503.88
429.847	516.88
430.069	591.88
430.292	592.88
430.514	515.88
430.736	470.88
430.958	464.88
431.18	439.88
431.402	448.88
431.624	438.88
431.846	442.88
432.068	444.88
432.29	436.88
432.512	446.88
432.734	458.88
432.956	470.88
433.178	466.88
433.4	466.88
433.622	449.88
433.844	452.88
434.066	445.88
434.287	436.88
434.509	432.88
434.731	435.88
434.953	474.88
435.175	483.88
435.397	507.88
435.618	516.88
435.84	548.88
436.062	636.88
436.284	732.88
436.505	570.88
436.727	550.88
436.949	500.88
437.17	486.88
437.392	473.88
437.614	500.88
437.835	549.88
438.057	606.88
438.278	776.88
438.5	755.88
438.721	784.88
438.943	749.88
439.165	624.88
439.386	562.88
439.608	536.88
439.829	549.88
440.05	598.88
440.272	620.88
440.493	584.88
440.715	539.88
440.936	528.88
441.158	502.88
441.379	480.88
441.6	499.88
441.822	526.88
442.043	578.88
442.264	654.88
442.486	695.88
442.707	588.88
442.928	562.88
443.149	552.88
443.371	600.88
443.592	624.88
443.813	702.88
444.034	749.88
444.255	637.88
444.476	576.88
444.698	496.88
444.919	508.88
445.14	584.88
445.361	557.88
445.582	570.88
445.803	673.88
446.024	764.88
446.245	786.88
446.466	702.88
446.687	589.88
446.908	545.88
447.129	508.88
447.35	504.88
447.571	514.88
447.792	486.88
448.013	520.88
448.234	532.88
448.455	585.88
448.675	685.88
448.896	769.88
449.117	684.88
449.338	630.88
449.559	728.88
449.779	828.88
450	653.88
450.221	553.88
450.442	506.88
450.662	501.88
450.883	526.88
451.104	512.88
451.324	486.88
451.545	479.88
451.766	436.88
451.986	446.88
452.207	445.88
452.428	419.88
452.648	452.88
452.869	426.88
453.089	445.88
453.31	453.88
453.53	437.88
453.751	443.88
453.971	459.88
454.192	457.88
454.412	454.88
454.633	433.88
454.853	452.88
455.073	437.88
455.294	455.88
455.514	540.88
455.734	539.88
455.955	437.88
456.175	414.88
456.395	400.88
456.616	396.88
456.836	394.88
457.056	391.88
457.276	390.88
457.497	409.88
457.717	402.88
457.937	405.88
458.157	425.88
458.377	416.88
458.598	466.88
458.818	518.88
459.038	604.88
459.258	640.88
459.478	528.88
459.698	462.88
459.918	436.88
460.138	444.88
460.358	427.88
460.578	442.88
460.798	450.88
461.018	460.88
461.238	431.88
461.458	415.88
461.678	432.88
461.898	427.88
462.118	408.88
462.338	420.88
462.558	433.88
462.777	439.88
462.997	418.88
463.217	448.88
463.437	457.88
463.657	452.88
463.876	465.88
464.096	436.88
464.316	461.88
464.536	471.88
464.755	461.88
464.975	480.88
465.195	549.88
465.414	656.88
465.634	567.88
465.854	505.88
466.073	482.88
466.293	448.88
466.512	451.88
466.732	440.88
466.951	440.88
467.171	428.88
467.391	428.88
467.61	437.88
467.829	458.88
468.049	444.88
468.268	434.88
468.488	422.88
468.707	435.88
468.927	412.88
469.146	402.88
469.365	410.88
469.585	390.88
469.804	436.88
470.023	458.88
470.243	440.88
470.462	459.88
470.681	458.88
470.901	473.88
471.12	448.88
471.339	439.88
471.558	459.88
471.777	441.88
471.997	445.88
472.216	445.88
472.435	508.88
472.654	462.88
472.873	444.88
473.092	424.88
473.311	442.88
473.53	435.88
473.749	457.88
473.968	503.88
474.187	598.88
474.406	638.88
474.625	536.88
474.844	483.88
475.063	463.88
475.282	441.88
475.501	455.88
475.72	445.88
475.939	445.88
476.158	460.88
476.377	456.88
476.596	444.88
476.814	454.88
477.033	471.88
477.252	453.88
477.471	471.88
477.69	454.88
477.908	481.88
478.127	470.88
478.346	477.88
478.564	480.88
478.783	468.88
479.002	475.88
479.22	506.88
479.439	508.88
479.658	497.88
479.876	529.88
480.095	512.88
480.313	556.88
480.532	545.88
480.751	536.88
480.969	580.88
481.188	616.88
481.406	672.88
481.624	596.88
481.843	553.88
482.061	563.88
482.28	518.88
482.498	527.88
482.717	527.88
482.935	518.88
483.153	520.88
483.372	504.88
483.59	546.88
483.808	527.88
484.027	533.88
484.245	516.88
484.463	543.88
484.681	549.88
484.9	525.88
485.118	534.88
485.336	542.88
485.554	562.88
485.772	537.88
485.99	516.88
486.209	559.88
486.427	548.88
486.645	557.88
486.863	607.88
487.081	580.88
487.299	568.88
487.517	578.88
487.735	560.88
487.953	577.88
488.171	566.88
488.389	575.88
488.607	559.88
488.825	562.88
489.043	587.88
489.261	574.88
489.479	567.88
489.696	586.88
489.914	562.88
490.132	584.88
490.35	614.88
490.568	594.88
490.786	614.88
491.003	607.88
491.221	633.88
491.439	661.88
491.657	646.88
491.874	662.88
492.092	658.88
492.31	669.88
492.527	648.88
492.745	664.88
492.963	654.88
493.18	692.88
493.398	677.88
493.615	694.88
493.833	657.88
494.05	669.88
494.268	681.88
494.485	700.88
494.703	661.88
494.92	700.88
495.138	697.88
495.355	692.88
495.573	684.88
495.79	658.88
496.008	678.88
496.225	660.88
496.442	672.88
496.66	675.88
496.877	685.88
497.094	669.88
497.312	660.88
497.529	673.88
497.746	682.88
497.963	700.88
498.181	745.88
498.398	711.88
498.615	725.88
498.832	737.88
499.049	730.88
499.267	767.88
499.484	749.88
499.701	739.88
499.918	752.88
500.135	798.88
500.352	791.88
500.569	775.88
500.786	801.88
501.003	823.88
501.22	790.88
501.437	816.88
501.654	781.88
501.871	841.88
502.088	783.88
502.305	772.88
502.522	733.88
502.739	723.88
502.956	708.88
503.172	718.88
503.389	700.88
503.606	712.88
503.823	726.88
504.04	714.88
504.256	683.88
504.473	676.88
504.69	665.88
504.907	681.88
505.123	662.88
505.34	663.88
505.557	655.88
505.773	672.88
505.99	696.88
506.207	682.88
506.423	672.88
506.64	647.88
506.856	645.88
507.073	649.88
507.289	640.88
507.506	653.88
507.722	660.88
507.939	714.88
508.155	660.88
508.372	639.88
508.588	638.88
508.805	617.88
509.021	612.88
509.238	652.88
509.454	682.88
509.67	659.88
509.887	633.88
510.103	645.88
510.319	660.88
510.536	788.88
510.752	1368.88
510.968	1096.88
511.184	691.88
511.401	650.88
511.617	636.88
511.833	622.88
512.049	634.88
512.265	644.88
512.481	607.88
512.698	607.88
512.914	579.88
513.13	628.88
513.346	636.88
513.562	608.88
513.778	596.88
513.994	615.88
514.21	636.88
514.426	654.88
514.642	714.88
514.858	758.88
515.074	810.88
515.29	994.88
515.506	1554.88
515.721	1227.88
515.937	790.88
516.153	732.88
516.369	685.88
516.585	645.88
516.801	644.88
517.016	616.88
517.232	604.88
517.448	590.88
517.664	631.88
517.879	618.88
518.095	597.88
518.311	589.88
518.527	577.88
518.742	620.88
518.958	598.88
519.173	603.88
519.389	604.88
519.605	618.88
519.82	632.88
520.036	646.88
520.251	685.88
520.467	713.88
520.682	716.88
520.898	708.88
521.113	735.88
521.329	802.88
521.544	930.88
521.76	1232.88
521.975	2136.88
522.19	2082.88
522.406	1117.88
522.621	782.88
522.836	698.88
523.052	632.88
523.267	608.88
523.482	591.88
523.698	574.88
523.913	574.88
524.128	563.88
524.343	555.88
524.559	565.88
524.774	522.88
524.989	546.88
525.204	540.88
525.419	550.88
525.634	538.88
525.849	514.88
526.064	506.88
526.28	512.88
526.495	498.88
526.71	512.88
526.925	516.88
527.14	484.88
527.355	480.88
527.57	487.88
527.785	481.88
527.999	489.88
528.214	495.88
528.429	470.88
528.644	490.88
528.859	486.88
529.074	519.88
529.289	512.88
529.503	629.88
529.718	591.88
529.933	517.88
530.148	514.88
530.363	467.88
530.577	461.88
530.792	469.88
531.007	448.88
531.221	461.88
531.436	454.88
531.651	464.88
531.865	483.88
532.08	451.88
532.295	460.88
532.509	440.88
532.724	466.88
532.938	445.88
533.153	448.88
533.367	450.88
533.582	444.88
533.796	452.88
534.011	457.88
534.225	446.88
534.44	424.88
534.654	458.88
534.868	453.88
535.083	441.88
535.297	457.88
535.511	451.88
535.726	461.88
535.94	455.88
536.154	473.88
536.369	452.88
536.583	455.88
536.797	436.88
537.011	434.88
537.225	429.88
537.44	432.88
537.654	424.88
537.868	432.88
538.082	448.88
538.296	426.88
538.51	462.88
538.724	459.88
538.938	457.88
539.153	434.88
539.367	450.88
539.581	434.88
539.795	462.88
540.009	455.88
540.222	425.88
540.436	436.88
540.65	432.88
540.864	449.88
541.078	459.88
541.292	449.88
541.506	448.88
541.72	447.88
541.934	429.88
542.147	432.88
542.361	423.88
542.575	422.88
542.789	444.88
543.002	426.88
543.216	421.88
543.43	426.88
543.644	428.88
543.857	436.88
544.071	421.88
544.285	434.88
544.498	428.88
544.712	429.88
544.925	419.88
545.139	434.88
545.352	427.88
545.566	437.88
545.779	411.88
545.993	429.88
546.206	409.88
546.42	399.88
546.633	413.88
546.847	413.88
547.06	403.88
547.274	404.88
547.487	403.88
547.7	391.88
547.914	416.88
548.127	381.88
548.34	388.88
548.554	396.88
548.767	401.88
548.98	392.88
549.193	402.88
549.407	400.88
549.62	407.88
549.833	416.88
550.046	399.88
550.259	384.88
550.473	394.88
550.686	386.88
550.899	385.88
551.112	392.88
551.325	412.88
551.538	386.88
551.751	400.88
551.964	376.88
552.177	397.88
552.39	410.88
552.603	384.88
552.816	389.88
553.029	384.88
553.242	390.88
553.455	395.88
553.667	403.88
553.88	420.88
554.093	413.88
554.306	411.88
554.519	397.88
554.732	390.88
554.944	390.88
555.157	402.88
555.37	392.88
555.583	381.88
555.795	379.88
556.008	377.88
556.221	376.88
556.433	371.88
556.646	372.88
556.859	366.88
557.071	388.88
557.284	361.88
557.496	380.88
557.709	372.88
557.921	356.88
558.134	370.88
558.346	363.88
558.559	376.88
558.771	372.88
558.984	356.88
559.196	334.88
559.409	337.88
559.621	355.88
559.833	356.88
560.046	345.88
560.258	349.88
560.47	354.88
560.683	354.88
560.895	353.88
561.107	354.88
561.32	357.88
561.532	353.88
561.744	358.88
561.956	359.88
562.168	358.88
562.381	347.88
562.593	350.88
562.805	362.88
563.017	359.88
563.229	376.88
563.441	354.88
563.653	373.88
563.865	352.88
564.077	362.88
564.289	373.88
564.501	368.88
564.713	357.88
564.925	372.88
565.137	379.88
565.349	383.88
565.561	363.88
565.773	374.88
565.985	360.88
566.197	373.88
566.408	394.88
566.62	394.88
566.832	405.88
567.044	394.88
567.255	398.88
567.467	394.88
567.679	424.88
567.891	416.88
568.102	404.88
568.314	416.88
568.526	396.88
568.737	381.88
568.949	381.88
569.161	363.88
569.372	370.88
569.584	360.88
569.795	355.88
570.007	366.88
570.218	408.88
570.43	417.88
570.641	347.88
570.853	348.88
571.064	326.88
571.276	316.88
571.487	334.88
571.698	340.88
571.91	350.88
572.121	329.88
572.333	330.88
572.544	318.88
572.755	348.88
572.966	337.88
573.178	325.88
573.389	323.88
573.6	315.88
573.811	306.88
574.023	321.88
574.234	312.88
574.445	307.88
574.656	315.88
574.867	329.88
575.078	324.88
575.289	313.88
575.501	316.88
575.712	301.88
575.923	316.88
576.134	316.88
576.345	321.88
576.556	302.88
576.767	297.88
576.978	312.88
577.188	284.88
577.399	280.88
577.61	305.88
577.821	299.88
578.032	322.88
578.243	359.88
578.454	644.88
578.665	472.88
578.875	332.88
579.086	299.88
579.297	309.88
579.508	274.88
579.718	285.88
579.929	290.88
580.14	288.88
580.35	289.88
580.561	280.88
580.772	290.88
580.982	285.88
581.193	289.88
581.403	275.88
581.614	299.88
581.825	267.88
582.035	277.88
582.246	306.88
582.456	298.88
582.667	276.88
582.877	280.88
583.087	278.88
583.298	272.88
583.508	272.88
583.719	276.88
583.929	296.88
584.139	274.88
584.35	290.88
584.56	280.88
584.77	281.88
584.981	281.88
585.191	280.88
585.401	280.88
585.611	269.88
585.821	277.88
586.032	264.88
586.242	296.88
586.452	274.88
586.662	264.88
586.872	267.88
587.082	280.88
587.292	281.88
587.502	270.88
587.713	284.88
587.923	270.88
588.133	277.88
588.343	272.88
588.553	274.88
588.762	281.88
588.972	269.88
589.182	281.88
589.392	274.88
589.602	267.88
589.812	282.88
590.022	248.88
590.232	264.88
590.441	269.88
590.651	274.88
590.861	259.88
591.071	263.88
591.281	282.88
591.49	266.88
591.7	275.88
591.91	276.88
592.119	269.88
592.329	272.88
592.539	278.88
592.748	286.88
592.958	276.88
593.167	282.88
593.377	293.88
593.587	280.88
593.796	291.88
594.006	282.88
594.215	276.88
594.424	281.88
594.634	284.88
594.843	269.88
595.053	260.88
595.262	270.88
595.472	266.88
595.681	263.88
595.89	232.88
596.1	255.88
596.309	254.88
596.518	271.88
596.727	267.88
596.937	267.88
597.146	267.88
597.355	265.88
597.564	245.88
597.774	244.88
597.983	247.88
598.192	245.88
598.401	264.88
598.61	252.88
598.819	250.88
599.028	237.88
599.237	262.88
599.446	234.88
599.655	262.88
599.864	234.88
600.073	249.88
600.282	254.88
600.491	251.88
600.7	247.88
600.909	245.88
601.118	227.88
601.327	256.88
601.536	235.88
601.745	248.88
601.953	238.88
602.162	253.88
602.371	228.88
602.58	237.88
602.789	257.88
602.997	232.88
603.206	227.88
603.415	246.88
603.623	224.88
603.832	234.88
604.041	217.88
604.249	217.88
604.458	235.88
604.666	228.88
604.875	245.88
605.084	221.88
605.292	227.88
605.501	222.88
605.709	220.88
605.918	232.88
606.126	240.88
606.334	222.88
606.543	232.88
606.751	223.88
606.96	252.88
607.168	234.88
607.376	236.88
607.585	226.88
607.793	231.88
608.001	240.88
608.21	246.88
608.418	230.88
608.626	225.88
608.834	238.88
609.043	232.88
609.251	237.88
609.459	233.88
609.667	229.88
609.875	225.88
610.083	237.88
610.291	214.88
610.499	233.88
610.707	211.88
610.916	237.88
611.124	228.88
611.332	233.88
611.54	233.88
611.748	228.88
611.955	240.88
612.163	219.88
612.371	217.88
612.579	230.88
612.787	237.88
612.995	240.88
613.203	229.88
613.411	231.88
613.618	224.88
613.826	217.88
614.034	221.88
614.242	228.88
614.449	222.88
614.657	219.88
614.865	225.88
615.072	219.88
615.28	222.88
615.488	202.88
615.695	219.88
615.903	219.88
616.111	225.88
616.318	223.88
616.526	228.88
616.733	221.88
616.941	215.88
617.148	218.88
617.356	209.88
617.563	219.88
617.771	206.88
617.978	225.88
618.185	211.88
618.393	220.88
618.6	206.88
618.807	220.88
619.015	213.88
619.222	200.88
619.429	204.88
619.637	223.88
619.844	211.88
620.051	217.88
620.258	195.88
620.466	201.88
620.673	218.88
620.88	187.88
621.087	203.88
621.294	193.88
621.501	193.88
621.708	221.88
621.915	209.88
622.122	228.88
622.329	235.88
622.536	198.88
622.743	207.88
622.95	200.88
623.157	201.88
623.364	212.88
623.571	210.88
623.778	190.88
623.985	206.88
624.192	197.88
624.399	202.88
624.606	205.88
624.812	219.88
625.019	182.88
625.226	196.88
625.433	218.88
625.639	204.88
625.846	197.88
626.053	193.88
626.259	192.88
626.466	195.88
626.673	192.88
626.879	193.88
627.086	203.88
627.293	173.88
627.499	187.88
627.706	170.88
627.912	193.88
628.119	180.88
628.325	198.88
628.532	192.88
628.738	196.88
628.945	187.88
629.151	176.88
629.357	181.88
629.564	174.88
629.77	176.88
629.976	181.88
630.183	184.88
630.389	189.88
630.595	199.88
630.802	188.88
631.008	177.88
631.214	179.88
631.42	190.88
631.627	184.88
631.833	186.88
632.039	188.88
632.245	176.88
632.451	184.88
632.657	183.88
632.863	190.88
633.069	191.88
633.275	171.88
633.481	180.88
633.688	176.88
633.893	169.88
634.099	173.88
634.305	167.88
634.511	173.88
634.717	172.88
634.923	177.88
635.129	164.88
635.335	171.88
635.541	167.88
635.747	168.88
635.952	171.88
636.158	187.88
636.364	180.88
636.57	185.88
636.775	178.88
636.981	180.88
637.187	182.88
637.392	177.88
637.598	176.88
637.804	180.88
638.009	174.88
638.215	170.88
638.421	169.88
638.626	188.88
638.832	164.88
639.037	168.88
639.243	168.88
639.448	156.88
639.654	180.88
639.859	156.88
640.065	166.88
640.27	172.88
640.475	168.88
640.681	147.88
640.886	170.88
641.091	170.88
641.297	185.88
641.502	156.88
641.707	160.88
641.913	162.88
642.118	169.88
642.323	164.88
642.528	162.88
642.733	160.88
642.939	177.88
643.144	172.88
643.349	165.88
643.554	168.88
643.759	160.88
643.964	161.88
644.169	153.88
644.374	157.88
644.579	158.88
644.784	156.88
644.989	146.88
645.194	142.88
645.399	156.88
645.604	165.88
645.809	153.88
646.014	161.88
646.219	161.88
646.423	161.88
646.628	168.88
646.833	156.88
647.038	171.88
647.243	158.88
647.447	163.88
647.652	168.88
647.857	156.88
648.062	158.88
648.266	159.88
648.471	154.88
648.676	148.88
648.88	162.88
649.085	157.88
649.289	172.88
649.494	176.88
649.698	176.88
649.903	179.88
650.107	170.88
650.312	160.88
650.516	161.88
650.721	144.88
650.925	159.88
651.13	148.88
651.334	155.88
651.539	132.88
651.743	158.88
651.947	142.88
652.152	143.88
652.356	140.88
652.56	133.88
652.764	137.88
652.969	163.88
653.173	150.88
653.377	140.88
653.581	142.88
653.785	135.88
653.99	129.88
654.194	133.88
654.398	133.88
654.602	134.88
654.806	130.88
655.01	142.88
655.214	141.88
655.418	125.88
655.622	125.88
655.826	132.88
656.03	129.88
656.234	126.88
656.438	121.88
656.642	112.88
656.846	107.88
657.049	132.88
657.253	124.88
657.457	114.88
657.661	122.88
657.865	100.88
658.068	97.88
658.272	85.88
658.476	105.88
658.68	118.88
658.883	97.88
659.087	91.88
659.291	119.88
659.494	106.88
659.698	109.88
659.901	85.88
660.105	98.88
660.309	78.88
660.512	94.88
660.716	93.88
660.919	78.88
661.123	85.88
661.326	88.88
661.53	74.88
661.733	76.88
661.936	91.88
662.14	85.88
662.343	94.88
662.546	84.88
662.75	72.88
662.953	93.88
663.156	91.88
663.36	77.88
663.563	94.88
663.766	84.88
663.969	86.88
664.173	77.88
664.376	100.88
664.579	76.88
664.782	75.88
664.985	82.88
665.188	93.88
665.391	85.88
665.594	92.88
665.797	98.88
666	83.88
666.203	71.88
666.406	72.88
666.609	89.88
666.812	78.88
667.015	84.88
667.218	62.88
667.421	75.88
667.624	94.88
667.827	78.88
668.03	99.88
668.232	86.88
668.435	91.88
668.638	84.88
668.841	97.88
669.043	89.88
669.246	86.88
669.449	90.88
669.651	76.88
669.854	78.88
670.057	83.88
670.259	92.88
670.462	78.88
670.665	75.88
670.867	74.88
671.07	76.88
671.272	86.88
671.475	90.88
671.677	82.88
671.88	86.88
672.082	76.88
672.284	89.88
672.487	89.88
672.689	76.88
672.892	83.88
