Data from 1980.PennyLincolnUp.Lamp.En5.5.200Scan.071819.P1_HRD10591_16-38-45-957.txt Node
Date: Thu Jul 18 16:38:45 EDT 2019
User: cochatt
Spectrometer: HR+D1059
Trigger mode: 1
Integration Time (sec): 1.000000E-1
Scans to average: 1
Electric dark correction enabled: true
Nonlinearity correction enabled: false
Boxcar width: 0
XAxis mode: Wavelengths
Number of Pixels in Spectrum: 2048
>>>>>Begin Spectral Data<<<<<
223.165	-24.12
223.4	-24.12
223.635	-24.12
223.869	-12.12
224.104	-28.12
224.338	-10.12
224.573	-18.12
224.808	-12.12
225.042	2.88
225.277	-0.12
225.511	1.88
225.746	9.88
225.98	6.88
226.215	-0.12
226.449	15.88
226.683	12.88
226.918	28.88
227.152	25.88
227.387	32.88
227.621	36.88
227.856	50.88
228.09	47.88
228.324	51.88
228.559	47.88
228.793	54.88
229.027	100.88
229.262	95.88
229.496	127.88
229.73	129.88
229.964	156.88
230.199	155.88
230.433	132.88
230.667	118.88
230.901	131.88
231.136	118.88
231.37	114.88
231.604	113.88
231.838	112.88
232.072	106.88
232.306	123.88
232.541	120.88
232.775	114.88
233.009	110.88
233.243	115.88
233.477	99.88
233.711	109.88
233.945	111.88
234.179	111.88
234.413	118.88
234.647	119.88
234.881	113.88
235.115	120.88
235.349	118.88
235.583	111.88
235.817	112.88
236.051	133.88
236.285	123.88
236.519	132.88
236.753	142.88
236.987	149.88
237.221	186.88
237.455	260.88
237.689	202.88
237.922	157.88
238.156	130.88
238.39	126.88
238.624	139.88
238.858	131.88
239.091	119.88
239.325	115.88
239.559	129.88
239.793	134.88
240.027	134.88
240.26	157.88
240.494	172.88
240.728	147.88
240.961	155.88
241.195	143.88
241.429	142.88
241.662	126.88
241.896	139.88
242.13	148.88
242.363	131.88
242.597	133.88
242.83	140.88
243.064	136.88
243.298	139.88
243.531	141.88
243.765	137.88
243.998	144.88
244.232	152.88
244.465	160.88
244.699	137.88
244.932	129.88
245.166	132.88
245.399	152.88
245.633	134.88
245.866	146.88
246.099	153.88
246.333	157.88
246.566	148.88
246.8	150.88
247.033	154.88
247.266	155.88
247.5	176.88
247.733	177.88
247.966	190.88
248.2	173.88
248.433	165.88
248.666	167.88
248.899	183.88
249.133	203.88
249.366	220.88
249.599	224.88
249.832	217.88
250.066	183.88
250.299	181.88
250.532	216.88
250.765	213.88
250.998	236.88
251.231	243.88
251.465	232.88
251.698	231.88
251.931	201.88
252.164	197.88
252.397	216.88
252.63	203.88
252.863	210.88
253.096	235.88
253.329	258.88
253.562	233.88
253.795	232.88
254.028	237.88
254.261	214.88
254.494	224.88
254.727	266.88
254.96	310.88
255.193	287.88
255.426	284.88
255.659	254.88
255.892	263.88
256.124	236.88
256.357	251.88
256.59	235.88
256.823	228.88
257.056	219.88
257.289	219.88
257.521	217.88
257.754	230.88
257.987	225.88
258.22	218.88
258.452	216.88
258.685	206.88
258.918	217.88
259.151	211.88
259.383	223.88
259.616	230.88
259.849	214.88
260.081	247.88
260.314	243.88
260.547	265.88
260.779	260.88
261.012	234.88
261.244	231.88
261.477	246.88
261.71	221.88
261.942	245.88
262.175	238.88
262.407	248.88
262.64	225.88
262.872	215.88
263.105	213.88
263.337	217.88
263.57	217.88
263.802	234.88
264.035	197.88
264.267	210.88
264.499	228.88
264.732	234.88
264.964	207.88
265.197	195.88
265.429	207.88
265.661	224.88
265.894	229.88
266.126	230.88
266.358	214.88
266.591	216.88
266.823	209.88
267.055	233.88
267.287	226.88
267.52	239.88
267.752	231.88
267.984	231.88
268.216	227.88
268.448	239.88
268.681	235.88
268.913	256.88
269.145	280.88
269.377	271.88
269.609	274.88
269.841	279.88
270.073	272.88
270.306	295.88
270.538	320.88
270.77	333.88
271.002	320.88
271.234	295.88
271.466	325.88
271.698	327.88
271.93	331.88
272.162	340.88
272.394	331.88
272.626	325.88
272.858	281.88
273.09	287.88
273.322	275.88
273.553	274.88
273.785	258.88
274.017	279.88
274.249	280.88
274.481	268.88
274.713	278.88
274.945	274.88
275.176	272.88
275.408	274.88
275.64	275.88
275.872	277.88
276.104	262.88
276.335	271.88
276.567	280.88
276.799	292.88
277.031	315.88
277.262	333.88
277.494	327.88
277.726	321.88
277.957	297.88
278.189	281.88
278.421	271.88
278.652	293.88
278.884	271.88
279.115	268.88
279.347	263.88
279.579	275.88
279.81	248.88
280.042	270.88
280.273	262.88
280.505	260.88
280.736	252.88
280.968	244.88
281.199	259.88
281.431	284.88
281.662	259.88
281.894	265.88
282.125	257.88
282.356	294.88
282.588	301.88
282.819	309.88
283.051	285.88
283.282	267.88
283.513	262.88
283.745	275.88
283.976	267.88
284.207	287.88
284.439	279.88
284.67	275.88
284.901	254.88
285.132	272.88
285.364	255.88
285.595	267.88
285.826	271.88
286.057	261.88
286.288	264.88
286.52	273.88
286.751	266.88
286.982	273.88
287.213	291.88
287.444	278.88
287.675	283.88
287.906	285.88
288.138	281.88
288.369	293.88
288.6	292.88
288.831	273.88
289.062	302.88
289.293	280.88
289.524	265.88
289.755	282.88
289.986	281.88
290.217	267.88
290.448	267.88
290.679	287.88
290.91	271.88
291.141	275.88
291.371	266.88
291.602	258.88
291.833	265.88
292.064	277.88
292.295	291.88
292.526	259.88
292.757	278.88
292.987	277.88
293.218	271.88
293.449	260.88
293.68	290.88
293.91	271.88
294.141	271.88
294.372	288.88
294.603	275.88
294.833	266.88
295.064	272.88
295.295	279.88
295.525	280.88
295.756	284.88
295.987	291.88
296.217	300.88
296.448	339.88
296.679	286.88
296.909	272.88
297.14	291.88
297.37	290.88
297.601	276.88
297.831	262.88
298.062	284.88
298.292	289.88
298.523	279.88
298.753	291.88
298.984	283.88
299.214	278.88
299.445	303.88
299.675	289.88
299.905	296.88
300.136	291.88
300.366	281.88
300.597	270.88
300.827	303.88
301.057	295.88
301.288	311.88
301.518	302.88
301.748	310.88
301.979	295.88
302.209	294.88
302.439	315.88
302.669	301.88
302.9	313.88
303.13	301.88
303.36	307.88
303.59	299.88
303.82	321.88
304.051	309.88
304.281	299.88
304.511	289.88
304.741	300.88
304.971	288.88
305.201	300.88
305.431	314.88
305.661	313.88
305.891	292.88
306.121	310.88
306.352	320.88
306.582	308.88
306.812	331.88
307.042	310.88
307.272	308.88
307.502	307.88
307.731	309.88
307.961	305.88
308.191	334.88
308.421	318.88
308.651	331.88
308.881	322.88
309.111	333.88
309.341	328.88
309.571	325.88
309.8	338.88
310.03	351.88
310.26	373.88
310.49	373.88
310.72	381.88
310.949	395.88
311.179	385.88
311.409	361.88
311.639	370.88
311.868	391.88
312.098	369.88
312.328	381.88
312.557	402.88
312.787	405.88
313.017	438.88
313.246	370.88
313.476	361.88
313.706	363.88
313.935	359.88
314.165	395.88
314.394	392.88
314.624	404.88
314.853	382.88
315.083	383.88
315.312	361.88
315.542	361.88
315.771	347.88
316.001	350.88
316.23	350.88
316.46	325.88
316.689	365.88
316.919	395.88
317.148	379.88
317.377	375.88
317.607	367.88
317.836	376.88
318.065	365.88
318.295	373.88
318.524	365.88
318.753	370.88
318.983	354.88
319.212	358.88
319.441	379.88
319.67	377.88
319.9	385.88
320.129	370.88
320.358	359.88
320.587	365.88
320.816	378.88
321.046	415.88
321.275	387.88
321.504	386.88
321.733	375.88
321.962	402.88
322.191	420.88
322.42	449.88
322.649	464.88
322.878	473.88
323.108	476.88
323.337	506.88
323.566	525.88
323.795	554.88
324.024	645.88
324.253	815.88
324.482	1108.88
324.71	1750.88
324.939	2559.88
325.168	2184.88
325.397	1161.88
325.626	756.88
325.855	598.88
326.084	556.88
326.313	517.88
326.542	522.88
326.77	603.88
326.999	702.88
327.228	1010.88
327.457	1514.88
327.686	1909.88
327.914	1311.88
328.143	859.88
328.372	746.88
328.6	666.88
328.829	600.88
329.058	616.88
329.287	641.88
329.515	598.88
329.744	533.88
329.972	527.88
330.201	571.88
330.43	617.88
330.658	635.88
330.887	693.88
331.115	657.88
331.344	544.88
331.572	509.88
331.801	515.88
332.03	468.88
332.258	487.88
332.486	451.88
332.715	442.88
332.943	424.88
333.172	432.88
333.4	440.88
333.629	459.88
333.857	481.88
334.085	484.88
334.314	489.88
334.542	529.88
334.771	553.88
334.999	485.88
335.227	482.88
335.455	451.88
335.684	438.88
335.912	448.88
336.14	411.88
336.369	419.88
336.597	436.88
336.825	432.88
337.053	426.88
337.281	426.88
337.51	401.88
337.738	410.88
337.966	423.88
338.194	429.88
338.422	438.88
338.65	427.88
338.878	396.88
339.106	397.88
339.334	426.88
339.562	397.88
339.79	420.88
340.018	431.88
340.246	412.88
340.474	429.88
340.702	416.88
340.93	393.88
341.158	396.88
341.386	413.88
341.614	416.88
341.842	396.88
342.07	402.88
342.298	400.88
342.526	396.88
342.754	387.88
342.981	384.88
343.209	373.88
343.437	390.88
343.665	406.88
343.893	415.88
344.12	398.88
344.348	405.88
344.576	405.88
344.804	406.88
345.031	434.88
345.259	449.88
345.487	445.88
345.714	398.88
345.942	408.88
346.17	405.88
346.397	375.88
346.625	392.88
346.853	400.88
347.08	422.88
347.308	393.88
347.535	429.88
347.763	403.88
347.99	410.88
348.218	415.88
348.445	418.88
348.673	425.88
348.9	434.88
349.128	411.88
349.355	394.88
349.583	395.88
349.81	375.88
350.037	395.88
350.265	376.88
350.492	392.88
350.72	385.88
350.947	401.88
351.174	425.88
351.402	435.88
351.629	427.88
351.856	415.88
352.083	420.88
352.311	412.88
352.538	414.88
352.765	437.88
352.992	417.88
353.22	414.88
353.447	408.88
353.674	383.88
353.901	386.88
354.128	365.88
354.355	364.88
354.583	371.88
354.81	371.88
355.037	381.88
355.264	360.88
355.491	365.88
355.718	352.88
355.945	352.88
356.172	358.88
356.399	352.88
356.626	358.88
356.853	361.88
357.08	344.88
357.307	353.88
357.534	368.88
357.761	355.88
357.988	363.88
358.215	353.88
358.441	364.88
358.668	351.88
358.895	368.88
359.122	373.88
359.349	382.88
359.576	401.88
359.802	425.88
360.029	473.88
360.256	476.88
360.483	452.88
360.709	411.88
360.936	407.88
361.163	387.88
361.39	408.88
361.616	409.88
361.843	397.88
362.07	406.88
362.296	412.88
362.523	404.88
362.749	407.88
362.976	396.88
363.203	374.88
363.429	371.88
363.656	369.88
363.882	386.88
364.109	354.88
364.335	378.88
364.562	374.88
364.788	379.88
365.015	366.88
365.241	361.88
365.468	389.88
365.694	393.88
365.92	374.88
366.147	389.88
366.373	387.88
366.599	379.88
366.826	388.88
367.052	378.88
367.278	377.88
367.505	369.88
367.731	376.88
367.957	389.88
368.184	394.88
368.41	381.88
368.636	384.88
368.862	389.88
369.089	365.88
369.315	398.88
369.541	358.88
369.767	381.88
369.993	370.88
370.219	371.88
370.445	378.88
370.672	369.88
370.898	349.88
371.124	375.88
371.35	361.88
371.576	354.88
371.802	372.88
372.028	365.88
372.254	385.88
372.48	352.88
372.706	351.88
372.932	335.88
373.158	342.88
373.384	359.88
373.61	347.88
373.835	349.88
374.061	354.88
374.287	375.88
374.513	372.88
374.739	358.88
374.965	372.88
375.191	370.88
375.416	354.88
375.642	358.88
375.868	360.88
376.094	375.88
376.319	365.88
376.545	367.88
376.771	358.88
376.997	354.88
377.222	361.88
377.448	369.88
377.674	347.88
377.899	345.88
378.125	355.88
378.35	354.88
378.576	367.88
378.802	362.88
379.027	377.88
379.253	370.88
379.478	357.88
379.704	332.88
379.929	356.88
380.155	377.88
380.38	365.88
380.606	362.88
380.831	367.88
381.057	376.88
381.282	362.88
381.507	352.88
381.733	368.88
381.958	370.88
382.184	369.88
382.409	375.88
382.634	371.88
382.86	373.88
383.085	354.88
383.31	383.88
383.535	374.88
383.761	373.88
383.986	374.88
384.211	375.88
384.436	365.88
384.662	366.88
384.887	365.88
385.112	358.88
385.337	362.88
385.562	376.88
385.787	375.88
386.013	387.88
386.238	384.88
386.463	395.88
386.688	399.88
386.913	396.88
387.138	379.88
387.363	392.88
387.588	380.88
387.813	385.88
388.038	379.88
388.263	391.88
388.488	371.88
388.713	384.88
388.938	389.88
389.163	392.88
389.387	393.88
389.612	379.88
389.837	392.88
390.062	396.88
390.287	391.88
390.512	383.88
390.736	393.88
390.961	372.88
391.186	377.88
391.411	393.88
391.636	375.88
391.86	391.88
392.085	387.88
392.31	395.88
392.534	388.88
392.759	401.88
392.984	399.88
393.208	381.88
393.433	377.88
393.658	375.88
393.882	385.88
394.107	378.88
394.331	378.88
394.556	382.88
394.78	393.88
395.005	409.88
395.229	373.88
395.454	387.88
395.678	400.88
395.903	395.88
396.127	449.88
396.352	432.88
396.576	396.88
396.801	399.88
397.025	404.88
397.249	380.88
397.474	391.88
397.698	409.88
397.922	413.88
398.147	427.88
398.371	439.88
398.595	419.88
398.82	434.88
399.044	410.88
399.268	429.88
399.492	433.88
399.717	475.88
399.941	490.88
400.165	515.88
400.389	514.88
400.613	487.88
400.837	468.88
401.062	443.88
401.286	433.88
401.51	438.88
401.734	447.88
401.958	435.88
402.182	451.88
402.406	464.88
402.63	461.88
402.854	453.88
403.078	457.88
403.302	445.88
403.526	485.88
403.75	454.88
403.974	457.88
404.198	447.88
404.422	468.88
404.645	450.88
404.869	468.88
405.093	493.88
405.317	535.88
405.541	567.88
405.765	513.88
405.988	514.88
406.212	498.88
406.436	506.88
406.66	522.88
406.883	501.88
407.107	519.88
407.331	555.88
407.555	628.88
407.778	618.88
408.002	573.88
408.226	521.88
408.449	533.88
408.673	525.88
408.896	548.88
409.12	578.88
409.344	543.88
409.567	492.88
409.791	481.88
410.014	464.88
410.238	469.88
410.461	472.88
410.685	441.88
410.908	488.88
411.132	523.88
411.355	525.88
411.578	521.88
411.802	497.88
412.025	454.88
412.249	473.88
412.472	519.88
412.695	529.88
412.919	518.88
413.142	477.88
413.365	458.88
413.589	463.88
413.812	442.88
414.035	443.88
414.258	431.88
414.482	434.88
414.705	418.88
414.928	424.88
415.151	432.88
415.374	427.88
415.597	450.88
415.821	422.88
416.044	418.88
416.267	453.88
416.49	425.88
416.713	439.88
416.936	442.88
417.159	442.88
417.382	451.88
417.605	428.88
417.828	454.88
418.051	478.88
418.274	466.88
418.497	422.88
418.72	433.88
418.943	431.88
419.166	443.88
419.389	457.88
419.611	456.88
419.834	465.88
420.057	478.88
420.28	462.88
420.503	482.88
420.726	481.88
420.948	483.88
421.171	504.88
421.394	577.88
421.617	466.88
421.839	465.88
422.062	469.88
422.285	484.88
422.507	545.88
422.73	643.88
422.953	592.88
423.175	521.88
423.398	498.88
423.621	490.88
423.843	520.88
424.066	521.88
424.288	493.88
424.511	513.88
424.733	597.88
424.956	650.88
425.178	643.88
425.401	634.88
425.623	678.88
425.846	564.88
426.068	522.88
426.291	512.88
426.513	524.88
426.735	533.88
426.958	603.88
427.18	680.88
427.402	778.88
427.625	869.88
427.847	815.88
428.069	692.88
428.292	607.88
428.514	533.88
428.736	498.88
428.958	510.88
429.181	488.88
429.403	487.88
429.625	511.88
429.847	544.88
430.069	600.88
430.292	613.88
430.514	521.88
430.736	488.88
430.958	478.88
431.18	460.88
431.402	449.88
431.624	438.88
431.846	429.88
432.068	431.88
432.29	465.88
432.512	437.88
432.734	435.88
432.956	461.88
433.178	460.88
433.4	457.88
433.622	450.88
433.844	467.88
434.066	439.88
434.287	441.88
434.509	454.88
434.731	448.88
434.953	465.88
435.175	472.88
435.397	484.88
435.618	536.88
435.84	568.88
436.062	680.88
436.284	727.88
436.505	613.88
436.727	544.88
436.949	523.88
437.17	493.88
437.392	511.88
437.614	530.88
437.835	553.88
438.057	665.88
438.278	727.88
438.5	740.88
438.721	810.88
438.943	776.88
439.165	620.88
439.386	567.88
439.608	563.88
439.829	544.88
440.05	593.88
440.272	632.88
440.493	592.88
440.715	526.88
440.936	521.88
441.158	512.88
441.379	489.88
441.6	491.88
441.822	517.88
442.043	559.88
442.264	660.88
442.486	695.88
442.707	586.88
442.928	551.88
443.149	549.88
443.371	579.88
443.592	620.88
443.813	710.88
444.034	793.88
444.255	632.88
444.476	545.88
444.698	525.88
444.919	537.88
445.14	604.88
445.361	597.88
445.582	561.88
445.803	655.88
446.024	744.88
446.245	769.88
446.466	681.88
446.687	605.88
446.908	531.88
447.129	511.88
447.35	490.88
447.571	481.88
447.792	498.88
448.013	485.88
448.234	521.88
448.455	557.88
448.675	668.88
448.896	785.88
449.117	687.88
449.338	614.88
449.559	727.88
449.779	824.88
450	689.88
450.221	553.88
450.442	520.88
450.662	494.88
450.883	499.88
451.104	518.88
451.324	517.88
451.545	474.88
451.766	446.88
451.986	424.88
452.207	423.88
452.428	436.88
452.648	435.88
452.869	457.88
453.089	457.88
453.31	469.88
453.53	423.88
453.751	450.88
453.971	441.88
454.192	471.88
454.412	469.88
454.633	430.88
454.853	437.88
455.073	440.88
455.294	453.88
455.514	554.88
455.734	547.88
455.955	458.88
456.175	405.88
456.395	399.88
456.616	402.88
456.836	387.88
457.056	402.88
457.276	403.88
457.497	399.88
457.717	381.88
457.937	417.88
458.157	402.88
458.377	418.88
458.598	443.88
458.818	523.88
459.038	628.88
459.258	627.88
459.478	544.88
459.698	483.88
459.918	450.88
460.138	437.88
460.358	433.88
460.578	458.88
460.798	445.88
461.018	446.88
461.238	453.88
461.458	456.88
461.678	439.88
461.898	437.88
462.118	425.88
462.338	448.88
462.558	451.88
462.777	417.88
462.997	458.88
463.217	442.88
463.437	459.88
463.657	441.88
463.876	465.88
464.096	450.88
464.316	451.88
464.536	469.88
464.755	465.88
464.975	466.88
465.195	529.88
465.414	640.88
465.634	566.88
465.854	521.88
466.073	479.88
466.293	459.88
466.512	453.88
466.732	439.88
466.951	426.88
467.171	427.88
467.391	429.88
467.61	438.88
467.829	448.88
468.049	469.88
468.268	454.88
468.488	458.88
468.707	439.88
468.927	433.88
469.146	423.88
469.365	419.88
469.585	414.88
469.804	451.88
470.023	450.88
470.243	450.88
470.462	444.88
470.681	463.88
470.901	453.88
471.12	456.88
471.339	437.88
471.558	443.88
471.777	431.88
471.997	448.88
472.216	459.88
472.435	507.88
472.654	478.88
472.873	459.88
473.092	454.88
473.311	431.88
473.53	441.88
473.749	465.88
473.968	507.88
474.187	603.88
474.406	667.88
474.625	533.88
474.844	483.88
475.063	455.88
475.282	463.88
475.501	453.88
475.72	457.88
475.939	449.88
476.158	459.88
476.377	490.88
476.596	462.88
476.814	446.88
477.033	472.88
477.252	468.88
477.471	455.88
477.69	451.88
477.908	485.88
478.127	474.88
478.346	460.88
478.564	478.88
478.783	491.88
479.002	501.88
479.22	503.88
479.439	519.88
479.658	525.88
479.876	561.88
480.095	558.88
480.313	561.88
480.532	552.88
480.751	523.88
480.969	557.88
481.188	625.88
481.406	689.88
481.624	602.88
481.843	567.88
482.061	562.88
482.28	531.88
482.498	551.88
482.717	537.88
482.935	523.88
483.153	531.88
483.372	527.88
483.59	542.88
483.808	535.88
484.027	543.88
484.245	514.88
484.463	534.88
484.681	545.88
484.9	531.88
485.118	538.88
485.336	531.88
485.554	566.88
485.772	557.88
485.99	557.88
486.209	562.88
486.427	550.88
486.645	570.88
486.863	580.88
487.081	601.88
487.299	580.88
487.517	570.88
487.735	593.88
487.953	569.88
488.171	585.88
488.389	602.88
488.607	583.88
488.825	570.88
489.043	568.88
489.261	590.88
489.479	589.88
489.696	581.88
489.914	572.88
490.132	603.88
490.35	607.88
490.568	625.88
490.786	616.88
491.003	611.88
491.221	648.88
491.439	652.88
491.657	659.88
491.874	665.88
492.092	679.88
492.31	689.88
492.527	673.88
492.745	687.88
492.963	694.88
493.18	674.88
493.398	691.88
493.615	715.88
493.833	701.88
494.05	659.88
494.268	685.88
494.485	689.88
494.703	715.88
494.92	709.88
495.138	673.88
495.355	703.88
495.573	709.88
495.79	696.88
496.008	698.88
496.225	697.88
496.442	697.88
496.66	686.88
496.877	686.88
497.094	714.88
497.312	703.88
497.529	671.88
497.746	705.88
497.963	713.88
498.181	728.88
498.398	728.88
498.615	723.88
498.832	729.88
499.049	740.88
499.267	742.88
499.484	766.88
499.701	803.88
499.918	795.88
500.135	802.88
500.352	830.88
500.569	824.88
500.786	825.88
501.003	801.88
501.22	818.88
501.437	810.88
501.654	801.88
501.871	806.88
502.088	790.88
502.305	766.88
502.522	726.88
502.739	720.88
502.956	718.88
503.172	714.88
503.389	704.88
503.606	707.88
503.823	725.88
504.04	709.88
504.256	691.88
504.473	673.88
504.69	675.88
504.907	669.88
505.123	673.88
505.34	663.88
505.557	681.88
505.773	659.88
505.99	661.88
506.207	662.88
506.423	664.88
506.64	678.88
506.856	666.88
507.073	645.88
507.289	645.88
507.506	637.88
507.722	667.88
507.939	713.88
508.155	663.88
508.372	641.88
508.588	649.88
508.805	642.88
509.021	651.88
509.238	645.88
509.454	664.88
509.67	660.88
509.887	636.88
510.103	643.88
510.319	659.88
510.536	798.88
510.752	1343.88
510.968	1124.88
511.184	664.88
511.401	649.88
511.617	649.88
511.833	616.88
512.049	669.88
512.265	610.88
512.481	630.88
512.698	615.88
512.914	625.88
513.13	603.88
513.346	595.88
513.562	637.88
513.778	618.88
513.994	655.88
514.21	658.88
514.426	703.88
514.642	715.88
514.858	747.88
515.074	828.88
515.29	1005.88
515.506	1482.88
515.721	1239.88
515.937	772.88
516.153	727.88
516.369	669.88
516.585	631.88
516.801	609.88
517.016	625.88
517.232	613.88
517.448	623.88
517.664	607.88
517.879	611.88
518.095	597.88
518.311	603.88
518.527	598.88
518.742	625.88
518.958	590.88
519.173	606.88
519.389	611.88
519.605	630.88
519.82	620.88
520.036	610.88
520.251	659.88
520.467	682.88
520.682	695.88
520.898	714.88
521.113	724.88
521.329	793.88
521.544	920.88
521.76	1205.88
521.975	2056.88
522.19	1991.88
522.406	1061.88
522.621	748.88
522.836	672.88
523.052	656.88
523.267	584.88
523.482	567.88
523.698	575.88
523.913	573.88
524.128	553.88
524.343	562.88
524.559	533.88
524.774	531.88
524.989	545.88
525.204	548.88
525.419	541.88
525.634	543.88
525.849	502.88
526.064	511.88
526.28	532.88
526.495	509.88
526.71	487.88
526.925	481.88
527.14	497.88
527.355	499.88
527.57	466.88
527.785	475.88
527.999	485.88
528.214	489.88
528.429	483.88
528.644	484.88
528.859	480.88
529.074	493.88
529.289	513.88
529.503	626.88
529.718	575.88
529.933	559.88
530.148	511.88
530.363	517.88
530.577	481.88
530.792	455.88
531.007	476.88
531.221	455.88
531.436	475.88
531.651	478.88
531.865	468.88
532.08	479.88
532.295	463.88
532.509	463.88
532.724	444.88
532.938	435.88
533.153	466.88
533.367	457.88
533.582	446.88
533.796	472.88
534.011	459.88
534.225	445.88
534.44	437.88
534.654	431.88
534.868	452.88
535.083	453.88
535.297	432.88
535.511	449.88
535.726	450.88
535.94	477.88
536.154	446.88
536.369	443.88
536.583	455.88
536.797	432.88
537.011	458.88
537.225	443.88
537.44	447.88
537.654	440.88
537.868	468.88
538.082	440.88
538.296	444.88
538.51	458.88
538.724	434.88
538.938	448.88
539.153	434.88
539.367	462.88
539.581	479.88
539.795	448.88
540.009	441.88
540.222	447.88
540.436	434.88
540.65	424.88
540.864	448.88
541.078	441.88
541.292	456.88
541.506	450.88
541.72	448.88
541.934	462.88
542.147	429.88
542.361	450.88
542.575	435.88
542.789	424.88
543.002	429.88
543.216	439.88
543.43	437.88
543.644	429.88
543.857	455.88
544.071	438.88
544.285	441.88
544.498	441.88
544.712	422.88
544.925	429.88
545.139	437.88
545.352	438.88
545.566	429.88
545.779	425.88
545.993	435.88
546.206	409.88
546.42	417.88
546.633	424.88
546.847	402.88
547.06	406.88
547.274	416.88
547.487	404.88
547.7	411.88
547.914	408.88
548.127	410.88
548.34	389.88
548.554	422.88
548.767	426.88
548.98	393.88
549.193	404.88
549.407	407.88
549.62	408.88
549.833	411.88
550.046	423.88
550.259	410.88
550.473	378.88
550.686	401.88
550.899	386.88
551.112	410.88
551.325	407.88
551.538	389.88
551.751	395.88
551.964	412.88
552.177	390.88
552.39	379.88
552.603	394.88
552.816	390.88
553.029	410.88
553.242	416.88
553.455	410.88
553.667	439.88
553.88	429.88
554.093	423.88
554.306	411.88
554.519	392.88
554.732	406.88
554.944	399.88
555.157	390.88
555.37	379.88
555.583	382.88
555.795	396.88
556.008	391.88
556.221	390.88
556.433	387.88
556.646	374.88
556.859	381.88
557.071	392.88
557.284	370.88
557.496	390.88
557.709	372.88
557.921	364.88
558.134	375.88
558.346	367.88
558.559	365.88
558.771	358.88
558.984	374.88
559.196	354.88
559.409	362.88
559.621	366.88
559.833	356.88
560.046	370.88
560.258	371.88
560.47	355.88
560.683	368.88
560.895	357.88
561.107	356.88
561.32	372.88
561.532	357.88
561.744	363.88
561.956	339.88
562.168	357.88
562.381	352.88
562.593	366.88
562.805	362.88
563.017	365.88
563.229	359.88
563.441	358.88
563.653	346.88
563.865	366.88
564.077	358.88
564.289	364.88
564.501	391.88
564.713	381.88
564.925	371.88
565.137	367.88
565.349	371.88
565.561	399.88
565.773	381.88
565.985	389.88
566.197	386.88
566.408	398.88
566.62	388.88
566.832	401.88
567.044	417.88
567.255	390.88
567.467	407.88
567.679	394.88
567.891	403.88
568.102	414.88
568.314	404.88
568.526	411.88
568.737	393.88
568.949	394.88
569.161	373.88
569.372	374.88
569.584	352.88
569.795	367.88
570.007	389.88
570.218	433.88
570.43	422.88
570.641	370.88
570.853	357.88
571.064	345.88
571.276	352.88
571.487	351.88
571.698	350.88
571.91	345.88
572.121	343.88
572.333	313.88
572.544	325.88
572.755	322.88
572.966	314.88
573.178	320.88
573.389	333.88
573.6	329.88
573.811	323.88
574.023	319.88
574.234	298.88
574.445	307.88
574.656	312.88
574.867	310.88
575.078	313.88
575.289	310.88
575.501	322.88
575.712	317.88
575.923	315.88
576.134	315.88
576.345	302.88
576.556	316.88
576.767	313.88
576.978	311.88
577.188	307.88
577.399	324.88
577.61	280.88
577.821	310.88
578.032	330.88
578.243	349.88
578.454	633.88
578.665	479.88
578.875	339.88
579.086	319.88
579.297	302.88
579.508	313.88
579.718	308.88
579.929	305.88
580.14	291.88
580.35	290.88
580.561	289.88
580.772	291.88
580.982	280.88
581.193	280.88
581.403	286.88
581.614	277.88
581.825	274.88
582.035	288.88
582.246	286.88
582.456	279.88
582.667	287.88
582.877	285.88
583.087	265.88
583.298	291.88
583.508	290.88
583.719	303.88
583.929	278.88
584.139	290.88
584.35	283.88
584.56	298.88
584.77	310.88
584.981	272.88
585.191	299.88
585.401	291.88
585.611	285.88
585.821	284.88
586.032	276.88
586.242	293.88
586.452	276.88
586.662	266.88
586.872	275.88
587.082	287.88
587.292	245.88
587.502	280.88
587.713	277.88
587.923	286.88
588.133	275.88
588.343	270.88
588.553	280.88
588.762	265.88
588.972	273.88
589.182	253.88
589.392	252.88
589.602	282.88
589.812	271.88
590.022	279.88
590.232	286.88
590.441	257.88
590.651	281.88
590.861	295.88
591.071	266.88
591.281	282.88
591.49	288.88
591.7	285.88
591.91	266.88
592.119	285.88
592.329	271.88
592.539	292.88
592.748	272.88
592.958	260.88
593.167	274.88
593.377	281.88
593.587	293.88
593.796	288.88
594.006	252.88
594.215	266.88
594.424	267.88
594.634	266.88
594.843	289.88
595.053	291.88
595.262	277.88
595.472	275.88
595.681	246.88
595.89	257.88
596.1	255.88
596.309	247.88
596.518	245.88
596.727	253.88
596.937	254.88
597.146	247.88
597.355	255.88
597.564	262.88
597.774	247.88
597.983	258.88
598.192	245.88
598.401	242.88
598.61	239.88
598.819	265.88
599.028	244.88
599.237	261.88
599.446	260.88
599.655	264.88
599.864	233.88
600.073	244.88
600.282	241.88
600.491	252.88
600.7	255.88
600.909	240.88
601.118	242.88
601.327	226.88
601.536	243.88
601.745	230.88
601.953	255.88
602.162	262.88
602.371	235.88
602.58	237.88
602.789	226.88
602.997	243.88
603.206	247.88
603.415	246.88
603.623	225.88
603.832	225.88
604.041	237.88
604.249	233.88
604.458	243.88
604.666	234.88
604.875	221.88
605.084	222.88
605.292	234.88
605.501	243.88
605.709	234.88
605.918	224.88
606.126	232.88
606.334	226.88
606.543	218.88
606.751	218.88
606.96	218.88
607.168	238.88
607.376	226.88
607.585	232.88
607.793	219.88
608.001	219.88
608.21	232.88
608.418	229.88
608.626	222.88
608.834	210.88
609.043	229.88
609.251	216.88
609.459	245.88
609.667	229.88
609.875	214.88
610.083	225.88
610.291	223.88
610.499	220.88
610.707	222.88
610.916	232.88
611.124	226.88
611.332	218.88
611.54	219.88
611.748	213.88
611.955	216.88
612.163	229.88
612.371	229.88
612.579	230.88
612.787	241.88
612.995	225.88
613.203	227.88
613.411	241.88
613.618	239.88
613.826	229.88
614.034	237.88
614.242	222.88
614.449	212.88
614.657	223.88
614.865	224.88
615.072	224.88
615.28	230.88
615.488	241.88
615.695	223.88
615.903	216.88
616.111	221.88
616.318	232.88
616.526	201.88
616.733	230.88
616.941	218.88
617.148	210.88
617.356	216.88
617.563	225.88
617.771	213.88
617.978	216.88
618.185	203.88
618.393	221.88
618.6	215.88
618.807	219.88
619.015	213.88
619.222	220.88
619.429	203.88
619.637	230.88
619.844	201.88
620.051	220.88
620.258	223.88
620.466	209.88
620.673	201.88
620.88	200.88
621.087	218.88
621.294	213.88
621.501	207.88
621.708	192.88
621.915	207.88
622.122	223.88
622.329	195.88
622.536	226.88
622.743	233.88
622.95	228.88
623.157	210.88
623.364	199.88
623.571	229.88
623.778	219.88
623.985	185.88
624.192	200.88
624.399	210.88
624.606	222.88
624.812	202.88
625.019	190.88
625.226	199.88
625.433	205.88
625.639	194.88
625.846	190.88
626.053	208.88
626.259	192.88
626.466	196.88
626.673	187.88
626.879	187.88
627.086	214.88
627.293	201.88
627.499	194.88
627.706	185.88
627.912	173.88
628.119	187.88
628.325	200.88
628.532	195.88
628.738	194.88
628.945	181.88
629.151	191.88
629.357	194.88
629.564	193.88
629.77	175.88
629.976	179.88
630.183	187.88
630.389	183.88
630.595	197.88
630.802	189.88
631.008	174.88
631.214	181.88
631.42	186.88
631.627	193.88
631.833	195.88
632.039	169.88
632.245	191.88
632.451	197.88
632.657	190.88
632.863	175.88
633.069	181.88
633.275	160.88
633.481	182.88
633.688	180.88
633.893	174.88
634.099	172.88
634.305	187.88
634.511	185.88
634.717	170.88
634.923	165.88
635.129	185.88
635.335	164.88
635.541	169.88
635.747	166.88
635.952	175.88
636.158	175.88
636.364	173.88
636.57	181.88
636.775	178.88
636.981	166.88
637.187	196.88
637.392	180.88
637.598	161.88
637.804	157.88
638.009	161.88
638.215	160.88
638.421	181.88
638.626	153.88
638.832	175.88
639.037	162.88
639.243	179.88
639.448	159.88
639.654	166.88
639.859	163.88
640.065	157.88
640.27	185.88
640.475	137.88
640.681	155.88
640.886	165.88
641.091	175.88
641.297	163.88
641.502	143.88
641.707	169.88
641.913	173.88
642.118	151.88
642.323	161.88
642.528	160.88
642.733	152.88
642.939	150.88
643.144	169.88
643.349	159.88
643.554	178.88
643.759	140.88
643.964	147.88
644.169	162.88
644.374	162.88
644.579	151.88
644.784	147.88
644.989	162.88
645.194	141.88
645.399	162.88
645.604	160.88
645.809	157.88
646.014	147.88
646.219	150.88
646.423	153.88
646.628	153.88
646.833	162.88
647.038	159.88
647.243	146.88
647.447	152.88
647.652	157.88
647.857	158.88
648.062	149.88
648.266	151.88
648.471	159.88
648.676	154.88
648.88	142.88
649.085	175.88
649.289	161.88
649.494	159.88
649.698	191.88
649.903	173.88
650.107	148.88
650.312	178.88
650.516	139.88
650.721	155.88
650.925	140.88
651.13	140.88
651.334	154.88
651.539	138.88
651.743	141.88
651.947	131.88
652.152	143.88
652.356	151.88
652.56	150.88
652.764	127.88
652.969	131.88
653.173	132.88
653.377	131.88
653.581	135.88
653.785	130.88
653.99	136.88
654.194	141.88
654.398	136.88
654.602	113.88
654.806	132.88
655.01	132.88
655.214	151.88
655.418	132.88
655.622	122.88
655.826	106.88
656.03	135.88
656.234	113.88
656.438	126.88
656.642	116.88
656.846	107.88
657.049	120.88
657.253	117.88
657.457	115.88
657.661	122.88
657.865	109.88
658.068	101.88
658.272	105.88
658.476	119.88
658.68	104.88
658.883	100.88
659.087	101.88
659.291	100.88
659.494	106.88
659.698	86.88
659.901	83.88
660.105	99.88
660.309	90.88
660.512	73.88
660.716	83.88
660.919	95.88
661.123	93.88
661.326	82.88
661.53	83.88
661.733	78.88
661.936	93.88
662.14	88.88
662.343	96.88
662.546	71.88
662.75	76.88
662.953	93.88
663.156	89.88
663.36	82.88
663.563	88.88
663.766	87.88
663.969	85.88
664.173	79.88
664.376	91.88
664.579	66.88
664.782	72.88
664.985	78.88
665.188	80.88
665.391	82.88
665.594	84.88
665.797	73.88
666	74.88
666.203	80.88
666.406	86.88
666.609	83.88
666.812	85.88
667.015	85.88
667.218	73.88
667.421	77.88
667.624	96.88
667.827	75.88
668.03	67.88
668.232	83.88
668.435	72.88
668.638	68.88
668.841	73.88
669.043	68.88
669.246	80.88
669.449	83.88
669.651	85.88
669.854	81.88
670.057	82.88
670.259	81.88
670.462	74.88
670.665	94.88
670.867	75.88
671.07	87.88
671.272	82.88
671.475	75.88
671.677	86.88
671.88	81.88
672.082	81.88
672.284	90.88
672.487	82.88
672.689	74.88
672.892	74.88
