Data from 1980.PennyLincolnUp.Lamp.En5.5.200Scan.071819.P1_HRD10591_16-39-15-958.txt Node
Date: Thu Jul 18 16:39:15 EDT 2019
User: cochatt
Spectrometer: HR+D1059
Trigger mode: 1
Integration Time (sec): 1.000000E-1
Scans to average: 1
Electric dark correction enabled: true
Nonlinearity correction enabled: false
Boxcar width: 0
XAxis mode: Wavelengths
Number of Pixels in Spectrum: 2048
>>>>>Begin Spectral Data<<<<<
223.165	-5.31
223.4	-5.31
223.635	-5.31
223.869	-27.31
224.104	-15.31
224.338	-3.31
224.573	-14.31
224.808	-20.31
225.042	-24.31
225.277	-9.31
225.511	4.69
225.746	5.69
225.98	-2.31
226.215	3.69
226.449	20.69
226.683	24.69
226.918	35.69
227.152	26.69
227.387	37.69
227.621	45.69
227.856	35.69
228.09	52.69
228.324	44.69
228.559	39.69
228.793	71.69
229.027	96.69
229.262	117.69
229.496	119.69
229.73	141.69
229.964	162.69
230.199	132.69
230.433	120.69
230.667	118.69
230.901	119.69
231.136	120.69
231.37	127.69
231.604	115.69
231.838	107.69
232.072	103.69
232.306	107.69
232.541	98.69
232.775	105.69
233.009	118.69
233.243	112.69
233.477	124.69
233.711	117.69
233.945	120.69
234.179	113.69
234.413	117.69
234.647	113.69
234.881	125.69
235.115	120.69
235.349	129.69
235.583	118.69
235.817	134.69
236.051	138.69
236.285	137.69
236.519	137.69
236.753	140.69
236.987	131.69
237.221	185.69
237.455	245.69
237.689	213.69
237.922	162.69
238.156	129.69
238.39	123.69
238.624	145.69
238.858	125.69
239.091	118.69
239.325	121.69
239.559	133.69
239.793	135.69
240.027	130.69
240.26	159.69
240.494	165.69
240.728	149.69
240.961	151.69
241.195	156.69
241.429	145.69
241.662	142.69
241.896	133.69
242.13	119.69
242.363	121.69
242.597	124.69
242.83	115.69
243.064	125.69
243.298	131.69
243.531	131.69
243.765	146.69
243.998	131.69
244.232	122.69
244.465	135.69
244.699	159.69
244.932	157.69
245.166	147.69
245.399	138.69
245.633	152.69
245.866	139.69
246.099	133.69
246.333	161.69
246.566	142.69
246.8	146.69
247.033	149.69
247.266	173.69
247.5	150.69
247.733	176.69
247.966	179.69
248.2	172.69
248.433	169.69
248.666	180.69
248.899	198.69
249.133	219.69
249.366	216.69
249.599	219.69
249.832	183.69
250.066	191.69
250.299	193.69
250.532	220.69
250.765	200.69
250.998	224.69
251.231	250.69
251.465	263.69
251.698	214.69
251.931	197.69
252.164	201.69
252.397	200.69
252.63	208.69
252.863	218.69
253.096	253.69
253.329	230.69
253.562	233.69
253.795	229.69
254.028	221.69
254.261	246.69
254.494	227.69
254.727	284.69
254.96	308.69
255.193	278.69
255.426	264.69
255.659	255.69
255.892	255.69
256.124	223.69
256.357	244.69
256.59	249.69
256.823	222.69
257.056	228.69
257.289	226.69
257.521	220.69
257.754	210.69
257.987	225.69
258.22	224.69
258.452	210.69
258.685	228.69
258.918	205.69
259.151	218.69
259.383	217.69
259.616	235.69
259.849	231.69
260.081	256.69
260.314	245.69
260.547	274.69
260.779	244.69
261.012	255.69
261.244	232.69
261.477	236.69
261.71	235.69
261.942	230.69
262.175	250.69
262.407	268.69
262.64	215.69
262.872	220.69
263.105	221.69
263.337	214.69
263.57	214.69
263.802	204.69
264.035	198.69
264.267	215.69
264.499	212.69
264.732	214.69
264.964	199.69
265.197	220.69
265.429	224.69
265.661	206.69
265.894	218.69
266.126	212.69
266.358	210.69
266.591	216.69
266.823	230.69
267.055	223.69
267.287	219.69
267.52	227.69
267.752	234.69
267.984	224.69
268.216	215.69
268.448	213.69
268.681	241.69
268.913	243.69
269.145	263.69
269.377	278.69
269.609	279.69
269.841	258.69
270.073	288.69
270.306	315.69
270.538	323.69
270.77	333.69
271.002	314.69
271.234	307.69
271.466	325.69
271.698	331.69
271.93	329.69
272.162	330.69
272.394	329.69
272.626	320.69
272.858	312.69
273.09	312.69
273.322	284.69
273.553	274.69
273.785	240.69
274.017	243.69
274.249	258.69
274.481	288.69
274.713	287.69
274.945	288.69
275.176	287.69
275.408	280.69
275.64	285.69
275.872	268.69
276.104	265.69
276.335	252.69
276.567	281.69
276.799	298.69
277.031	331.69
277.262	321.69
277.494	323.69
277.726	296.69
277.957	305.69
278.189	305.69
278.421	269.69
278.652	268.69
278.884	245.69
279.115	262.69
279.347	268.69
279.579	262.69
279.81	255.69
280.042	270.69
280.273	259.69
280.505	278.69
280.736	259.69
280.968	276.69
281.199	243.69
281.431	269.69
281.662	249.69
281.894	258.69
282.125	250.69
282.356	287.69
282.588	306.69
282.819	313.69
283.051	272.69
283.282	265.69
283.513	250.69
283.745	270.69
283.976	273.69
284.207	278.69
284.439	277.69
284.67	245.69
284.901	274.69
285.132	259.69
285.364	249.69
285.595	266.69
285.826	279.69
286.057	267.69
286.288	260.69
286.52	265.69
286.751	285.69
286.982	269.69
287.213	266.69
287.444	284.69
287.675	263.69
287.906	295.69
288.138	298.69
288.369	295.69
288.6	299.69
288.831	290.69
289.062	274.69
289.293	288.69
289.524	279.69
289.755	268.69
289.986	275.69
290.217	265.69
290.448	255.69
290.679	272.69
290.91	275.69
291.141	273.69
291.371	277.69
291.602	272.69
291.833	267.69
292.064	241.69
292.295	268.69
292.526	267.69
292.757	260.69
292.987	261.69
293.218	282.69
293.449	284.69
293.68	294.69
293.91	258.69
294.141	259.69
294.372	284.69
294.603	287.69
294.833	270.69
295.064	272.69
295.295	265.69
295.525	274.69
295.756	269.69
295.987	299.69
296.217	318.69
296.448	313.69
296.679	281.69
296.909	277.69
297.14	275.69
297.37	292.69
297.601	279.69
297.831	284.69
298.062	298.69
298.292	311.69
298.523	269.69
298.753	288.69
298.984	289.69
299.214	294.69
299.445	281.69
299.675	299.69
299.905	287.69
300.136	305.69
300.366	289.69
300.597	300.69
300.827	289.69
301.057	327.69
301.288	317.69
301.518	308.69
301.748	306.69
301.979	300.69
302.209	309.69
302.439	323.69
302.669	315.69
302.9	321.69
303.13	298.69
303.36	299.69
303.59	298.69
303.82	329.69
304.051	312.69
304.281	293.69
304.511	309.69
304.741	293.69
304.971	301.69
305.201	296.69
305.431	297.69
305.661	291.69
305.891	313.69
306.121	300.69
306.352	299.69
306.582	314.69
306.812	319.69
307.042	327.69
307.272	307.69
307.502	315.69
307.731	322.69
307.961	301.69
308.191	301.69
308.421	336.69
308.651	320.69
308.881	323.69
309.111	332.69
309.341	339.69
309.571	331.69
309.8	352.69
310.03	369.69
310.26	364.69
310.49	387.69
310.72	371.69
310.949	403.69
311.179	411.69
311.409	384.69
311.639	381.69
311.868	384.69
312.098	381.69
312.328	387.69
312.557	389.69
312.787	408.69
313.017	410.69
313.246	392.69
313.476	354.69
313.706	360.69
313.935	371.69
314.165	392.69
314.394	381.69
314.624	400.69
314.853	375.69
315.083	351.69
315.312	364.69
315.542	357.69
315.771	356.69
316.001	360.69
316.23	346.69
316.46	351.69
316.689	348.69
316.919	372.69
317.148	385.69
317.377	380.69
317.607	363.69
317.836	360.69
318.065	368.69
318.295	372.69
318.524	367.69
318.753	363.69
318.983	371.69
319.212	363.69
319.441	356.69
319.67	383.69
319.9	371.69
320.129	370.69
320.358	386.69
320.587	373.69
320.816	375.69
321.046	371.69
321.275	386.69
321.504	395.69
321.733	419.69
321.962	404.69
322.191	426.69
322.42	443.69
322.649	468.69
322.878	472.69
323.108	489.69
323.337	515.69
323.566	562.69
323.795	584.69
324.024	641.69
324.253	802.69
324.482	1145.69
324.71	1803.69
324.939	2590.69
325.168	2276.69
325.397	1207.69
325.626	760.69
325.855	644.69
326.084	585.69
326.313	537.69
326.542	558.69
326.77	619.69
326.999	751.69
327.228	1002.69
327.457	1587.69
327.686	1991.69
327.914	1333.69
328.143	873.69
328.372	729.69
328.6	677.69
328.829	639.69
329.058	669.69
329.287	648.69
329.515	619.69
329.744	551.69
329.972	544.69
330.201	570.69
330.43	630.69
330.658	679.69
330.887	713.69
331.115	672.69
331.344	544.69
331.572	516.69
331.801	500.69
332.03	493.69
332.258	466.69
332.486	449.69
332.715	448.69
332.943	424.69
333.172	445.69
333.4	426.69
333.629	442.69
333.857	449.69
334.085	482.69
334.314	493.69
334.542	547.69
334.771	568.69
334.999	493.69
335.227	457.69
335.455	421.69
335.684	425.69
335.912	436.69
336.14	405.69
336.369	403.69
336.597	423.69
336.825	433.69
337.053	431.69
337.281	379.69
337.51	410.69
337.738	416.69
337.966	408.69
338.194	424.69
338.422	421.69
338.65	409.69
338.878	426.69
339.106	399.69
339.334	397.69
339.562	377.69
339.79	395.69
340.018	407.69
340.246	432.69
340.474	429.69
340.702	409.69
340.93	404.69
341.158	411.69
341.386	401.69
341.614	425.69
341.842	408.69
342.07	419.69
342.298	391.69
342.526	389.69
342.754	390.69
342.981	391.69
343.209	385.69
343.437	396.69
343.665	404.69
343.893	388.69
344.12	395.69
344.348	414.69
344.576	417.69
344.804	415.69
345.031	427.69
345.259	421.69
345.487	414.69
345.714	410.69
345.942	419.69
346.17	413.69
346.397	402.69
346.625	387.69
346.853	410.69
347.08	393.69
347.308	397.69
347.535	422.69
347.763	405.69
347.99	407.69
348.218	409.69
348.445	422.69
348.673	434.69
348.9	415.69
349.128	390.69
349.355	387.69
349.583	384.69
349.81	383.69
350.037	349.69
350.265	397.69
350.492	378.69
350.72	374.69
350.947	411.69
351.174	403.69
351.402	420.69
351.629	404.69
351.856	429.69
352.083	435.69
352.311	433.69
352.538	437.69
352.765	431.69
352.992	405.69
353.22	412.69
353.447	388.69
353.674	396.69
353.901	386.69
354.128	362.69
354.355	357.69
354.583	387.69
354.81	391.69
355.037	357.69
355.264	357.69
355.491	363.69
355.718	344.69
355.945	377.69
356.172	373.69
356.399	341.69
356.626	352.69
356.853	360.69
357.08	355.69
357.307	348.69
357.534	353.69
357.761	348.69
357.988	364.69
358.215	336.69
358.441	362.69
358.668	376.69
358.895	353.69
359.122	380.69
359.349	393.69
359.576	405.69
359.802	427.69
360.029	458.69
360.256	472.69
360.483	443.69
360.709	414.69
360.936	395.69
361.163	393.69
361.39	401.69
361.616	380.69
361.843	397.69
362.07	407.69
362.296	405.69
362.523	397.69
362.749	397.69
362.976	406.69
363.203	398.69
363.429	376.69
363.656	386.69
363.882	387.69
364.109	362.69
364.335	361.69
364.562	367.69
364.788	351.69
365.015	368.69
365.241	363.69
365.468	357.69
365.694	392.69
365.92	385.69
366.147	380.69
366.373	377.69
366.599	374.69
366.826	367.69
367.052	366.69
367.278	375.69
367.505	342.69
367.731	385.69
367.957	367.69
368.184	379.69
368.41	364.69
368.636	394.69
368.862	409.69
369.089	397.69
369.315	368.69
369.541	353.69
369.767	372.69
369.993	377.69
370.219	354.69
370.445	364.69
370.672	349.69
370.898	368.69
371.124	357.69
371.35	363.69
371.576	364.69
371.802	358.69
372.028	359.69
372.254	356.69
372.48	339.69
372.706	358.69
372.932	333.69
373.158	363.69
373.384	368.69
373.61	360.69
373.835	374.69
374.061	362.69
374.287	370.69
374.513	359.69
374.739	353.69
374.965	344.69
375.191	346.69
375.416	361.69
375.642	358.69
375.868	345.69
376.094	380.69
376.319	346.69
376.545	356.69
376.771	339.69
376.997	351.69
377.222	383.69
377.448	373.69
377.674	344.69
377.899	343.69
378.125	340.69
378.35	354.69
378.576	350.69
378.802	357.69
379.027	351.69
379.253	370.69
379.478	362.69
379.704	345.69
379.929	364.69
380.155	357.69
380.38	362.69
380.606	366.69
380.831	373.69
381.057	363.69
381.282	362.69
381.507	356.69
381.733	351.69
381.958	359.69
382.184	371.69
382.409	359.69
382.634	348.69
382.86	357.69
383.085	354.69
383.31	364.69
383.535	342.69
383.761	378.69
383.986	381.69
384.211	374.69
384.436	390.69
384.662	368.69
384.887	363.69
385.112	371.69
385.337	355.69
385.562	365.69
385.787	358.69
386.013	387.69
386.238	386.69
386.463	410.69
386.688	398.69
386.913	379.69
387.138	371.69
387.363	376.69
387.588	393.69
387.813	376.69
388.038	375.69
388.263	380.69
388.488	387.69
388.713	381.69
388.938	381.69
389.163	381.69
389.387	363.69
389.612	396.69
389.837	372.69
390.062	375.69
390.287	375.69
390.512	368.69
390.736	372.69
390.961	380.69
391.186	395.69
391.411	380.69
391.636	370.69
391.86	387.69
392.085	390.69
392.31	367.69
392.534	373.69
392.759	393.69
392.984	410.69
393.208	385.69
393.433	391.69
393.658	376.69
393.882	370.69
394.107	385.69
394.331	369.69
394.556	345.69
394.78	381.69
395.005	367.69
395.229	379.69
395.454	389.69
395.678	381.69
395.903	389.69
396.127	434.69
396.352	424.69
396.576	405.69
396.801	384.69
397.025	389.69
397.249	383.69
397.474	385.69
397.698	417.69
397.922	417.69
398.147	431.69
398.371	391.69
398.595	414.69
398.82	424.69
399.044	402.69
399.268	437.69
399.492	445.69
399.717	458.69
399.941	495.69
400.165	523.69
400.389	526.69
400.613	488.69
400.837	451.69
401.062	441.69
401.286	427.69
401.51	436.69
401.734	439.69
401.958	424.69
402.182	448.69
402.406	455.69
402.63	478.69
402.854	425.69
403.078	441.69
403.302	444.69
403.526	475.69
403.75	459.69
403.974	441.69
404.198	441.69
404.422	457.69
404.645	464.69
404.869	467.69
405.093	487.69
405.317	550.69
405.541	573.69
405.765	520.69
405.988	503.69
406.212	491.69
406.436	530.69
406.66	547.69
406.883	488.69
407.107	516.69
407.331	539.69
407.555	606.69
407.778	625.69
408.002	557.69
408.226	506.69
408.449	502.69
408.673	519.69
408.896	533.69
409.12	573.69
409.344	546.69
409.567	472.69
409.791	479.69
410.014	460.69
410.238	477.69
410.461	453.69
410.685	461.69
410.908	485.69
411.132	517.69
411.355	560.69
411.578	517.69
411.802	466.69
412.025	465.69
412.249	459.69
412.472	497.69
412.695	511.69
412.919	545.69
413.142	484.69
413.365	453.69
413.589	453.69
413.812	441.69
414.035	447.69
414.258	422.69
414.482	420.69
414.705	437.69
414.928	420.69
415.151	432.69
415.374	422.69
415.597	416.69
415.821	436.69
416.044	411.69
416.267	412.69
416.49	432.69
416.713	428.69
416.936	403.69
417.159	423.69
417.382	441.69
417.605	439.69
417.828	469.69
418.051	465.69
418.274	457.69
418.497	463.69
418.72	429.69
418.943	418.69
419.166	437.69
419.389	461.69
419.611	479.69
419.834	459.69
420.057	456.69
420.28	468.69
420.503	455.69
420.726	449.69
420.948	470.69
421.171	519.69
421.394	553.69
421.617	483.69
421.839	466.69
422.062	458.69
422.285	485.69
422.507	517.69
422.73	611.69
422.953	587.69
423.175	526.69
423.398	499.69
423.621	474.69
423.843	491.69
424.066	519.69
424.288	523.69
424.511	520.69
424.733	553.69
424.956	689.69
425.178	642.69
425.401	671.69
425.623	641.69
425.846	575.69
426.068	529.69
426.291	512.69
426.513	511.69
426.735	519.69
426.958	570.69
427.18	660.69
427.402	775.69
427.625	868.69
427.847	803.69
428.069	683.69
428.292	601.69
428.514	519.69
428.736	508.69
428.958	487.69
429.181	480.69
429.403	492.69
429.625	493.69
429.847	500.69
430.069	582.69
430.292	581.69
430.514	500.69
430.736	490.69
430.958	477.69
431.18	458.69
431.402	447.69
431.624	444.69
431.846	424.69
432.068	416.69
432.29	437.69
432.512	458.69
432.734	439.69
432.956	448.69
433.178	447.69
433.4	472.69
433.622	453.69
433.844	439.69
434.066	433.69
434.287	446.69
434.509	441.69
434.731	439.69
434.953	455.69
435.175	456.69
435.397	505.69
435.618	526.69
435.84	573.69
436.062	641.69
436.284	730.69
436.505	611.69
436.727	543.69
436.949	492.69
437.17	460.69
437.392	471.69
437.614	503.69
437.835	548.69
438.057	667.69
438.278	752.69
438.5	742.69
438.721	770.69
438.943	778.69
439.165	623.69
439.386	573.69
439.608	544.69
439.829	555.69
440.05	568.69
440.272	615.69
440.493	579.69
440.715	514.69
440.936	504.69
441.158	460.69
441.379	493.69
441.6	498.69
441.822	523.69
442.043	574.69
442.264	637.69
442.486	684.69
442.707	587.69
442.928	551.69
443.149	547.69
443.371	579.69
443.592	625.69
443.813	705.69
444.034	745.69
444.255	624.69
444.476	555.69
444.698	515.69
444.919	516.69
445.14	619.69
445.361	587.69
445.582	577.69
445.803	645.69
446.024	743.69
446.245	761.69
446.466	679.69
446.687	592.69
446.908	541.69
447.129	496.69
447.35	507.69
447.571	500.69
447.792	495.69
448.013	498.69
448.234	544.69
448.455	561.69
448.675	683.69
448.896	786.69
449.117	673.69
449.338	626.69
449.559	701.69
449.779	806.69
450	663.69
450.221	524.69
450.442	504.69
450.662	483.69
450.883	493.69
451.104	510.69
451.324	488.69
451.545	475.69
451.766	472.69
451.986	457.69
452.207	462.69
452.428	420.69
452.648	411.69
452.869	429.69
453.089	448.69
453.31	468.69
453.53	440.69
453.751	442.69
453.971	453.69
454.192	471.69
454.412	451.69
454.633	439.69
454.853	424.69
455.073	418.69
455.294	468.69
455.514	534.69
455.734	526.69
455.955	432.69
456.175	410.69
456.395	391.69
456.616	413.69
456.836	403.69
457.056	378.69
457.276	378.69
457.497	386.69
457.717	401.69
457.937	424.69
458.157	423.69
458.377	417.69
458.598	442.69
458.818	512.69
459.038	595.69
459.258	624.69
459.478	552.69
459.698	467.69
459.918	451.69
460.138	451.69
460.358	434.69
460.578	459.69
460.798	439.69
461.018	458.69
461.238	425.69
461.458	403.69
461.678	400.69
461.898	425.69
462.118	417.69
462.338	434.69
462.558	417.69
462.777	428.69
462.997	438.69
463.217	440.69
463.437	443.69
463.657	442.69
463.876	458.69
464.096	439.69
464.316	448.69
464.536	461.69
464.755	451.69
464.975	519.69
465.195	547.69
465.414	636.69
465.634	563.69
465.854	492.69
466.073	464.69
466.293	434.69
466.512	419.69
466.732	428.69
466.951	436.69
467.171	436.69
467.391	436.69
467.61	448.69
467.829	469.69
468.049	450.69
468.268	441.69
468.488	435.69
468.707	413.69
468.927	428.69
469.146	423.69
469.365	427.69
469.585	429.69
469.804	422.69
470.023	425.69
470.243	438.69
470.462	435.69
470.681	463.69
470.901	464.69
471.12	430.69
471.339	440.69
471.558	434.69
471.777	447.69
471.997	435.69
472.216	440.69
472.435	503.69
472.654	485.69
472.873	450.69
473.092	433.69
473.311	440.69
473.53	450.69
473.749	444.69
473.968	490.69
474.187	636.69
474.406	665.69
474.625	525.69
474.844	461.69
475.063	429.69
475.282	440.69
475.501	436.69
475.72	460.69
475.939	449.69
476.158	460.69
476.377	457.69
476.596	467.69
476.814	463.69
477.033	480.69
477.252	470.69
477.471	470.69
477.69	472.69
477.908	443.69
478.127	477.69
478.346	476.69
478.564	473.69
478.783	495.69
479.002	490.69
479.22	487.69
479.439	526.69
479.658	512.69
479.876	537.69
480.095	528.69
480.313	578.69
480.532	556.69
480.751	550.69
480.969	561.69
481.188	660.69
481.406	700.69
481.624	607.69
481.843	571.69
482.061	565.69
482.28	540.69
482.498	537.69
482.717	536.69
482.935	521.69
483.153	531.69
483.372	525.69
483.59	530.69
483.808	538.69
484.027	550.69
484.245	539.69
484.463	545.69
484.681	540.69
484.9	532.69
485.118	545.69
485.336	536.69
485.554	548.69
485.772	545.69
485.99	559.69
486.209	535.69
486.427	573.69
486.645	567.69
486.863	585.69
487.081	582.69
487.299	586.69
487.517	556.69
487.735	567.69
487.953	577.69
488.171	555.69
488.389	576.69
488.607	590.69
488.825	566.69
489.043	571.69
489.261	569.69
489.479	586.69
489.696	563.69
489.914	574.69
490.132	575.69
490.35	582.69
490.568	625.69
490.786	618.69
491.003	637.69
491.221	650.69
491.439	637.69
491.657	644.69
491.874	653.69
492.092	677.69
492.31	656.69
492.527	691.69
492.745	663.69
492.963	671.69
493.18	672.69
493.398	681.69
493.615	679.69
493.833	697.69
494.05	697.69
494.268	693.69
494.485	688.69
494.703	676.69
494.92	697.69
495.138	697.69
495.355	677.69
495.573	685.69
495.79	703.69
496.008	695.69
496.225	685.69
496.442	692.69
496.66	677.69
496.877	653.69
497.094	692.69
497.312	690.69
497.529	695.69
497.746	693.69
497.963	707.69
498.181	736.69
498.398	713.69
498.615	716.69
498.832	720.69
499.049	751.69
499.267	732.69
499.484	735.69
499.701	722.69
499.918	779.69
500.135	796.69
500.352	818.69
500.569	818.69
500.786	827.69
501.003	812.69
501.22	777.69
501.437	810.69
501.654	805.69
501.871	812.69
502.088	790.69
502.305	769.69
502.522	735.69
502.739	720.69
502.956	687.69
503.172	708.69
503.389	667.69
503.606	683.69
503.823	710.69
504.04	697.69
504.256	679.69
504.473	692.69
504.69	665.69
504.907	676.69
505.123	673.69
505.34	699.69
505.557	643.69
505.773	645.69
505.99	675.69
506.207	672.69
506.423	640.69
506.64	681.69
506.856	661.69
507.073	641.69
507.289	647.69
507.506	646.69
507.722	660.69
507.939	685.69
508.155	674.69
508.372	659.69
508.588	630.69
508.805	641.69
509.021	618.69
509.238	647.69
509.454	651.69
509.67	650.69
509.887	643.69
510.103	670.69
510.319	664.69
510.536	805.69
510.752	1353.69
510.968	1106.69
511.184	703.69
511.401	645.69
511.617	647.69
511.833	628.69
512.049	625.69
512.265	631.69
512.481	594.69
512.698	599.69
512.914	626.69
513.13	622.69
513.346	609.69
513.562	620.69
513.778	625.69
513.994	607.69
514.21	639.69
514.426	690.69
514.642	737.69
514.858	795.69
515.074	823.69
515.29	1035.69
515.506	1583.69
515.721	1233.69
515.937	791.69
516.153	706.69
516.369	673.69
516.585	647.69
516.801	642.69
517.016	598.69
517.232	619.69
517.448	602.69
517.664	624.69
517.879	617.69
518.095	604.69
518.311	619.69
518.527	594.69
518.742	597.69
518.958	582.69
519.173	622.69
519.389	629.69
519.605	604.69
519.82	634.69
520.036	649.69
520.251	671.69
520.467	680.69
520.682	703.69
520.898	722.69
521.113	747.69
521.329	807.69
521.544	941.69
521.76	1237.69
521.975	2178.69
522.19	2067.69
522.406	1092.69
522.621	781.69
522.836	689.69
523.052	635.69
523.267	619.69
523.482	578.69
523.698	557.69
523.913	570.69
524.128	581.69
524.343	546.69
524.559	553.69
524.774	525.69
524.989	531.69
525.204	541.69
525.419	529.69
525.634	525.69
525.849	507.69
526.064	523.69
526.28	524.69
526.495	473.69
526.71	481.69
526.925	484.69
527.14	481.69
527.355	503.69
527.57	467.69
527.785	484.69
527.999	449.69
528.214	475.69
528.429	479.69
528.644	486.69
528.859	484.69
529.074	500.69
529.289	515.69
529.503	624.69
529.718	607.69
529.933	545.69
530.148	523.69
530.363	507.69
530.577	489.69
530.792	471.69
531.007	473.69
531.221	475.69
531.436	469.69
531.651	463.69
531.865	465.69
532.08	460.69
532.295	424.69
532.509	464.69
532.724	461.69
532.938	453.69
533.153	438.69
533.367	447.69
533.582	459.69
533.796	440.69
534.011	455.69
534.225	445.69
534.44	454.69
534.654	448.69
534.868	469.69
535.083	419.69
535.297	450.69
535.511	460.69
535.726	459.69
535.94	456.69
536.154	446.69
536.369	428.69
536.583	452.69
536.797	428.69
537.011	426.69
537.225	448.69
537.44	436.69
537.654	443.69
537.868	427.69
538.082	425.69
538.296	433.69
538.51	436.69
538.724	447.69
538.938	444.69
539.153	438.69
539.367	463.69
539.581	433.69
539.795	444.69
540.009	442.69
540.222	416.69
540.436	421.69
540.65	442.69
540.864	449.69
541.078	450.69
541.292	454.69
541.506	455.69
541.72	440.69
541.934	420.69
542.147	443.69
542.361	447.69
542.575	437.69
542.789	427.69
543.002	438.69
543.216	437.69
543.43	429.69
543.644	431.69
543.857	440.69
544.071	443.69
544.285	434.69
544.498	429.69
544.712	428.69
544.925	410.69
545.139	416.69
545.352	407.69
545.566	415.69
545.779	415.69
545.993	403.69
546.206	405.69
546.42	440.69
546.633	413.69
546.847	418.69
547.06	414.69
547.274	409.69
547.487	407.69
547.7	406.69
547.914	400.69
548.127	412.69
548.34	393.69
548.554	405.69
548.767	400.69
548.98	417.69
549.193	419.69
549.407	404.69
549.62	399.69
549.833	405.69
550.046	399.69
550.259	403.69
550.473	381.69
550.686	396.69
550.899	414.69
551.112	410.69
551.325	399.69
551.538	394.69
551.751	390.69
551.964	384.69
552.177	403.69
552.39	419.69
552.603	405.69
552.816	401.69
553.029	394.69
553.242	400.69
553.455	401.69
553.667	412.69
553.88	408.69
554.093	433.69
554.306	416.69
554.519	386.69
554.732	392.69
554.944	390.69
555.157	367.69
555.37	397.69
555.583	381.69
555.795	386.69
556.008	385.69
556.221	367.69
556.433	388.69
556.646	364.69
556.859	377.69
557.071	371.69
557.284	367.69
557.496	346.69
557.709	360.69
557.921	357.69
558.134	375.69
558.346	343.69
558.559	367.69
558.771	380.69
558.984	346.69
559.196	347.69
559.409	357.69
559.621	363.69
559.833	375.69
560.046	352.69
560.258	371.69
560.47	352.69
560.683	356.69
560.895	366.69
561.107	352.69
561.32	337.69
561.532	330.69
561.744	354.69
561.956	363.69
562.168	361.69
562.381	362.69
562.593	347.69
562.805	361.69
563.017	344.69
563.229	353.69
563.441	367.69
563.653	364.69
563.865	364.69
564.077	357.69
564.289	354.69
564.501	374.69
564.713	371.69
564.925	377.69
565.137	393.69
565.349	375.69
565.561	355.69
565.773	352.69
565.985	391.69
566.197	369.69
566.408	385.69
566.62	385.69
566.832	393.69
567.044	393.69
567.255	394.69
567.467	393.69
567.679	407.69
567.891	406.69
568.102	392.69
568.314	404.69
568.526	380.69
568.737	379.69
568.949	355.69
569.161	383.69
569.372	371.69
569.584	371.69
569.795	368.69
570.007	363.69
570.218	409.69
570.43	393.69
570.641	360.69
570.853	344.69
571.064	338.69
571.276	347.69
571.487	336.69
571.698	339.69
571.91	325.69
572.121	304.69
572.333	326.69
572.544	327.69
572.755	329.69
572.966	330.69
573.178	319.69
573.389	309.69
573.6	316.69
573.811	315.69
574.023	315.69
574.234	307.69
574.445	304.69
574.656	284.69
574.867	311.69
575.078	305.69
575.289	315.69
575.501	308.69
575.712	317.69
575.923	316.69
576.134	313.69
576.345	313.69
576.556	292.69
576.767	318.69
576.978	305.69
577.188	305.69
577.399	319.69
577.61	287.69
577.821	299.69
578.032	320.69
578.243	345.69
578.454	640.69
578.665	448.69
578.875	342.69
579.086	300.69
579.297	316.69
579.508	310.69
579.718	307.69
579.929	283.69
580.14	287.69
580.35	290.69
580.561	295.69
580.772	271.69
580.982	291.69
581.193	290.69
581.403	284.69
581.614	294.69
581.825	273.69
582.035	275.69
582.246	285.69
582.456	280.69
582.667	298.69
582.877	281.69
583.087	269.69
583.298	296.69
583.508	281.69
583.719	266.69
583.929	285.69
584.139	274.69
584.35	264.69
584.56	274.69
584.77	269.69
584.981	283.69
585.191	280.69
585.401	282.69
585.611	296.69
585.821	287.69
586.032	288.69
586.242	289.69
586.452	273.69
586.662	277.69
586.872	258.69
587.082	285.69
587.292	274.69
587.502	284.69
587.713	281.69
587.923	268.69
588.133	280.69
588.343	282.69
588.553	284.69
588.762	287.69
588.972	295.69
589.182	263.69
589.392	273.69
589.602	269.69
589.812	267.69
590.022	281.69
590.232	263.69
590.441	271.69
590.651	244.69
590.861	268.69
591.071	273.69
591.281	275.69
591.49	263.69
591.7	272.69
591.91	281.69
592.119	278.69
592.329	266.69
592.539	288.69
592.748	273.69
592.958	282.69
593.167	263.69
593.377	258.69
593.587	295.69
593.796	283.69
594.006	267.69
594.215	276.69
594.424	269.69
594.634	256.69
594.843	259.69
595.053	257.69
595.262	281.69
595.472	284.69
595.681	266.69
595.89	259.69
596.1	244.69
596.309	248.69
596.518	257.69
596.727	255.69
596.937	261.69
597.146	263.69
597.355	232.69
597.564	237.69
597.774	239.69
597.983	243.69
598.192	248.69
598.401	246.69
598.61	256.69
598.819	240.69
599.028	239.69
599.237	237.69
599.446	260.69
599.655	240.69
599.864	243.69
600.073	265.69
600.282	239.69
600.491	222.69
600.7	244.69
600.909	246.69
601.118	248.69
601.327	250.69
601.536	240.69
601.745	234.69
601.953	224.69
602.162	250.69
602.371	229.69
602.58	241.69
602.789	228.69
602.997	239.69
603.206	236.69
603.415	233.69
603.623	225.69
603.832	236.69
604.041	240.69
604.249	218.69
604.458	232.69
604.666	229.69
604.875	225.69
605.084	229.69
605.292	232.69
605.501	233.69
605.709	234.69
605.918	233.69
606.126	224.69
606.334	227.69
606.543	241.69
606.751	211.69
606.96	230.69
607.168	225.69
607.376	228.69
607.585	240.69
607.793	219.69
608.001	215.69
608.21	217.69
608.418	232.69
608.626	226.69
608.834	226.69
609.043	219.69
609.251	237.69
609.459	224.69
609.667	234.69
609.875	225.69
610.083	225.69
610.291	229.69
610.499	217.69
610.707	224.69
610.916	224.69
611.124	222.69
611.332	231.69
611.54	221.69
611.748	225.69
611.955	233.69
612.163	225.69
612.371	218.69
612.579	225.69
612.787	229.69
612.995	221.69
613.203	237.69
613.411	208.69
613.618	225.69
613.826	227.69
614.034	220.69
614.242	225.69
614.449	228.69
614.657	221.69
614.865	224.69
615.072	213.69
615.28	219.69
615.488	208.69
615.695	224.69
615.903	241.69
616.111	231.69
616.318	232.69
616.526	220.69
616.733	226.69
616.941	212.69
617.148	229.69
617.356	213.69
617.563	211.69
617.771	215.69
617.978	223.69
618.185	217.69
618.393	207.69
618.6	212.69
618.807	216.69
619.015	219.69
619.222	221.69
619.429	215.69
619.637	222.69
619.844	206.69
620.051	214.69
620.258	221.69
620.466	204.69
620.673	192.69
620.88	227.69
621.087	200.69
621.294	207.69
621.501	206.69
621.708	208.69
621.915	209.69
622.122	211.69
622.329	211.69
622.536	197.69
622.743	207.69
622.95	195.69
623.157	210.69
623.364	199.69
623.571	216.69
623.778	203.69
623.985	203.69
624.192	216.69
624.399	205.69
624.606	208.69
624.812	199.69
625.019	197.69
625.226	202.69
625.433	197.69
625.639	193.69
625.846	203.69
626.053	218.69
626.259	193.69
626.466	218.69
626.673	200.69
626.879	195.69
627.086	189.69
627.293	199.69
627.499	183.69
627.706	181.69
627.912	199.69
628.119	179.69
628.325	197.69
628.532	205.69
628.738	176.69
628.945	189.69
629.151	187.69
629.357	188.69
629.564	190.69
629.77	180.69
629.976	200.69
630.183	199.69
630.389	199.69
630.595	191.69
630.802	193.69
631.008	185.69
631.214	165.69
631.42	182.69
631.627	185.69
631.833	188.69
632.039	187.69
632.245	179.69
632.451	187.69
632.657	177.69
632.863	193.69
633.069	187.69
633.275	179.69
633.481	173.69
633.688	165.69
633.893	192.69
634.099	169.69
634.305	165.69
634.511	170.69
634.717	167.69
634.923	162.69
635.129	175.69
635.335	180.69
635.541	159.69
635.747	187.69
635.952	175.69
636.158	178.69
636.364	176.69
636.57	169.69
636.775	184.69
636.981	172.69
637.187	177.69
637.392	169.69
637.598	180.69
637.804	179.69
638.009	170.69
638.215	181.69
638.421	165.69
638.626	150.69
638.832	157.69
639.037	168.69
639.243	158.69
639.448	158.69
639.654	168.69
639.859	164.69
640.065	166.69
640.27	164.69
640.475	153.69
640.681	164.69
640.886	172.69
641.091	163.69
641.297	166.69
641.502	171.69
641.707	161.69
641.913	169.69
642.118	162.69
642.323	163.69
642.528	142.69
642.733	167.69
642.939	153.69
643.144	151.69
643.349	150.69
643.554	154.69
643.759	164.69
643.964	152.69
644.169	148.69
644.374	170.69
644.579	161.69
644.784	159.69
644.989	153.69
645.194	161.69
645.399	166.69
645.604	166.69
645.809	156.69
646.014	147.69
646.219	163.69
646.423	166.69
646.628	159.69
646.833	147.69
647.038	156.69
647.243	148.69
647.447	151.69
647.652	156.69
647.857	152.69
648.062	148.69
648.266	160.69
648.471	162.69
648.676	148.69
648.88	155.69
649.085	150.69
649.289	150.69
649.494	161.69
649.698	163.69
649.903	181.69
650.107	180.69
650.312	177.69
650.516	159.69
650.721	147.69
650.925	139.69
651.13	153.69
651.334	118.69
651.539	147.69
651.743	131.69
651.947	131.69
652.152	132.69
652.356	138.69
652.56	133.69
652.764	135.69
652.969	148.69
653.173	138.69
653.377	141.69
653.581	139.69
653.785	127.69
653.99	129.69
654.194	138.69
654.398	121.69
654.602	130.69
654.806	129.69
655.01	137.69
655.214	141.69
655.418	127.69
655.622	110.69
655.826	117.69
656.03	120.69
656.234	127.69
656.438	131.69
656.642	137.69
656.846	117.69
657.049	133.69
657.253	109.69
657.457	106.69
657.661	120.69
657.865	98.69
658.068	117.69
658.272	99.69
658.476	99.69
658.68	103.69
658.883	109.69
659.087	107.69
659.291	95.69
659.494	98.69
659.698	93.69
659.901	103.69
660.105	84.69
660.309	83.69
660.512	80.69
660.716	86.69
660.919	96.69
661.123	100.69
661.326	81.69
661.53	72.69
661.733	95.69
661.936	76.69
662.14	98.69
662.343	95.69
662.546	91.69
662.75	78.69
662.953	97.69
663.156	84.69
663.36	87.69
663.563	95.69
663.766	97.69
663.969	85.69
664.173	74.69
664.376	79.69
664.579	77.69
664.782	80.69
664.985	85.69
665.188	76.69
665.391	85.69
665.594	77.69
665.797	86.69
666	79.69
666.203	73.69
666.406	89.69
666.609	78.69
666.812	83.69
667.015	84.69
667.218	78.69
667.421	87.69
667.624	83.69
667.827	91.69
668.03	89.69
668.232	73.69
668.435	84.69
668.638	82.69
668.841	84.69
669.043	76.69
669.246	76.69
669.449	83.69
669.651	70.69
669.854	80.69
670.057	91.69
670.259	86.69
670.462	79.69
670.665	77.69
670.867	75.69
671.07	75.69
671.272	95.69
671.475	81.69
671.677	82.69
671.88	88.69
672.082	103.69
672.284	86.69
672.487	91.69
672.689	75.69
672.892	80.69
