Data from 1980.PennyLincolnUp.Lamp.En5.5.200Scan.071819.P1_HRD10591_16-38-47-958.txt Node
Date: Thu Jul 18 16:38:47 EDT 2019
User: cochatt
Spectrometer: HR+D1059
Trigger mode: 1
Integration Time (sec): 1.000000E-1
Scans to average: 1
Electric dark correction enabled: true
Nonlinearity correction enabled: false
Boxcar width: 0
XAxis mode: Wavelengths
Number of Pixels in Spectrum: 2048
>>>>>Begin Spectral Data<<<<<
223.165	-20.75
223.4	-20.75
223.635	-20.75
223.869	-6.75
224.104	-24.75
224.338	-0.75
224.573	-5.75
224.808	-14.75
225.042	3.25
225.277	-6.75
225.511	-5.75
225.746	-1.75
225.98	-4.75
226.215	0.25
226.449	15.25
226.683	19.25
226.918	22.25
227.152	32.25
227.387	10.25
227.621	36.25
227.856	57.25
228.09	56.25
228.324	55.25
228.559	30.25
228.793	67.25
229.027	99.25
229.262	103.25
229.496	121.25
229.73	143.25
229.964	165.25
230.199	127.25
230.433	119.25
230.667	123.25
230.901	118.25
231.136	127.25
231.37	124.25
231.604	117.25
231.838	112.25
232.072	115.25
232.306	105.25
232.541	112.25
232.775	112.25
233.009	93.25
233.243	109.25
233.477	114.25
233.711	127.25
233.945	128.25
234.179	106.25
234.413	106.25
234.647	126.25
234.881	117.25
235.115	107.25
235.349	113.25
235.583	117.25
235.817	129.25
236.051	133.25
236.285	140.25
236.519	129.25
236.753	137.25
236.987	139.25
237.221	180.25
237.455	237.25
237.689	209.25
237.922	151.25
238.156	145.25
238.39	132.25
238.624	141.25
238.858	117.25
239.091	107.25
239.325	122.25
239.559	125.25
239.793	136.25
240.027	148.25
240.26	157.25
240.494	175.25
240.728	154.25
240.961	149.25
241.195	148.25
241.429	134.25
241.662	143.25
241.896	127.25
242.13	131.25
242.363	129.25
242.597	149.25
242.83	141.25
243.064	136.25
243.298	130.25
243.531	153.25
243.765	131.25
243.998	157.25
244.232	131.25
244.465	139.25
244.699	152.25
244.932	141.25
245.166	144.25
245.399	157.25
245.633	143.25
245.866	149.25
246.099	148.25
246.333	156.25
246.566	150.25
246.8	151.25
247.033	170.25
247.266	157.25
247.5	164.25
247.733	179.25
247.966	163.25
248.2	179.25
248.433	194.25
248.666	164.25
248.899	205.25
249.133	216.25
249.366	227.25
249.599	204.25
249.832	182.25
250.066	190.25
250.299	197.25
250.532	197.25
250.765	192.25
250.998	227.25
251.231	228.25
251.465	218.25
251.698	217.25
251.931	212.25
252.164	208.25
252.397	204.25
252.63	218.25
252.863	210.25
253.096	223.25
253.329	223.25
253.562	232.25
253.795	232.25
254.028	235.25
254.261	242.25
254.494	239.25
254.727	260.25
254.96	288.25
255.193	289.25
255.426	251.25
255.659	259.25
255.892	267.25
256.124	245.25
256.357	258.25
256.59	237.25
256.823	211.25
257.056	236.25
257.289	210.25
257.521	194.25
257.754	209.25
257.987	207.25
258.22	204.25
258.452	191.25
258.685	200.25
258.918	208.25
259.151	214.25
259.383	227.25
259.616	232.25
259.849	232.25
260.081	250.25
260.314	263.25
260.547	258.25
260.779	250.25
261.012	235.25
261.244	236.25
261.477	223.25
261.71	213.25
261.942	240.25
262.175	230.25
262.407	227.25
262.64	213.25
262.872	204.25
263.105	204.25
263.337	211.25
263.57	212.25
263.802	188.25
264.035	209.25
264.267	208.25
264.499	217.25
264.732	204.25
264.964	209.25
265.197	193.25
265.429	207.25
265.661	207.25
265.894	218.25
266.126	222.25
266.358	228.25
266.591	224.25
266.823	209.25
267.055	225.25
267.287	227.25
267.52	210.25
267.752	235.25
267.984	219.25
268.216	217.25
268.448	233.25
268.681	235.25
268.913	260.25
269.145	268.25
269.377	281.25
269.609	282.25
269.841	261.25
270.073	269.25
270.306	301.25
270.538	315.25
270.77	340.25
271.002	321.25
271.234	313.25
271.466	315.25
271.698	326.25
271.93	335.25
272.162	351.25
272.394	318.25
272.626	324.25
272.858	320.25
273.09	268.25
273.322	277.25
273.553	264.25
273.785	271.25
274.017	270.25
274.249	258.25
274.481	257.25
274.713	272.25
274.945	279.25
275.176	279.25
275.408	282.25
275.64	272.25
275.872	282.25
276.104	260.25
276.335	269.25
276.567	271.25
276.799	300.25
277.031	309.25
277.262	322.25
277.494	326.25
277.726	332.25
277.957	300.25
278.189	294.25
278.421	273.25
278.652	278.25
278.884	277.25
279.115	272.25
279.347	270.25
279.579	275.25
279.81	247.25
280.042	253.25
280.273	267.25
280.505	269.25
280.736	255.25
280.968	257.25
281.199	256.25
281.431	266.25
281.662	271.25
281.894	270.25
282.125	262.25
282.356	290.25
282.588	326.25
282.819	311.25
283.051	267.25
283.282	262.25
283.513	274.25
283.745	258.25
283.976	267.25
284.207	291.25
284.439	288.25
284.67	269.25
284.901	270.25
285.132	267.25
285.364	259.25
285.595	275.25
285.826	268.25
286.057	249.25
286.288	267.25
286.52	267.25
286.751	253.25
286.982	277.25
287.213	272.25
287.444	281.25
287.675	274.25
287.906	292.25
288.138	261.25
288.369	262.25
288.6	271.25
288.831	279.25
289.062	296.25
289.293	281.25
289.524	288.25
289.755	263.25
289.986	264.25
290.217	266.25
290.448	276.25
290.679	263.25
290.91	264.25
291.141	282.25
291.371	270.25
291.602	279.25
291.833	262.25
292.064	263.25
292.295	287.25
292.526	279.25
292.757	255.25
292.987	259.25
293.218	272.25
293.449	261.25
293.68	264.25
293.91	284.25
294.141	281.25
294.372	275.25
294.603	272.25
294.833	266.25
295.064	271.25
295.295	260.25
295.525	274.25
295.756	285.25
295.987	299.25
296.217	317.25
296.448	323.25
296.679	279.25
296.909	279.25
297.14	268.25
297.37	272.25
297.601	283.25
297.831	283.25
298.062	284.25
298.292	275.25
298.523	283.25
298.753	291.25
298.984	273.25
299.214	280.25
299.445	286.25
299.675	274.25
299.905	287.25
300.136	288.25
300.366	285.25
300.597	293.25
300.827	293.25
301.057	301.25
301.288	320.25
301.518	309.25
301.748	294.25
301.979	303.25
302.209	303.25
302.439	321.25
302.669	303.25
302.9	306.25
303.13	309.25
303.36	315.25
303.59	315.25
303.82	307.25
304.051	324.25
304.281	304.25
304.511	297.25
304.741	294.25
304.971	295.25
305.201	305.25
305.431	295.25
305.661	304.25
305.891	291.25
306.121	307.25
306.352	321.25
306.582	317.25
306.812	343.25
307.042	295.25
307.272	310.25
307.502	324.25
307.731	311.25
307.961	319.25
308.191	321.25
308.421	327.25
308.651	318.25
308.881	312.25
309.111	305.25
309.341	344.25
309.571	336.25
309.8	351.25
310.03	361.25
310.26	361.25
310.49	368.25
310.72	367.25
310.949	380.25
311.179	406.25
311.409	385.25
311.639	344.25
311.868	365.25
312.098	372.25
312.328	366.25
312.557	377.25
312.787	412.25
313.017	405.25
313.246	397.25
313.476	383.25
313.706	359.25
313.935	385.25
314.165	406.25
314.394	412.25
314.624	388.25
314.853	367.25
315.083	367.25
315.312	367.25
315.542	361.25
315.771	357.25
316.001	367.25
316.23	348.25
316.46	345.25
316.689	347.25
316.919	384.25
317.148	375.25
317.377	385.25
317.607	395.25
317.836	373.25
318.065	361.25
318.295	353.25
318.524	345.25
318.753	357.25
318.983	368.25
319.212	359.25
319.441	359.25
319.67	381.25
319.9	383.25
320.129	370.25
320.358	369.25
320.587	355.25
320.816	394.25
321.046	391.25
321.275	404.25
321.504	389.25
321.733	384.25
321.962	398.25
322.191	420.25
322.42	434.25
322.649	450.25
322.878	460.25
323.108	483.25
323.337	497.25
323.566	529.25
323.795	566.25
324.024	633.25
324.253	773.25
324.482	1112.25
324.71	1736.25
324.939	2518.25
325.168	2197.25
325.397	1136.25
325.626	764.25
325.855	628.25
326.084	554.25
326.313	531.25
326.542	547.25
326.77	584.25
326.999	697.25
327.228	977.25
327.457	1499.25
327.686	1911.25
327.914	1312.25
328.143	845.25
328.372	708.25
328.6	654.25
328.829	629.25
329.058	638.25
329.287	647.25
329.515	586.25
329.744	585.25
329.972	539.25
330.201	572.25
330.43	613.25
330.658	642.25
330.887	667.25
331.115	637.25
331.344	548.25
331.572	501.25
331.801	490.25
332.03	481.25
332.258	479.25
332.486	448.25
332.715	437.25
332.943	435.25
333.172	448.25
333.4	447.25
333.629	460.25
333.857	452.25
334.085	480.25
334.314	496.25
334.542	515.25
334.771	562.25
334.999	496.25
335.227	459.25
335.455	445.25
335.684	417.25
335.912	418.25
336.14	425.25
336.369	423.25
336.597	443.25
336.825	436.25
337.053	406.25
337.281	421.25
337.51	404.25
337.738	410.25
337.966	415.25
338.194	409.25
338.422	430.25
338.65	421.25
338.878	389.25
339.106	399.25
339.334	398.25
339.562	389.25
339.79	413.25
340.018	381.25
340.246	385.25
340.474	413.25
340.702	396.25
340.93	408.25
341.158	381.25
341.386	364.25
341.614	401.25
341.842	417.25
342.07	396.25
342.298	381.25
342.526	393.25
342.754	381.25
342.981	381.25
343.209	364.25
343.437	390.25
343.665	380.25
343.893	376.25
344.12	408.25
344.348	407.25
344.576	400.25
344.804	406.25
345.031	413.25
345.259	437.25
345.487	419.25
345.714	421.25
345.942	398.25
346.17	426.25
346.397	412.25
346.625	391.25
346.853	423.25
347.08	397.25
347.308	413.25
347.535	396.25
347.763	417.25
347.99	435.25
348.218	419.25
348.445	419.25
348.673	420.25
348.9	397.25
349.128	386.25
349.355	379.25
349.583	395.25
349.81	369.25
350.037	397.25
350.265	405.25
350.492	376.25
350.72	365.25
350.947	369.25
351.174	405.25
351.402	415.25
351.629	409.25
351.856	409.25
352.083	408.25
352.311	417.25
352.538	417.25
352.765	428.25
352.992	418.25
353.22	402.25
353.447	412.25
353.674	404.25
353.901	396.25
354.128	388.25
354.355	368.25
354.583	370.25
354.81	353.25
355.037	349.25
355.264	359.25
355.491	362.25
355.718	371.25
355.945	363.25
356.172	359.25
356.399	354.25
356.626	343.25
356.853	356.25
357.08	360.25
357.307	342.25
357.534	359.25
357.761	366.25
357.988	368.25
358.215	385.25
358.441	354.25
358.668	357.25
358.895	378.25
359.122	383.25
359.349	387.25
359.576	397.25
359.802	403.25
360.029	467.25
360.256	467.25
360.483	435.25
360.709	404.25
360.936	389.25
361.163	402.25
361.39	404.25
361.616	425.25
361.843	413.25
362.07	399.25
362.296	401.25
362.523	396.25
362.749	397.25
362.976	392.25
363.203	389.25
363.429	387.25
363.656	388.25
363.882	383.25
364.109	384.25
364.335	369.25
364.562	384.25
364.788	376.25
365.015	377.25
365.241	380.25
365.468	362.25
365.694	379.25
365.92	387.25
366.147	399.25
366.373	377.25
366.599	365.25
366.826	361.25
367.052	352.25
367.278	361.25
367.505	357.25
367.731	377.25
367.957	379.25
368.184	390.25
368.41	372.25
368.636	396.25
368.862	405.25
369.089	390.25
369.315	379.25
369.541	385.25
369.767	371.25
369.993	389.25
370.219	360.25
370.445	369.25
370.672	373.25
370.898	364.25
371.124	354.25
371.35	371.25
371.576	361.25
371.802	350.25
372.028	353.25
372.254	352.25
372.48	359.25
372.706	358.25
372.932	355.25
373.158	352.25
373.384	371.25
373.61	361.25
373.835	363.25
374.061	362.25
374.287	369.25
374.513	379.25
374.739	387.25
374.965	372.25
375.191	367.25
375.416	365.25
375.642	363.25
375.868	354.25
376.094	358.25
376.319	379.25
376.545	383.25
376.771	352.25
376.997	350.25
377.222	351.25
377.448	382.25
377.674	356.25
377.899	363.25
378.125	353.25
378.35	367.25
378.576	351.25
378.802	345.25
379.027	353.25
379.253	360.25
379.478	343.25
379.704	362.25
379.929	353.25
380.155	360.25
380.38	342.25
380.606	350.25
380.831	357.25
381.057	378.25
381.282	369.25
381.507	368.25
381.733	379.25
381.958	375.25
382.184	367.25
382.409	361.25
382.634	369.25
382.86	355.25
383.085	386.25
383.31	367.25
383.535	372.25
383.761	367.25
383.986	367.25
384.211	360.25
384.436	366.25
384.662	363.25
384.887	391.25
385.112	385.25
385.337	392.25
385.562	381.25
385.787	393.25
386.013	402.25
386.238	383.25
386.463	387.25
386.688	389.25
386.913	383.25
387.138	381.25
387.363	375.25
387.588	380.25
387.813	395.25
388.038	385.25
388.263	380.25
388.488	379.25
388.713	394.25
388.938	384.25
389.163	386.25
389.387	401.25
389.612	392.25
389.837	396.25
390.062	390.25
390.287	377.25
390.512	361.25
390.736	366.25
390.961	387.25
391.186	365.25
391.411	386.25
391.636	379.25
391.86	394.25
392.085	378.25
392.31	379.25
392.534	389.25
392.759	377.25
392.984	396.25
393.208	384.25
393.433	397.25
393.658	379.25
393.882	381.25
394.107	383.25
394.331	378.25
394.556	379.25
394.78	380.25
395.005	376.25
395.229	387.25
395.454	396.25
395.678	394.25
395.903	401.25
396.127	440.25
396.352	434.25
396.576	405.25
396.801	410.25
397.025	413.25
397.249	410.25
397.474	420.25
397.698	399.25
397.922	423.25
398.147	437.25
398.371	425.25
398.595	420.25
398.82	401.25
399.044	422.25
399.268	437.25
399.492	432.25
399.717	487.25
399.941	501.25
400.165	523.25
400.389	526.25
400.613	503.25
400.837	474.25
401.062	448.25
401.286	423.25
401.51	437.25
401.734	452.25
401.958	433.25
402.182	451.25
402.406	449.25
402.63	466.25
402.854	447.25
403.078	443.25
403.302	463.25
403.526	447.25
403.75	463.25
403.974	460.25
404.198	454.25
404.422	453.25
404.645	467.25
404.869	449.25
405.093	470.25
405.317	519.25
405.541	559.25
405.765	551.25
405.988	475.25
406.212	491.25
406.436	523.25
406.66	551.25
406.883	499.25
407.107	512.25
407.331	547.25
407.555	621.25
407.778	609.25
408.002	552.25
408.226	526.25
408.449	514.25
408.673	500.25
408.896	539.25
409.12	572.25
409.344	566.25
409.567	487.25
409.791	471.25
410.014	455.25
410.238	463.25
410.461	461.25
410.685	476.25
410.908	492.25
411.132	519.25
411.355	519.25
411.578	531.25
411.802	495.25
412.025	472.25
412.249	480.25
412.472	496.25
412.695	535.25
412.919	521.25
413.142	454.25
413.365	452.25
413.589	454.25
413.812	433.25
414.035	422.25
414.258	440.25
414.482	417.25
414.705	415.25
414.928	430.25
415.151	429.25
415.374	432.25
415.597	431.25
415.821	431.25
416.044	436.25
416.267	436.25
416.49	428.25
416.713	450.25
416.936	441.25
417.159	421.25
417.382	442.25
417.605	434.25
417.828	458.25
418.051	486.25
418.274	474.25
418.497	435.25
418.72	450.25
418.943	427.25
419.166	463.25
419.389	475.25
419.611	463.25
419.834	449.25
420.057	460.25
420.28	469.25
420.503	462.25
420.726	454.25
420.948	468.25
421.171	542.25
421.394	540.25
421.617	481.25
421.839	474.25
422.062	452.25
422.285	489.25
422.507	553.25
422.73	611.25
422.953	612.25
423.175	528.25
423.398	471.25
423.621	505.25
423.843	521.25
424.066	517.25
424.288	498.25
424.511	535.25
424.733	591.25
424.956	675.25
425.178	633.25
425.401	620.25
425.623	667.25
425.846	558.25
426.068	504.25
426.291	531.25
426.513	536.25
426.735	538.25
426.958	576.25
427.18	649.25
427.402	770.25
427.625	859.25
427.847	778.25
428.069	656.25
428.292	594.25
428.514	548.25
428.736	487.25
428.958	487.25
429.181	480.25
429.403	477.25
429.625	475.25
429.847	531.25
430.069	593.25
430.292	605.25
430.514	506.25
430.736	478.25
430.958	468.25
431.18	457.25
431.402	468.25
431.624	442.25
431.846	436.25
432.068	415.25
432.29	446.25
432.512	466.25
432.734	452.25
432.956	447.25
433.178	465.25
433.4	474.25
433.622	444.25
433.844	459.25
434.066	447.25
434.287	438.25
434.509	442.25
434.731	428.25
434.953	461.25
435.175	473.25
435.397	504.25
435.618	515.25
435.84	569.25
436.062	638.25
436.284	729.25
436.505	584.25
436.727	533.25
436.949	492.25
437.17	496.25
437.392	479.25
437.614	503.25
437.835	545.25
438.057	654.25
438.278	729.25
438.5	739.25
438.721	799.25
438.943	755.25
439.165	603.25
439.386	574.25
439.608	528.25
439.829	553.25
440.05	563.25
440.272	607.25
440.493	589.25
440.715	515.25
440.936	499.25
441.158	477.25
441.379	514.25
441.6	517.25
441.822	516.25
442.043	550.25
442.264	632.25
442.486	685.25
442.707	592.25
442.928	577.25
443.149	551.25
443.371	576.25
443.592	607.25
443.813	708.25
444.034	769.25
444.255	617.25
444.476	556.25
444.698	511.25
444.919	497.25
445.14	590.25
445.361	574.25
445.582	581.25
445.803	626.25
446.024	748.25
446.245	736.25
446.466	673.25
446.687	575.25
446.908	540.25
447.129	519.25
447.35	488.25
447.571	498.25
447.792	503.25
448.013	520.25
448.234	491.25
448.455	561.25
448.675	671.25
448.896	779.25
449.117	665.25
449.338	641.25
449.559	744.25
449.779	821.25
450	667.25
450.221	567.25
450.442	513.25
450.662	489.25
450.883	498.25
451.104	519.25
451.324	505.25
451.545	489.25
451.766	460.25
451.986	435.25
452.207	446.25
452.428	428.25
452.648	428.25
452.869	448.25
453.089	435.25
453.31	443.25
453.53	439.25
453.751	427.25
453.971	461.25
454.192	466.25
454.412	439.25
454.633	449.25
454.853	414.25
455.073	427.25
455.294	479.25
455.514	548.25
455.734	532.25
455.955	459.25
456.175	417.25
456.395	390.25
456.616	415.25
456.836	389.25
457.056	401.25
457.276	404.25
457.497	415.25
457.717	424.25
457.937	392.25
458.157	422.25
458.377	421.25
458.598	434.25
458.818	541.25
459.038	614.25
459.258	629.25
459.478	511.25
459.698	452.25
459.918	423.25
460.138	436.25
460.358	429.25
460.578	440.25
460.798	451.25
461.018	450.25
461.238	442.25
461.458	412.25
461.678	451.25
461.898	424.25
462.118	443.25
462.338	435.25
462.558	445.25
462.777	432.25
462.997	443.25
463.217	445.25
463.437	442.25
463.657	453.25
463.876	481.25
464.096	461.25
464.316	455.25
464.536	455.25
464.755	475.25
464.975	501.25
465.195	543.25
465.414	613.25
465.634	550.25
465.854	491.25
466.073	459.25
466.293	450.25
466.512	440.25
466.732	441.25
466.951	444.25
467.171	420.25
467.391	431.25
467.61	448.25
467.829	475.25
468.049	453.25
468.268	458.25
468.488	446.25
468.707	435.25
468.927	425.25
469.146	429.25
469.365	422.25
469.585	405.25
469.804	425.25
470.023	434.25
470.243	441.25
470.462	451.25
470.681	476.25
470.901	464.25
471.12	457.25
471.339	454.25
471.558	423.25
471.777	442.25
471.997	444.25
472.216	452.25
472.435	496.25
472.654	470.25
472.873	463.25
473.092	463.25
473.311	429.25
473.53	423.25
473.749	464.25
473.968	509.25
474.187	586.25
474.406	631.25
474.625	519.25
474.844	455.25
475.063	467.25
475.282	450.25
475.501	442.25
475.72	459.25
475.939	467.25
476.158	445.25
476.377	452.25
476.596	465.25
476.814	473.25
477.033	468.25
477.252	472.25
477.471	467.25
477.69	484.25
477.908	451.25
478.127	478.25
478.346	484.25
478.564	472.25
478.783	468.25
479.002	493.25
479.22	485.25
479.439	541.25
479.658	518.25
479.876	530.25
480.095	539.25
480.313	550.25
480.532	565.25
480.751	543.25
480.969	553.25
481.188	638.25
481.406	689.25
481.624	580.25
481.843	546.25
482.061	537.25
482.28	526.25
482.498	534.25
482.717	534.25
482.935	513.25
483.153	531.25
483.372	531.25
483.59	506.25
483.808	541.25
484.027	531.25
484.245	529.25
484.463	533.25
484.681	550.25
484.9	565.25
485.118	535.25
485.336	535.25
485.554	534.25
485.772	540.25
485.99	547.25
486.209	544.25
486.427	534.25
486.645	559.25
486.863	549.25
487.081	579.25
487.299	578.25
487.517	565.25
487.735	562.25
487.953	556.25
488.171	557.25
488.389	584.25
488.607	577.25
488.825	575.25
489.043	574.25
489.261	579.25
489.479	601.25
489.696	575.25
489.914	580.25
490.132	593.25
490.35	594.25
490.568	595.25
490.786	595.25
491.003	600.25
491.221	633.25
491.439	612.25
491.657	637.25
491.874	639.25
492.092	645.25
492.31	687.25
492.527	661.25
492.745	655.25
492.963	660.25
493.18	669.25
493.398	665.25
493.615	656.25
493.833	684.25
494.05	688.25
494.268	674.25
494.485	666.25
494.703	677.25
494.92	684.25
495.138	665.25
495.355	693.25
495.573	687.25
495.79	682.25
496.008	681.25
496.225	692.25
496.442	695.25
496.66	693.25
496.877	695.25
497.094	704.25
497.312	671.25
497.529	674.25
497.746	665.25
497.963	717.25
498.181	751.25
498.398	722.25
498.615	708.25
498.832	722.25
499.049	718.25
499.267	738.25
499.484	754.25
499.701	762.25
499.918	769.25
500.135	806.25
500.352	802.25
500.569	839.25
500.786	819.25
501.003	819.25
501.22	833.25
501.437	818.25
501.654	824.25
501.871	831.25
502.088	817.25
502.305	762.25
502.522	740.25
502.739	733.25
502.956	696.25
503.172	723.25
503.389	711.25
503.606	717.25
503.823	718.25
504.04	683.25
504.256	709.25
504.473	688.25
504.69	669.25
504.907	674.25
505.123	673.25
505.34	661.25
505.557	667.25
505.773	670.25
505.99	657.25
506.207	689.25
506.423	654.25
506.64	671.25
506.856	664.25
507.073	653.25
507.289	646.25
507.506	653.25
507.722	676.25
507.939	702.25
508.155	676.25
508.372	647.25
508.588	665.25
508.805	631.25
509.021	639.25
509.238	648.25
509.454	652.25
509.67	654.25
509.887	652.25
510.103	660.25
510.319	668.25
510.536	801.25
510.752	1360.25
510.968	1094.25
511.184	690.25
511.401	651.25
511.617	634.25
511.833	635.25
512.049	627.25
512.265	612.25
512.481	650.25
512.698	601.25
512.914	572.25
513.13	629.25
513.346	607.25
513.562	622.25
513.778	615.25
513.994	633.25
514.21	648.25
514.426	678.25
514.642	723.25
514.858	761.25
515.074	805.25
515.29	1010.25
515.506	1488.25
515.721	1215.25
515.937	751.25
516.153	713.25
516.369	667.25
516.585	663.25
516.801	624.25
517.016	597.25
517.232	612.25
517.448	621.25
517.664	612.25
517.879	609.25
518.095	618.25
518.311	612.25
518.527	625.25
518.742	578.25
518.958	608.25
519.173	597.25
519.389	578.25
519.605	609.25
519.82	602.25
520.036	641.25
520.251	657.25
520.467	689.25
520.682	715.25
520.898	690.25
521.113	727.25
521.329	809.25
521.544	917.25
521.76	1160.25
521.975	2055.25
522.19	2006.25
522.406	1056.25
522.621	757.25
522.836	657.25
523.052	644.25
523.267	580.25
523.482	584.25
523.698	585.25
523.913	585.25
524.128	584.25
524.343	540.25
524.559	547.25
524.774	533.25
524.989	552.25
525.204	539.25
525.419	539.25
525.634	527.25
525.849	515.25
526.064	516.25
526.28	497.25
526.495	489.25
526.71	508.25
526.925	476.25
527.14	482.25
527.355	497.25
527.57	480.25
527.785	464.25
527.999	478.25
528.214	488.25
528.429	481.25
528.644	482.25
528.859	495.25
529.074	489.25
529.289	525.25
529.503	643.25
529.718	603.25
529.933	530.25
530.148	523.25
530.363	488.25
530.577	489.25
530.792	484.25
531.007	471.25
531.221	473.25
531.436	463.25
531.651	455.25
531.865	455.25
532.08	456.25
532.295	442.25
532.509	458.25
532.724	457.25
532.938	465.25
533.153	451.25
533.367	447.25
533.582	454.25
533.796	476.25
534.011	426.25
534.225	451.25
534.44	431.25
534.654	445.25
534.868	457.25
535.083	465.25
535.297	436.25
535.511	464.25
535.726	472.25
535.94	469.25
536.154	458.25
536.369	450.25
536.583	446.25
536.797	456.25
537.011	443.25
537.225	441.25
537.44	435.25
537.654	445.25
537.868	441.25
538.082	436.25
538.296	424.25
538.51	440.25
538.724	453.25
538.938	426.25
539.153	407.25
539.367	447.25
539.581	458.25
539.795	462.25
540.009	450.25
540.222	435.25
540.436	430.25
540.65	438.25
540.864	435.25
541.078	424.25
541.292	426.25
541.506	452.25
541.72	442.25
541.934	436.25
542.147	448.25
542.361	424.25
542.575	444.25
542.789	441.25
543.002	408.25
543.216	430.25
543.43	427.25
543.644	459.25
543.857	444.25
544.071	434.25
544.285	428.25
544.498	433.25
544.712	429.25
544.925	425.25
545.139	436.25
545.352	406.25
545.566	416.25
545.779	429.25
545.993	397.25
546.206	414.25
546.42	421.25
546.633	416.25
546.847	401.25
547.06	419.25
547.274	426.25
547.487	411.25
547.7	416.25
547.914	393.25
548.127	390.25
548.34	403.25
548.554	406.25
548.767	401.25
548.98	384.25
549.193	393.25
549.407	398.25
549.62	426.25
549.833	394.25
550.046	401.25
550.259	407.25
550.473	388.25
550.686	402.25
550.899	406.25
551.112	398.25
551.325	379.25
551.538	389.25
551.751	385.25
551.964	408.25
552.177	405.25
552.39	379.25
552.603	389.25
552.816	396.25
553.029	397.25
553.242	399.25
553.455	386.25
553.667	418.25
553.88	423.25
554.093	435.25
554.306	410.25
554.519	397.25
554.732	385.25
554.944	402.25
555.157	401.25
555.37	384.25
555.583	392.25
555.795	384.25
556.008	401.25
556.221	377.25
556.433	367.25
556.646	378.25
556.859	362.25
557.071	377.25
557.284	359.25
557.496	383.25
557.709	372.25
557.921	362.25
558.134	377.25
558.346	363.25
558.559	371.25
558.771	361.25
558.984	355.25
559.196	356.25
559.409	373.25
559.621	360.25
559.833	353.25
560.046	338.25
560.258	353.25
560.47	352.25
560.683	376.25
560.895	379.25
561.107	354.25
561.32	360.25
561.532	357.25
561.744	353.25
561.956	351.25
562.168	363.25
562.381	334.25
562.593	344.25
562.805	356.25
563.017	352.25
563.229	370.25
563.441	367.25
563.653	363.25
563.865	371.25
564.077	354.25
564.289	360.25
564.501	367.25
564.713	362.25
564.925	371.25
565.137	373.25
565.349	375.25
565.561	387.25
565.773	384.25
565.985	385.25
566.197	391.25
566.408	408.25
566.62	409.25
566.832	401.25
567.044	400.25
567.255	411.25
567.467	406.25
567.679	407.25
567.891	422.25
568.102	429.25
568.314	397.25
568.526	379.25
568.737	375.25
568.949	386.25
569.161	371.25
569.372	378.25
569.584	361.25
569.795	360.25
570.007	360.25
570.218	404.25
570.43	403.25
570.641	371.25
570.853	373.25
571.064	338.25
571.276	335.25
571.487	339.25
571.698	329.25
571.91	317.25
572.121	341.25
572.333	323.25
572.544	330.25
572.755	325.25
572.966	331.25
573.178	334.25
573.389	313.25
573.6	305.25
573.811	334.25
574.023	291.25
574.234	309.25
574.445	307.25
574.656	297.25
574.867	319.25
575.078	311.25
575.289	297.25
575.501	305.25
575.712	296.25
575.923	285.25
576.134	308.25
576.345	308.25
576.556	309.25
576.767	299.25
576.978	311.25
577.188	313.25
577.399	324.25
577.61	299.25
577.821	300.25
578.032	332.25
578.243	351.25
578.454	617.25
578.665	435.25
578.875	346.25
579.086	303.25
579.297	284.25
579.508	289.25
579.718	308.25
579.929	292.25
580.14	283.25
580.35	287.25
580.561	293.25
580.772	298.25
580.982	273.25
581.193	281.25
581.403	303.25
581.614	287.25
581.825	278.25
582.035	289.25
582.246	293.25
582.456	296.25
582.667	279.25
582.877	299.25
583.087	274.25
583.298	285.25
583.508	280.25
583.719	270.25
583.929	305.25
584.139	279.25
584.35	279.25
584.56	289.25
584.77	266.25
584.981	282.25
585.191	267.25
585.401	274.25
585.611	280.25
585.821	294.25
586.032	292.25
586.242	280.25
586.452	273.25
586.662	285.25
586.872	286.25
587.082	290.25
587.292	265.25
587.502	273.25
587.713	253.25
587.923	280.25
588.133	278.25
588.343	270.25
588.553	286.25
588.762	278.25
588.972	292.25
589.182	290.25
589.392	278.25
589.602	267.25
589.812	277.25
590.022	283.25
590.232	270.25
590.441	243.25
590.651	268.25
590.861	264.25
591.071	280.25
591.281	266.25
591.49	270.25
591.7	266.25
591.91	280.25
592.119	267.25
592.329	281.25
592.539	281.25
592.748	283.25
592.958	292.25
593.167	271.25
593.377	269.25
593.587	305.25
593.796	272.25
594.006	277.25
594.215	282.25
594.424	272.25
594.634	254.25
594.843	259.25
595.053	271.25
595.262	272.25
595.472	239.25
595.681	257.25
595.89	277.25
596.1	265.25
596.309	264.25
596.518	267.25
596.727	239.25
596.937	264.25
597.146	255.25
597.355	261.25
597.564	240.25
597.774	243.25
597.983	259.25
598.192	250.25
598.401	250.25
598.61	248.25
598.819	260.25
599.028	235.25
599.237	252.25
599.446	247.25
599.655	244.25
599.864	235.25
600.073	249.25
600.282	247.25
600.491	234.25
600.7	226.25
600.909	249.25
601.118	251.25
601.327	244.25
601.536	236.25
601.745	231.25
601.953	232.25
602.162	222.25
602.371	241.25
602.58	234.25
602.789	220.25
602.997	228.25
603.206	252.25
603.415	229.25
603.623	220.25
603.832	218.25
604.041	239.25
604.249	232.25
604.458	243.25
604.666	228.25
604.875	232.25
605.084	239.25
605.292	227.25
605.501	237.25
605.709	215.25
605.918	230.25
606.126	224.25
606.334	228.25
606.543	227.25
606.751	229.25
606.96	209.25
607.168	221.25
607.376	212.25
607.585	240.25
607.793	221.25
608.001	226.25
608.21	217.25
608.418	235.25
608.626	232.25
608.834	229.25
609.043	228.25
609.251	225.25
609.459	221.25
609.667	242.25
609.875	252.25
610.083	214.25
610.291	214.25
610.499	221.25
610.707	224.25
610.916	228.25
611.124	220.25
611.332	245.25
611.54	246.25
611.748	233.25
611.955	225.25
612.163	219.25
612.371	222.25
612.579	217.25
612.787	224.25
612.995	224.25
613.203	225.25
613.411	230.25
613.618	210.25
613.826	227.25
614.034	224.25
614.242	223.25
614.449	235.25
614.657	225.25
614.865	215.25
615.072	235.25
615.28	225.25
615.488	211.25
615.695	211.25
615.903	216.25
616.111	213.25
616.318	216.25
616.526	210.25
616.733	229.25
616.941	211.25
617.148	210.25
617.356	223.25
617.563	221.25
617.771	224.25
617.978	210.25
618.185	221.25
618.393	207.25
618.6	207.25
618.807	210.25
619.015	224.25
619.222	215.25
619.429	205.25
619.637	209.25
619.844	212.25
620.051	208.25
620.258	229.25
620.466	205.25
620.673	212.25
620.88	192.25
621.087	201.25
621.294	204.25
621.501	208.25
621.708	203.25
621.915	200.25
622.122	221.25
622.329	222.25
622.536	214.25
622.743	205.25
622.95	202.25
623.157	204.25
623.364	190.25
623.571	221.25
623.778	209.25
623.985	212.25
624.192	193.25
624.399	193.25
624.606	200.25
624.812	198.25
625.019	211.25
625.226	189.25
625.433	204.25
625.639	199.25
625.846	212.25
626.053	187.25
626.259	202.25
626.466	193.25
626.673	211.25
626.879	187.25
627.086	204.25
627.293	189.25
627.499	179.25
627.706	189.25
627.912	194.25
628.119	187.25
628.325	211.25
628.532	209.25
628.738	186.25
628.945	179.25
629.151	197.25
629.357	188.25
629.564	184.25
629.77	181.25
629.976	195.25
630.183	175.25
630.389	188.25
630.595	189.25
630.802	190.25
631.008	176.25
631.214	185.25
631.42	179.25
631.627	184.25
631.833	186.25
632.039	172.25
632.245	165.25
632.451	181.25
632.657	177.25
632.863	177.25
633.069	160.25
633.275	183.25
633.481	166.25
633.688	176.25
633.893	184.25
634.099	189.25
634.305	174.25
634.511	161.25
634.717	177.25
634.923	186.25
635.129	162.25
635.335	164.25
635.541	174.25
635.747	170.25
635.952	163.25
636.158	179.25
636.364	165.25
636.57	188.25
636.775	181.25
636.981	183.25
637.187	163.25
637.392	170.25
637.598	154.25
637.804	176.25
638.009	173.25
638.215	167.25
638.421	173.25
638.626	181.25
638.832	162.25
639.037	183.25
639.243	147.25
639.448	151.25
639.654	153.25
639.859	167.25
640.065	155.25
640.27	177.25
640.475	162.25
640.681	170.25
640.886	173.25
641.091	163.25
641.297	172.25
641.502	155.25
641.707	155.25
641.913	167.25
642.118	175.25
642.323	171.25
642.528	172.25
642.733	163.25
642.939	163.25
643.144	149.25
643.349	171.25
643.554	155.25
643.759	163.25
643.964	143.25
644.169	161.25
644.374	141.25
644.579	151.25
644.784	164.25
644.989	141.25
645.194	162.25
645.399	159.25
645.604	163.25
645.809	158.25
646.014	163.25
646.219	157.25
646.423	160.25
646.628	162.25
646.833	163.25
647.038	151.25
647.243	165.25
647.447	187.25
647.652	181.25
647.857	162.25
648.062	149.25
648.266	164.25
648.471	162.25
648.676	149.25
648.88	147.25
649.085	163.25
649.289	140.25
649.494	173.25
649.698	191.25
649.903	188.25
650.107	167.25
650.312	159.25
650.516	158.25
650.721	171.25
650.925	141.25
651.13	149.25
651.334	135.25
651.539	147.25
651.743	153.25
651.947	140.25
652.152	138.25
652.356	132.25
652.56	140.25
652.764	136.25
652.969	135.25
653.173	126.25
653.377	129.25
653.581	137.25
653.785	122.25
653.99	131.25
654.194	133.25
654.398	116.25
654.602	149.25
654.806	140.25
655.01	135.25
655.214	146.25
655.418	133.25
655.622	131.25
655.826	119.25
656.03	125.25
656.234	113.25
656.438	128.25
656.642	134.25
656.846	113.25
657.049	123.25
657.253	112.25
657.457	119.25
657.661	115.25
657.865	100.25
658.068	110.25
658.272	93.25
658.476	93.25
658.68	104.25
658.883	100.25
659.087	95.25
659.291	97.25
659.494	101.25
659.698	95.25
659.901	101.25
660.105	92.25
660.309	98.25
660.512	96.25
660.716	93.25
660.919	91.25
661.123	90.25
661.326	87.25
661.53	89.25
661.733	96.25
661.936	89.25
662.14	83.25
662.343	89.25
662.546	94.25
662.75	83.25
662.953	75.25
663.156	87.25
663.36	90.25
663.563	82.25
663.766	71.25
663.969	71.25
664.173	71.25
664.376	89.25
664.579	77.25
664.782	89.25
664.985	85.25
665.188	83.25
665.391	77.25
665.594	82.25
665.797	69.25
666	77.25
666.203	79.25
666.406	65.25
666.609	86.25
666.812	82.25
667.015	83.25
667.218	89.25
667.421	79.25
667.624	83.25
667.827	78.25
668.03	88.25
668.232	75.25
668.435	82.25
668.638	74.25
668.841	86.25
669.043	86.25
669.246	84.25
669.449	82.25
669.651	67.25
669.854	80.25
670.057	80.25
670.259	82.25
670.462	84.25
670.665	89.25
670.867	86.25
671.07	91.25
671.272	96.25
671.475	80.25
671.677	90.25
671.88	84.25
672.082	85.25
672.284	89.25
672.487	75.25
672.689	69.25
672.892	83.25
