Data from 1980.PennyLincolnUp.Lamp.En5.5.200Scan.071819.P1_HRD10591_16-36-51-957.txt Node
Date: Thu Jul 18 16:36:51 EDT 2019
User: cochatt
Spectrometer: HR+D1059
Trigger mode: 1
Integration Time (sec): 1.000000E-1
Scans to average: 1
Electric dark correction enabled: true
Nonlinearity correction enabled: false
Boxcar width: 0
XAxis mode: Wavelengths
Number of Pixels in Spectrum: 2048
>>>>>Begin Spectral Data<<<<<
223.165	-20.12
223.4	-20.12
223.635	-20.12
223.869	-10.12
224.104	-19.12
224.338	-14.12
224.573	-8.12
224.808	-19.12
225.042	-17.12
225.277	9.88
225.511	-3.12
225.746	5.88
225.98	17.88
226.215	-1.12
226.449	4.88
226.683	29.88
226.918	19.88
227.152	23.88
227.387	39.88
227.621	30.88
227.856	36.88
228.09	51.88
228.324	33.88
228.559	51.88
228.793	55.88
229.027	85.88
229.262	89.88
229.496	120.88
229.73	125.88
229.964	138.88
230.199	133.88
230.433	107.88
230.667	117.88
230.901	114.88
231.136	104.88
231.37	99.88
231.604	115.88
231.838	129.88
232.072	116.88
232.306	125.88
232.541	101.88
232.775	99.88
233.009	100.88
233.243	97.88
233.477	108.88
233.711	119.88
233.945	117.88
234.179	115.88
234.413	108.88
234.647	94.88
234.881	100.88
235.115	103.88
235.349	120.88
235.583	118.88
235.817	111.88
236.051	116.88
236.285	124.88
236.519	126.88
236.753	125.88
236.987	127.88
237.221	192.88
237.455	229.88
237.689	195.88
237.922	147.88
238.156	120.88
238.39	132.88
238.624	123.88
238.858	137.88
239.091	128.88
239.325	119.88
239.559	131.88
239.793	125.88
240.027	134.88
240.26	120.88
240.494	149.88
240.728	148.88
240.961	155.88
241.195	121.88
241.429	127.88
241.662	146.88
241.896	125.88
242.13	145.88
242.363	132.88
242.597	130.88
242.83	144.88
243.064	150.88
243.298	127.88
243.531	139.88
243.765	115.88
243.998	138.88
244.232	137.88
244.465	133.88
244.699	148.88
244.932	143.88
245.166	118.88
245.399	148.88
245.633	147.88
245.866	136.88
246.099	137.88
246.333	134.88
246.566	137.88
246.8	142.88
247.033	139.88
247.266	163.88
247.5	167.88
247.733	148.88
247.966	167.88
248.2	155.88
248.433	161.88
248.666	183.88
248.899	179.88
249.133	207.88
249.366	198.88
249.599	183.88
249.832	178.88
250.066	183.88
250.299	176.88
250.532	179.88
250.765	205.88
250.998	213.88
251.231	221.88
251.465	217.88
251.698	211.88
251.931	194.88
252.164	199.88
252.397	212.88
252.63	192.88
252.863	193.88
253.096	224.88
253.329	209.88
253.562	227.88
253.795	213.88
254.028	224.88
254.261	209.88
254.494	222.88
254.727	245.88
254.96	265.88
255.193	268.88
255.426	258.88
255.659	246.88
255.892	242.88
256.124	220.88
256.357	220.88
256.59	222.88
256.823	207.88
257.056	188.88
257.289	214.88
257.521	213.88
257.754	203.88
257.987	206.88
258.22	209.88
258.452	201.88
258.685	193.88
258.918	191.88
259.151	202.88
259.383	208.88
259.616	210.88
259.849	224.88
260.081	239.88
260.314	237.88
260.547	248.88
260.779	239.88
261.012	224.88
261.244	198.88
261.477	222.88
261.71	218.88
261.942	229.88
262.175	229.88
262.407	220.88
262.64	204.88
262.872	191.88
263.105	212.88
263.337	205.88
263.57	228.88
263.802	195.88
264.035	215.88
264.267	201.88
264.499	196.88
264.732	192.88
264.964	201.88
265.197	199.88
265.429	197.88
265.661	182.88
265.894	185.88
266.126	213.88
266.358	189.88
266.591	209.88
266.823	212.88
267.055	233.88
267.287	214.88
267.52	213.88
267.752	214.88
267.984	212.88
268.216	203.88
268.448	210.88
268.681	225.88
268.913	224.88
269.145	233.88
269.377	248.88
269.609	263.88
269.841	273.88
270.073	259.88
270.306	279.88
270.538	303.88
270.77	303.88
271.002	293.88
271.234	289.88
271.466	296.88
271.698	303.88
271.93	301.88
272.162	293.88
272.394	313.88
272.626	290.88
272.858	293.88
273.09	269.88
273.322	271.88
273.553	256.88
273.785	246.88
274.017	250.88
274.249	245.88
274.481	247.88
274.713	257.88
274.945	268.88
275.176	240.88
275.408	253.88
275.64	247.88
275.872	226.88
276.104	255.88
276.335	257.88
276.567	264.88
276.799	266.88
277.031	267.88
277.262	296.88
277.494	294.88
277.726	270.88
277.957	283.88
278.189	269.88
278.421	253.88
278.652	261.88
278.884	263.88
279.115	261.88
279.347	255.88
279.579	261.88
279.81	241.88
280.042	255.88
280.273	223.88
280.505	253.88
280.736	255.88
280.968	228.88
281.199	235.88
281.431	251.88
281.662	240.88
281.894	236.88
282.125	264.88
282.356	255.88
282.588	281.88
282.819	291.88
283.051	273.88
283.282	241.88
283.513	257.88
283.745	258.88
283.976	242.88
284.207	263.88
284.439	244.88
284.67	257.88
284.901	260.88
285.132	264.88
285.364	256.88
285.595	257.88
285.826	255.88
286.057	244.88
286.288	253.88
286.52	245.88
286.751	258.88
286.982	264.88
287.213	236.88
287.444	242.88
287.675	268.88
287.906	268.88
288.138	269.88
288.369	268.88
288.6	269.88
288.831	273.88
289.062	280.88
289.293	278.88
289.524	261.88
289.755	269.88
289.986	253.88
290.217	267.88
290.448	241.88
290.679	268.88
290.91	272.88
291.141	242.88
291.371	257.88
291.602	261.88
291.833	244.88
292.064	251.88
292.295	252.88
292.526	257.88
292.757	279.88
292.987	249.88
293.218	262.88
293.449	267.88
293.68	257.88
293.91	258.88
294.141	270.88
294.372	269.88
294.603	265.88
294.833	266.88
295.064	271.88
295.295	271.88
295.525	280.88
295.756	263.88
295.987	271.88
296.217	296.88
296.448	290.88
296.679	289.88
296.909	256.88
297.14	273.88
297.37	265.88
297.601	266.88
297.831	272.88
298.062	263.88
298.292	258.88
298.523	270.88
298.753	294.88
298.984	265.88
299.214	273.88
299.445	280.88
299.675	265.88
299.905	287.88
300.136	273.88
300.366	269.88
300.597	282.88
300.827	284.88
301.057	293.88
301.288	285.88
301.518	285.88
301.748	294.88
301.979	266.88
302.209	289.88
302.439	303.88
302.669	269.88
302.9	292.88
303.13	287.88
303.36	291.88
303.59	295.88
303.82	284.88
304.051	288.88
304.281	282.88
304.511	288.88
304.741	287.88
304.971	278.88
305.201	288.88
305.431	282.88
305.661	287.88
305.891	285.88
306.121	287.88
306.352	284.88
306.582	296.88
306.812	288.88
307.042	300.88
307.272	291.88
307.502	281.88
307.731	290.88
307.961	289.88
308.191	297.88
308.421	282.88
308.651	300.88
308.881	291.88
309.111	315.88
309.341	304.88
309.571	329.88
309.8	309.88
310.03	324.88
310.26	333.88
310.49	328.88
310.72	329.88
310.949	345.88
311.179	351.88
311.409	357.88
311.639	332.88
311.868	335.88
312.098	348.88
312.328	345.88
312.557	353.88
312.787	377.88
313.017	378.88
313.246	357.88
313.476	327.88
313.706	348.88
313.935	363.88
314.165	365.88
314.394	376.88
314.624	353.88
314.853	357.88
315.083	343.88
315.312	344.88
315.542	316.88
315.771	348.88
316.001	345.88
316.23	319.88
316.46	349.88
316.689	332.88
316.919	345.88
317.148	340.88
317.377	337.88
317.607	344.88
317.836	357.88
318.065	346.88
318.295	335.88
318.524	341.88
318.753	319.88
318.983	326.88
319.212	346.88
319.441	335.88
319.67	358.88
319.9	339.88
320.129	355.88
320.358	356.88
320.587	342.88
320.816	357.88
321.046	373.88
321.275	355.88
321.504	362.88
321.733	378.88
321.962	369.88
322.191	376.88
322.42	433.88
322.649	411.88
322.878	431.88
323.108	413.88
323.337	461.88
323.566	474.88
323.795	507.88
324.024	560.88
324.253	692.88
324.482	967.88
324.71	1475.88
324.939	2177.88
325.168	1889.88
325.397	981.88
325.626	663.88
325.855	549.88
326.084	505.88
326.313	486.88
326.542	483.88
326.77	535.88
326.999	649.88
327.228	841.88
327.457	1283.88
327.686	1622.88
327.914	1107.88
328.143	728.88
328.372	639.88
328.6	585.88
328.829	559.88
329.058	563.88
329.287	569.88
329.515	520.88
329.744	469.88
329.972	474.88
330.201	483.88
330.43	536.88
330.658	562.88
330.887	589.88
331.115	580.88
331.344	485.88
331.572	433.88
331.801	454.88
332.03	432.88
332.258	430.88
332.486	432.88
332.715	397.88
332.943	397.88
333.172	417.88
333.4	400.88
333.629	378.88
333.857	438.88
334.085	441.88
334.314	443.88
334.542	475.88
334.771	492.88
334.999	454.88
335.227	430.88
335.455	393.88
335.684	396.88
335.912	406.88
336.14	393.88
336.369	376.88
336.597	385.88
336.825	417.88
337.053	385.88
337.281	372.88
337.51	397.88
337.738	389.88
337.966	395.88
338.194	394.88
338.422	392.88
338.65	391.88
338.878	387.88
339.106	371.88
339.334	369.88
339.562	370.88
339.79	377.88
340.018	377.88
340.246	386.88
340.474	389.88
340.702	383.88
340.93	370.88
341.158	385.88
341.386	358.88
341.614	401.88
341.842	381.88
342.07	369.88
342.298	374.88
342.526	372.88
342.754	372.88
342.981	367.88
343.209	344.88
343.437	373.88
343.665	385.88
343.893	391.88
344.12	379.88
344.348	401.88
344.576	375.88
344.804	392.88
345.031	420.88
345.259	406.88
345.487	395.88
345.714	389.88
345.942	363.88
346.17	357.88
346.397	376.88
346.625	385.88
346.853	375.88
347.08	378.88
347.308	372.88
347.535	373.88
347.763	397.88
347.99	387.88
348.218	392.88
348.445	385.88
348.673	403.88
348.9	377.88
349.128	396.88
349.355	346.88
349.583	358.88
349.81	376.88
350.037	367.88
350.265	362.88
350.492	367.88
350.72	367.88
350.947	373.88
351.174	368.88
351.402	398.88
351.629	375.88
351.856	384.88
352.083	386.88
352.311	362.88
352.538	397.88
352.765	395.88
352.992	381.88
353.22	376.88
353.447	354.88
353.674	373.88
353.901	364.88
354.128	371.88
354.355	361.88
354.583	343.88
354.81	341.88
355.037	345.88
355.264	342.88
355.491	337.88
355.718	337.88
355.945	352.88
356.172	359.88
356.399	330.88
356.626	344.88
356.853	343.88
357.08	340.88
357.307	344.88
357.534	333.88
357.761	357.88
357.988	336.88
358.215	325.88
358.441	340.88
358.668	344.88
358.895	324.88
359.122	353.88
359.349	355.88
359.576	372.88
359.802	391.88
360.029	417.88
360.256	424.88
360.483	417.88
360.709	376.88
360.936	369.88
361.163	373.88
361.39	360.88
361.616	365.88
361.843	373.88
362.07	367.88
362.296	404.88
362.523	381.88
362.749	363.88
362.976	364.88
363.203	367.88
363.429	361.88
363.656	356.88
363.882	370.88
364.109	360.88
364.335	337.88
364.562	359.88
364.788	359.88
365.015	372.88
365.241	355.88
365.468	358.88
365.694	341.88
365.92	351.88
366.147	356.88
366.373	344.88
366.599	351.88
366.826	353.88
367.052	356.88
367.278	339.88
367.505	367.88
367.731	347.88
367.957	337.88
368.184	363.88
368.41	339.88
368.636	363.88
368.862	375.88
369.089	346.88
369.315	338.88
369.541	351.88
369.767	359.88
369.993	336.88
370.219	368.88
370.445	335.88
370.672	348.88
370.898	357.88
371.124	338.88
371.35	335.88
371.576	355.88
371.802	346.88
372.028	359.88
372.254	330.88
372.48	356.88
372.706	359.88
372.932	355.88
373.158	335.88
373.384	358.88
373.61	364.88
373.835	352.88
374.061	352.88
374.287	354.88
374.513	361.88
374.739	356.88
374.965	341.88
375.191	364.88
375.416	355.88
375.642	347.88
375.868	344.88
376.094	351.88
376.319	348.88
376.545	341.88
376.771	329.88
376.997	343.88
377.222	348.88
377.448	370.88
377.674	343.88
377.899	343.88
378.125	341.88
378.35	354.88
378.576	328.88
378.802	339.88
379.027	347.88
379.253	336.88
379.478	343.88
379.704	331.88
379.929	348.88
380.155	337.88
380.38	355.88
380.606	360.88
380.831	358.88
381.057	351.88
381.282	356.88
381.507	346.88
381.733	353.88
381.958	348.88
382.184	340.88
382.409	353.88
382.634	355.88
382.86	347.88
383.085	369.88
383.31	371.88
383.535	359.88
383.761	345.88
383.986	359.88
384.211	358.88
384.436	343.88
384.662	352.88
384.887	363.88
385.112	358.88
385.337	376.88
385.562	370.88
385.787	365.88
386.013	383.88
386.238	387.88
386.463	370.88
386.688	372.88
386.913	376.88
387.138	360.88
387.363	377.88
387.588	359.88
387.813	364.88
388.038	356.88
388.263	355.88
388.488	357.88
388.713	347.88
388.938	376.88
389.163	360.88
389.387	371.88
389.612	377.88
389.837	362.88
390.062	355.88
390.287	364.88
390.512	358.88
390.736	373.88
390.961	360.88
391.186	358.88
391.411	368.88
391.636	373.88
391.86	364.88
392.085	378.88
392.31	376.88
392.534	390.88
392.759	374.88
392.984	367.88
393.208	373.88
393.433	377.88
393.658	362.88
393.882	376.88
394.107	379.88
394.331	352.88
394.556	367.88
394.78	375.88
395.005	380.88
395.229	383.88
395.454	361.88
395.678	373.88
395.903	375.88
396.127	422.88
396.352	420.88
396.576	413.88
396.801	380.88
397.025	398.88
397.249	379.88
397.474	391.88
397.698	380.88
397.922	406.88
398.147	424.88
398.371	410.88
398.595	409.88
398.82	396.88
399.044	416.88
399.268	433.88
399.492	454.88
399.717	460.88
399.941	474.88
400.165	488.88
400.389	525.88
400.613	503.88
400.837	440.88
401.062	429.88
401.286	431.88
401.51	431.88
401.734	400.88
401.958	414.88
402.182	421.88
402.406	433.88
402.63	421.88
402.854	427.88
403.078	419.88
403.302	438.88
403.526	465.88
403.75	453.88
403.974	437.88
404.198	420.88
404.422	437.88
404.645	439.88
404.869	451.88
405.093	478.88
405.317	488.88
405.541	554.88
405.765	493.88
405.988	476.88
406.212	479.88
406.436	508.88
406.66	500.88
406.883	478.88
407.107	502.88
407.331	523.88
407.555	601.88
407.778	603.88
408.002	546.88
408.226	521.88
408.449	480.88
408.673	482.88
408.896	512.88
409.12	547.88
409.344	503.88
409.567	479.88
409.791	446.88
410.014	452.88
410.238	419.88
410.461	449.88
410.685	420.88
410.908	484.88
411.132	491.88
411.355	518.88
411.578	499.88
411.802	447.88
412.025	429.88
412.249	437.88
412.472	471.88
412.695	495.88
412.919	485.88
413.142	461.88
413.365	439.88
413.589	419.88
413.812	412.88
414.035	402.88
414.258	415.88
414.482	408.88
414.705	428.88
414.928	420.88
415.151	411.88
415.374	416.88
415.597	419.88
415.821	407.88
416.044	412.88
416.267	417.88
416.49	417.88
416.713	408.88
416.936	417.88
417.159	419.88
417.382	442.88
417.605	438.88
417.828	423.88
418.051	439.88
418.274	439.88
418.497	424.88
418.72	413.88
418.943	404.88
419.166	424.88
419.389	440.88
419.611	448.88
419.834	441.88
420.057	435.88
420.28	438.88
420.503	438.88
420.726	443.88
420.948	459.88
421.171	487.88
421.394	543.88
421.617	466.88
421.839	417.88
422.062	439.88
422.285	475.88
422.507	488.88
422.73	584.88
422.953	552.88
423.175	483.88
423.398	477.88
423.621	491.88
423.843	500.88
424.066	490.88
424.288	516.88
424.511	488.88
424.733	546.88
424.956	609.88
425.178	611.88
425.401	612.88
425.623	605.88
425.846	538.88
426.068	480.88
426.291	492.88
426.513	491.88
426.735	492.88
426.958	536.88
427.18	614.88
427.402	747.88
427.625	796.88
427.847	726.88
428.069	611.88
428.292	552.88
428.514	532.88
428.736	484.88
428.958	475.88
429.181	484.88
429.403	455.88
429.625	452.88
429.847	507.88
430.069	548.88
430.292	544.88
430.514	490.88
430.736	465.88
430.958	461.88
431.18	438.88
431.402	432.88
431.624	405.88
431.846	429.88
432.068	419.88
432.29	419.88
432.512	433.88
432.734	435.88
432.956	446.88
433.178	455.88
433.4	431.88
433.622	441.88
433.844	411.88
434.066	400.88
434.287	422.88
434.509	436.88
434.731	420.88
434.953	432.88
435.175	464.88
435.397	510.88
435.618	516.88
435.84	537.88
436.062	613.88
436.284	668.88
436.505	568.88
436.727	517.88
436.949	492.88
437.17	466.88
437.392	468.88
437.614	465.88
437.835	503.88
438.057	633.88
438.278	717.88
438.5	674.88
438.721	746.88
438.943	709.88
439.165	553.88
439.386	527.88
439.608	529.88
439.829	471.88
440.05	524.88
440.272	579.88
440.493	545.88
440.715	491.88
440.936	458.88
441.158	469.88
441.379	468.88
441.6	461.88
441.822	481.88
442.043	523.88
442.264	629.88
442.486	633.88
442.707	556.88
442.928	527.88
443.149	516.88
443.371	517.88
443.592	557.88
443.813	653.88
444.034	704.88
444.255	573.88
444.476	524.88
444.698	502.88
444.919	474.88
445.14	564.88
445.361	545.88
445.582	550.88
445.803	606.88
446.024	695.88
446.245	711.88
446.466	666.88
446.687	568.88
446.908	503.88
447.129	469.88
447.35	467.88
447.571	460.88
447.792	440.88
448.013	461.88
448.234	483.88
448.455	537.88
448.675	623.88
448.896	722.88
449.117	597.88
449.338	597.88
449.559	683.88
449.779	755.88
450	629.88
450.221	520.88
450.442	487.88
450.662	480.88
450.883	467.88
451.104	490.88
451.324	458.88
451.545	431.88
451.766	435.88
451.986	419.88
452.207	415.88
452.428	415.88
452.648	409.88
452.869	393.88
453.089	415.88
453.31	418.88
453.53	428.88
453.751	399.88
453.971	419.88
454.192	463.88
454.412	441.88
454.633	411.88
454.853	404.88
455.073	400.88
455.294	437.88
455.514	497.88
455.734	501.88
455.955	422.88
456.175	395.88
456.395	394.88
456.616	378.88
456.836	389.88
457.056	378.88
457.276	382.88
457.497	377.88
457.717	372.88
457.937	398.88
458.157	387.88
458.377	392.88
458.598	414.88
458.818	448.88
459.038	548.88
459.258	559.88
459.478	483.88
459.698	421.88
459.918	425.88
460.138	417.88
460.358	427.88
460.578	409.88
460.798	425.88
461.018	426.88
461.238	417.88
461.458	408.88
461.678	417.88
461.898	398.88
462.118	402.88
462.338	436.88
462.558	410.88
462.777	412.88
462.997	401.88
463.217	439.88
463.437	443.88
463.657	427.88
463.876	413.88
464.096	431.88
464.316	445.88
464.536	460.88
464.755	440.88
464.975	439.88
465.195	489.88
465.414	575.88
465.634	518.88
465.854	470.88
466.073	433.88
466.293	401.88
466.512	421.88
466.732	401.88
466.951	412.88
467.171	419.88
467.391	398.88
467.61	423.88
467.829	435.88
468.049	411.88
468.268	412.88
468.488	415.88
468.707	395.88
468.927	400.88
469.146	402.88
469.365	394.88
469.585	397.88
469.804	435.88
470.023	427.88
470.243	420.88
470.462	442.88
470.681	434.88
470.901	440.88
471.12	417.88
471.339	408.88
471.558	414.88
471.777	410.88
471.997	423.88
472.216	441.88
472.435	452.88
472.654	436.88
472.873	407.88
473.092	410.88
473.311	403.88
473.53	413.88
473.749	428.88
473.968	477.88
474.187	561.88
474.406	603.88
474.625	480.88
474.844	448.88
475.063	433.88
475.282	440.88
475.501	433.88
475.72	439.88
475.939	432.88
476.158	423.88
476.377	438.88
476.596	432.88
476.814	441.88
477.033	445.88
477.252	442.88
477.471	430.88
477.69	440.88
477.908	445.88
478.127	462.88
478.346	460.88
478.564	474.88
478.783	447.88
479.002	463.88
479.22	467.88
479.439	472.88
479.658	501.88
479.876	522.88
480.095	519.88
480.313	534.88
480.532	550.88
480.751	501.88
480.969	513.88
481.188	564.88
481.406	592.88
481.624	553.88
481.843	541.88
482.061	504.88
482.28	493.88
482.498	507.88
482.717	495.88
482.935	489.88
483.153	487.88
483.372	485.88
483.59	498.88
483.808	492.88
484.027	505.88
484.245	495.88
484.463	487.88
484.681	509.88
484.9	518.88
485.118	502.88
485.336	519.88
485.554	514.88
485.772	503.88
485.99	507.88
486.209	507.88
486.427	508.88
486.645	532.88
486.863	563.88
487.081	557.88
487.299	543.88
487.517	560.88
487.735	556.88
487.953	560.88
488.171	534.88
488.389	540.88
488.607	561.88
488.825	515.88
489.043	526.88
489.261	535.88
489.479	532.88
489.696	548.88
489.914	565.88
490.132	537.88
490.35	568.88
490.568	578.88
490.786	567.88
491.003	570.88
491.221	599.88
491.439	598.88
491.657	617.88
491.874	612.88
492.092	628.88
492.31	642.88
492.527	629.88
492.745	644.88
492.963	623.88
493.18	635.88
493.398	626.88
493.615	643.88
493.833	629.88
494.05	638.88
494.268	643.88
494.485	643.88
494.703	662.88
494.92	653.88
495.138	617.88
495.355	645.88
495.573	637.88
495.79	613.88
496.008	643.88
496.225	663.88
496.442	645.88
496.66	645.88
496.877	617.88
497.094	651.88
497.312	652.88
497.529	665.88
497.746	662.88
497.963	665.88
498.181	685.88
498.398	666.88
498.615	689.88
498.832	685.88
499.049	703.88
499.267	694.88
499.484	703.88
499.701	725.88
499.918	740.88
500.135	765.88
500.352	796.88
500.569	800.88
500.786	801.88
501.003	780.88
501.22	785.88
501.437	781.88
501.654	763.88
501.871	769.88
502.088	737.88
502.305	732.88
502.522	715.88
502.739	684.88
502.956	667.88
503.172	661.88
503.389	660.88
503.606	682.88
503.823	653.88
504.04	654.88
504.256	649.88
504.473	633.88
504.69	613.88
504.907	639.88
505.123	647.88
505.34	646.88
505.557	642.88
505.773	611.88
505.99	610.88
506.207	629.88
506.423	620.88
506.64	596.88
506.856	611.88
507.073	600.88
507.289	625.88
507.506	603.88
507.722	618.88
507.939	649.88
508.155	622.88
508.372	601.88
508.588	595.88
508.805	603.88
509.021	592.88
509.238	599.88
509.454	629.88
509.67	612.88
509.887	607.88
510.103	597.88
510.319	607.88
510.536	732.88
510.752	1220.88
510.968	1011.88
511.184	632.88
511.401	606.88
511.617	605.88
511.833	587.88
512.049	597.88
512.265	561.88
512.481	554.88
512.698	563.88
512.914	584.88
513.13	571.88
513.346	566.88
513.562	557.88
513.778	571.88
513.994	584.88
514.21	609.88
514.426	629.88
514.642	689.88
514.858	675.88
515.074	752.88
515.29	888.88
515.506	1391.88
515.721	1101.88
515.937	736.88
516.153	649.88
516.369	608.88
516.585	585.88
516.801	583.88
517.016	586.88
517.232	583.88
517.448	585.88
517.664	586.88
517.879	560.88
518.095	568.88
518.311	569.88
518.527	579.88
518.742	559.88
518.958	555.88
519.173	551.88
519.389	561.88
519.605	574.88
519.82	553.88
520.036	583.88
520.251	599.88
520.467	631.88
520.682	639.88
520.898	649.88
521.113	659.88
521.329	727.88
521.544	826.88
521.76	1043.88
521.975	1820.88
522.19	1809.88
522.406	955.88
522.621	681.88
522.836	613.88
523.052	591.88
523.267	556.88
523.482	541.88
523.698	538.88
523.913	549.88
524.128	515.88
524.343	483.88
524.559	516.88
524.774	513.88
524.989	504.88
525.204	509.88
525.419	511.88
525.634	492.88
525.849	485.88
526.064	478.88
526.28	473.88
526.495	464.88
526.71	482.88
526.925	468.88
527.14	470.88
527.355	466.88
527.57	475.88
527.785	468.88
527.999	455.88
528.214	479.88
528.429	466.88
528.644	443.88
528.859	457.88
529.074	473.88
529.289	490.88
529.503	587.88
529.718	566.88
529.933	484.88
530.148	487.88
530.363	466.88
530.577	464.88
530.792	454.88
531.007	433.88
531.221	440.88
531.436	444.88
531.651	443.88
531.865	438.88
532.08	427.88
532.295	430.88
532.509	447.88
532.724	421.88
532.938	428.88
533.153	419.88
533.367	427.88
533.582	419.88
533.796	426.88
534.011	415.88
534.225	435.88
534.44	437.88
534.654	418.88
534.868	415.88
535.083	445.88
535.297	437.88
535.511	457.88
535.726	452.88
535.94	413.88
536.154	431.88
536.369	437.88
536.583	407.88
536.797	410.88
537.011	421.88
537.225	412.88
537.44	419.88
537.654	411.88
537.868	426.88
538.082	418.88
538.296	392.88
538.51	422.88
538.724	412.88
538.938	418.88
539.153	399.88
539.367	437.88
539.581	431.88
539.795	420.88
540.009	415.88
540.222	409.88
540.436	412.88
540.65	444.88
540.864	435.88
541.078	425.88
541.292	419.88
541.506	410.88
541.72	408.88
541.934	434.88
542.147	423.88
542.361	414.88
542.575	399.88
542.789	409.88
543.002	401.88
543.216	406.88
543.43	424.88
543.644	416.88
543.857	420.88
544.071	415.88
544.285	414.88
544.498	417.88
544.712	420.88
544.925	406.88
545.139	411.88
545.352	391.88
545.566	376.88
545.779	389.88
545.993	387.88
546.206	388.88
546.42	388.88
546.633	382.88
546.847	387.88
547.06	369.88
547.274	389.88
547.487	389.88
547.7	404.88
547.914	394.88
548.127	382.88
548.34	393.88
548.554	389.88
548.767	381.88
548.98	389.88
549.193	387.88
549.407	381.88
549.62	402.88
549.833	388.88
550.046	380.88
550.259	383.88
550.473	385.88
550.686	386.88
550.899	381.88
551.112	377.88
551.325	372.88
551.538	389.88
551.751	377.88
551.964	378.88
552.177	405.88
552.39	381.88
552.603	392.88
552.816	372.88
553.029	373.88
553.242	371.88
553.455	387.88
553.667	402.88
553.88	394.88
554.093	394.88
554.306	393.88
554.519	392.88
554.732	396.88
554.944	390.88
555.157	376.88
555.37	375.88
555.583	363.88
555.795	373.88
556.008	353.88
556.221	367.88
556.433	369.88
556.646	361.88
556.859	343.88
557.071	359.88
557.284	352.88
557.496	352.88
557.709	371.88
557.921	358.88
558.134	351.88
558.346	350.88
558.559	346.88
558.771	350.88
558.984	355.88
559.196	330.88
559.409	325.88
559.621	339.88
559.833	355.88
560.046	320.88
560.258	329.88
560.47	355.88
560.683	350.88
560.895	347.88
561.107	335.88
561.32	333.88
561.532	356.88
561.744	346.88
561.956	344.88
562.168	356.88
562.381	338.88
562.593	339.88
562.805	342.88
563.017	339.88
563.229	345.88
563.441	341.88
563.653	346.88
563.865	357.88
564.077	340.88
564.289	345.88
564.501	344.88
564.713	364.88
564.925	360.88
565.137	376.88
565.349	379.88
565.561	367.88
565.773	380.88
565.985	380.88
566.197	375.88
566.408	388.88
566.62	363.88
566.832	384.88
567.044	377.88
567.255	377.88
567.467	391.88
567.679	411.88
567.891	411.88
568.102	389.88
568.314	397.88
568.526	388.88
568.737	371.88
568.949	374.88
569.161	368.88
569.372	353.88
569.584	341.88
569.795	350.88
570.007	344.88
570.218	379.88
570.43	395.88
570.641	352.88
570.853	320.88
571.064	349.88
571.276	331.88
571.487	344.88
571.698	318.88
571.91	339.88
572.121	325.88
572.333	323.88
572.544	304.88
572.755	310.88
572.966	314.88
573.178	325.88
573.389	311.88
573.6	309.88
573.811	299.88
574.023	307.88
574.234	311.88
574.445	298.88
574.656	297.88
574.867	303.88
575.078	305.88
575.289	297.88
575.501	301.88
575.712	300.88
575.923	290.88
576.134	275.88
576.345	286.88
576.556	292.88
576.767	277.88
576.978	311.88
577.188	288.88
577.399	293.88
577.61	289.88
577.821	273.88
578.032	323.88
578.243	352.88
578.454	557.88
578.665	427.88
578.875	299.88
579.086	307.88
579.297	287.88
579.508	282.88
579.718	290.88
579.929	288.88
580.14	312.88
580.35	282.88
580.561	280.88
580.772	268.88
580.982	282.88
581.193	277.88
581.403	289.88
581.614	280.88
581.825	272.88
582.035	291.88
582.246	259.88
582.456	280.88
582.667	273.88
582.877	285.88
583.087	276.88
583.298	275.88
583.508	270.88
583.719	274.88
583.929	264.88
584.139	267.88
584.35	252.88
584.56	284.88
584.77	268.88
584.981	283.88
585.191	284.88
585.401	272.88
585.611	264.88
585.821	291.88
586.032	279.88
586.242	283.88
586.452	264.88
586.662	274.88
586.872	278.88
587.082	273.88
587.292	271.88
587.502	261.88
587.713	267.88
587.923	276.88
588.133	265.88
588.343	271.88
588.553	267.88
588.762	255.88
588.972	277.88
589.182	269.88
589.392	264.88
589.602	261.88
589.812	263.88
590.022	267.88
590.232	279.88
590.441	272.88
590.651	257.88
590.861	252.88
591.071	265.88
591.281	272.88
591.49	269.88
591.7	259.88
591.91	264.88
592.119	265.88
592.329	276.88
592.539	280.88
592.748	266.88
592.958	275.88
593.167	251.88
593.377	271.88
593.587	267.88
593.796	270.88
594.006	277.88
594.215	252.88
594.424	248.88
594.634	264.88
594.843	275.88
595.053	250.88
595.262	265.88
595.472	261.88
595.681	247.88
595.89	257.88
596.1	249.88
596.309	255.88
596.518	246.88
596.727	250.88
596.937	243.88
597.146	250.88
597.355	243.88
597.564	245.88
597.774	244.88
597.983	268.88
598.192	243.88
598.401	221.88
598.61	239.88
598.819	245.88
599.028	245.88
599.237	244.88
599.446	236.88
599.655	242.88
599.864	235.88
600.073	228.88
600.282	233.88
600.491	239.88
600.7	220.88
600.909	232.88
601.118	236.88
601.327	220.88
601.536	239.88
601.745	230.88
601.953	227.88
602.162	234.88
602.371	226.88
602.58	238.88
602.789	226.88
602.997	233.88
603.206	229.88
603.415	251.88
603.623	232.88
603.832	242.88
604.041	220.88
604.249	232.88
604.458	234.88
604.666	207.88
604.875	207.88
605.084	208.88
605.292	229.88
605.501	226.88
605.709	212.88
605.918	231.88
606.126	226.88
606.334	241.88
606.543	220.88
606.751	215.88
606.96	216.88
607.168	217.88
607.376	219.88
607.585	223.88
607.793	208.88
608.001	220.88
608.21	229.88
608.418	211.88
608.626	212.88
608.834	225.88
609.043	218.88
609.251	203.88
609.459	220.88
609.667	213.88
609.875	203.88
610.083	213.88
610.291	215.88
610.499	204.88
610.707	215.88
610.916	239.88
611.124	235.88
611.332	220.88
611.54	212.88
611.748	224.88
611.955	228.88
612.163	214.88
612.371	204.88
612.579	218.88
612.787	205.88
612.995	219.88
613.203	227.88
613.411	228.88
613.618	212.88
613.826	229.88
614.034	209.88
614.242	218.88
614.449	204.88
614.657	228.88
614.865	203.88
615.072	215.88
615.28	208.88
615.488	221.88
615.695	221.88
615.903	220.88
616.111	215.88
616.318	222.88
616.526	230.88
616.733	216.88
616.941	207.88
617.148	202.88
617.356	212.88
617.563	202.88
617.771	201.88
617.978	205.88
618.185	208.88
618.393	204.88
618.6	223.88
618.807	222.88
619.015	207.88
619.222	188.88
619.429	198.88
619.637	201.88
619.844	203.88
620.051	195.88
620.258	223.88
620.466	201.88
620.673	209.88
620.88	220.88
621.087	212.88
621.294	200.88
621.501	208.88
621.708	203.88
621.915	192.88
622.122	228.88
622.329	183.88
622.536	211.88
622.743	204.88
622.95	211.88
623.157	181.88
623.364	199.88
623.571	189.88
623.778	201.88
623.985	200.88
624.192	191.88
624.399	194.88
624.606	187.88
624.812	201.88
625.019	192.88
625.226	205.88
625.433	196.88
625.639	194.88
625.846	197.88
626.053	193.88
626.259	193.88
626.466	212.88
626.673	195.88
626.879	190.88
627.086	203.88
627.293	191.88
627.499	177.88
627.706	194.88
627.912	195.88
628.119	184.88
628.325	197.88
628.532	172.88
628.738	183.88
628.945	171.88
629.151	188.88
629.357	178.88
629.564	190.88
629.77	192.88
629.976	180.88
630.183	177.88
630.389	171.88
630.595	171.88
630.802	188.88
631.008	175.88
631.214	164.88
631.42	175.88
631.627	183.88
631.833	178.88
632.039	187.88
632.245	177.88
632.451	161.88
632.657	167.88
632.863	173.88
633.069	172.88
633.275	164.88
633.481	168.88
633.688	167.88
633.893	181.88
634.099	165.88
634.305	160.88
634.511	155.88
634.717	169.88
634.923	155.88
635.129	176.88
635.335	157.88
635.541	179.88
635.747	164.88
635.952	184.88
636.158	169.88
636.364	171.88
636.57	158.88
636.775	167.88
636.981	165.88
637.187	161.88
637.392	149.88
637.598	152.88
637.804	176.88
638.009	168.88
638.215	158.88
638.421	163.88
638.626	168.88
638.832	164.88
639.037	171.88
639.243	182.88
639.448	164.88
639.654	167.88
639.859	152.88
640.065	151.88
640.27	168.88
640.475	162.88
640.681	170.88
640.886	152.88
641.091	163.88
641.297	149.88
641.502	168.88
641.707	157.88
641.913	175.88
642.118	155.88
642.323	165.88
642.528	159.88
642.733	150.88
642.939	148.88
643.144	158.88
643.349	159.88
643.554	162.88
643.759	156.88
643.964	146.88
644.169	151.88
644.374	139.88
644.579	156.88
644.784	163.88
644.989	146.88
645.194	140.88
645.399	160.88
645.604	146.88
645.809	155.88
646.014	161.88
646.219	153.88
646.423	148.88
646.628	166.88
646.833	148.88
647.038	145.88
647.243	153.88
647.447	141.88
647.652	149.88
647.857	143.88
648.062	169.88
648.266	154.88
648.471	153.88
648.676	141.88
648.88	171.88
649.085	163.88
649.289	168.88
649.494	164.88
649.698	183.88
649.903	180.88
650.107	151.88
650.312	163.88
650.516	142.88
650.721	165.88
650.925	146.88
651.13	141.88
651.334	136.88
651.539	160.88
651.743	152.88
651.947	151.88
652.152	130.88
652.356	137.88
652.56	150.88
652.764	132.88
652.969	121.88
653.173	134.88
653.377	131.88
653.581	133.88
653.785	130.88
653.99	135.88
654.194	120.88
654.398	135.88
654.602	125.88
654.806	139.88
655.01	145.88
655.214	135.88
655.418	131.88
655.622	132.88
655.826	128.88
656.03	113.88
656.234	108.88
656.438	127.88
656.642	123.88
656.846	119.88
657.049	120.88
657.253	116.88
657.457	113.88
657.661	105.88
657.865	108.88
658.068	123.88
658.272	101.88
658.476	115.88
658.68	97.88
658.883	93.88
659.087	100.88
659.291	97.88
659.494	109.88
659.698	92.88
659.901	105.88
660.105	88.88
660.309	98.88
660.512	106.88
660.716	87.88
660.919	89.88
661.123	91.88
661.326	98.88
661.53	94.88
661.733	80.88
661.936	92.88
662.14	94.88
662.343	82.88
662.546	90.88
662.75	75.88
662.953	70.88
663.156	89.88
663.36	73.88
663.563	96.88
663.766	90.88
663.969	89.88
664.173	81.88
664.376	89.88
664.579	89.88
664.782	92.88
664.985	72.88
665.188	83.88
665.391	87.88
665.594	84.88
665.797	79.88
666	94.88
666.203	81.88
666.406	78.88
666.609	73.88
666.812	92.88
667.015	69.88
667.218	75.88
667.421	92.88
667.624	84.88
667.827	86.88
668.03	82.88
668.232	84.88
668.435	85.88
668.638	99.88
668.841	69.88
669.043	85.88
669.246	79.88
669.449	94.88
669.651	86.88
669.854	80.88
670.057	85.88
670.259	87.88
670.462	73.88
670.665	80.88
670.867	75.88
671.07	86.88
671.272	98.88
671.475	86.88
671.677	91.88
671.88	83.88
672.082	88.88
672.284	81.88
672.487	77.88
672.689	80.88
672.892	70.88
