Data from 1980.PennyLincolnUp.Lamp.En5.5.200Scan.071819.P1_HRD10591_16-37-08-957.txt Node
Date: Thu Jul 18 16:37:08 EDT 2019
User: cochatt
Spectrometer: HR+D1059
Trigger mode: 1
Integration Time (sec): 1.000000E-1
Scans to average: 1
Electric dark correction enabled: true
Nonlinearity correction enabled: false
Boxcar width: 0
XAxis mode: Wavelengths
Number of Pixels in Spectrum: 2048
>>>>>Begin Spectral Data<<<<<
223.165	-16.31
223.4	-16.31
223.635	-16.31
223.869	-9.31
224.104	-15.31
224.338	-19.31
224.573	-17.31
224.808	-21.31
225.042	-2.31
225.277	-10.31
225.511	-9.31
225.746	1.69
225.98	21.69
226.215	12.69
226.449	15.69
226.683	25.69
226.918	21.69
227.152	21.69
227.387	21.69
227.621	31.69
227.856	49.69
228.09	45.69
228.324	52.69
228.559	54.69
228.793	71.69
229.027	104.69
229.262	112.69
229.496	116.69
229.73	140.69
229.964	154.69
230.199	120.69
230.433	105.69
230.667	97.69
230.901	118.69
231.136	109.69
231.37	96.69
231.604	114.69
231.838	120.69
232.072	110.69
232.306	110.69
232.541	115.69
232.775	105.69
233.009	103.69
233.243	107.69
233.477	105.69
233.711	105.69
233.945	114.69
234.179	104.69
234.413	103.69
234.647	111.69
234.881	117.69
235.115	121.69
235.349	101.69
235.583	103.69
235.817	112.69
236.051	102.69
236.285	117.69
236.519	120.69
236.753	119.69
236.987	139.69
237.221	179.69
237.455	233.69
237.689	186.69
237.922	124.69
238.156	127.69
238.39	124.69
238.624	115.69
238.858	119.69
239.091	139.69
239.325	127.69
239.559	121.69
239.793	129.69
240.027	140.69
240.26	127.69
240.494	157.69
240.728	153.69
240.961	142.69
241.195	141.69
241.429	143.69
241.662	125.69
241.896	138.69
242.13	137.69
242.363	117.69
242.597	118.69
242.83	137.69
243.064	135.69
243.298	129.69
243.531	130.69
243.765	124.69
243.998	127.69
244.232	157.69
244.465	145.69
244.699	137.69
244.932	135.69
245.166	140.69
245.399	135.69
245.633	142.69
245.866	130.69
246.099	155.69
246.333	144.69
246.566	137.69
246.8	149.69
247.033	149.69
247.266	147.69
247.5	154.69
247.733	174.69
247.966	162.69
248.2	183.69
248.433	163.69
248.666	183.69
248.899	181.69
249.133	215.69
249.366	199.69
249.599	201.69
249.832	175.69
250.066	191.69
250.299	186.69
250.532	188.69
250.765	208.69
250.998	222.69
251.231	226.69
251.465	217.69
251.698	208.69
251.931	204.69
252.164	189.69
252.397	203.69
252.63	197.69
252.863	195.69
253.096	200.69
253.329	245.69
253.562	228.69
253.795	225.69
254.028	250.69
254.261	197.69
254.494	216.69
254.727	253.69
254.96	266.69
255.193	271.69
255.426	247.69
255.659	242.69
255.892	222.69
256.124	242.69
256.357	226.69
256.59	222.69
256.823	219.69
257.056	208.69
257.289	186.69
257.521	223.69
257.754	214.69
257.987	202.69
258.22	203.69
258.452	211.69
258.685	200.69
258.918	208.69
259.151	202.69
259.383	214.69
259.616	216.69
259.849	228.69
260.081	229.69
260.314	246.69
260.547	257.69
260.779	230.69
261.012	223.69
261.244	226.69
261.477	215.69
261.71	229.69
261.942	224.69
262.175	238.69
262.407	240.69
262.64	223.69
262.872	209.69
263.105	198.69
263.337	195.69
263.57	192.69
263.802	205.69
264.035	206.69
264.267	209.69
264.499	212.69
264.732	214.69
264.964	200.69
265.197	198.69
265.429	191.69
265.661	211.69
265.894	213.69
266.126	210.69
266.358	183.69
266.591	223.69
266.823	218.69
267.055	207.69
267.287	208.69
267.52	220.69
267.752	217.69
267.984	213.69
268.216	201.69
268.448	228.69
268.681	217.69
268.913	237.69
269.145	234.69
269.377	246.69
269.609	266.69
269.841	256.69
270.073	271.69
270.306	270.69
270.538	301.69
270.77	306.69
271.002	310.69
271.234	291.69
271.466	301.69
271.698	320.69
271.93	336.69
272.162	311.69
272.394	312.69
272.626	305.69
272.858	294.69
273.09	296.69
273.322	271.69
273.553	257.69
273.785	256.69
274.017	243.69
274.249	265.69
274.481	275.69
274.713	246.69
274.945	260.69
275.176	271.69
275.408	276.69
275.64	243.69
275.872	249.69
276.104	248.69
276.335	250.69
276.567	252.69
276.799	273.69
277.031	291.69
277.262	299.69
277.494	315.69
277.726	295.69
277.957	277.69
278.189	270.69
278.421	257.69
278.652	273.69
278.884	254.69
279.115	252.69
279.347	242.69
279.579	229.69
279.81	245.69
280.042	252.69
280.273	245.69
280.505	249.69
280.736	264.69
280.968	240.69
281.199	254.69
281.431	246.69
281.662	233.69
281.894	247.69
282.125	255.69
282.356	261.69
282.588	298.69
282.819	284.69
283.051	265.69
283.282	243.69
283.513	265.69
283.745	249.69
283.976	238.69
284.207	256.69
284.439	246.69
284.67	275.69
284.901	258.69
285.132	258.69
285.364	246.69
285.595	259.69
285.826	227.69
286.057	257.69
286.288	252.69
286.52	250.69
286.751	265.69
286.982	250.69
287.213	254.69
287.444	262.69
287.675	248.69
287.906	274.69
288.138	289.69
288.369	282.69
288.6	277.69
288.831	266.69
289.062	285.69
289.293	258.69
289.524	269.69
289.755	272.69
289.986	281.69
290.217	255.69
290.448	265.69
290.679	263.69
290.91	267.69
291.141	262.69
291.371	265.69
291.602	253.69
291.833	259.69
292.064	247.69
292.295	259.69
292.526	276.69
292.757	256.69
292.987	276.69
293.218	279.69
293.449	261.69
293.68	264.69
293.91	247.69
294.141	254.69
294.372	245.69
294.603	256.69
294.833	259.69
295.064	253.69
295.295	261.69
295.525	242.69
295.756	258.69
295.987	271.69
296.217	303.69
296.448	310.69
296.679	288.69
296.909	267.69
297.14	277.69
297.37	276.69
297.601	274.69
297.831	270.69
298.062	259.69
298.292	285.69
298.523	286.69
298.753	275.69
298.984	295.69
299.214	289.69
299.445	271.69
299.675	285.69
299.905	274.69
300.136	288.69
300.366	285.69
300.597	282.69
300.827	279.69
301.057	289.69
301.288	295.69
301.518	303.69
301.748	286.69
301.979	280.69
302.209	309.69
302.439	301.69
302.669	301.69
302.9	281.69
303.13	296.69
303.36	313.69
303.59	292.69
303.82	309.69
304.051	305.69
304.281	307.69
304.511	282.69
304.741	287.69
304.971	285.69
305.201	280.69
305.431	297.69
305.661	277.69
305.891	290.69
306.121	306.69
306.352	309.69
306.582	298.69
306.812	297.69
307.042	292.69
307.272	297.69
307.502	281.69
307.731	307.69
307.961	315.69
308.191	303.69
308.421	303.69
308.651	319.69
308.881	298.69
309.111	307.69
309.341	285.69
309.571	321.69
309.8	320.69
310.03	325.69
310.26	365.69
310.49	355.69
310.72	354.69
310.949	377.69
311.179	384.69
311.409	345.69
311.639	351.69
311.868	346.69
312.098	343.69
312.328	367.69
312.557	358.69
312.787	385.69
313.017	379.69
313.246	369.69
313.476	359.69
313.706	375.69
313.935	341.69
314.165	368.69
314.394	361.69
314.624	373.69
314.853	348.69
315.083	339.69
315.312	336.69
315.542	338.69
315.771	339.69
316.001	334.69
316.23	349.69
316.46	340.69
316.689	360.69
316.919	354.69
317.148	354.69
317.377	367.69
317.607	343.69
317.836	339.69
318.065	334.69
318.295	330.69
318.524	349.69
318.753	333.69
318.983	348.69
319.212	345.69
319.441	356.69
319.67	353.69
319.9	357.69
320.129	354.69
320.358	350.69
320.587	345.69
320.816	357.69
321.046	345.69
321.275	387.69
321.504	379.69
321.733	376.69
321.962	381.69
322.191	391.69
322.42	379.69
322.649	432.69
322.878	425.69
323.108	429.69
323.337	463.69
323.566	517.69
323.795	533.69
324.024	578.69
324.253	741.69
324.482	1016.69
324.71	1600.69
324.939	2281.69
325.168	2010.69
325.397	1077.69
325.626	719.69
325.855	555.69
326.084	505.69
326.313	496.69
326.542	515.69
326.77	567.69
326.999	666.69
327.228	905.69
327.457	1371.69
327.686	1736.69
327.914	1182.69
328.143	783.69
328.372	658.69
328.6	616.69
328.829	594.69
329.058	597.69
329.287	617.69
329.515	570.69
329.744	494.69
329.972	513.69
330.201	520.69
330.43	553.69
330.658	614.69
330.887	617.69
331.115	614.69
331.344	516.69
331.572	486.69
331.801	458.69
332.03	473.69
332.258	419.69
332.486	421.69
332.715	428.69
332.943	419.69
333.172	408.69
333.4	426.69
333.629	418.69
333.857	458.69
334.085	457.69
334.314	454.69
334.542	483.69
334.771	502.69
334.999	464.69
335.227	439.69
335.455	438.69
335.684	402.69
335.912	395.69
336.14	387.69
336.369	402.69
336.597	401.69
336.825	408.69
337.053	396.69
337.281	399.69
337.51	402.69
337.738	383.69
337.966	386.69
338.194	417.69
338.422	416.69
338.65	397.69
338.878	383.69
339.106	354.69
339.334	375.69
339.562	397.69
339.79	383.69
340.018	383.69
340.246	392.69
340.474	397.69
340.702	401.69
340.93	378.69
341.158	402.69
341.386	399.69
341.614	394.69
341.842	385.69
342.07	362.69
342.298	361.69
342.526	381.69
342.754	373.69
342.981	367.69
343.209	360.69
343.437	362.69
343.665	359.69
343.893	385.69
344.12	379.69
344.348	374.69
344.576	382.69
344.804	386.69
345.031	408.69
345.259	417.69
345.487	413.69
345.714	385.69
345.942	379.69
346.17	384.69
346.397	391.69
346.625	379.69
346.853	374.69
347.08	382.69
347.308	398.69
347.535	399.69
347.763	408.69
347.99	396.69
348.218	392.69
348.445	385.69
348.673	416.69
348.9	383.69
349.128	383.69
349.355	354.69
349.583	377.69
349.81	342.69
350.037	376.69
350.265	379.69
350.492	365.69
350.72	378.69
350.947	361.69
351.174	401.69
351.402	400.69
351.629	401.69
351.856	389.69
352.083	411.69
352.311	415.69
352.538	387.69
352.765	404.69
352.992	393.69
353.22	392.69
353.447	381.69
353.674	396.69
353.901	358.69
354.128	371.69
354.355	332.69
354.583	361.69
354.81	369.69
355.037	364.69
355.264	338.69
355.491	339.69
355.718	345.69
355.945	345.69
356.172	335.69
356.399	337.69
356.626	332.69
356.853	335.69
357.08	338.69
357.307	346.69
357.534	357.69
357.761	327.69
357.988	352.69
358.215	349.69
358.441	338.69
358.668	353.69
358.895	347.69
359.122	358.69
359.349	389.69
359.576	401.69
359.802	405.69
360.029	471.69
360.256	437.69
360.483	412.69
360.709	399.69
360.936	400.69
361.163	375.69
361.39	389.69
361.616	377.69
361.843	360.69
362.07	378.69
362.296	413.69
362.523	377.69
362.749	385.69
362.976	382.69
363.203	379.69
363.429	369.69
363.656	366.69
363.882	352.69
364.109	350.69
364.335	361.69
364.562	361.69
364.788	354.69
365.015	366.69
365.241	359.69
365.468	355.69
365.694	376.69
365.92	375.69
366.147	378.69
366.373	346.69
366.599	353.69
366.826	371.69
367.052	350.69
367.278	357.69
367.505	356.69
367.731	363.69
367.957	355.69
368.184	356.69
368.41	379.69
368.636	359.69
368.862	377.69
369.089	385.69
369.315	363.69
369.541	354.69
369.767	352.69
369.993	327.69
370.219	351.69
370.445	368.69
370.672	355.69
370.898	361.69
371.124	350.69
371.35	347.69
371.576	345.69
371.802	362.69
372.028	351.69
372.254	344.69
372.48	349.69
372.706	348.69
372.932	337.69
373.158	360.69
373.384	359.69
373.61	360.69
373.835	358.69
374.061	356.69
374.287	359.69
374.513	368.69
374.739	351.69
374.965	337.69
375.191	351.69
375.416	367.69
375.642	361.69
375.868	356.69
376.094	357.69
376.319	350.69
376.545	346.69
376.771	353.69
376.997	363.69
377.222	353.69
377.448	349.69
377.674	340.69
377.899	341.69
378.125	337.69
378.35	350.69
378.576	343.69
378.802	344.69
379.027	345.69
379.253	329.69
379.478	349.69
379.704	342.69
379.929	349.69
380.155	335.69
380.38	360.69
380.606	355.69
380.831	344.69
381.057	340.69
381.282	352.69
381.507	346.69
381.733	360.69
381.958	352.69
382.184	344.69
382.409	372.69
382.634	346.69
382.86	353.69
383.085	347.69
383.31	369.69
383.535	367.69
383.761	358.69
383.986	366.69
384.211	379.69
384.436	350.69
384.662	374.69
384.887	377.69
385.112	353.69
385.337	360.69
385.562	386.69
385.787	355.69
386.013	396.69
386.238	381.69
386.463	378.69
386.688	370.69
386.913	361.69
387.138	381.69
387.363	367.69
387.588	365.69
387.813	366.69
388.038	361.69
388.263	364.69
388.488	365.69
388.713	380.69
388.938	390.69
389.163	376.69
389.387	374.69
389.612	372.69
389.837	380.69
390.062	370.69
390.287	387.69
390.512	374.69
390.736	366.69
390.961	369.69
391.186	375.69
391.411	369.69
391.636	374.69
391.86	377.69
392.085	385.69
392.31	368.69
392.534	379.69
392.759	370.69
392.984	390.69
393.208	365.69
393.433	371.69
393.658	368.69
393.882	375.69
394.107	375.69
394.331	370.69
394.556	357.69
394.78	381.69
395.005	369.69
395.229	361.69
395.454	367.69
395.678	367.69
395.903	407.69
396.127	407.69
396.352	419.69
396.576	403.69
396.801	379.69
397.025	376.69
397.249	378.69
397.474	397.69
397.698	395.69
397.922	404.69
398.147	397.69
398.371	432.69
398.595	418.69
398.82	417.69
399.044	415.69
399.268	425.69
399.492	430.69
399.717	456.69
399.941	491.69
400.165	520.69
400.389	522.69
400.613	467.69
400.837	439.69
401.062	438.69
401.286	416.69
401.51	401.69
401.734	419.69
401.958	418.69
402.182	419.69
402.406	418.69
402.63	427.69
402.854	415.69
403.078	436.69
403.302	423.69
403.526	442.69
403.75	441.69
403.974	432.69
404.198	430.69
404.422	453.69
404.645	433.69
404.869	449.69
405.093	488.69
405.317	513.69
405.541	550.69
405.765	493.69
405.988	480.69
406.212	477.69
406.436	515.69
406.66	521.69
406.883	491.69
407.107	519.69
407.331	550.69
407.555	596.69
407.778	591.69
408.002	554.69
408.226	489.69
408.449	484.69
408.673	515.69
408.896	527.69
409.12	555.69
409.344	512.69
409.567	490.69
409.791	472.69
410.014	451.69
410.238	413.69
410.461	449.69
410.685	451.69
410.908	457.69
411.132	484.69
411.355	515.69
411.578	502.69
411.802	456.69
412.025	465.69
412.249	441.69
412.472	463.69
412.695	513.69
412.919	508.69
413.142	455.69
413.365	439.69
413.589	449.69
413.812	441.69
414.035	412.69
414.258	433.69
414.482	415.69
414.705	401.69
414.928	410.69
415.151	422.69
415.374	406.69
415.597	422.69
415.821	417.69
416.044	418.69
416.267	447.69
416.49	396.69
416.713	403.69
416.936	408.69
417.159	405.69
417.382	426.69
417.605	408.69
417.828	434.69
418.051	436.69
418.274	434.69
418.497	424.69
418.72	414.69
418.943	408.69
419.166	412.69
419.389	430.69
419.611	432.69
419.834	440.69
420.057	451.69
420.28	449.69
420.503	452.69
420.726	459.69
420.948	458.69
421.171	501.69
421.394	524.69
421.617	481.69
421.839	458.69
422.062	457.69
422.285	457.69
422.507	514.69
422.73	590.69
422.953	566.69
423.175	502.69
423.398	469.69
423.621	467.69
423.843	468.69
424.066	499.69
424.288	495.69
424.511	502.69
424.733	589.69
424.956	632.69
425.178	622.69
425.401	603.69
425.623	641.69
425.846	541.69
426.068	489.69
426.291	483.69
426.513	506.69
426.735	521.69
426.958	547.69
427.18	612.69
427.402	710.69
427.625	816.69
427.847	752.69
428.069	611.69
428.292	576.69
428.514	498.69
428.736	473.69
428.958	472.69
429.181	466.69
429.403	462.69
429.625	469.69
429.847	511.69
430.069	572.69
430.292	554.69
430.514	478.69
430.736	466.69
430.958	442.69
431.18	466.69
431.402	458.69
431.624	427.69
431.846	435.69
432.068	413.69
432.29	429.69
432.512	415.69
432.734	446.69
432.956	425.69
433.178	431.69
433.4	451.69
433.622	446.69
433.844	437.69
434.066	424.69
434.287	423.69
434.509	414.69
434.731	433.69
434.953	470.69
435.175	480.69
435.397	462.69
435.618	524.69
435.84	563.69
436.062	637.69
436.284	682.69
436.505	583.69
436.727	522.69
436.949	486.69
437.17	464.69
437.392	455.69
437.614	474.69
437.835	530.69
438.057	589.69
438.278	715.69
438.5	683.69
438.721	745.69
438.943	729.69
439.165	585.69
439.386	533.69
439.608	527.69
439.829	539.69
440.05	560.69
440.272	608.69
440.493	551.69
440.715	498.69
440.936	497.69
441.158	497.69
441.379	478.69
441.6	491.69
441.822	519.69
442.043	551.69
442.264	625.69
442.486	650.69
442.707	567.69
442.928	516.69
443.149	514.69
443.371	556.69
443.592	566.69
443.813	666.69
444.034	733.69
444.255	586.69
444.476	533.69
444.698	483.69
444.919	505.69
445.14	587.69
445.361	545.69
445.582	522.69
445.803	628.69
446.024	701.69
446.245	709.69
446.466	649.69
446.687	571.69
446.908	539.69
447.129	509.69
447.35	474.69
447.571	461.69
447.792	452.69
448.013	469.69
448.234	488.69
448.455	561.69
448.675	661.69
448.896	749.69
449.117	637.69
449.338	598.69
449.559	696.69
449.779	780.69
450	652.69
450.221	539.69
450.442	509.69
450.662	465.69
450.883	497.69
451.104	505.69
451.324	503.69
451.545	448.69
451.766	431.69
451.986	440.69
452.207	404.69
452.428	413.69
452.648	421.69
452.869	420.69
453.089	453.69
453.31	442.69
453.53	437.69
453.751	425.69
453.971	426.69
454.192	457.69
454.412	439.69
454.633	409.69
454.853	406.69
455.073	429.69
455.294	442.69
455.514	523.69
455.734	486.69
455.955	395.69
456.175	406.69
456.395	391.69
456.616	367.69
456.836	377.69
457.056	366.69
457.276	379.69
457.497	375.69
457.717	401.69
457.937	387.69
458.157	393.69
458.377	394.69
458.598	450.69
458.818	482.69
459.038	598.69
459.258	587.69
459.478	491.69
459.698	436.69
459.918	427.69
460.138	430.69
460.358	439.69
460.578	423.69
460.798	423.69
461.018	415.69
461.238	422.69
461.458	417.69
461.678	411.69
461.898	421.69
462.118	413.69
462.338	426.69
462.558	429.69
462.777	439.69
462.997	402.69
463.217	418.69
463.437	454.69
463.657	439.69
463.876	433.69
464.096	422.69
464.316	427.69
464.536	434.69
464.755	440.69
464.975	455.69
465.195	517.69
465.414	616.69
465.634	533.69
465.854	470.69
466.073	459.69
466.293	449.69
466.512	413.69
466.732	423.69
466.951	417.69
467.171	423.69
467.391	422.69
467.61	432.69
467.829	451.69
468.049	430.69
468.268	409.69
468.488	403.69
468.707	401.69
468.927	424.69
469.146	405.69
469.365	407.69
469.585	392.69
469.804	405.69
470.023	437.69
470.243	453.69
470.462	425.69
470.681	455.69
470.901	449.69
471.12	425.69
471.339	401.69
471.558	414.69
471.777	431.69
471.997	421.69
472.216	434.69
472.435	474.69
472.654	453.69
472.873	420.69
473.092	419.69
473.311	424.69
473.53	427.69
473.749	442.69
473.968	488.69
474.187	586.69
474.406	612.69
474.625	479.69
474.844	451.69
475.063	425.69
475.282	429.69
475.501	441.69
475.72	421.69
475.939	430.69
476.158	433.69
476.377	440.69
476.596	435.69
476.814	442.69
477.033	438.69
477.252	471.69
477.471	462.69
477.69	450.69
477.908	460.69
478.127	454.69
478.346	458.69
478.564	458.69
478.783	450.69
479.002	503.69
479.22	478.69
479.439	499.69
479.658	505.69
479.876	541.69
480.095	522.69
480.313	554.69
480.532	538.69
480.751	513.69
480.969	532.69
481.188	595.69
481.406	625.69
481.624	521.69
481.843	545.69
482.061	526.69
482.28	531.69
482.498	516.69
482.717	514.69
482.935	481.69
483.153	487.69
483.372	490.69
483.59	509.69
483.808	533.69
484.027	494.69
484.245	498.69
484.463	500.69
484.681	522.69
484.9	489.69
485.118	496.69
485.336	522.69
485.554	518.69
485.772	515.69
485.99	516.69
486.209	543.69
486.427	536.69
486.645	527.69
486.863	544.69
487.081	576.69
487.299	559.69
487.517	554.69
487.735	552.69
487.953	559.69
488.171	554.69
488.389	557.69
488.607	557.69
488.825	560.69
489.043	526.69
489.261	567.69
489.479	535.69
489.696	553.69
489.914	561.69
490.132	563.69
490.35	591.69
490.568	596.69
490.786	592.69
491.003	597.69
491.221	602.69
491.439	619.69
491.657	625.69
491.874	625.69
492.092	639.69
492.31	638.69
492.527	640.69
492.745	641.69
492.963	642.69
493.18	617.69
493.398	635.69
493.615	645.69
493.833	639.69
494.05	670.69
494.268	632.69
494.485	640.69
494.703	664.69
494.92	651.69
495.138	651.69
495.355	662.69
495.573	665.69
495.79	652.69
496.008	656.69
496.225	673.69
496.442	659.69
496.66	656.69
496.877	659.69
497.094	641.69
497.312	647.69
497.529	673.69
497.746	688.69
497.963	669.69
498.181	687.69
498.398	703.69
498.615	722.69
498.832	709.69
499.049	705.69
499.267	733.69
499.484	713.69
499.701	733.69
499.918	769.69
500.135	772.69
500.352	810.69
500.569	801.69
500.786	785.69
501.003	813.69
501.22	798.69
501.437	777.69
501.654	787.69
501.871	813.69
502.088	782.69
502.305	742.69
502.522	697.69
502.739	727.69
502.956	680.69
503.172	678.69
503.389	662.69
503.606	675.69
503.823	681.69
504.04	679.69
504.256	664.69
504.473	642.69
504.69	636.69
504.907	645.69
505.123	635.69
505.34	660.69
505.557	643.69
505.773	648.69
505.99	634.69
506.207	618.69
506.423	617.69
506.64	633.69
506.856	601.69
507.073	605.69
507.289	627.69
507.506	604.69
507.722	637.69
507.939	674.69
508.155	645.69
508.372	623.69
508.588	593.69
508.805	586.69
509.021	626.69
509.238	629.69
509.454	634.69
509.67	647.69
509.887	637.69
510.103	639.69
510.319	642.69
510.536	738.69
510.752	1279.69
510.968	1069.69
511.184	666.69
511.401	609.69
511.617	623.69
511.833	600.69
512.049	570.69
512.265	607.69
512.481	591.69
512.698	563.69
512.914	574.69
513.13	572.69
513.346	590.69
513.562	610.69
513.778	577.69
513.994	587.69
514.21	613.69
514.426	617.69
514.642	683.69
514.858	706.69
515.074	780.69
515.29	949.69
515.506	1440.69
515.721	1157.69
515.937	767.69
516.153	689.69
516.369	640.69
516.585	618.69
516.801	579.69
517.016	600.69
517.232	591.69
517.448	601.69
517.664	580.69
517.879	585.69
518.095	564.69
518.311	586.69
518.527	572.69
518.742	574.69
518.958	560.69
519.173	586.69
519.389	585.69
519.605	583.69
519.82	576.69
520.036	606.69
520.251	629.69
520.467	659.69
520.682	659.69
520.898	688.69
521.113	702.69
521.329	761.69
521.544	882.69
521.76	1151.69
521.975	1945.69
522.19	1906.69
522.406	987.69
522.621	741.69
522.836	632.69
523.052	607.69
523.267	571.69
523.482	542.69
523.698	548.69
523.913	540.69
524.128	539.69
524.343	547.69
524.559	505.69
524.774	504.69
524.989	500.69
525.204	493.69
525.419	526.69
525.634	501.69
525.849	489.69
526.064	488.69
526.28	479.69
526.495	477.69
526.71	468.69
526.925	470.69
527.14	451.69
527.355	476.69
527.57	464.69
527.785	476.69
527.999	473.69
528.214	458.69
528.429	470.69
528.644	474.69
528.859	453.69
529.074	484.69
529.289	499.69
529.503	593.69
529.718	585.69
529.933	535.69
530.148	481.69
530.363	461.69
530.577	469.69
530.792	466.69
531.007	459.69
531.221	452.69
531.436	427.69
531.651	472.69
531.865	458.69
532.08	428.69
532.295	426.69
532.509	414.69
532.724	443.69
532.938	463.69
533.153	444.69
533.367	421.69
533.582	425.69
533.796	424.69
534.011	434.69
534.225	448.69
534.44	413.69
534.654	439.69
534.868	429.69
535.083	438.69
535.297	438.69
535.511	429.69
535.726	467.69
535.94	439.69
536.154	432.69
536.369	416.69
536.583	435.69
536.797	426.69
537.011	406.69
537.225	414.69
537.44	426.69
537.654	408.69
537.868	430.69
538.082	423.69
538.296	424.69
538.51	445.69
538.724	429.69
538.938	432.69
539.153	424.69
539.367	447.69
539.581	437.69
539.795	418.69
540.009	410.69
540.222	436.69
540.436	422.69
540.65	423.69
540.864	426.69
541.078	442.69
541.292	441.69
541.506	434.69
541.72	435.69
541.934	410.69
542.147	423.69
542.361	411.69
542.575	402.69
542.789	408.69
543.002	408.69
543.216	434.69
543.43	441.69
543.644	430.69
543.857	407.69
544.071	422.69
544.285	431.69
544.498	417.69
544.712	415.69
544.925	394.69
545.139	408.69
545.352	397.69
545.566	406.69
545.779	408.69
545.993	418.69
546.206	393.69
546.42	403.69
546.633	410.69
546.847	396.69
547.06	407.69
547.274	395.69
547.487	385.69
547.7	388.69
547.914	397.69
548.127	382.69
548.34	381.69
548.554	379.69
548.767	403.69
548.98	401.69
549.193	381.69
549.407	381.69
549.62	388.69
549.833	386.69
550.046	386.69
550.259	401.69
550.473	374.69
550.686	381.69
550.899	399.69
551.112	374.69
551.325	395.69
551.538	380.69
551.751	377.69
551.964	384.69
552.177	355.69
552.39	397.69
552.603	399.69
552.816	384.69
553.029	378.69
553.242	370.69
553.455	393.69
553.667	408.69
553.88	423.69
554.093	399.69
554.306	402.69
554.519	392.69
554.732	390.69
554.944	372.69
555.157	382.69
555.37	394.69
555.583	366.69
555.795	371.69
556.008	375.69
556.221	360.69
556.433	365.69
556.646	359.69
556.859	355.69
557.071	349.69
557.284	378.69
557.496	360.69
557.709	351.69
557.921	356.69
558.134	347.69
558.346	344.69
558.559	352.69
558.771	368.69
558.984	353.69
559.196	353.69
559.409	360.69
559.621	356.69
559.833	361.69
560.046	373.69
560.258	339.69
560.47	361.69
560.683	344.69
560.895	334.69
561.107	352.69
561.32	348.69
561.532	341.69
561.744	343.69
561.956	364.69
562.168	340.69
562.381	342.69
562.593	358.69
562.805	333.69
563.017	353.69
563.229	342.69
563.441	346.69
563.653	340.69
563.865	341.69
564.077	346.69
564.289	346.69
564.501	358.69
564.713	359.69
564.925	367.69
565.137	381.69
565.349	369.69
565.561	359.69
565.773	375.69
565.985	371.69
566.197	382.69
566.408	373.69
566.62	393.69
566.832	392.69
567.044	408.69
567.255	397.69
567.467	399.69
567.679	399.69
567.891	393.69
568.102	386.69
568.314	384.69
568.526	377.69
568.737	374.69
568.949	361.69
569.161	371.69
569.372	339.69
569.584	363.69
569.795	357.69
570.007	350.69
570.218	391.69
570.43	387.69
570.641	335.69
570.853	355.69
571.064	341.69
571.276	323.69
571.487	327.69
571.698	319.69
571.91	322.69
572.121	326.69
572.333	325.69
572.544	307.69
572.755	314.69
572.966	291.69
573.178	310.69
573.389	309.69
573.6	304.69
573.811	305.69
574.023	308.69
574.234	296.69
574.445	288.69
574.656	310.69
574.867	318.69
575.078	314.69
575.289	312.69
575.501	316.69
575.712	291.69
575.923	294.69
576.134	291.69
576.345	293.69
576.556	294.69
576.767	305.69
576.978	308.69
577.188	310.69
577.399	293.69
577.61	287.69
577.821	295.69
578.032	303.69
578.243	331.69
578.454	596.69
578.665	434.69
578.875	291.69
579.086	285.69
579.297	274.69
579.508	279.69
579.718	289.69
579.929	279.69
580.14	285.69
580.35	291.69
580.561	290.69
580.772	286.69
580.982	285.69
581.193	280.69
581.403	284.69
581.614	285.69
581.825	267.69
582.035	255.69
582.246	280.69
582.456	275.69
582.667	278.69
582.877	269.69
583.087	254.69
583.298	252.69
583.508	258.69
583.719	269.69
583.929	286.69
584.139	268.69
584.35	247.69
584.56	281.69
584.77	263.69
584.981	268.69
585.191	269.69
585.401	262.69
585.611	281.69
585.821	273.69
586.032	294.69
586.242	267.69
586.452	271.69
586.662	283.69
586.872	266.69
587.082	254.69
587.292	278.69
587.502	268.69
587.713	256.69
587.923	267.69
588.133	263.69
588.343	247.69
588.553	250.69
588.762	255.69
588.972	261.69
589.182	248.69
589.392	279.69
589.602	254.69
589.812	257.69
590.022	257.69
590.232	266.69
590.441	276.69
590.651	269.69
590.861	262.69
591.071	277.69
591.281	273.69
591.49	272.69
591.7	264.69
591.91	257.69
592.119	256.69
592.329	273.69
592.539	276.69
592.748	275.69
592.958	273.69
593.167	276.69
593.377	267.69
593.587	284.69
593.796	248.69
594.006	263.69
594.215	285.69
594.424	275.69
594.634	252.69
594.843	250.69
595.053	265.69
595.262	260.69
595.472	280.69
595.681	263.69
595.89	249.69
596.1	250.69
596.309	262.69
596.518	239.69
596.727	270.69
596.937	252.69
597.146	245.69
597.355	248.69
597.564	236.69
597.774	246.69
597.983	255.69
598.192	258.69
598.401	257.69
598.61	241.69
598.819	231.69
599.028	233.69
599.237	233.69
599.446	231.69
599.655	232.69
599.864	253.69
600.073	222.69
600.282	223.69
600.491	232.69
600.7	243.69
600.909	225.69
601.118	228.69
601.327	241.69
601.536	232.69
601.745	236.69
601.953	233.69
602.162	229.69
602.371	233.69
602.58	235.69
602.789	223.69
602.997	228.69
603.206	232.69
603.415	232.69
603.623	218.69
603.832	228.69
604.041	249.69
604.249	225.69
604.458	215.69
604.666	229.69
604.875	222.69
605.084	232.69
605.292	225.69
605.501	230.69
605.709	228.69
605.918	204.69
606.126	228.69
606.334	230.69
606.543	235.69
606.751	214.69
606.96	240.69
607.168	222.69
607.376	214.69
607.585	202.69
607.793	206.69
608.001	215.69
608.21	226.69
608.418	226.69
608.626	223.69
608.834	222.69
609.043	216.69
609.251	221.69
609.459	212.69
609.667	201.69
609.875	212.69
610.083	217.69
610.291	226.69
610.499	215.69
610.707	208.69
610.916	209.69
611.124	234.69
611.332	217.69
611.54	229.69
611.748	233.69
611.955	223.69
612.163	234.69
612.371	229.69
612.579	221.69
612.787	232.69
612.995	222.69
613.203	239.69
613.411	226.69
613.618	231.69
613.826	215.69
614.034	221.69
614.242	221.69
614.449	212.69
614.657	215.69
614.865	220.69
615.072	213.69
615.28	203.69
615.488	201.69
615.695	207.69
615.903	208.69
616.111	205.69
616.318	210.69
616.526	220.69
616.733	201.69
616.941	202.69
617.148	210.69
617.356	214.69
617.563	206.69
617.771	216.69
617.978	199.69
618.185	206.69
618.393	202.69
618.6	200.69
618.807	192.69
619.015	194.69
619.222	209.69
619.429	206.69
619.637	198.69
619.844	213.69
620.051	195.69
620.258	197.69
620.466	208.69
620.673	199.69
620.88	201.69
621.087	206.69
621.294	207.69
621.501	206.69
621.708	208.69
621.915	199.69
622.122	203.69
622.329	210.69
622.536	212.69
622.743	209.69
622.95	211.69
623.157	203.69
623.364	200.69
623.571	196.69
623.778	201.69
623.985	198.69
624.192	189.69
624.399	202.69
624.606	198.69
624.812	179.69
625.019	183.69
625.226	181.69
625.433	207.69
625.639	191.69
625.846	175.69
626.053	169.69
626.259	199.69
626.466	193.69
626.673	187.69
626.879	199.69
627.086	189.69
627.293	191.69
627.499	191.69
627.706	195.69
627.912	177.69
628.119	197.69
628.325	195.69
628.532	192.69
628.738	182.69
628.945	197.69
629.151	177.69
629.357	199.69
629.564	169.69
629.77	183.69
629.976	193.69
630.183	181.69
630.389	179.69
630.595	166.69
630.802	182.69
631.008	183.69
631.214	183.69
631.42	204.69
631.627	187.69
631.833	180.69
632.039	182.69
632.245	167.69
632.451	186.69
632.657	181.69
632.863	173.69
633.069	186.69
633.275	178.69
633.481	182.69
633.688	186.69
633.893	179.69
634.099	169.69
634.305	176.69
634.511	163.69
634.717	166.69
634.923	167.69
635.129	175.69
635.335	172.69
635.541	187.69
635.747	163.69
635.952	166.69
636.158	160.69
636.364	157.69
636.57	163.69
636.775	164.69
636.981	186.69
637.187	169.69
637.392	170.69
637.598	173.69
637.804	169.69
638.009	176.69
638.215	161.69
638.421	148.69
638.626	153.69
638.832	173.69
639.037	182.69
639.243	153.69
639.448	169.69
639.654	159.69
639.859	161.69
640.065	158.69
640.27	177.69
640.475	159.69
640.681	165.69
640.886	157.69
641.091	168.69
641.297	175.69
641.502	176.69
641.707	154.69
641.913	151.69
642.118	141.69
642.323	151.69
642.528	157.69
642.733	151.69
642.939	167.69
643.144	167.69
643.349	152.69
643.554	149.69
643.759	149.69
643.964	151.69
644.169	144.69
644.374	151.69
644.579	162.69
644.784	146.69
644.989	153.69
645.194	155.69
645.399	157.69
645.604	162.69
645.809	168.69
646.014	137.69
646.219	143.69
646.423	156.69
646.628	129.69
646.833	153.69
647.038	153.69
647.243	158.69
647.447	160.69
647.652	162.69
647.857	166.69
648.062	145.69
648.266	150.69
648.471	157.69
648.676	165.69
648.88	166.69
649.085	134.69
649.289	148.69
649.494	147.69
649.698	184.69
649.903	185.69
650.107	148.69
650.312	163.69
650.516	162.69
650.721	149.69
650.925	141.69
651.13	136.69
651.334	140.69
651.539	145.69
651.743	153.69
651.947	142.69
652.152	139.69
652.356	145.69
652.56	141.69
652.764	125.69
652.969	137.69
653.173	138.69
653.377	127.69
653.581	146.69
653.785	133.69
653.99	137.69
654.194	127.69
654.398	127.69
654.602	120.69
654.806	122.69
655.01	138.69
655.214	130.69
655.418	119.69
655.622	127.69
655.826	112.69
656.03	122.69
656.234	119.69
656.438	131.69
656.642	130.69
656.846	125.69
657.049	117.69
657.253	115.69
657.457	103.69
657.661	103.69
657.865	106.69
658.068	117.69
658.272	99.69
658.476	105.69
658.68	94.69
658.883	100.69
659.087	93.69
659.291	92.69
659.494	88.69
659.698	98.69
659.901	94.69
660.105	90.69
660.309	92.69
660.512	86.69
660.716	100.69
660.919	99.69
661.123	95.69
661.326	85.69
661.53	94.69
661.733	102.69
661.936	91.69
662.14	86.69
662.343	89.69
662.546	77.69
662.75	77.69
662.953	91.69
663.156	82.69
663.36	79.69
663.563	86.69
663.766	71.69
663.969	72.69
664.173	93.69
664.376	67.69
664.579	79.69
664.782	80.69
664.985	67.69
665.188	77.69
665.391	79.69
665.594	88.69
665.797	73.69
666	89.69
666.203	80.69
666.406	81.69
666.609	74.69
666.812	75.69
667.015	74.69
667.218	73.69
667.421	84.69
667.624	76.69
667.827	68.69
668.03	73.69
668.232	76.69
668.435	80.69
668.638	78.69
668.841	90.69
669.043	80.69
669.246	66.69
669.449	86.69
669.651	74.69
669.854	65.69
670.057	87.69
670.259	82.69
670.462	83.69
670.665	88.69
670.867	80.69
671.07	80.69
671.272	84.69
671.475	89.69
671.677	84.69
671.88	80.69
672.082	71.69
672.284	78.69
672.487	87.69
672.689	90.69
672.892	86.69
