Data from 1980.PennyLincolnUp.Lamp.En5.5.200Scan.071819.P1_HRD10591_16-37-17-957.txt Node
Date: Thu Jul 18 16:37:17 EDT 2019
User: cochatt
Spectrometer: HR+D1059
Trigger mode: 1
Integration Time (sec): 1.000000E-1
Scans to average: 1
Electric dark correction enabled: true
Nonlinearity correction enabled: false
Boxcar width: 0
XAxis mode: Wavelengths
Number of Pixels in Spectrum: 2048
>>>>>Begin Spectral Data<<<<<
223.165	-11.94
223.4	-11.94
223.635	-11.94
223.869	-27.94
224.104	-9.94
224.338	-6.94
224.573	-18.94
224.808	-19.94
225.042	1.06
225.277	-5.94
225.511	-7.94
225.746	-5.94
225.98	14.06
226.215	13.06
226.449	8.06
226.683	24.06
226.918	28.06
227.152	27.06
227.387	37.06
227.621	42.06
227.856	47.06
228.09	53.06
228.324	50.06
228.559	55.06
228.793	72.06
229.027	108.06
229.262	125.06
229.496	127.06
229.73	140.06
229.964	164.06
230.199	136.06
230.433	119.06
230.667	129.06
230.901	126.06
231.136	118.06
231.37	124.06
231.604	123.06
231.838	124.06
232.072	110.06
232.306	121.06
232.541	113.06
232.775	107.06
233.009	119.06
233.243	117.06
233.477	115.06
233.711	115.06
233.945	115.06
234.179	126.06
234.413	125.06
234.647	110.06
234.881	117.06
235.115	115.06
235.349	116.06
235.583	121.06
235.817	128.06
236.051	137.06
236.285	121.06
236.519	128.06
236.753	126.06
236.987	143.06
237.221	176.06
237.455	233.06
237.689	192.06
237.922	155.06
238.156	156.06
238.39	141.06
238.624	137.06
238.858	137.06
239.091	134.06
239.325	126.06
239.559	133.06
239.793	125.06
240.027	138.06
240.26	144.06
240.494	144.06
240.728	158.06
240.961	145.06
241.195	144.06
241.429	138.06
241.662	149.06
241.896	134.06
242.13	155.06
242.363	141.06
242.597	136.06
242.83	127.06
243.064	142.06
243.298	139.06
243.531	145.06
243.765	148.06
243.998	148.06
244.232	136.06
244.465	125.06
244.699	136.06
244.932	153.06
245.166	139.06
245.399	144.06
245.633	154.06
245.866	140.06
246.099	140.06
246.333	151.06
246.566	146.06
246.8	141.06
247.033	157.06
247.266	165.06
247.5	164.06
247.733	181.06
247.966	157.06
248.2	170.06
248.433	173.06
248.666	177.06
248.899	190.06
249.133	222.06
249.366	212.06
249.599	195.06
249.832	190.06
250.066	168.06
250.299	194.06
250.532	193.06
250.765	204.06
250.998	216.06
251.231	244.06
251.465	226.06
251.698	209.06
251.931	204.06
252.164	188.06
252.397	204.06
252.63	200.06
252.863	225.06
253.096	228.06
253.329	233.06
253.562	228.06
253.795	221.06
254.028	224.06
254.261	230.06
254.494	237.06
254.727	248.06
254.96	302.06
255.193	303.06
255.426	266.06
255.659	267.06
255.892	234.06
256.124	235.06
256.357	230.06
256.59	244.06
256.823	220.06
257.056	229.06
257.289	234.06
257.521	213.06
257.754	227.06
257.987	202.06
258.22	211.06
258.452	212.06
258.685	203.06
258.918	201.06
259.151	196.06
259.383	215.06
259.616	221.06
259.849	221.06
260.081	256.06
260.314	248.06
260.547	260.06
260.779	230.06
261.012	240.06
261.244	223.06
261.477	225.06
261.71	230.06
261.942	230.06
262.175	238.06
262.407	213.06
262.64	210.06
262.872	206.06
263.105	207.06
263.337	203.06
263.57	214.06
263.802	193.06
264.035	220.06
264.267	203.06
264.499	214.06
264.732	220.06
264.964	223.06
265.197	209.06
265.429	216.06
265.661	208.06
265.894	208.06
266.126	228.06
266.358	210.06
266.591	200.06
266.823	213.06
267.055	218.06
267.287	224.06
267.52	237.06
267.752	226.06
267.984	224.06
268.216	222.06
268.448	231.06
268.681	231.06
268.913	232.06
269.145	252.06
269.377	274.06
269.609	279.06
269.841	265.06
270.073	254.06
270.306	284.06
270.538	310.06
270.77	317.06
271.002	303.06
271.234	282.06
271.466	299.06
271.698	319.06
271.93	314.06
272.162	327.06
272.394	317.06
272.626	316.06
272.858	302.06
273.09	271.06
273.322	273.06
273.553	256.06
273.785	254.06
274.017	241.06
274.249	269.06
274.481	261.06
274.713	271.06
274.945	261.06
275.176	272.06
275.408	281.06
275.64	262.06
275.872	266.06
276.104	261.06
276.335	281.06
276.567	271.06
276.799	282.06
277.031	319.06
277.262	318.06
277.494	325.06
277.726	305.06
277.957	295.06
278.189	281.06
278.421	259.06
278.652	254.06
278.884	253.06
279.115	251.06
279.347	255.06
279.579	252.06
279.81	256.06
280.042	258.06
280.273	265.06
280.505	260.06
280.736	234.06
280.968	247.06
281.199	240.06
281.431	262.06
281.662	269.06
281.894	254.06
282.125	279.06
282.356	264.06
282.588	301.06
282.819	299.06
283.051	278.06
283.282	263.06
283.513	253.06
283.745	264.06
283.976	252.06
284.207	266.06
284.439	261.06
284.67	263.06
284.901	258.06
285.132	261.06
285.364	272.06
285.595	248.06
285.826	265.06
286.057	263.06
286.288	260.06
286.52	261.06
286.751	263.06
286.982	262.06
287.213	255.06
287.444	269.06
287.675	277.06
287.906	274.06
288.138	277.06
288.369	282.06
288.6	287.06
288.831	296.06
289.062	277.06
289.293	249.06
289.524	274.06
289.755	280.06
289.986	277.06
290.217	280.06
290.448	267.06
290.679	281.06
290.91	255.06
291.141	243.06
291.371	277.06
291.602	244.06
291.833	267.06
292.064	250.06
292.295	273.06
292.526	273.06
292.757	255.06
292.987	249.06
293.218	263.06
293.449	272.06
293.68	269.06
293.91	263.06
294.141	267.06
294.372	260.06
294.603	263.06
294.833	264.06
295.064	273.06
295.295	271.06
295.525	270.06
295.756	265.06
295.987	271.06
296.217	299.06
296.448	321.06
296.679	283.06
296.909	254.06
297.14	269.06
297.37	283.06
297.601	285.06
297.831	268.06
298.062	271.06
298.292	269.06
298.523	264.06
298.753	285.06
298.984	284.06
299.214	285.06
299.445	270.06
299.675	285.06
299.905	279.06
300.136	293.06
300.366	294.06
300.597	278.06
300.827	294.06
301.057	302.06
301.288	307.06
301.518	289.06
301.748	288.06
301.979	304.06
302.209	311.06
302.439	292.06
302.669	277.06
302.9	295.06
303.13	300.06
303.36	307.06
303.59	309.06
303.82	297.06
304.051	300.06
304.281	297.06
304.511	311.06
304.741	295.06
304.971	293.06
305.201	291.06
305.431	300.06
305.661	297.06
305.891	272.06
306.121	295.06
306.352	293.06
306.582	313.06
306.812	309.06
307.042	309.06
307.272	295.06
307.502	305.06
307.731	321.06
307.961	309.06
308.191	288.06
308.421	289.06
308.651	296.06
308.881	318.06
309.111	313.06
309.341	314.06
309.571	336.06
309.8	326.06
310.03	341.06
310.26	357.06
310.49	360.06
310.72	366.06
310.949	383.06
311.179	373.06
311.409	362.06
311.639	356.06
311.868	353.06
312.098	342.06
312.328	341.06
312.557	370.06
312.787	413.06
313.017	379.06
313.246	365.06
313.476	346.06
313.706	350.06
313.935	354.06
314.165	347.06
314.394	377.06
314.624	349.06
314.853	379.06
315.083	343.06
315.312	333.06
315.542	352.06
315.771	333.06
316.001	338.06
316.23	347.06
316.46	344.06
316.689	362.06
316.919	362.06
317.148	364.06
317.377	348.06
317.607	371.06
317.836	347.06
318.065	339.06
318.295	353.06
318.524	340.06
318.753	358.06
318.983	362.06
319.212	351.06
319.441	350.06
319.67	374.06
319.9	357.06
320.129	355.06
320.358	355.06
320.587	340.06
320.816	376.06
321.046	388.06
321.275	385.06
321.504	389.06
321.733	378.06
321.962	408.06
322.191	395.06
322.42	420.06
322.649	437.06
322.878	432.06
323.108	456.06
323.337	467.06
323.566	480.06
323.795	547.06
324.024	576.06
324.253	726.06
324.482	1035.06
324.71	1580.06
324.939	2337.06
325.168	2036.06
325.397	1075.06
325.626	707.06
325.855	583.06
326.084	533.06
326.313	505.06
326.542	513.06
326.77	555.06
326.999	671.06
327.228	922.06
327.457	1412.06
327.686	1752.06
327.914	1209.06
328.143	795.06
328.372	681.06
328.6	606.06
328.829	596.06
329.058	575.06
329.287	606.06
329.515	544.06
329.744	490.06
329.972	518.06
330.201	537.06
330.43	566.06
330.658	599.06
330.887	644.06
331.115	616.06
331.344	503.06
331.572	483.06
331.801	487.06
332.03	469.06
332.258	452.06
332.486	419.06
332.715	427.06
332.943	416.06
333.172	416.06
333.4	428.06
333.629	424.06
333.857	460.06
334.085	440.06
334.314	463.06
334.542	493.06
334.771	522.06
334.999	486.06
335.227	455.06
335.455	429.06
335.684	435.06
335.912	417.06
336.14	400.06
336.369	392.06
336.597	404.06
336.825	401.06
337.053	416.06
337.281	380.06
337.51	391.06
337.738	413.06
337.966	393.06
338.194	416.06
338.422	412.06
338.65	416.06
338.878	408.06
339.106	387.06
339.334	371.06
339.562	398.06
339.79	382.06
340.018	381.06
340.246	383.06
340.474	396.06
340.702	391.06
340.93	387.06
341.158	395.06
341.386	396.06
341.614	394.06
341.842	411.06
342.07	381.06
342.298	383.06
342.526	374.06
342.754	398.06
342.981	376.06
343.209	368.06
343.437	373.06
343.665	397.06
343.893	388.06
344.12	386.06
344.348	376.06
344.576	381.06
344.804	419.06
345.031	404.06
345.259	438.06
345.487	413.06
345.714	404.06
345.942	407.06
346.17	381.06
346.397	393.06
346.625	374.06
346.853	404.06
347.08	397.06
347.308	392.06
347.535	382.06
347.763	425.06
347.99	397.06
348.218	378.06
348.445	400.06
348.673	397.06
348.9	401.06
349.128	373.06
349.355	363.06
349.583	385.06
349.81	391.06
350.037	381.06
350.265	361.06
350.492	362.06
350.72	382.06
350.947	391.06
351.174	397.06
351.402	400.06
351.629	397.06
351.856	387.06
352.083	406.06
352.311	417.06
352.538	417.06
352.765	409.06
352.992	383.06
353.22	377.06
353.447	382.06
353.674	377.06
353.901	383.06
354.128	358.06
354.355	359.06
354.583	351.06
354.81	364.06
355.037	360.06
355.264	356.06
355.491	337.06
355.718	336.06
355.945	351.06
356.172	366.06
356.399	341.06
356.626	355.06
356.853	341.06
357.08	347.06
357.307	363.06
357.534	347.06
357.761	345.06
357.988	355.06
358.215	334.06
358.441	350.06
358.668	344.06
358.895	372.06
359.122	375.06
359.349	377.06
359.576	395.06
359.802	423.06
360.029	444.06
360.256	460.06
360.483	465.06
360.709	391.06
360.936	382.06
361.163	380.06
361.39	383.06
361.616	383.06
361.843	382.06
362.07	395.06
362.296	387.06
362.523	382.06
362.749	361.06
362.976	341.06
363.203	384.06
363.429	365.06
363.656	361.06
363.882	363.06
364.109	354.06
364.335	355.06
364.562	359.06
364.788	363.06
365.015	394.06
365.241	375.06
365.468	373.06
365.694	367.06
365.92	379.06
366.147	385.06
366.373	356.06
366.599	353.06
366.826	366.06
367.052	353.06
367.278	361.06
367.505	366.06
367.731	372.06
367.957	365.06
368.184	358.06
368.41	358.06
368.636	376.06
368.862	375.06
369.089	382.06
369.315	355.06
369.541	345.06
369.767	362.06
369.993	361.06
370.219	365.06
370.445	347.06
370.672	349.06
370.898	356.06
371.124	365.06
371.35	340.06
371.576	356.06
371.802	357.06
372.028	339.06
372.254	338.06
372.48	361.06
372.706	355.06
372.932	358.06
373.158	357.06
373.384	358.06
373.61	360.06
373.835	351.06
374.061	348.06
374.287	368.06
374.513	347.06
374.739	377.06
374.965	363.06
375.191	357.06
375.416	362.06
375.642	365.06
375.868	348.06
376.094	347.06
376.319	362.06
376.545	358.06
376.771	376.06
376.997	349.06
377.222	359.06
377.448	365.06
377.674	343.06
377.899	360.06
378.125	358.06
378.35	349.06
378.576	343.06
378.802	348.06
379.027	349.06
379.253	352.06
379.478	341.06
379.704	348.06
379.929	341.06
380.155	355.06
380.38	357.06
380.606	362.06
380.831	357.06
381.057	363.06
381.282	351.06
381.507	366.06
381.733	345.06
381.958	357.06
382.184	356.06
382.409	377.06
382.634	381.06
382.86	351.06
383.085	369.06
383.31	366.06
383.535	368.06
383.761	359.06
383.986	355.06
384.211	366.06
384.436	363.06
384.662	360.06
384.887	380.06
385.112	352.06
385.337	371.06
385.562	362.06
385.787	397.06
386.013	381.06
386.238	377.06
386.463	382.06
386.688	373.06
386.913	383.06
387.138	388.06
387.363	371.06
387.588	361.06
387.813	379.06
388.038	369.06
388.263	367.06
388.488	383.06
388.713	391.06
388.938	389.06
389.163	379.06
389.387	387.06
389.612	372.06
389.837	358.06
390.062	365.06
390.287	373.06
390.512	355.06
390.736	372.06
390.961	393.06
391.186	368.06
391.411	364.06
391.636	372.06
391.86	381.06
392.085	380.06
392.31	383.06
392.534	393.06
392.759	364.06
392.984	374.06
393.208	387.06
393.433	373.06
393.658	386.06
393.882	373.06
394.107	379.06
394.331	395.06
394.556	357.06
394.78	377.06
395.005	377.06
395.229	376.06
395.454	375.06
395.678	401.06
395.903	398.06
396.127	428.06
396.352	420.06
396.576	401.06
396.801	379.06
397.025	365.06
397.249	396.06
397.474	395.06
397.698	414.06
397.922	405.06
398.147	410.06
398.371	421.06
398.595	408.06
398.82	398.06
399.044	424.06
399.268	419.06
399.492	415.06
399.717	475.06
399.941	492.06
400.165	507.06
400.389	515.06
400.613	478.06
400.837	457.06
401.062	428.06
401.286	448.06
401.51	432.06
401.734	432.06
401.958	438.06
402.182	445.06
402.406	455.06
402.63	439.06
402.854	422.06
403.078	458.06
403.302	412.06
403.526	438.06
403.75	436.06
403.974	447.06
404.198	437.06
404.422	449.06
404.645	459.06
404.869	456.06
405.093	490.06
405.317	528.06
405.541	553.06
405.765	508.06
405.988	457.06
406.212	497.06
406.436	520.06
406.66	526.06
406.883	504.06
407.107	510.06
407.331	550.06
407.555	601.06
407.778	608.06
408.002	554.06
408.226	483.06
408.449	493.06
408.673	504.06
408.896	526.06
409.12	554.06
409.344	537.06
409.567	481.06
409.791	452.06
410.014	454.06
410.238	442.06
410.461	439.06
410.685	467.06
410.908	454.06
411.132	489.06
411.355	552.06
411.578	512.06
411.802	450.06
412.025	453.06
412.249	464.06
412.472	480.06
412.695	510.06
412.919	515.06
413.142	453.06
413.365	448.06
413.589	453.06
413.812	428.06
414.035	447.06
414.258	416.06
414.482	434.06
414.705	439.06
414.928	399.06
415.151	419.06
415.374	400.06
415.597	392.06
415.821	411.06
416.044	429.06
416.267	412.06
416.49	432.06
416.713	428.06
416.936	415.06
417.159	411.06
417.382	428.06
417.605	440.06
417.828	441.06
418.051	459.06
418.274	444.06
418.497	417.06
418.72	425.06
418.943	417.06
419.166	433.06
419.389	454.06
419.611	457.06
419.834	457.06
420.057	448.06
420.28	445.06
420.503	443.06
420.726	452.06
420.948	483.06
421.171	513.06
421.394	515.06
421.617	477.06
421.839	464.06
422.062	453.06
422.285	460.06
422.507	523.06
422.73	611.06
422.953	576.06
423.175	505.06
423.398	478.06
423.621	489.06
423.843	470.06
424.066	499.06
424.288	484.06
424.511	519.06
424.733	554.06
424.956	639.06
425.178	632.06
425.401	609.06
425.623	643.06
425.846	547.06
426.068	519.06
426.291	515.06
426.513	500.06
426.735	518.06
426.958	528.06
427.18	612.06
427.402	722.06
427.625	820.06
427.847	740.06
428.069	657.06
428.292	565.06
428.514	496.06
428.736	503.06
428.958	494.06
429.181	464.06
429.403	473.06
429.625	474.06
429.847	479.06
430.069	591.06
430.292	564.06
430.514	497.06
430.736	490.06
430.958	453.06
431.18	437.06
431.402	435.06
431.624	429.06
431.846	436.06
432.068	441.06
432.29	414.06
432.512	430.06
432.734	447.06
432.956	439.06
433.178	436.06
433.4	448.06
433.622	441.06
433.844	450.06
434.066	430.06
434.287	418.06
434.509	438.06
434.731	437.06
434.953	421.06
435.175	464.06
435.397	485.06
435.618	504.06
435.84	535.06
436.062	601.06
436.284	693.06
436.505	604.06
436.727	513.06
436.949	481.06
437.17	465.06
437.392	467.06
437.614	509.06
437.835	517.06
438.057	607.06
438.278	709.06
438.5	699.06
438.721	778.06
438.943	744.06
439.165	595.06
439.386	550.06
439.608	537.06
439.829	531.06
440.05	555.06
440.272	611.06
440.493	572.06
440.715	519.06
440.936	481.06
441.158	484.06
441.379	465.06
441.6	506.06
441.822	497.06
442.043	551.06
442.264	608.06
442.486	682.06
442.707	563.06
442.928	544.06
443.149	546.06
443.371	555.06
443.592	601.06
443.813	685.06
444.034	754.06
444.255	613.06
444.476	528.06
444.698	525.06
444.919	488.06
445.14	591.06
445.361	556.06
445.582	573.06
445.803	598.06
446.024	740.06
446.245	729.06
446.466	636.06
446.687	574.06
446.908	521.06
447.129	484.06
447.35	469.06
447.571	458.06
447.792	478.06
448.013	455.06
448.234	486.06
448.455	554.06
448.675	661.06
448.896	747.06
449.117	643.06
449.338	622.06
449.559	730.06
449.779	802.06
450	656.06
450.221	542.06
450.442	490.06
450.662	482.06
450.883	469.06
451.104	487.06
451.324	472.06
451.545	471.06
451.766	441.06
451.986	447.06
452.207	433.06
452.428	424.06
452.648	429.06
452.869	427.06
453.089	425.06
453.31	441.06
453.53	437.06
453.751	432.06
453.971	417.06
454.192	451.06
454.412	461.06
454.633	416.06
454.853	422.06
455.073	396.06
455.294	428.06
455.514	501.06
455.734	509.06
455.955	453.06
456.175	408.06
456.395	392.06
456.616	423.06
456.836	377.06
457.056	373.06
457.276	380.06
457.497	371.06
457.717	387.06
457.937	404.06
458.157	404.06
458.377	417.06
458.598	430.06
458.818	475.06
459.038	576.06
459.258	611.06
459.478	479.06
459.698	441.06
459.918	436.06
460.138	420.06
460.358	413.06
460.578	420.06
460.798	424.06
461.018	448.06
461.238	437.06
461.458	411.06
461.678	412.06
461.898	411.06
462.118	409.06
462.338	445.06
462.558	453.06
462.777	444.06
462.997	448.06
463.217	454.06
463.437	451.06
463.657	443.06
463.876	461.06
464.096	451.06
464.316	433.06
464.536	466.06
464.755	463.06
464.975	468.06
465.195	524.06
465.414	610.06
465.634	536.06
465.854	485.06
466.073	471.06
466.293	453.06
466.512	432.06
466.732	425.06
466.951	413.06
467.171	427.06
467.391	435.06
467.61	430.06
467.829	448.06
468.049	443.06
468.268	429.06
468.488	419.06
468.707	397.06
468.927	396.06
469.146	406.06
469.365	413.06
469.585	401.06
469.804	413.06
470.023	441.06
470.243	435.06
470.462	443.06
470.681	476.06
470.901	433.06
471.12	425.06
471.339	435.06
471.558	447.06
471.777	438.06
471.997	442.06
472.216	442.06
472.435	461.06
472.654	462.06
472.873	441.06
473.092	453.06
473.311	414.06
473.53	427.06
473.749	454.06
473.968	479.06
474.187	569.06
474.406	623.06
474.625	485.06
474.844	436.06
475.063	431.06
475.282	424.06
475.501	455.06
475.72	443.06
475.939	444.06
476.158	448.06
476.377	433.06
476.596	455.06
476.814	451.06
477.033	458.06
477.252	439.06
477.471	458.06
477.69	445.06
477.908	464.06
478.127	436.06
478.346	457.06
478.564	476.06
478.783	485.06
479.002	476.06
479.22	467.06
479.439	502.06
479.658	513.06
479.876	547.06
480.095	520.06
480.313	553.06
480.532	514.06
480.751	532.06
480.969	555.06
481.188	598.06
481.406	652.06
481.624	567.06
481.843	519.06
482.061	505.06
482.28	539.06
482.498	509.06
482.717	499.06
482.935	503.06
483.153	514.06
483.372	514.06
483.59	515.06
483.808	510.06
484.027	523.06
484.245	499.06
484.463	522.06
484.681	523.06
484.9	522.06
485.118	507.06
485.336	502.06
485.554	518.06
485.772	535.06
485.99	508.06
486.209	535.06
486.427	530.06
486.645	543.06
486.863	567.06
487.081	565.06
487.299	530.06
487.517	565.06
487.735	546.06
487.953	552.06
488.171	567.06
488.389	538.06
488.607	550.06
488.825	560.06
489.043	537.06
489.261	562.06
489.479	579.06
489.696	578.06
489.914	552.06
490.132	561.06
490.35	559.06
490.568	590.06
490.786	575.06
491.003	608.06
491.221	611.06
491.439	627.06
491.657	621.06
491.874	625.06
492.092	635.06
492.31	641.06
492.527	625.06
492.745	629.06
492.963	645.06
493.18	666.06
493.398	641.06
493.615	668.06
493.833	649.06
494.05	653.06
494.268	687.06
494.485	684.06
494.703	643.06
494.92	661.06
495.138	648.06
495.355	678.06
495.573	681.06
495.79	673.06
496.008	673.06
496.225	641.06
496.442	658.06
496.66	659.06
496.877	655.06
497.094	688.06
497.312	658.06
497.529	661.06
497.746	677.06
497.963	676.06
498.181	704.06
498.398	688.06
498.615	692.06
498.832	716.06
499.049	709.06
499.267	720.06
499.484	736.06
499.701	769.06
499.918	749.06
500.135	800.06
500.352	781.06
500.569	804.06
500.786	821.06
501.003	816.06
501.22	783.06
501.437	778.06
501.654	777.06
501.871	781.06
502.088	763.06
502.305	738.06
502.522	705.06
502.739	719.06
502.956	673.06
503.172	681.06
503.389	661.06
503.606	674.06
503.823	691.06
504.04	654.06
504.256	678.06
504.473	648.06
504.69	639.06
504.907	655.06
505.123	638.06
505.34	638.06
505.557	638.06
505.773	616.06
505.99	645.06
506.207	662.06
506.423	647.06
506.64	619.06
506.856	645.06
507.073	621.06
507.289	640.06
507.506	624.06
507.722	631.06
507.939	625.06
508.155	643.06
508.372	607.06
508.588	622.06
508.805	600.06
509.021	618.06
509.238	648.06
509.454	635.06
509.67	616.06
509.887	625.06
510.103	642.06
510.319	639.06
510.536	721.06
510.752	1291.06
510.968	1053.06
511.184	667.06
511.401	603.06
511.617	606.06
511.833	619.06
512.049	587.06
512.265	600.06
512.481	575.06
512.698	579.06
512.914	580.06
513.13	582.06
513.346	604.06
513.562	597.06
513.778	587.06
513.994	607.06
514.21	623.06
514.426	666.06
514.642	694.06
514.858	761.06
515.074	776.06
515.29	931.06
515.506	1466.06
515.721	1207.06
515.937	793.06
516.153	675.06
516.369	640.06
516.585	635.06
516.801	582.06
517.016	607.06
517.232	574.06
517.448	591.06
517.664	582.06
517.879	571.06
518.095	575.06
518.311	586.06
518.527	590.06
518.742	580.06
518.958	579.06
519.173	607.06
519.389	599.06
519.605	592.06
519.82	612.06
520.036	622.06
520.251	642.06
520.467	664.06
520.682	650.06
520.898	695.06
521.113	704.06
521.329	755.06
521.544	911.06
521.76	1153.06
521.975	1983.06
522.19	1951.06
522.406	1016.06
522.621	751.06
522.836	635.06
523.052	617.06
523.267	577.06
523.482	565.06
523.698	564.06
523.913	538.06
524.128	545.06
524.343	547.06
524.559	512.06
524.774	513.06
524.989	509.06
525.204	536.06
525.419	537.06
525.634	505.06
525.849	500.06
526.064	513.06
526.28	487.06
526.495	462.06
526.71	458.06
526.925	484.06
527.14	462.06
527.355	469.06
527.57	472.06
527.785	465.06
527.999	457.06
528.214	461.06
528.429	452.06
528.644	473.06
528.859	478.06
529.074	466.06
529.289	512.06
529.503	612.06
529.718	572.06
529.933	541.06
530.148	518.06
530.363	478.06
530.577	471.06
530.792	465.06
531.007	459.06
531.221	468.06
531.436	468.06
531.651	468.06
531.865	448.06
532.08	460.06
532.295	458.06
532.509	447.06
532.724	451.06
532.938	455.06
533.153	438.06
533.367	443.06
533.582	426.06
533.796	451.06
534.011	407.06
534.225	421.06
534.44	420.06
534.654	420.06
534.868	452.06
535.083	430.06
535.297	424.06
535.511	456.06
535.726	459.06
535.94	459.06
536.154	449.06
536.369	445.06
536.583	425.06
536.797	425.06
537.011	436.06
537.225	435.06
537.44	423.06
537.654	411.06
537.868	401.06
538.082	420.06
538.296	421.06
538.51	406.06
538.724	435.06
538.938	436.06
539.153	429.06
539.367	455.06
539.581	451.06
539.795	432.06
540.009	436.06
540.222	435.06
540.436	436.06
540.65	427.06
540.864	430.06
541.078	452.06
541.292	438.06
541.506	437.06
541.72	430.06
541.934	435.06
542.147	421.06
542.361	438.06
542.575	421.06
542.789	447.06
543.002	423.06
543.216	440.06
543.43	442.06
543.644	442.06
543.857	446.06
544.071	416.06
544.285	432.06
544.498	429.06
544.712	410.06
544.925	439.06
545.139	412.06
545.352	416.06
545.566	413.06
545.779	410.06
545.993	413.06
546.206	447.06
546.42	420.06
546.633	415.06
546.847	413.06
547.06	396.06
547.274	393.06
547.487	400.06
547.7	391.06
547.914	396.06
548.127	385.06
548.34	410.06
548.554	412.06
548.767	380.06
548.98	390.06
549.193	405.06
549.407	414.06
549.62	394.06
549.833	408.06
550.046	387.06
550.259	402.06
550.473	388.06
550.686	380.06
550.899	393.06
551.112	388.06
551.325	384.06
551.538	411.06
551.751	401.06
551.964	380.06
552.177	364.06
552.39	375.06
552.603	373.06
552.816	412.06
553.029	387.06
553.242	400.06
553.455	426.06
553.667	415.06
553.88	422.06
554.093	424.06
554.306	400.06
554.519	405.06
554.732	405.06
554.944	376.06
555.157	379.06
555.37	384.06
555.583	387.06
555.795	370.06
556.008	378.06
556.221	381.06
556.433	373.06
556.646	359.06
556.859	367.06
557.071	356.06
557.284	373.06
557.496	355.06
557.709	355.06
557.921	373.06
558.134	351.06
558.346	379.06
558.559	383.06
558.771	349.06
558.984	365.06
559.196	362.06
559.409	360.06
559.621	344.06
559.833	380.06
560.046	348.06
560.258	377.06
560.47	366.06
560.683	352.06
560.895	353.06
561.107	350.06
561.32	356.06
561.532	356.06
561.744	374.06
561.956	358.06
562.168	343.06
562.381	362.06
562.593	333.06
562.805	339.06
563.017	359.06
563.229	363.06
563.441	367.06
563.653	384.06
563.865	351.06
564.077	349.06
564.289	364.06
564.501	368.06
564.713	359.06
564.925	359.06
565.137	359.06
565.349	369.06
565.561	362.06
565.773	382.06
565.985	377.06
566.197	401.06
566.408	371.06
566.62	392.06
566.832	387.06
567.044	383.06
567.255	395.06
567.467	423.06
567.679	415.06
567.891	407.06
568.102	399.06
568.314	378.06
568.526	403.06
568.737	371.06
568.949	371.06
569.161	365.06
569.372	352.06
569.584	339.06
569.795	374.06
570.007	371.06
570.218	394.06
570.43	405.06
570.641	345.06
570.853	376.06
571.064	342.06
571.276	339.06
571.487	325.06
571.698	329.06
571.91	344.06
572.121	342.06
572.333	324.06
572.544	316.06
572.755	312.06
572.966	316.06
573.178	328.06
573.389	342.06
573.6	317.06
573.811	326.06
574.023	307.06
574.234	334.06
574.445	321.06
574.656	324.06
574.867	303.06
575.078	319.06
575.289	305.06
575.501	310.06
575.712	305.06
575.923	305.06
576.134	302.06
576.345	315.06
576.556	303.06
576.767	311.06
576.978	292.06
577.188	303.06
577.399	312.06
577.61	292.06
577.821	296.06
578.032	319.06
578.243	337.06
578.454	620.06
578.665	451.06
578.875	321.06
579.086	291.06
579.297	309.06
579.508	279.06
579.718	281.06
579.929	297.06
580.14	283.06
580.35	292.06
580.561	279.06
580.772	291.06
580.982	288.06
581.193	283.06
581.403	283.06
581.614	287.06
581.825	293.06
582.035	283.06
582.246	296.06
582.456	266.06
582.667	285.06
582.877	280.06
583.087	299.06
583.298	275.06
583.508	262.06
583.719	271.06
583.929	294.06
584.139	302.06
584.35	283.06
584.56	297.06
584.77	281.06
584.981	278.06
585.191	278.06
585.401	281.06
585.611	260.06
585.821	280.06
586.032	289.06
586.242	293.06
586.452	271.06
586.662	268.06
586.872	282.06
587.082	269.06
587.292	279.06
587.502	266.06
587.713	271.06
587.923	264.06
588.133	264.06
588.343	260.06
588.553	266.06
588.762	250.06
588.972	248.06
589.182	265.06
589.392	282.06
589.602	280.06
589.812	265.06
590.022	275.06
590.232	272.06
590.441	270.06
590.651	282.06
590.861	253.06
591.071	277.06
591.281	270.06
591.49	275.06
591.7	286.06
591.91	272.06
592.119	254.06
592.329	272.06
592.539	258.06
592.748	278.06
592.958	289.06
593.167	279.06
593.377	277.06
593.587	283.06
593.796	284.06
594.006	277.06
594.215	274.06
594.424	262.06
594.634	277.06
594.843	270.06
595.053	280.06
595.262	255.06
595.472	270.06
595.681	265.06
595.89	291.06
596.1	265.06
596.309	259.06
596.518	249.06
596.727	260.06
596.937	248.06
597.146	280.06
597.355	262.06
597.564	256.06
597.774	269.06
597.983	267.06
598.192	243.06
598.401	246.06
598.61	254.06
598.819	262.06
599.028	260.06
599.237	238.06
599.446	245.06
599.655	243.06
599.864	257.06
600.073	244.06
600.282	258.06
600.491	239.06
600.7	261.06
600.909	264.06
601.118	238.06
601.327	237.06
601.536	232.06
601.745	237.06
601.953	239.06
602.162	248.06
602.371	240.06
602.58	237.06
602.789	259.06
602.997	244.06
603.206	253.06
603.415	238.06
603.623	259.06
603.832	223.06
604.041	226.06
604.249	224.06
604.458	250.06
604.666	241.06
604.875	229.06
605.084	242.06
605.292	248.06
605.501	235.06
605.709	233.06
605.918	244.06
606.126	238.06
606.334	242.06
606.543	237.06
606.751	228.06
606.96	230.06
607.168	217.06
607.376	209.06
607.585	223.06
607.793	243.06
608.001	240.06
608.21	236.06
608.418	228.06
608.626	235.06
608.834	235.06
609.043	223.06
609.251	230.06
609.459	238.06
609.667	238.06
609.875	221.06
610.083	212.06
610.291	231.06
610.499	219.06
610.707	208.06
610.916	221.06
611.124	220.06
611.332	214.06
611.54	222.06
611.748	220.06
611.955	244.06
612.163	248.06
612.371	227.06
612.579	230.06
612.787	229.06
612.995	237.06
613.203	223.06
613.411	201.06
613.618	230.06
613.826	232.06
614.034	216.06
614.242	210.06
614.449	227.06
614.657	220.06
614.865	215.06
615.072	225.06
615.28	222.06
615.488	225.06
615.695	226.06
615.903	228.06
616.111	222.06
616.318	222.06
616.526	216.06
616.733	232.06
616.941	216.06
617.148	220.06
617.356	214.06
617.563	212.06
617.771	209.06
617.978	223.06
618.185	212.06
618.393	210.06
618.6	204.06
618.807	215.06
619.015	222.06
619.222	212.06
619.429	215.06
619.637	223.06
619.844	215.06
620.051	221.06
620.258	228.06
620.466	204.06
620.673	199.06
620.88	207.06
621.087	211.06
621.294	217.06
621.501	214.06
621.708	210.06
621.915	202.06
622.122	213.06
622.329	213.06
622.536	220.06
622.743	214.06
622.95	186.06
623.157	211.06
623.364	203.06
623.571	200.06
623.778	208.06
623.985	208.06
624.192	211.06
624.399	197.06
624.606	228.06
624.812	220.06
625.019	203.06
625.226	188.06
625.433	201.06
625.639	211.06
625.846	198.06
626.053	185.06
626.259	215.06
626.466	207.06
626.673	195.06
626.879	200.06
627.086	186.06
627.293	187.06
627.499	195.06
627.706	193.06
627.912	195.06
628.119	204.06
628.325	196.06
628.532	203.06
628.738	189.06
628.945	170.06
629.151	189.06
629.357	181.06
629.564	194.06
629.77	193.06
629.976	179.06
630.183	186.06
630.389	181.06
630.595	196.06
630.802	182.06
631.008	172.06
631.214	179.06
631.42	180.06
631.627	193.06
631.833	180.06
632.039	164.06
632.245	181.06
632.451	191.06
632.657	183.06
632.863	171.06
633.069	181.06
633.275	175.06
633.481	168.06
633.688	165.06
633.893	183.06
634.099	166.06
634.305	171.06
634.511	172.06
634.717	181.06
634.923	168.06
635.129	177.06
635.335	189.06
635.541	183.06
635.747	190.06
635.952	170.06
636.158	179.06
636.364	174.06
636.57	185.06
636.775	189.06
636.981	192.06
637.187	169.06
637.392	183.06
637.598	182.06
637.804	173.06
638.009	159.06
638.215	164.06
638.421	160.06
638.626	168.06
638.832	167.06
639.037	172.06
639.243	152.06
639.448	182.06
639.654	175.06
639.859	169.06
640.065	143.06
640.27	159.06
640.475	166.06
640.681	174.06
640.886	160.06
641.091	160.06
641.297	173.06
641.502	163.06
641.707	153.06
641.913	164.06
642.118	160.06
642.323	161.06
642.528	179.06
642.733	161.06
642.939	165.06
643.144	159.06
643.349	159.06
643.554	148.06
643.759	158.06
643.964	164.06
644.169	160.06
644.374	162.06
644.579	171.06
644.784	159.06
644.989	156.06
645.194	168.06
645.399	164.06
645.604	148.06
645.809	164.06
646.014	152.06
646.219	160.06
646.423	138.06
646.628	156.06
646.833	166.06
647.038	170.06
647.243	173.06
647.447	153.06
647.652	154.06
647.857	148.06
648.062	164.06
648.266	166.06
648.471	166.06
648.676	178.06
648.88	179.06
649.085	148.06
649.289	152.06
649.494	159.06
649.698	173.06
649.903	173.06
650.107	170.06
650.312	152.06
650.516	153.06
650.721	153.06
650.925	159.06
651.13	142.06
651.334	135.06
651.539	138.06
651.743	129.06
651.947	133.06
652.152	144.06
652.356	142.06
652.56	144.06
652.764	139.06
652.969	146.06
653.173	129.06
653.377	132.06
653.581	133.06
653.785	145.06
653.99	134.06
654.194	116.06
654.398	125.06
654.602	119.06
654.806	131.06
655.01	128.06
655.214	137.06
655.418	143.06
655.622	137.06
655.826	142.06
656.03	126.06
656.234	122.06
656.438	147.06
656.642	122.06
656.846	124.06
657.049	119.06
657.253	100.06
657.457	119.06
657.661	114.06
657.865	105.06
658.068	109.06
658.272	94.06
658.476	95.06
658.68	105.06
658.883	92.06
659.087	98.06
659.291	102.06
659.494	104.06
659.698	100.06
659.901	89.06
660.105	99.06
660.309	92.06
660.512	103.06
660.716	96.06
660.919	80.06
661.123	104.06
661.326	97.06
661.53	95.06
661.733	81.06
661.936	100.06
662.14	95.06
662.343	86.06
662.546	79.06
662.75	90.06
662.953	88.06
663.156	80.06
663.36	87.06
663.563	88.06
663.766	96.06
663.969	90.06
664.173	74.06
664.376	72.06
664.579	94.06
664.782	93.06
664.985	89.06
665.188	88.06
665.391	81.06
665.594	87.06
665.797	92.06
666	77.06
666.203	79.06
666.406	90.06
666.609	77.06
666.812	85.06
667.015	101.06
667.218	81.06
667.421	85.06
667.624	81.06
667.827	75.06
668.03	93.06
668.232	91.06
668.435	96.06
668.638	70.06
668.841	76.06
669.043	75.06
669.246	76.06
669.449	80.06
669.651	83.06
669.854	81.06
670.057	75.06
670.259	85.06
670.462	81.06
670.665	79.06
670.867	90.06
671.07	93.06
671.272	95.06
671.475	87.06
671.677	77.06
671.88	80.06
672.082	94.06
672.284	83.06
672.487	85.06
672.689	92.06
672.892	87.06
