Data from 1980.PennyLincolnUp.Lamp.En5.5.200Scan.071819.P1_HRD10591_16-38-59-957.txt Node
Date: Thu Jul 18 16:38:59 EDT 2019
User: cochatt
Spectrometer: HR+D1059
Trigger mode: 1
Integration Time (sec): 1.000000E-1
Scans to average: 1
Electric dark correction enabled: true
Nonlinearity correction enabled: false
Boxcar width: 0
XAxis mode: Wavelengths
Number of Pixels in Spectrum: 2048
>>>>>Begin Spectral Data<<<<<
223.165	1.75
223.4	1.75
223.635	1.75
223.869	-18.25
224.104	-26.25
224.338	-19.25
224.573	-21.25
224.808	-8.25
225.042	-15.25
225.277	-14.25
225.511	2.75
225.746	17.75
225.98	17.75
226.215	20.75
226.449	9.75
226.683	18.75
226.918	20.75
227.152	12.75
227.387	55.75
227.621	50.75
227.856	40.75
228.09	46.75
228.324	57.75
228.559	43.75
228.793	70.75
229.027	110.75
229.262	118.75
229.496	112.75
229.73	134.75
229.964	172.75
230.199	137.75
230.433	118.75
230.667	122.75
230.901	127.75
231.136	114.75
231.37	126.75
231.604	124.75
231.838	118.75
232.072	107.75
232.306	120.75
232.541	101.75
232.775	124.75
233.009	116.75
233.243	113.75
233.477	117.75
233.711	117.75
233.945	123.75
234.179	116.75
234.413	116.75
234.647	133.75
234.881	112.75
235.115	126.75
235.349	109.75
235.583	146.75
235.817	136.75
236.051	114.75
236.285	132.75
236.519	135.75
236.753	146.75
236.987	155.75
237.221	171.75
237.455	260.75
237.689	204.75
237.922	157.75
238.156	132.75
238.39	131.75
238.624	130.75
238.858	128.75
239.091	119.75
239.325	130.75
239.559	130.75
239.793	137.75
240.027	124.75
240.26	138.75
240.494	158.75
240.728	160.75
240.961	150.75
241.195	145.75
241.429	145.75
241.662	122.75
241.896	136.75
242.13	141.75
242.363	132.75
242.597	128.75
242.83	129.75
243.064	148.75
243.298	137.75
243.531	146.75
243.765	158.75
243.998	139.75
244.232	142.75
244.465	137.75
244.699	153.75
244.932	134.75
245.166	140.75
245.399	148.75
245.633	153.75
245.866	135.75
246.099	140.75
246.333	156.75
246.566	138.75
246.8	156.75
247.033	170.75
247.266	160.75
247.5	173.75
247.733	171.75
247.966	170.75
248.2	160.75
248.433	162.75
248.666	190.75
248.899	200.75
249.133	218.75
249.366	227.75
249.599	208.75
249.832	190.75
250.066	197.75
250.299	188.75
250.532	198.75
250.765	214.75
250.998	250.75
251.231	234.75
251.465	258.75
251.698	239.75
251.931	208.75
252.164	183.75
252.397	198.75
252.63	218.75
252.863	213.75
253.096	250.75
253.329	242.75
253.562	240.75
253.795	244.75
254.028	218.75
254.261	233.75
254.494	237.75
254.727	256.75
254.96	284.75
255.193	292.75
255.426	282.75
255.659	240.75
255.892	264.75
256.124	248.75
256.357	244.75
256.59	241.75
256.823	228.75
257.056	220.75
257.289	221.75
257.521	216.75
257.754	214.75
257.987	216.75
258.22	226.75
258.452	230.75
258.685	206.75
258.918	193.75
259.151	208.75
259.383	228.75
259.616	220.75
259.849	240.75
260.081	237.75
260.314	264.75
260.547	269.75
260.779	254.75
261.012	247.75
261.244	252.75
261.477	233.75
261.71	235.75
261.942	234.75
262.175	250.75
262.407	244.75
262.64	208.75
262.872	217.75
263.105	216.75
263.337	209.75
263.57	218.75
263.802	189.75
264.035	221.75
264.267	214.75
264.499	216.75
264.732	216.75
264.964	210.75
265.197	211.75
265.429	201.75
265.661	205.75
265.894	219.75
266.126	201.75
266.358	223.75
266.591	217.75
266.823	228.75
267.055	238.75
267.287	217.75
267.52	226.75
267.752	224.75
267.984	232.75
268.216	222.75
268.448	243.75
268.681	233.75
268.913	250.75
269.145	262.75
269.377	284.75
269.609	271.75
269.841	263.75
270.073	278.75
270.306	288.75
270.538	338.75
270.77	322.75
271.002	318.75
271.234	299.75
271.466	308.75
271.698	331.75
271.93	338.75
272.162	332.75
272.394	346.75
272.626	298.75
272.858	314.75
273.09	283.75
273.322	278.75
273.553	282.75
273.785	269.75
274.017	264.75
274.249	262.75
274.481	269.75
274.713	262.75
274.945	273.75
275.176	268.75
275.408	270.75
275.64	278.75
275.872	274.75
276.104	262.75
276.335	288.75
276.567	267.75
276.799	286.75
277.031	333.75
277.262	316.75
277.494	337.75
277.726	312.75
277.957	307.75
278.189	285.75
278.421	264.75
278.652	275.75
278.884	284.75
279.115	264.75
279.347	266.75
279.579	251.75
279.81	268.75
280.042	265.75
280.273	268.75
280.505	259.75
280.736	259.75
280.968	256.75
281.199	276.75
281.431	238.75
281.662	259.75
281.894	260.75
282.125	246.75
282.356	290.75
282.588	308.75
282.819	318.75
283.051	289.75
283.282	266.75
283.513	259.75
283.745	265.75
283.976	271.75
284.207	295.75
284.439	275.75
284.67	263.75
284.901	260.75
285.132	283.75
285.364	246.75
285.595	270.75
285.826	274.75
286.057	284.75
286.288	268.75
286.52	264.75
286.751	271.75
286.982	249.75
287.213	281.75
287.444	271.75
287.675	257.75
287.906	274.75
288.138	290.75
288.369	285.75
288.6	294.75
288.831	283.75
289.062	269.75
289.293	267.75
289.524	281.75
289.755	269.75
289.986	275.75
290.217	282.75
290.448	272.75
290.679	267.75
290.91	283.75
291.141	282.75
291.371	279.75
291.602	269.75
291.833	263.75
292.064	282.75
292.295	269.75
292.526	280.75
292.757	276.75
292.987	273.75
293.218	263.75
293.449	274.75
293.68	264.75
293.91	277.75
294.141	260.75
294.372	278.75
294.603	274.75
294.833	264.75
295.064	277.75
295.295	266.75
295.525	290.75
295.756	292.75
295.987	297.75
296.217	311.75
296.448	305.75
296.679	301.75
296.909	290.75
297.14	264.75
297.37	302.75
297.601	289.75
297.831	276.75
298.062	298.75
298.292	283.75
298.523	288.75
298.753	295.75
298.984	280.75
299.214	286.75
299.445	293.75
299.675	293.75
299.905	285.75
300.136	293.75
300.366	277.75
300.597	289.75
300.827	289.75
301.057	294.75
301.288	323.75
301.518	307.75
301.748	306.75
301.979	288.75
302.209	310.75
302.439	304.75
302.669	300.75
302.9	318.75
303.13	289.75
303.36	301.75
303.59	321.75
303.82	308.75
304.051	313.75
304.281	320.75
304.511	303.75
304.741	302.75
304.971	299.75
305.201	292.75
305.431	307.75
305.661	301.75
305.891	292.75
306.121	315.75
306.352	316.75
306.582	321.75
306.812	317.75
307.042	312.75
307.272	300.75
307.502	316.75
307.731	299.75
307.961	324.75
308.191	302.75
308.421	320.75
308.651	329.75
308.881	309.75
309.111	330.75
309.341	319.75
309.571	322.75
309.8	348.75
310.03	347.75
310.26	370.75
310.49	368.75
310.72	385.75
310.949	410.75
311.179	425.75
311.409	362.75
311.639	354.75
311.868	375.75
312.098	374.75
312.328	373.75
312.557	375.75
312.787	396.75
313.017	401.75
313.246	376.75
313.476	378.75
313.706	350.75
313.935	384.75
314.165	376.75
314.394	376.75
314.624	393.75
314.853	370.75
315.083	390.75
315.312	356.75
315.542	363.75
315.771	354.75
316.001	347.75
316.23	363.75
316.46	352.75
316.689	361.75
316.919	360.75
317.148	378.75
317.377	390.75
317.607	364.75
317.836	390.75
318.065	376.75
318.295	357.75
318.524	377.75
318.753	359.75
318.983	357.75
319.212	353.75
319.441	374.75
319.67	365.75
319.9	373.75
320.129	369.75
320.358	363.75
320.587	377.75
320.816	380.75
321.046	390.75
321.275	389.75
321.504	395.75
321.733	402.75
321.962	396.75
322.191	432.75
322.42	436.75
322.649	452.75
322.878	473.75
323.108	491.75
323.337	521.75
323.566	509.75
323.795	556.75
324.024	606.75
324.253	777.75
324.482	1133.75
324.71	1736.75
324.939	2532.75
325.168	2189.75
325.397	1148.75
325.626	775.75
325.855	602.75
326.084	567.75
326.313	540.75
326.542	533.75
326.77	601.75
326.999	708.75
327.228	963.75
327.457	1536.75
327.686	1886.75
327.914	1271.75
328.143	851.75
328.372	715.75
328.6	663.75
328.829	616.75
329.058	634.75
329.287	646.75
329.515	570.75
329.744	549.75
329.972	548.75
330.201	585.75
330.43	621.75
330.658	651.75
330.887	664.75
331.115	658.75
331.344	566.75
331.572	504.75
331.801	495.75
332.03	502.75
332.258	466.75
332.486	433.75
332.715	420.75
332.943	418.75
333.172	430.75
333.4	449.75
333.629	454.75
333.857	455.75
334.085	487.75
334.314	494.75
334.542	522.75
334.771	561.75
334.999	478.75
335.227	454.75
335.455	441.75
335.684	434.75
335.912	432.75
336.14	412.75
336.369	404.75
336.597	430.75
336.825	422.75
337.053	425.75
337.281	413.75
337.51	414.75
337.738	405.75
337.966	404.75
338.194	420.75
338.422	412.75
338.65	408.75
338.878	404.75
339.106	395.75
339.334	378.75
339.562	390.75
339.79	405.75
340.018	402.75
340.246	385.75
340.474	411.75
340.702	420.75
340.93	406.75
341.158	414.75
341.386	406.75
341.614	409.75
341.842	412.75
342.07	391.75
342.298	388.75
342.526	379.75
342.754	389.75
342.981	369.75
343.209	390.75
343.437	382.75
343.665	407.75
343.893	394.75
344.12	399.75
344.348	386.75
344.576	387.75
344.804	390.75
345.031	421.75
345.259	435.75
345.487	422.75
345.714	432.75
345.942	388.75
346.17	396.75
346.397	393.75
346.625	389.75
346.853	405.75
347.08	397.75
347.308	396.75
347.535	414.75
347.763	433.75
347.99	429.75
348.218	414.75
348.445	425.75
348.673	412.75
348.9	431.75
349.128	412.75
349.355	392.75
349.583	394.75
349.81	387.75
350.037	382.75
350.265	380.75
350.492	383.75
350.72	385.75
350.947	400.75
351.174	426.75
351.402	422.75
351.629	424.75
351.856	413.75
352.083	414.75
352.311	410.75
352.538	430.75
352.765	427.75
352.992	434.75
353.22	400.75
353.447	401.75
353.674	366.75
353.901	391.75
354.128	373.75
354.355	374.75
354.583	351.75
354.81	376.75
355.037	378.75
355.264	348.75
355.491	358.75
355.718	343.75
355.945	364.75
356.172	349.75
356.399	349.75
356.626	355.75
356.853	370.75
357.08	351.75
357.307	355.75
357.534	370.75
357.761	350.75
357.988	376.75
358.215	355.75
358.441	359.75
358.668	353.75
358.895	374.75
359.122	388.75
359.349	384.75
359.576	402.75
359.802	417.75
360.029	475.75
360.256	477.75
360.483	451.75
360.709	419.75
360.936	420.75
361.163	391.75
361.39	412.75
361.616	416.75
361.843	396.75
362.07	397.75
362.296	405.75
362.523	378.75
362.749	400.75
362.976	385.75
363.203	374.75
363.429	374.75
363.656	396.75
363.882	399.75
364.109	389.75
364.335	357.75
364.562	380.75
364.788	376.75
365.015	360.75
365.241	384.75
365.468	372.75
365.694	386.75
365.92	387.75
366.147	388.75
366.373	368.75
366.599	371.75
366.826	368.75
367.052	342.75
367.278	374.75
367.505	368.75
367.731	361.75
367.957	375.75
368.184	394.75
368.41	375.75
368.636	407.75
368.862	395.75
369.089	384.75
369.315	362.75
369.541	397.75
369.767	370.75
369.993	395.75
370.219	365.75
370.445	384.75
370.672	352.75
370.898	367.75
371.124	361.75
371.35	368.75
371.576	350.75
371.802	349.75
372.028	363.75
372.254	371.75
372.48	349.75
372.706	360.75
372.932	365.75
373.158	354.75
373.384	364.75
373.61	350.75
373.835	373.75
374.061	363.75
374.287	355.75
374.513	357.75
374.739	368.75
374.965	370.75
375.191	373.75
375.416	364.75
375.642	368.75
375.868	352.75
376.094	349.75
376.319	348.75
376.545	362.75
376.771	362.75
376.997	348.75
377.222	361.75
377.448	370.75
377.674	356.75
377.899	327.75
378.125	353.75
378.35	347.75
378.576	348.75
378.802	354.75
379.027	352.75
379.253	346.75
379.478	364.75
379.704	346.75
379.929	350.75
380.155	343.75
380.38	352.75
380.606	361.75
380.831	345.75
381.057	377.75
381.282	353.75
381.507	362.75
381.733	372.75
381.958	356.75
382.184	347.75
382.409	353.75
382.634	370.75
382.86	358.75
383.085	370.75
383.31	370.75
383.535	374.75
383.761	362.75
383.986	357.75
384.211	374.75
384.436	373.75
384.662	369.75
384.887	360.75
385.112	371.75
385.337	365.75
385.562	376.75
385.787	390.75
386.013	392.75
386.238	386.75
386.463	362.75
386.688	391.75
386.913	393.75
387.138	383.75
387.363	380.75
387.588	393.75
387.813	396.75
388.038	382.75
388.263	386.75
388.488	384.75
388.713	371.75
388.938	389.75
389.163	374.75
389.387	395.75
389.612	375.75
389.837	374.75
390.062	380.75
390.287	372.75
390.512	376.75
390.736	353.75
390.961	407.75
391.186	365.75
391.411	384.75
391.636	374.75
391.86	389.75
392.085	391.75
392.31	379.75
392.534	403.75
392.759	376.75
392.984	382.75
393.208	364.75
393.433	384.75
393.658	386.75
393.882	392.75
394.107	389.75
394.331	372.75
394.556	378.75
394.78	385.75
395.005	383.75
395.229	390.75
395.454	382.75
395.678	378.75
395.903	412.75
396.127	420.75
396.352	411.75
396.576	402.75
396.801	388.75
397.025	389.75
397.249	402.75
397.474	437.75
397.698	410.75
397.922	421.75
398.147	422.75
398.371	447.75
398.595	424.75
398.82	424.75
399.044	409.75
399.268	432.75
399.492	448.75
399.717	464.75
399.941	483.75
400.165	520.75
400.389	531.75
400.613	486.75
400.837	499.75
401.062	464.75
401.286	444.75
401.51	421.75
401.734	438.75
401.958	440.75
402.182	450.75
402.406	455.75
402.63	443.75
402.854	454.75
403.078	461.75
403.302	467.75
403.526	440.75
403.75	466.75
403.974	458.75
404.198	435.75
404.422	450.75
404.645	466.75
404.869	471.75
405.093	490.75
405.317	517.75
405.541	575.75
405.765	518.75
405.988	490.75
406.212	500.75
406.436	520.75
406.66	524.75
406.883	488.75
407.107	521.75
407.331	553.75
407.555	618.75
407.778	612.75
408.002	573.75
408.226	510.75
408.449	515.75
408.673	515.75
408.896	541.75
409.12	593.75
409.344	550.75
409.567	486.75
409.791	476.75
410.014	459.75
410.238	440.75
410.461	454.75
410.685	474.75
410.908	473.75
411.132	513.75
411.355	563.75
411.578	539.75
411.802	487.75
412.025	447.75
412.249	453.75
412.472	488.75
412.695	510.75
412.919	518.75
413.142	466.75
413.365	473.75
413.589	456.75
413.812	424.75
414.035	438.75
414.258	439.75
414.482	429.75
414.705	443.75
414.928	423.75
415.151	417.75
415.374	419.75
415.597	435.75
415.821	434.75
416.044	436.75
416.267	447.75
416.49	456.75
416.713	432.75
416.936	409.75
417.159	441.75
417.382	446.75
417.605	441.75
417.828	471.75
418.051	430.75
418.274	460.75
418.497	439.75
418.72	450.75
418.943	440.75
419.166	442.75
419.389	435.75
419.611	463.75
419.834	469.75
420.057	472.75
420.28	465.75
420.503	458.75
420.726	448.75
420.948	470.75
421.171	522.75
421.394	562.75
421.617	493.75
421.839	468.75
422.062	450.75
422.285	471.75
422.507	532.75
422.73	607.75
422.953	578.75
423.175	508.75
423.398	483.75
423.621	502.75
423.843	491.75
424.066	517.75
424.288	503.75
424.511	516.75
424.733	572.75
424.956	667.75
425.178	618.75
425.401	638.75
425.623	648.75
425.846	573.75
426.068	538.75
426.291	535.75
426.513	498.75
426.735	533.75
426.958	598.75
427.18	665.75
427.402	770.75
427.625	856.75
427.847	780.75
428.069	685.75
428.292	588.75
428.514	544.75
428.736	509.75
428.958	497.75
429.181	476.75
429.403	481.75
429.625	489.75
429.847	544.75
430.069	597.75
430.292	597.75
430.514	521.75
430.736	468.75
430.958	460.75
431.18	455.75
431.402	462.75
431.624	445.75
431.846	407.75
432.068	444.75
432.29	444.75
432.512	441.75
432.734	463.75
432.956	462.75
433.178	467.75
433.4	470.75
433.622	458.75
433.844	457.75
434.066	440.75
434.287	428.75
434.509	461.75
434.731	456.75
434.953	437.75
435.175	472.75
435.397	498.75
435.618	533.75
435.84	581.75
436.062	655.75
436.284	715.75
436.505	604.75
436.727	545.75
436.949	517.75
437.17	476.75
437.392	449.75
437.614	496.75
437.835	553.75
438.057	644.75
438.278	743.75
438.5	741.75
438.721	798.75
438.943	768.75
439.165	617.75
439.386	556.75
439.608	523.75
439.829	556.75
440.05	588.75
440.272	599.75
440.493	582.75
440.715	546.75
440.936	498.75
441.158	476.75
441.379	488.75
441.6	509.75
441.822	518.75
442.043	576.75
442.264	675.75
442.486	676.75
442.707	601.75
442.928	568.75
443.149	554.75
443.371	584.75
443.592	612.75
443.813	709.75
444.034	758.75
444.255	622.75
444.476	551.75
444.698	512.75
444.919	512.75
445.14	594.75
445.361	562.75
445.582	570.75
445.803	650.75
446.024	776.75
446.245	762.75
446.466	695.75
446.687	591.75
446.908	540.75
447.129	502.75
447.35	494.75
447.571	468.75
447.792	502.75
448.013	477.75
448.234	511.75
448.455	565.75
448.675	689.75
448.896	792.75
449.117	668.75
449.338	640.75
449.559	725.75
449.779	822.75
450	662.75
450.221	569.75
450.442	508.75
450.662	481.75
450.883	484.75
451.104	521.75
451.324	506.75
451.545	466.75
451.766	460.75
451.986	444.75
452.207	418.75
452.428	448.75
452.648	448.75
452.869	433.75
453.089	455.75
453.31	472.75
453.53	432.75
453.751	434.75
453.971	445.75
454.192	471.75
454.412	448.75
454.633	455.75
454.853	434.75
455.073	438.75
455.294	455.75
455.514	563.75
455.734	567.75
455.955	437.75
456.175	409.75
456.395	409.75
456.616	406.75
456.836	388.75
457.056	404.75
457.276	398.75
457.497	389.75
457.717	390.75
457.937	427.75
458.157	400.75
458.377	413.75
458.598	456.75
458.818	531.75
459.038	593.75
459.258	611.75
459.478	506.75
459.698	472.75
459.918	463.75
460.138	452.75
460.358	451.75
460.578	425.75
460.798	426.75
461.018	429.75
461.238	449.75
461.458	420.75
461.678	454.75
461.898	429.75
462.118	437.75
462.338	445.75
462.558	426.75
462.777	435.75
462.997	443.75
463.217	436.75
463.437	450.75
463.657	453.75
463.876	448.75
464.096	450.75
464.316	440.75
464.536	428.75
464.755	451.75
464.975	490.75
465.195	510.75
465.414	630.75
465.634	544.75
465.854	488.75
466.073	448.75
466.293	458.75
466.512	426.75
466.732	439.75
466.951	438.75
467.171	452.75
467.391	441.75
467.61	465.75
467.829	460.75
468.049	456.75
468.268	441.75
468.488	429.75
468.707	423.75
468.927	446.75
469.146	413.75
469.365	419.75
469.585	426.75
469.804	430.75
470.023	460.75
470.243	427.75
470.462	445.75
470.681	454.75
470.901	473.75
471.12	450.75
471.339	443.75
471.558	468.75
471.777	462.75
471.997	451.75
472.216	457.75
472.435	505.75
472.654	472.75
472.873	442.75
473.092	448.75
473.311	444.75
473.53	449.75
473.749	460.75
473.968	491.75
474.187	590.75
474.406	633.75
474.625	530.75
474.844	476.75
475.063	434.75
475.282	427.75
475.501	452.75
475.72	452.75
475.939	456.75
476.158	460.75
476.377	440.75
476.596	456.75
476.814	489.75
477.033	458.75
477.252	470.75
477.471	461.75
477.69	467.75
477.908	477.75
478.127	472.75
478.346	487.75
478.564	472.75
478.783	485.75
479.002	484.75
479.22	498.75
479.439	517.75
479.658	525.75
479.876	524.75
480.095	532.75
480.313	573.75
480.532	539.75
480.751	553.75
480.969	556.75
481.188	640.75
481.406	672.75
481.624	595.75
481.843	557.75
482.061	546.75
482.28	538.75
482.498	536.75
482.717	530.75
482.935	514.75
483.153	531.75
483.372	524.75
483.59	522.75
483.808	518.75
484.027	538.75
484.245	536.75
484.463	516.75
484.681	544.75
484.9	542.75
485.118	540.75
485.336	522.75
485.554	546.75
485.772	564.75
485.99	557.75
486.209	554.75
486.427	556.75
486.645	551.75
486.863	580.75
487.081	576.75
487.299	560.75
487.517	568.75
487.735	567.75
487.953	584.75
488.171	557.75
488.389	563.75
488.607	564.75
488.825	574.75
489.043	560.75
489.261	576.75
489.479	580.75
489.696	583.75
489.914	580.75
490.132	584.75
490.35	628.75
490.568	594.75
490.786	615.75
491.003	637.75
491.221	633.75
491.439	644.75
491.657	652.75
491.874	651.75
492.092	667.75
492.31	686.75
492.527	688.75
492.745	678.75
492.963	675.75
493.18	676.75
493.398	693.75
493.615	693.75
493.833	687.75
494.05	691.75
494.268	671.75
494.485	677.75
494.703	686.75
494.92	668.75
495.138	691.75
495.355	696.75
495.573	701.75
495.79	675.75
496.008	677.75
496.225	681.75
496.442	695.75
496.66	700.75
496.877	662.75
497.094	682.75
497.312	685.75
497.529	709.75
497.746	711.75
497.963	683.75
498.181	722.75
498.398	743.75
498.615	720.75
498.832	736.75
499.049	761.75
499.267	752.75
499.484	739.75
499.701	793.75
499.918	760.75
500.135	798.75
500.352	792.75
500.569	824.75
500.786	811.75
501.003	810.75
501.22	809.75
501.437	797.75
501.654	806.75
501.871	789.75
502.088	779.75
502.305	749.75
502.522	745.75
502.739	727.75
502.956	706.75
503.172	676.75
503.389	700.75
503.606	690.75
503.823	692.75
504.04	722.75
504.256	670.75
504.473	670.75
504.69	673.75
504.907	671.75
505.123	641.75
505.34	653.75
505.557	658.75
505.773	657.75
505.99	646.75
506.207	700.75
506.423	657.75
506.64	650.75
506.856	665.75
507.073	652.75
507.289	636.75
507.506	649.75
507.722	688.75
507.939	668.75
508.155	697.75
508.372	642.75
508.588	660.75
508.805	620.75
509.021	639.75
509.238	649.75
509.454	671.75
509.67	679.75
509.887	652.75
510.103	636.75
510.319	648.75
510.536	800.75
510.752	1373.75
510.968	1106.75
511.184	677.75
511.401	638.75
511.617	634.75
511.833	626.75
512.049	614.75
512.265	608.75
512.481	600.75
512.698	611.75
512.914	612.75
513.13	606.75
513.346	616.75
513.562	624.75
513.778	618.75
513.994	630.75
514.21	640.75
514.426	677.75
514.642	739.75
514.858	765.75
515.074	803.75
515.29	1008.75
515.506	1517.75
515.721	1235.75
515.937	808.75
516.153	718.75
516.369	678.75
516.585	648.75
516.801	625.75
517.016	624.75
517.232	622.75
517.448	606.75
517.664	596.75
517.879	603.75
518.095	634.75
518.311	609.75
518.527	619.75
518.742	613.75
518.958	579.75
519.173	604.75
519.389	595.75
519.605	613.75
519.82	593.75
520.036	612.75
520.251	648.75
520.467	670.75
520.682	678.75
520.898	720.75
521.113	730.75
521.329	792.75
521.544	924.75
521.76	1203.75
521.975	2054.75
522.19	2036.75
522.406	1064.75
522.621	788.75
522.836	695.75
523.052	633.75
523.267	613.75
523.482	590.75
523.698	585.75
523.913	566.75
524.128	580.75
524.343	538.75
524.559	536.75
524.774	528.75
524.989	532.75
525.204	525.75
525.419	539.75
525.634	520.75
525.849	527.75
526.064	508.75
526.28	480.75
526.495	506.75
526.71	500.75
526.925	497.75
527.14	489.75
527.355	485.75
527.57	496.75
527.785	500.75
527.999	491.75
528.214	481.75
528.429	481.75
528.644	475.75
528.859	500.75
529.074	480.75
529.289	526.75
529.503	602.75
529.718	606.75
529.933	565.75
530.148	502.75
530.363	494.75
530.577	480.75
530.792	484.75
531.007	477.75
531.221	468.75
531.436	464.75
531.651	486.75
531.865	467.75
532.08	487.75
532.295	472.75
532.509	459.75
532.724	460.75
532.938	461.75
533.153	453.75
533.367	460.75
533.582	456.75
533.796	450.75
534.011	443.75
534.225	454.75
534.44	420.75
534.654	462.75
534.868	437.75
535.083	448.75
535.297	441.75
535.511	463.75
535.726	468.75
535.94	463.75
536.154	442.75
536.369	461.75
536.583	437.75
536.797	445.75
537.011	427.75
537.225	440.75
537.44	436.75
537.654	466.75
537.868	444.75
538.082	432.75
538.296	442.75
538.51	442.75
538.724	449.75
538.938	421.75
539.153	441.75
539.367	472.75
539.581	430.75
539.795	441.75
540.009	452.75
540.222	440.75
540.436	446.75
540.65	448.75
540.864	441.75
541.078	448.75
541.292	453.75
541.506	450.75
541.72	437.75
541.934	436.75
542.147	432.75
542.361	450.75
542.575	414.75
542.789	446.75
543.002	435.75
543.216	438.75
543.43	441.75
543.644	444.75
543.857	430.75
544.071	423.75
544.285	450.75
544.498	427.75
544.712	427.75
544.925	428.75
545.139	436.75
545.352	422.75
545.566	384.75
545.779	413.75
545.993	408.75
546.206	424.75
546.42	406.75
546.633	411.75
546.847	410.75
547.06	401.75
547.274	426.75
547.487	408.75
547.7	407.75
547.914	395.75
548.127	380.75
548.34	404.75
548.554	405.75
548.767	402.75
548.98	396.75
549.193	400.75
549.407	421.75
549.62	406.75
549.833	408.75
550.046	395.75
550.259	391.75
550.473	415.75
550.686	399.75
550.899	397.75
551.112	395.75
551.325	373.75
551.538	391.75
551.751	401.75
551.964	380.75
552.177	392.75
552.39	403.75
552.603	404.75
552.816	395.75
553.029	403.75
553.242	420.75
553.455	413.75
553.667	434.75
553.88	420.75
554.093	432.75
554.306	411.75
554.519	404.75
554.732	403.75
554.944	384.75
555.157	374.75
555.37	398.75
555.583	387.75
555.795	370.75
556.008	373.75
556.221	368.75
556.433	384.75
556.646	374.75
556.859	382.75
557.071	380.75
557.284	377.75
557.496	370.75
557.709	368.75
557.921	374.75
558.134	384.75
558.346	364.75
558.559	380.75
558.771	373.75
558.984	375.75
559.196	352.75
559.409	370.75
559.621	375.75
559.833	360.75
560.046	345.75
560.258	380.75
560.47	353.75
560.683	364.75
560.895	375.75
561.107	360.75
561.32	362.75
561.532	356.75
561.744	356.75
561.956	376.75
562.168	374.75
562.381	346.75
562.593	344.75
562.805	362.75
563.017	341.75
563.229	340.75
563.441	367.75
563.653	360.75
563.865	370.75
564.077	374.75
564.289	354.75
564.501	357.75
564.713	367.75
564.925	370.75
565.137	386.75
565.349	374.75
565.561	370.75
565.773	402.75
565.985	396.75
566.197	378.75
566.408	386.75
566.62	408.75
566.832	388.75
567.044	388.75
567.255	417.75
567.467	386.75
567.679	402.75
567.891	409.75
568.102	396.75
568.314	408.75
568.526	397.75
568.737	371.75
568.949	382.75
569.161	372.75
569.372	366.75
569.584	361.75
569.795	368.75
570.007	366.75
570.218	404.75
570.43	398.75
570.641	375.75
570.853	352.75
571.064	345.75
571.276	354.75
571.487	346.75
571.698	351.75
571.91	346.75
572.121	332.75
572.333	321.75
572.544	344.75
572.755	320.75
572.966	327.75
573.178	320.75
573.389	334.75
573.6	310.75
573.811	322.75
574.023	337.75
574.234	327.75
574.445	328.75
574.656	320.75
574.867	302.75
575.078	322.75
575.289	306.75
575.501	325.75
575.712	323.75
575.923	308.75
576.134	294.75
576.345	315.75
576.556	309.75
576.767	290.75
576.978	323.75
577.188	298.75
577.399	326.75
577.61	325.75
577.821	307.75
578.032	328.75
578.243	352.75
578.454	634.75
578.665	464.75
578.875	310.75
579.086	315.75
579.297	296.75
579.508	298.75
579.718	295.75
579.929	315.75
580.14	294.75
580.35	303.75
580.561	310.75
580.772	300.75
580.982	287.75
581.193	281.75
581.403	287.75
581.614	298.75
581.825	288.75
582.035	287.75
582.246	274.75
582.456	284.75
582.667	269.75
582.877	268.75
583.087	282.75
583.298	300.75
583.508	285.75
583.719	293.75
583.929	292.75
584.139	296.75
584.35	282.75
584.56	279.75
584.77	274.75
584.981	292.75
585.191	285.75
585.401	282.75
585.611	271.75
585.821	283.75
586.032	277.75
586.242	258.75
586.452	285.75
586.662	289.75
586.872	266.75
587.082	295.75
587.292	260.75
587.502	276.75
587.713	266.75
587.923	277.75
588.133	286.75
588.343	275.75
588.553	268.75
588.762	286.75
588.972	280.75
589.182	268.75
589.392	266.75
589.602	270.75
589.812	278.75
590.022	288.75
590.232	259.75
590.441	268.75
590.651	264.75
590.861	265.75
591.071	275.75
591.281	264.75
591.49	267.75
591.7	285.75
591.91	284.75
592.119	271.75
592.329	262.75
592.539	274.75
592.748	275.75
592.958	273.75
593.167	284.75
593.377	276.75
593.587	286.75
593.796	264.75
594.006	288.75
594.215	291.75
594.424	277.75
594.634	265.75
594.843	280.75
595.053	271.75
595.262	267.75
595.472	270.75
595.681	257.75
595.89	259.75
596.1	273.75
596.309	261.75
596.518	260.75
596.727	266.75
596.937	257.75
597.146	264.75
597.355	281.75
597.564	260.75
597.774	266.75
597.983	251.75
598.192	256.75
598.401	260.75
598.61	251.75
598.819	259.75
599.028	258.75
599.237	254.75
599.446	247.75
599.655	242.75
599.864	248.75
600.073	234.75
600.282	244.75
600.491	244.75
600.7	226.75
600.909	241.75
601.118	229.75
601.327	245.75
601.536	236.75
601.745	236.75
601.953	236.75
602.162	241.75
602.371	233.75
602.58	230.75
602.789	232.75
602.997	237.75
603.206	245.75
603.415	241.75
603.623	221.75
603.832	222.75
604.041	199.75
604.249	235.75
604.458	245.75
604.666	240.75
604.875	242.75
605.084	237.75
605.292	224.75
605.501	244.75
605.709	222.75
605.918	226.75
606.126	231.75
606.334	231.75
606.543	238.75
606.751	249.75
606.96	232.75
607.168	225.75
607.376	227.75
607.585	242.75
607.793	244.75
608.001	227.75
608.21	223.75
608.418	225.75
608.626	224.75
608.834	228.75
609.043	232.75
609.251	232.75
609.459	226.75
609.667	223.75
609.875	226.75
610.083	226.75
610.291	211.75
610.499	225.75
610.707	226.75
610.916	233.75
611.124	250.75
611.332	219.75
611.54	240.75
611.748	241.75
611.955	226.75
612.163	217.75
612.371	212.75
612.579	230.75
612.787	221.75
612.995	234.75
613.203	229.75
613.411	227.75
613.618	226.75
613.826	232.75
614.034	240.75
614.242	227.75
614.449	230.75
614.657	210.75
614.865	220.75
615.072	232.75
615.28	227.75
615.488	208.75
615.695	213.75
615.903	221.75
616.111	219.75
616.318	226.75
616.526	220.75
616.733	208.75
616.941	218.75
617.148	212.75
617.356	227.75
617.563	223.75
617.771	219.75
617.978	209.75
618.185	225.75
618.393	205.75
618.6	197.75
618.807	192.75
619.015	212.75
619.222	209.75
619.429	216.75
619.637	210.75
619.844	232.75
620.051	212.75
620.258	224.75
620.466	214.75
620.673	206.75
620.88	209.75
621.087	214.75
621.294	209.75
621.501	219.75
621.708	218.75
621.915	210.75
622.122	217.75
622.329	218.75
622.536	212.75
622.743	202.75
622.95	205.75
623.157	209.75
623.364	215.75
623.571	215.75
623.778	205.75
623.985	208.75
624.192	207.75
624.399	204.75
624.606	200.75
624.812	205.75
625.019	210.75
625.226	193.75
625.433	197.75
625.639	195.75
625.846	214.75
626.053	196.75
626.259	193.75
626.466	201.75
626.673	197.75
626.879	217.75
627.086	206.75
627.293	189.75
627.499	203.75
627.706	192.75
627.912	196.75
628.119	193.75
628.325	179.75
628.532	195.75
628.738	196.75
628.945	182.75
629.151	204.75
629.357	181.75
629.564	172.75
629.77	184.75
629.976	188.75
630.183	186.75
630.389	186.75
630.595	190.75
630.802	184.75
631.008	173.75
631.214	177.75
631.42	184.75
631.627	192.75
631.833	171.75
632.039	198.75
632.245	156.75
632.451	184.75
632.657	173.75
632.863	203.75
633.069	181.75
633.275	199.75
633.481	184.75
633.688	160.75
633.893	178.75
634.099	168.75
634.305	184.75
634.511	200.75
634.717	185.75
634.923	172.75
635.129	186.75
635.335	168.75
635.541	178.75
635.747	174.75
635.952	158.75
636.158	176.75
636.364	170.75
636.57	181.75
636.775	184.75
636.981	170.75
637.187	168.75
637.392	166.75
637.598	169.75
637.804	172.75
638.009	179.75
638.215	180.75
638.421	166.75
638.626	174.75
638.832	177.75
639.037	165.75
639.243	161.75
639.448	178.75
639.654	168.75
639.859	157.75
640.065	161.75
640.27	171.75
640.475	168.75
640.681	161.75
640.886	176.75
641.091	176.75
641.297	156.75
641.502	165.75
641.707	160.75
641.913	170.75
642.118	160.75
642.323	162.75
642.528	160.75
642.733	165.75
642.939	165.75
643.144	173.75
643.349	129.75
643.554	171.75
643.759	164.75
643.964	166.75
644.169	165.75
644.374	151.75
644.579	153.75
644.784	158.75
644.989	158.75
645.194	174.75
645.399	157.75
645.604	163.75
645.809	148.75
646.014	177.75
646.219	154.75
646.423	152.75
646.628	152.75
646.833	145.75
647.038	151.75
647.243	169.75
647.447	155.75
647.652	156.75
647.857	156.75
648.062	155.75
648.266	157.75
648.471	151.75
648.676	154.75
648.88	154.75
649.085	156.75
649.289	148.75
649.494	183.75
649.698	190.75
649.903	193.75
650.107	166.75
650.312	161.75
650.516	146.75
650.721	150.75
650.925	158.75
651.13	146.75
651.334	133.75
651.539	142.75
651.743	141.75
651.947	148.75
652.152	143.75
652.356	146.75
652.56	146.75
652.764	147.75
652.969	141.75
653.173	126.75
653.377	146.75
653.581	137.75
653.785	139.75
653.99	138.75
654.194	142.75
654.398	135.75
654.602	131.75
654.806	118.75
655.01	119.75
655.214	133.75
655.418	130.75
655.622	124.75
655.826	132.75
656.03	128.75
656.234	121.75
656.438	126.75
656.642	116.75
656.846	139.75
657.049	118.75
657.253	110.75
657.457	125.75
657.661	116.75
657.865	109.75
658.068	116.75
658.272	101.75
658.476	106.75
658.68	101.75
658.883	98.75
659.087	93.75
659.291	91.75
659.494	110.75
659.698	96.75
659.901	86.75
660.105	103.75
660.309	97.75
660.512	91.75
660.716	84.75
660.919	65.75
661.123	97.75
661.326	86.75
661.53	83.75
661.733	94.75
661.936	85.75
662.14	88.75
662.343	94.75
662.546	87.75
662.75	90.75
662.953	91.75
663.156	78.75
663.36	81.75
663.563	90.75
663.766	85.75
663.969	84.75
664.173	77.75
664.376	85.75
664.579	82.75
664.782	88.75
664.985	90.75
665.188	85.75
665.391	100.75
665.594	103.75
665.797	84.75
666	92.75
666.203	70.75
666.406	68.75
666.609	67.75
666.812	65.75
667.015	80.75
667.218	86.75
667.421	78.75
667.624	81.75
667.827	79.75
668.03	83.75
668.232	81.75
668.435	81.75
668.638	78.75
668.841	83.75
669.043	92.75
669.246	87.75
669.449	79.75
669.651	82.75
669.854	87.75
670.057	73.75
670.259	73.75
670.462	85.75
670.665	93.75
670.867	79.75
671.07	65.75
671.272	82.75
671.475	69.75
671.677	80.75
671.88	86.75
672.082	89.75
672.284	104.75
672.487	78.75
672.689	92.75
672.892	71.75
