Data from 1980.PennyLincolnUp.Lamp.En5.5.200Scan.071819.P1_HRD10591_16-36-47-957.txt Node
Date: Thu Jul 18 16:36:47 EDT 2019
User: cochatt
Spectrometer: HR+D1059
Trigger mode: 1
Integration Time (sec): 1.000000E-1
Scans to average: 1
Electric dark correction enabled: true
Nonlinearity correction enabled: false
Boxcar width: 0
XAxis mode: Wavelengths
Number of Pixels in Spectrum: 2048
>>>>>Begin Spectral Data<<<<<
223.165	-13.12
223.4	-13.12
223.635	-13.12
223.869	-17.12
224.104	1.88
224.338	-13.12
224.573	-12.12
224.808	-13.12
225.042	-10.12
225.277	-10.12
225.511	-2.12
225.746	1.88
225.98	8.88
226.215	19.88
226.449	10.88
226.683	13.88
226.918	16.88
227.152	16.88
227.387	40.88
227.621	40.88
227.856	30.88
228.09	43.88
228.324	55.88
228.559	56.88
228.793	71.88
229.027	100.88
229.262	96.88
229.496	112.88
229.73	139.88
229.964	160.88
230.199	138.88
230.433	104.88
230.667	125.88
230.901	114.88
231.136	105.88
231.37	114.88
231.604	119.88
231.838	111.88
232.072	128.88
232.306	97.88
232.541	117.88
232.775	122.88
233.009	111.88
233.243	121.88
233.477	120.88
233.711	116.88
233.945	105.88
234.179	107.88
234.413	116.88
234.647	120.88
234.881	110.88
235.115	116.88
235.349	115.88
235.583	112.88
235.817	122.88
236.051	114.88
236.285	129.88
236.519	112.88
236.753	144.88
236.987	162.88
237.221	187.88
237.455	245.88
237.689	187.88
237.922	137.88
238.156	140.88
238.39	129.88
238.624	131.88
238.858	104.88
239.091	132.88
239.325	108.88
239.559	116.88
239.793	132.88
240.027	136.88
240.26	145.88
240.494	165.88
240.728	161.88
240.961	140.88
241.195	140.88
241.429	139.88
241.662	141.88
241.896	124.88
242.13	141.88
242.363	128.88
242.597	142.88
242.83	138.88
243.064	132.88
243.298	140.88
243.531	128.88
243.765	137.88
243.998	129.88
244.232	149.88
244.465	142.88
244.699	143.88
244.932	136.88
245.166	132.88
245.399	148.88
245.633	132.88
245.866	141.88
246.099	143.88
246.333	132.88
246.566	172.88
246.8	162.88
247.033	162.88
247.266	148.88
247.5	162.88
247.733	160.88
247.966	166.88
248.2	171.88
248.433	170.88
248.666	162.88
248.899	188.88
249.133	200.88
249.366	205.88
249.599	223.88
249.832	192.88
250.066	184.88
250.299	177.88
250.532	195.88
250.765	200.88
250.998	224.88
251.231	243.88
251.465	224.88
251.698	207.88
251.931	202.88
252.164	197.88
252.397	198.88
252.63	208.88
252.863	210.88
253.096	219.88
253.329	224.88
253.562	226.88
253.795	228.88
254.028	220.88
254.261	218.88
254.494	236.88
254.727	256.88
254.96	294.88
255.193	265.88
255.426	258.88
255.659	244.88
255.892	245.88
256.124	222.88
256.357	234.88
256.59	213.88
256.823	213.88
257.056	224.88
257.289	189.88
257.521	212.88
257.754	216.88
257.987	210.88
258.22	222.88
258.452	215.88
258.685	204.88
258.918	218.88
259.151	236.88
259.383	204.88
259.616	239.88
259.849	219.88
260.081	216.88
260.314	235.88
260.547	233.88
260.779	256.88
261.012	242.88
261.244	233.88
261.477	222.88
261.71	216.88
261.942	225.88
262.175	240.88
262.407	240.88
262.64	217.88
262.872	219.88
263.105	219.88
263.337	194.88
263.57	210.88
263.802	202.88
264.035	210.88
264.267	226.88
264.499	207.88
264.732	208.88
264.964	197.88
265.197	206.88
265.429	190.88
265.661	195.88
265.894	202.88
266.126	194.88
266.358	216.88
266.591	203.88
266.823	212.88
267.055	222.88
267.287	216.88
267.52	203.88
267.752	207.88
267.984	219.88
268.216	215.88
268.448	223.88
268.681	220.88
268.913	233.88
269.145	248.88
269.377	272.88
269.609	257.88
269.841	263.88
270.073	268.88
270.306	293.88
270.538	312.88
270.77	325.88
271.002	315.88
271.234	306.88
271.466	303.88
271.698	304.88
271.93	320.88
272.162	329.88
272.394	298.88
272.626	305.88
272.858	277.88
273.09	270.88
273.322	267.88
273.553	265.88
273.785	258.88
274.017	240.88
274.249	266.88
274.481	265.88
274.713	240.88
274.945	262.88
275.176	265.88
275.408	262.88
275.64	264.88
275.872	243.88
276.104	250.88
276.335	265.88
276.567	269.88
276.799	275.88
277.031	284.88
277.262	297.88
277.494	324.88
277.726	312.88
277.957	292.88
278.189	267.88
278.421	264.88
278.652	249.88
278.884	255.88
279.115	235.88
279.347	248.88
279.579	267.88
279.81	246.88
280.042	253.88
280.273	264.88
280.505	268.88
280.736	245.88
280.968	261.88
281.199	253.88
281.431	267.88
281.662	245.88
281.894	252.88
282.125	248.88
282.356	258.88
282.588	309.88
282.819	314.88
283.051	265.88
283.282	250.88
283.513	260.88
283.745	262.88
283.976	262.88
284.207	263.88
284.439	270.88
284.67	278.88
284.901	267.88
285.132	258.88
285.364	260.88
285.595	268.88
285.826	261.88
286.057	261.88
286.288	287.88
286.52	269.88
286.751	252.88
286.982	239.88
287.213	259.88
287.444	261.88
287.675	270.88
287.906	254.88
288.138	287.88
288.369	282.88
288.6	276.88
288.831	277.88
289.062	281.88
289.293	268.88
289.524	249.88
289.755	267.88
289.986	277.88
290.217	285.88
290.448	246.88
290.679	267.88
290.91	249.88
291.141	265.88
291.371	260.88
291.602	278.88
291.833	245.88
292.064	268.88
292.295	265.88
292.526	260.88
292.757	286.88
292.987	257.88
293.218	246.88
293.449	268.88
293.68	261.88
293.91	245.88
294.141	268.88
294.372	264.88
294.603	280.88
294.833	259.88
295.064	273.88
295.295	270.88
295.525	280.88
295.756	280.88
295.987	270.88
296.217	306.88
296.448	302.88
296.679	276.88
296.909	274.88
297.14	280.88
297.37	289.88
297.601	277.88
297.831	277.88
298.062	293.88
298.292	270.88
298.523	265.88
298.753	283.88
298.984	286.88
299.214	289.88
299.445	284.88
299.675	288.88
299.905	288.88
300.136	279.88
300.366	278.88
300.597	288.88
300.827	272.88
301.057	294.88
301.288	307.88
301.518	315.88
301.748	292.88
301.979	306.88
302.209	293.88
302.439	292.88
302.669	299.88
302.9	298.88
303.13	292.88
303.36	305.88
303.59	298.88
303.82	300.88
304.051	305.88
304.281	301.88
304.511	311.88
304.741	290.88
304.971	276.88
305.201	277.88
305.431	293.88
305.661	284.88
305.891	295.88
306.121	287.88
306.352	297.88
306.582	300.88
306.812	306.88
307.042	304.88
307.272	295.88
307.502	288.88
307.731	297.88
307.961	313.88
308.191	314.88
308.421	301.88
308.651	296.88
308.881	323.88
309.111	314.88
309.341	321.88
309.571	328.88
309.8	328.88
310.03	347.88
310.26	341.88
310.49	329.88
310.72	345.88
310.949	348.88
311.179	378.88
311.409	377.88
311.639	378.88
311.868	360.88
312.098	356.88
312.328	344.88
312.557	382.88
312.787	386.88
313.017	378.88
313.246	358.88
313.476	362.88
313.706	360.88
313.935	359.88
314.165	364.88
314.394	370.88
314.624	374.88
314.853	358.88
315.083	349.88
315.312	357.88
315.542	334.88
315.771	340.88
316.001	332.88
316.23	336.88
316.46	324.88
316.689	333.88
316.919	337.88
317.148	368.88
317.377	364.88
317.607	352.88
317.836	356.88
318.065	345.88
318.295	344.88
318.524	329.88
318.753	356.88
318.983	345.88
319.212	348.88
319.441	337.88
319.67	359.88
319.9	354.88
320.129	367.88
320.358	378.88
320.587	340.88
320.816	354.88
321.046	363.88
321.275	369.88
321.504	372.88
321.733	374.88
321.962	390.88
322.191	392.88
322.42	408.88
322.649	403.88
322.878	439.88
323.108	455.88
323.337	457.88
323.566	476.88
323.795	501.88
324.024	580.88
324.253	729.88
324.482	1003.88
324.71	1529.88
324.939	2255.88
325.168	2014.88
325.397	1041.88
325.626	672.88
325.855	534.88
326.084	490.88
326.313	492.88
326.542	493.88
326.77	536.88
326.999	652.88
327.228	875.88
327.457	1373.88
327.686	1692.88
327.914	1160.88
328.143	752.88
328.372	647.88
328.6	572.88
328.829	565.88
329.058	578.88
329.287	596.88
329.515	527.88
329.744	505.88
329.972	512.88
330.201	493.88
330.43	566.88
330.658	580.88
330.887	640.88
331.115	599.88
331.344	523.88
331.572	456.88
331.801	451.88
332.03	450.88
332.258	445.88
332.486	410.88
332.715	422.88
332.943	414.88
333.172	427.88
333.4	412.88
333.629	423.88
333.857	434.88
334.085	436.88
334.314	454.88
334.542	494.88
334.771	488.88
334.999	443.88
335.227	423.88
335.455	403.88
335.684	390.88
335.912	380.88
336.14	385.88
336.369	406.88
336.597	417.88
336.825	405.88
337.053	410.88
337.281	387.88
337.51	390.88
337.738	401.88
337.966	399.88
338.194	409.88
338.422	406.88
338.65	406.88
338.878	376.88
339.106	385.88
339.334	392.88
339.562	377.88
339.79	369.88
340.018	374.88
340.246	381.88
340.474	399.88
340.702	390.88
340.93	375.88
341.158	384.88
341.386	380.88
341.614	393.88
341.842	379.88
342.07	404.88
342.298	393.88
342.526	396.88
342.754	365.88
342.981	382.88
343.209	366.88
343.437	405.88
343.665	384.88
343.893	394.88
344.12	407.88
344.348	358.88
344.576	382.88
344.804	392.88
345.031	404.88
345.259	406.88
345.487	428.88
345.714	404.88
345.942	380.88
346.17	393.88
346.397	382.88
346.625	361.88
346.853	379.88
347.08	372.88
347.308	400.88
347.535	408.88
347.763	416.88
347.99	405.88
348.218	388.88
348.445	403.88
348.673	409.88
348.9	404.88
349.128	383.88
349.355	388.88
349.583	360.88
349.81	368.88
350.037	377.88
350.265	388.88
350.492	398.88
350.72	382.88
350.947	393.88
351.174	386.88
351.402	386.88
351.629	376.88
351.856	394.88
352.083	391.88
352.311	404.88
352.538	418.88
352.765	423.88
352.992	389.88
353.22	396.88
353.447	384.88
353.674	366.88
353.901	358.88
354.128	382.88
354.355	364.88
354.583	351.88
354.81	354.88
355.037	363.88
355.264	361.88
355.491	357.88
355.718	375.88
355.945	357.88
356.172	371.88
356.399	351.88
356.626	346.88
356.853	346.88
357.08	345.88
357.307	339.88
357.534	330.88
357.761	340.88
357.988	365.88
358.215	368.88
358.441	360.88
358.668	348.88
358.895	355.88
359.122	354.88
359.349	365.88
359.576	384.88
359.802	418.88
360.029	436.88
360.256	468.88
360.483	453.88
360.709	401.88
360.936	411.88
361.163	406.88
361.39	399.88
361.616	381.88
361.843	367.88
362.07	372.88
362.296	386.88
362.523	395.88
362.749	392.88
362.976	394.88
363.203	373.88
363.429	375.88
363.656	369.88
363.882	376.88
364.109	382.88
364.335	374.88
364.562	369.88
364.788	356.88
365.015	384.88
365.241	381.88
365.468	374.88
365.694	372.88
365.92	373.88
366.147	398.88
366.373	353.88
366.599	353.88
366.826	347.88
367.052	352.88
367.278	350.88
367.505	383.88
367.731	364.88
367.957	353.88
368.184	366.88
368.41	378.88
368.636	378.88
368.862	361.88
369.089	380.88
369.315	357.88
369.541	368.88
369.767	358.88
369.993	350.88
370.219	357.88
370.445	352.88
370.672	371.88
370.898	342.88
371.124	360.88
371.35	343.88
371.576	350.88
371.802	364.88
372.028	368.88
372.254	366.88
372.48	365.88
372.706	347.88
372.932	360.88
373.158	343.88
373.384	360.88
373.61	354.88
373.835	355.88
374.061	346.88
374.287	362.88
374.513	373.88
374.739	352.88
374.965	376.88
375.191	345.88
375.416	338.88
375.642	350.88
375.868	360.88
376.094	342.88
376.319	354.88
376.545	355.88
376.771	358.88
376.997	369.88
377.222	357.88
377.448	364.88
377.674	357.88
377.899	379.88
378.125	352.88
378.35	360.88
378.576	354.88
378.802	344.88
379.027	354.88
379.253	363.88
379.478	363.88
379.704	361.88
379.929	350.88
380.155	369.88
380.38	347.88
380.606	365.88
380.831	357.88
381.057	373.88
381.282	343.88
381.507	372.88
381.733	352.88
381.958	364.88
382.184	344.88
382.409	368.88
382.634	373.88
382.86	360.88
383.085	362.88
383.31	353.88
383.535	371.88
383.761	358.88
383.986	368.88
384.211	378.88
384.436	390.88
384.662	362.88
384.887	359.88
385.112	355.88
385.337	390.88
385.562	369.88
385.787	391.88
386.013	399.88
386.238	404.88
386.463	380.88
386.688	370.88
386.913	386.88
387.138	359.88
387.363	384.88
387.588	392.88
387.813	398.88
388.038	390.88
388.263	378.88
388.488	369.88
388.713	357.88
388.938	374.88
389.163	382.88
389.387	379.88
389.612	380.88
389.837	372.88
390.062	374.88
390.287	379.88
390.512	376.88
390.736	360.88
390.961	365.88
391.186	376.88
391.411	363.88
391.636	359.88
391.86	372.88
392.085	404.88
392.31	379.88
392.534	377.88
392.759	397.88
392.984	371.88
393.208	377.88
393.433	391.88
393.658	382.88
393.882	381.88
394.107	387.88
394.331	386.88
394.556	370.88
394.78	388.88
395.005	372.88
395.229	380.88
395.454	379.88
395.678	385.88
395.903	410.88
396.127	437.88
396.352	421.88
396.576	395.88
396.801	391.88
397.025	411.88
397.249	408.88
397.474	396.88
397.698	400.88
397.922	412.88
398.147	431.88
398.371	406.88
398.595	409.88
398.82	406.88
399.044	417.88
399.268	434.88
399.492	444.88
399.717	455.88
399.941	502.88
400.165	525.88
400.389	541.88
400.613	488.88
400.837	462.88
401.062	441.88
401.286	439.88
401.51	437.88
401.734	419.88
401.958	429.88
402.182	430.88
402.406	444.88
402.63	445.88
402.854	467.88
403.078	442.88
403.302	448.88
403.526	452.88
403.75	460.88
403.974	452.88
404.198	433.88
404.422	426.88
404.645	442.88
404.869	456.88
405.093	496.88
405.317	517.88
405.541	544.88
405.765	509.88
405.988	472.88
406.212	503.88
406.436	524.88
406.66	514.88
406.883	504.88
407.107	517.88
407.331	548.88
407.555	617.88
407.778	611.88
408.002	549.88
408.226	491.88
408.449	494.88
408.673	490.88
408.896	510.88
409.12	562.88
409.344	530.88
409.567	483.88
409.791	466.88
410.014	467.88
410.238	464.88
410.461	466.88
410.685	466.88
410.908	460.88
411.132	524.88
411.355	545.88
411.578	522.88
411.802	466.88
412.025	440.88
412.249	454.88
412.472	462.88
412.695	503.88
412.919	514.88
413.142	443.88
413.365	446.88
413.589	439.88
413.812	419.88
414.035	441.88
414.258	436.88
414.482	420.88
414.705	422.88
414.928	416.88
415.151	414.88
415.374	421.88
415.597	404.88
415.821	418.88
416.044	418.88
416.267	436.88
416.49	435.88
416.713	424.88
416.936	422.88
417.159	411.88
417.382	442.88
417.605	446.88
417.828	446.88
418.051	473.88
418.274	449.88
418.497	457.88
418.72	427.88
418.943	426.88
419.166	449.88
419.389	456.88
419.611	447.88
419.834	451.88
420.057	436.88
420.28	463.88
420.503	451.88
420.726	435.88
420.948	467.88
421.171	523.88
421.394	530.88
421.617	476.88
421.839	465.88
422.062	449.88
422.285	469.88
422.507	526.88
422.73	595.88
422.953	609.88
423.175	504.88
423.398	472.88
423.621	472.88
423.843	482.88
424.066	489.88
424.288	479.88
424.511	493.88
424.733	557.88
424.956	649.88
425.178	626.88
425.401	629.88
425.623	616.88
425.846	544.88
426.068	501.88
426.291	499.88
426.513	501.88
426.735	519.88
426.958	568.88
427.18	640.88
427.402	765.88
427.625	845.88
427.847	747.88
428.069	642.88
428.292	570.88
428.514	516.88
428.736	482.88
428.958	463.88
429.181	468.88
429.403	462.88
429.625	482.88
429.847	486.88
430.069	570.88
430.292	587.88
430.514	491.88
430.736	471.88
430.958	459.88
431.18	462.88
431.402	437.88
431.624	432.88
431.846	425.88
432.068	441.88
432.29	442.88
432.512	449.88
432.734	462.88
432.956	449.88
433.178	437.88
433.4	449.88
433.622	433.88
433.844	425.88
434.066	437.88
434.287	433.88
434.509	444.88
434.731	444.88
434.953	437.88
435.175	458.88
435.397	497.88
435.618	496.88
435.84	530.88
436.062	638.88
436.284	689.88
436.505	573.88
436.727	501.88
436.949	497.88
437.17	474.88
437.392	477.88
437.614	496.88
437.835	539.88
438.057	626.88
438.278	728.88
438.5	715.88
438.721	772.88
438.943	734.88
439.165	608.88
439.386	525.88
439.608	556.88
439.829	529.88
440.05	544.88
440.272	600.88
440.493	577.88
440.715	521.88
440.936	472.88
441.158	468.88
441.379	465.88
441.6	490.88
441.822	504.88
442.043	561.88
442.264	616.88
442.486	660.88
442.707	577.88
442.928	533.88
443.149	541.88
443.371	560.88
443.592	567.88
443.813	678.88
444.034	742.88
444.255	605.88
444.476	531.88
444.698	528.88
444.919	514.88
445.14	580.88
445.361	575.88
445.582	578.88
445.803	611.88
446.024	725.88
446.245	727.88
446.466	654.88
446.687	578.88
446.908	514.88
447.129	500.88
447.35	461.88
447.571	481.88
447.792	454.88
448.013	478.88
448.234	480.88
448.455	551.88
448.675	646.88
448.896	739.88
449.117	650.88
449.338	611.88
449.559	715.88
449.779	793.88
450	649.88
450.221	547.88
450.442	500.88
450.662	478.88
450.883	485.88
451.104	498.88
451.324	478.88
451.545	448.88
451.766	440.88
451.986	446.88
452.207	422.88
452.428	429.88
452.648	424.88
452.869	431.88
453.089	438.88
453.31	438.88
453.53	443.88
453.751	413.88
453.971	422.88
454.192	440.88
454.412	423.88
454.633	395.88
454.853	412.88
455.073	432.88
455.294	460.88
455.514	518.88
455.734	505.88
455.955	426.88
456.175	396.88
456.395	401.88
456.616	395.88
456.836	380.88
457.056	383.88
457.276	396.88
457.497	402.88
457.717	407.88
457.937	384.88
458.157	400.88
458.377	415.88
458.598	413.88
458.818	496.88
459.038	562.88
459.258	584.88
459.478	499.88
459.698	450.88
459.918	442.88
460.138	432.88
460.358	405.88
460.578	439.88
460.798	442.88
461.018	457.88
461.238	428.88
461.458	403.88
461.678	410.88
461.898	417.88
462.118	429.88
462.338	427.88
462.558	427.88
462.777	438.88
462.997	436.88
463.217	443.88
463.437	433.88
463.657	426.88
463.876	452.88
464.096	460.88
464.316	460.88
464.536	466.88
464.755	452.88
464.975	441.88
465.195	521.88
465.414	589.88
465.634	516.88
465.854	476.88
466.073	461.88
466.293	450.88
466.512	422.88
466.732	421.88
466.951	409.88
467.171	410.88
467.391	425.88
467.61	438.88
467.829	428.88
468.049	437.88
468.268	436.88
468.488	451.88
468.707	416.88
468.927	412.88
469.146	408.88
469.365	419.88
469.585	388.88
469.804	410.88
470.023	439.88
470.243	439.88
470.462	429.88
470.681	459.88
470.901	451.88
471.12	436.88
471.339	431.88
471.558	446.88
471.777	430.88
471.997	413.88
472.216	428.88
472.435	474.88
472.654	474.88
472.873	463.88
473.092	453.88
473.311	408.88
473.53	429.88
473.749	440.88
473.968	478.88
474.187	585.88
474.406	632.88
474.625	513.88
474.844	466.88
475.063	434.88
475.282	430.88
475.501	441.88
475.72	445.88
475.939	440.88
476.158	435.88
476.377	453.88
476.596	460.88
476.814	443.88
477.033	442.88
477.252	457.88
477.471	442.88
477.69	454.88
477.908	470.88
478.127	472.88
478.346	449.88
478.564	475.88
478.783	475.88
479.002	475.88
479.22	490.88
479.439	497.88
479.658	499.88
479.876	490.88
480.095	526.88
480.313	554.88
480.532	533.88
480.751	535.88
480.969	534.88
481.188	588.88
481.406	610.88
481.624	558.88
481.843	520.88
482.061	548.88
482.28	531.88
482.498	514.88
482.717	496.88
482.935	513.88
483.153	520.88
483.372	514.88
483.59	490.88
483.808	515.88
484.027	515.88
484.245	508.88
484.463	517.88
484.681	514.88
484.9	527.88
485.118	514.88
485.336	519.88
485.554	540.88
485.772	521.88
485.99	534.88
486.209	540.88
486.427	527.88
486.645	542.88
486.863	547.88
487.081	548.88
487.299	553.88
487.517	540.88
487.735	526.88
487.953	539.88
488.171	547.88
488.389	564.88
488.607	556.88
488.825	552.88
489.043	551.88
489.261	572.88
489.479	545.88
489.696	566.88
489.914	581.88
490.132	574.88
490.35	610.88
490.568	581.88
490.786	597.88
491.003	592.88
491.221	616.88
491.439	647.88
491.657	619.88
491.874	672.88
492.092	649.88
492.31	650.88
492.527	635.88
492.745	632.88
492.963	666.88
493.18	645.88
493.398	659.88
493.615	675.88
493.833	657.88
494.05	673.88
494.268	641.88
494.485	654.88
494.703	672.88
494.92	666.88
495.138	652.88
495.355	641.88
495.573	670.88
495.79	669.88
496.008	658.88
496.225	641.88
496.442	647.88
496.66	646.88
496.877	660.88
497.094	657.88
497.312	656.88
497.529	665.88
497.746	683.88
497.963	655.88
498.181	683.88
498.398	709.88
498.615	724.88
498.832	704.88
499.049	717.88
499.267	711.88
499.484	748.88
499.701	772.88
499.918	761.88
500.135	773.88
500.352	824.88
500.569	822.88
500.786	842.88
501.003	836.88
501.22	843.88
501.437	791.88
501.654	797.88
501.871	808.88
502.088	790.88
502.305	746.88
502.522	722.88
502.739	729.88
502.956	715.88
503.172	688.88
503.389	701.88
503.606	697.88
503.823	686.88
504.04	672.88
504.256	677.88
504.473	667.88
504.69	683.88
504.907	645.88
505.123	648.88
505.34	646.88
505.557	660.88
505.773	638.88
505.99	663.88
506.207	624.88
506.423	628.88
506.64	642.88
506.856	630.88
507.073	624.88
507.289	611.88
507.506	616.88
507.722	639.88
507.939	657.88
508.155	648.88
508.372	634.88
508.588	619.88
508.805	626.88
509.021	600.88
509.238	631.88
509.454	646.88
509.67	608.88
509.887	637.88
510.103	605.88
510.319	652.88
510.536	741.88
510.752	1269.88
510.968	1028.88
511.184	656.88
511.401	609.88
511.617	600.88
511.833	594.88
512.049	557.88
512.265	576.88
512.481	584.88
512.698	585.88
512.914	569.88
513.13	588.88
513.346	598.88
513.562	591.88
513.778	564.88
513.994	594.88
514.21	586.88
514.426	642.88
514.642	673.88
514.858	728.88
515.074	750.88
515.29	888.88
515.506	1410.88
515.721	1144.88
515.937	725.88
516.153	664.88
516.369	618.88
516.585	605.88
516.801	617.88
517.016	570.88
517.232	607.88
517.448	602.88
517.664	557.88
517.879	569.88
518.095	569.88
518.311	577.88
518.527	585.88
518.742	585.88
518.958	589.88
519.173	566.88
519.389	574.88
519.605	582.88
519.82	587.88
520.036	598.88
520.251	635.88
520.467	674.88
520.682	644.88
520.898	676.88
521.113	678.88
521.329	724.88
521.544	875.88
521.76	1110.88
521.975	1887.88
522.19	1840.88
522.406	979.88
522.621	717.88
522.836	628.88
523.052	577.88
523.267	558.88
523.482	557.88
523.698	560.88
523.913	528.88
524.128	553.88
524.343	536.88
524.559	506.88
524.774	484.88
524.989	499.88
525.204	530.88
525.419	520.88
525.634	498.88
525.849	503.88
526.064	490.88
526.28	489.88
526.495	489.88
526.71	461.88
526.925	445.88
527.14	473.88
527.355	471.88
527.57	486.88
527.785	482.88
527.999	449.88
528.214	466.88
528.429	471.88
528.644	466.88
528.859	459.88
529.074	472.88
529.289	509.88
529.503	608.88
529.718	571.88
529.933	512.88
530.148	461.88
530.363	490.88
530.577	461.88
530.792	467.88
531.007	448.88
531.221	452.88
531.436	465.88
531.651	439.88
531.865	468.88
532.08	428.88
532.295	455.88
532.509	441.88
532.724	436.88
532.938	445.88
533.153	456.88
533.367	448.88
533.582	460.88
533.796	430.88
534.011	428.88
534.225	433.88
534.44	421.88
534.654	438.88
534.868	434.88
535.083	437.88
535.297	434.88
535.511	444.88
535.726	456.88
535.94	458.88
536.154	421.88
536.369	450.88
536.583	436.88
536.797	423.88
537.011	435.88
537.225	435.88
537.44	410.88
537.654	426.88
537.868	418.88
538.082	426.88
538.296	434.88
538.51	423.88
538.724	424.88
538.938	441.88
539.153	440.88
539.367	450.88
539.581	459.88
539.795	439.88
540.009	403.88
540.222	433.88
540.436	434.88
540.65	429.88
540.864	423.88
541.078	428.88
541.292	414.88
541.506	413.88
541.72	437.88
541.934	439.88
542.147	426.88
542.361	440.88
542.575	417.88
542.789	406.88
543.002	398.88
543.216	405.88
543.43	426.88
543.644	424.88
543.857	412.88
544.071	424.88
544.285	418.88
544.498	419.88
544.712	416.88
544.925	413.88
545.139	411.88
545.352	422.88
545.566	406.88
545.779	414.88
545.993	403.88
546.206	414.88
546.42	409.88
546.633	425.88
546.847	412.88
547.06	415.88
547.274	389.88
547.487	413.88
547.7	411.88
547.914	395.88
548.127	397.88
548.34	405.88
548.554	389.88
548.767	403.88
548.98	396.88
549.193	389.88
549.407	392.88
549.62	378.88
549.833	393.88
550.046	394.88
550.259	409.88
550.473	388.88
550.686	384.88
550.899	402.88
551.112	379.88
551.325	382.88
551.538	373.88
551.751	393.88
551.964	376.88
552.177	390.88
552.39	414.88
552.603	404.88
552.816	390.88
553.029	397.88
553.242	387.88
553.455	406.88
553.667	426.88
553.88	430.88
554.093	412.88
554.306	398.88
554.519	394.88
554.732	395.88
554.944	392.88
555.157	387.88
555.37	402.88
555.583	389.88
555.795	377.88
556.008	380.88
556.221	356.88
556.433	384.88
556.646	375.88
556.859	363.88
557.071	376.88
557.284	370.88
557.496	358.88
557.709	375.88
557.921	372.88
558.134	377.88
558.346	378.88
558.559	347.88
558.771	349.88
558.984	353.88
559.196	362.88
559.409	377.88
559.621	368.88
559.833	353.88
560.046	350.88
560.258	386.88
560.47	336.88
560.683	349.88
560.895	376.88
561.107	368.88
561.32	366.88
561.532	346.88
561.744	351.88
561.956	378.88
562.168	358.88
562.381	361.88
562.593	350.88
562.805	359.88
563.017	348.88
563.229	358.88
563.441	352.88
563.653	353.88
563.865	347.88
564.077	361.88
564.289	346.88
564.501	373.88
564.713	354.88
564.925	372.88
565.137	388.88
565.349	394.88
565.561	382.88
565.773	385.88
565.985	369.88
566.197	380.88
566.408	398.88
566.62	408.88
566.832	388.88
567.044	400.88
567.255	410.88
567.467	408.88
567.679	420.88
567.891	405.88
568.102	416.88
568.314	401.88
568.526	407.88
568.737	384.88
568.949	394.88
569.161	366.88
569.372	357.88
569.584	370.88
569.795	360.88
570.007	363.88
570.218	399.88
570.43	370.88
570.641	339.88
570.853	326.88
571.064	340.88
571.276	348.88
571.487	343.88
571.698	336.88
571.91	326.88
572.121	336.88
572.333	342.88
572.544	308.88
572.755	325.88
572.966	331.88
573.178	318.88
573.389	324.88
573.6	325.88
573.811	311.88
574.023	314.88
574.234	322.88
574.445	310.88
574.656	295.88
574.867	300.88
575.078	313.88
575.289	298.88
575.501	300.88
575.712	308.88
575.923	315.88
576.134	303.88
576.345	305.88
576.556	303.88
576.767	305.88
576.978	300.88
577.188	313.88
577.399	298.88
577.61	298.88
577.821	318.88
578.032	301.88
578.243	370.88
578.454	582.88
578.665	438.88
578.875	311.88
579.086	282.88
579.297	294.88
579.508	294.88
579.718	306.88
579.929	290.88
580.14	283.88
580.35	293.88
580.561	297.88
580.772	279.88
580.982	269.88
581.193	278.88
581.403	275.88
581.614	288.88
581.825	291.88
582.035	278.88
582.246	281.88
582.456	277.88
582.667	279.88
582.877	277.88
583.087	274.88
583.298	280.88
583.508	276.88
583.719	263.88
583.929	282.88
584.139	299.88
584.35	284.88
584.56	294.88
584.77	265.88
584.981	272.88
585.191	270.88
585.401	275.88
585.611	269.88
585.821	276.88
586.032	287.88
586.242	280.88
586.452	281.88
586.662	278.88
586.872	269.88
587.082	270.88
587.292	277.88
587.502	256.88
587.713	287.88
587.923	285.88
588.133	275.88
588.343	257.88
588.553	280.88
588.762	279.88
588.972	280.88
589.182	267.88
589.392	282.88
589.602	276.88
589.812	268.88
590.022	290.88
590.232	278.88
590.441	247.88
590.651	252.88
590.861	260.88
591.071	256.88
591.281	277.88
591.49	260.88
591.7	278.88
591.91	275.88
592.119	270.88
592.329	281.88
592.539	272.88
592.748	288.88
592.958	284.88
593.167	275.88
593.377	275.88
593.587	270.88
593.796	274.88
594.006	269.88
594.215	292.88
594.424	276.88
594.634	280.88
594.843	256.88
595.053	288.88
595.262	275.88
595.472	261.88
595.681	252.88
595.89	252.88
596.1	266.88
596.309	265.88
596.518	261.88
596.727	265.88
596.937	263.88
597.146	269.88
597.355	264.88
597.564	260.88
597.774	244.88
597.983	256.88
598.192	246.88
598.401	254.88
598.61	228.88
598.819	254.88
599.028	264.88
599.237	238.88
599.446	244.88
599.655	226.88
599.864	256.88
600.073	257.88
600.282	257.88
600.491	252.88
600.7	250.88
600.909	258.88
601.118	248.88
601.327	249.88
601.536	229.88
601.745	235.88
601.953	249.88
602.162	236.88
602.371	230.88
602.58	240.88
602.789	252.88
602.997	235.88
603.206	231.88
603.415	273.88
603.623	240.88
603.832	239.88
604.041	244.88
604.249	252.88
604.458	231.88
604.666	221.88
604.875	245.88
605.084	211.88
605.292	219.88
605.501	226.88
605.709	233.88
605.918	233.88
606.126	226.88
606.334	225.88
606.543	223.88
606.751	253.88
606.96	228.88
607.168	246.88
607.376	224.88
607.585	223.88
607.793	222.88
608.001	230.88
608.21	211.88
608.418	230.88
608.626	223.88
608.834	238.88
609.043	221.88
609.251	235.88
609.459	226.88
609.667	228.88
609.875	231.88
610.083	219.88
610.291	223.88
610.499	223.88
610.707	218.88
610.916	241.88
611.124	222.88
611.332	230.88
611.54	236.88
611.748	232.88
611.955	226.88
612.163	227.88
612.371	221.88
612.579	220.88
612.787	231.88
612.995	217.88
613.203	235.88
613.411	232.88
613.618	218.88
613.826	225.88
614.034	222.88
614.242	208.88
614.449	219.88
614.657	219.88
614.865	220.88
615.072	219.88
615.28	214.88
615.488	202.88
615.695	228.88
615.903	218.88
616.111	207.88
616.318	219.88
616.526	208.88
616.733	225.88
616.941	207.88
617.148	207.88
617.356	195.88
617.563	231.88
617.771	226.88
617.978	208.88
618.185	200.88
618.393	218.88
618.6	224.88
618.807	209.88
619.015	221.88
619.222	210.88
619.429	218.88
619.637	215.88
619.844	218.88
620.051	228.88
620.258	210.88
620.466	203.88
620.673	201.88
620.88	178.88
621.087	209.88
621.294	201.88
621.501	215.88
621.708	222.88
621.915	225.88
622.122	205.88
622.329	200.88
622.536	208.88
622.743	206.88
622.95	203.88
623.157	197.88
623.364	189.88
623.571	206.88
623.778	205.88
623.985	213.88
624.192	203.88
624.399	206.88
624.606	204.88
624.812	199.88
625.019	189.88
625.226	192.88
625.433	205.88
625.639	196.88
625.846	196.88
626.053	178.88
626.259	206.88
626.466	195.88
626.673	172.88
626.879	194.88
627.086	190.88
627.293	186.88
627.499	195.88
627.706	193.88
627.912	202.88
628.119	188.88
628.325	190.88
628.532	200.88
628.738	197.88
628.945	176.88
629.151	199.88
629.357	188.88
629.564	203.88
629.77	193.88
629.976	179.88
630.183	181.88
630.389	195.88
630.595	186.88
630.802	181.88
631.008	194.88
631.214	170.88
631.42	190.88
631.627	200.88
631.833	186.88
632.039	180.88
632.245	189.88
632.451	175.88
632.657	180.88
632.863	167.88
633.069	187.88
633.275	189.88
633.481	181.88
633.688	193.88
633.893	176.88
634.099	177.88
634.305	179.88
634.511	179.88
634.717	164.88
634.923	163.88
635.129	178.88
635.335	173.88
635.541	165.88
635.747	164.88
635.952	168.88
636.158	172.88
636.364	164.88
636.57	158.88
636.775	165.88
636.981	182.88
637.187	172.88
637.392	170.88
637.598	189.88
637.804	165.88
638.009	184.88
638.215	158.88
638.421	162.88
638.626	166.88
638.832	170.88
639.037	174.88
639.243	150.88
639.448	162.88
639.654	179.88
639.859	173.88
640.065	172.88
640.27	171.88
640.475	151.88
640.681	182.88
640.886	146.88
641.091	152.88
641.297	164.88
641.502	151.88
641.707	171.88
641.913	152.88
642.118	162.88
642.323	160.88
642.528	160.88
642.733	161.88
642.939	156.88
643.144	160.88
643.349	153.88
643.554	160.88
643.759	156.88
643.964	148.88
644.169	153.88
644.374	148.88
644.579	160.88
644.784	156.88
644.989	155.88
645.194	162.88
645.399	150.88
645.604	150.88
645.809	153.88
646.014	153.88
646.219	160.88
646.423	158.88
646.628	157.88
646.833	145.88
647.038	151.88
647.243	168.88
647.447	153.88
647.652	155.88
647.857	171.88
648.062	155.88
648.266	155.88
648.471	154.88
648.676	150.88
648.88	173.88
649.085	176.88
649.289	152.88
649.494	158.88
649.698	187.88
649.903	180.88
650.107	160.88
650.312	155.88
650.516	156.88
650.721	154.88
650.925	145.88
651.13	156.88
651.334	141.88
651.539	153.88
651.743	141.88
651.947	136.88
652.152	142.88
652.356	156.88
652.56	140.88
652.764	144.88
652.969	122.88
653.173	132.88
653.377	121.88
653.581	132.88
653.785	136.88
653.99	126.88
654.194	136.88
654.398	127.88
654.602	130.88
654.806	131.88
655.01	142.88
655.214	136.88
655.418	129.88
655.622	132.88
655.826	120.88
656.03	123.88
656.234	106.88
656.438	114.88
656.642	121.88
656.846	129.88
657.049	117.88
657.253	114.88
657.457	109.88
657.661	113.88
657.865	116.88
658.068	106.88
658.272	107.88
658.476	99.88
658.68	86.88
658.883	93.88
659.087	93.88
659.291	90.88
659.494	108.88
659.698	92.88
659.901	89.88
660.105	103.88
660.309	100.88
660.512	91.88
660.716	104.88
660.919	91.88
661.123	91.88
661.326	89.88
661.53	84.88
661.733	96.88
661.936	100.88
662.14	84.88
662.343	89.88
662.546	71.88
662.75	73.88
662.953	78.88
663.156	94.88
663.36	87.88
663.563	96.88
663.766	81.88
663.969	84.88
664.173	86.88
664.376	81.88
664.579	94.88
664.782	86.88
664.985	95.88
665.188	86.88
665.391	78.88
665.594	86.88
665.797	73.88
666	79.88
666.203	88.88
666.406	93.88
666.609	73.88
666.812	92.88
667.015	86.88
667.218	83.88
667.421	73.88
667.624	82.88
667.827	93.88
668.03	88.88
668.232	89.88
668.435	96.88
668.638	89.88
668.841	78.88
669.043	76.88
669.246	92.88
669.449	88.88
669.651	91.88
669.854	81.88
670.057	82.88
670.259	70.88
670.462	82.88
670.665	86.88
670.867	85.88
671.07	86.88
671.272	86.88
671.475	89.88
671.677	77.88
671.88	78.88
672.082	83.88
672.284	76.88
672.487	86.88
672.689	84.88
672.892	77.88
