Data from 1980.PennyLincolnUp.Lamp.En5.5.200Scan.071819.P1_HRD10591_16-37-20-957.txt Node
Date: Thu Jul 18 16:37:20 EDT 2019
User: cochatt
Spectrometer: HR+D1059
Trigger mode: 1
Integration Time (sec): 1.000000E-1
Scans to average: 1
Electric dark correction enabled: true
Nonlinearity correction enabled: false
Boxcar width: 0
XAxis mode: Wavelengths
Number of Pixels in Spectrum: 2048
>>>>>Begin Spectral Data<<<<<
223.165	-21.62
223.4	-21.62
223.635	-21.62
223.869	-9.62
224.104	-22.62
224.338	-23.62
224.573	-23.62
224.808	-10.62
225.042	2.38
225.277	2.38
225.511	-7.62
225.746	25.38
225.98	3.38
226.215	-2.62
226.449	29.38
226.683	21.38
226.918	13.38
227.152	24.38
227.387	39.38
227.621	49.38
227.856	55.38
228.09	45.38
228.324	44.38
228.559	60.38
228.793	78.38
229.027	112.38
229.262	122.38
229.496	126.38
229.73	128.38
229.964	167.38
230.199	147.38
230.433	109.38
230.667	110.38
230.901	110.38
231.136	112.38
231.37	114.38
231.604	109.38
231.838	110.38
232.072	107.38
232.306	135.38
232.541	109.38
232.775	109.38
233.009	103.38
233.243	125.38
233.477	120.38
233.711	109.38
233.945	120.38
234.179	128.38
234.413	122.38
234.647	116.38
234.881	114.38
235.115	116.38
235.349	110.38
235.583	120.38
235.817	118.38
236.051	129.38
236.285	137.38
236.519	126.38
236.753	134.38
236.987	144.38
237.221	200.38
237.455	243.38
237.689	204.38
237.922	150.38
238.156	140.38
238.39	124.38
238.624	138.38
238.858	140.38
239.091	122.38
239.325	126.38
239.559	135.38
239.793	129.38
240.027	125.38
240.26	129.38
240.494	156.38
240.728	147.38
240.961	158.38
241.195	144.38
241.429	138.38
241.662	139.38
241.896	138.38
242.13	137.38
242.363	128.38
242.597	129.38
242.83	144.38
243.064	144.38
243.298	143.38
243.531	135.38
243.765	134.38
243.998	144.38
244.232	131.38
244.465	129.38
244.699	144.38
244.932	140.38
245.166	132.38
245.399	141.38
245.633	151.38
245.866	154.38
246.099	151.38
246.333	146.38
246.566	150.38
246.8	161.38
247.033	160.38
247.266	164.38
247.5	160.38
247.733	170.38
247.966	174.38
248.2	170.38
248.433	180.38
248.666	184.38
248.899	179.38
249.133	198.38
249.366	214.38
249.599	217.38
249.832	177.38
250.066	173.38
250.299	173.38
250.532	184.38
250.765	200.38
250.998	217.38
251.231	234.38
251.465	217.38
251.698	215.38
251.931	209.38
252.164	199.38
252.397	192.38
252.63	207.38
252.863	217.38
253.096	223.38
253.329	232.38
253.562	264.38
253.795	238.38
254.028	215.38
254.261	208.38
254.494	230.38
254.727	270.38
254.96	295.38
255.193	286.38
255.426	272.38
255.659	249.38
255.892	233.38
256.124	238.38
256.357	250.38
256.59	240.38
256.823	231.38
257.056	199.38
257.289	208.38
257.521	204.38
257.754	200.38
257.987	217.38
258.22	213.38
258.452	204.38
258.685	208.38
258.918	201.38
259.151	214.38
259.383	222.38
259.616	214.38
259.849	222.38
260.081	238.38
260.314	263.38
260.547	261.38
260.779	263.38
261.012	233.38
261.244	206.38
261.477	233.38
261.71	237.38
261.942	241.38
262.175	235.38
262.407	236.38
262.64	220.38
262.872	214.38
263.105	205.38
263.337	205.38
263.57	212.38
263.802	224.38
264.035	213.38
264.267	210.38
264.499	208.38
264.732	221.38
264.964	233.38
265.197	219.38
265.429	214.38
265.661	205.38
265.894	205.38
266.126	205.38
266.358	199.38
266.591	207.38
266.823	198.38
267.055	215.38
267.287	220.38
267.52	222.38
267.752	228.38
267.984	210.38
268.216	217.38
268.448	231.38
268.681	237.38
268.913	232.38
269.145	261.38
269.377	277.38
269.609	267.38
269.841	279.38
270.073	284.38
270.306	300.38
270.538	314.38
270.77	324.38
271.002	300.38
271.234	314.38
271.466	304.38
271.698	313.38
271.93	303.38
272.162	323.38
272.394	317.38
272.626	303.38
272.858	306.38
273.09	283.38
273.322	286.38
273.553	249.38
273.785	261.38
274.017	274.38
274.249	276.38
274.481	264.38
274.713	254.38
274.945	272.38
275.176	245.38
275.408	270.38
275.64	254.38
275.872	247.38
276.104	246.38
276.335	262.38
276.567	252.38
276.799	266.38
277.031	312.38
277.262	304.38
277.494	316.38
277.726	303.38
277.957	279.38
278.189	286.38
278.421	251.38
278.652	273.38
278.884	266.38
279.115	246.38
279.347	248.38
279.579	257.38
279.81	240.38
280.042	247.38
280.273	259.38
280.505	265.38
280.736	250.38
280.968	253.38
281.199	273.38
281.431	264.38
281.662	239.38
281.894	266.38
282.125	258.38
282.356	287.38
282.588	298.38
282.819	294.38
283.051	249.38
283.282	270.38
283.513	263.38
283.745	264.38
283.976	272.38
284.207	268.38
284.439	244.38
284.67	272.38
284.901	270.38
285.132	273.38
285.364	278.38
285.595	274.38
285.826	252.38
286.057	260.38
286.288	258.38
286.52	252.38
286.751	265.38
286.982	249.38
287.213	251.38
287.444	269.38
287.675	286.38
287.906	280.38
288.138	287.38
288.369	285.38
288.6	298.38
288.831	281.38
289.062	273.38
289.293	272.38
289.524	274.38
289.755	250.38
289.986	251.38
290.217	263.38
290.448	263.38
290.679	279.38
290.91	276.38
291.141	281.38
291.371	254.38
291.602	278.38
291.833	266.38
292.064	277.38
292.295	268.38
292.526	270.38
292.757	253.38
292.987	256.38
293.218	269.38
293.449	272.38
293.68	260.38
293.91	261.38
294.141	264.38
294.372	281.38
294.603	272.38
294.833	268.38
295.064	274.38
295.295	263.38
295.525	257.38
295.756	277.38
295.987	279.38
296.217	301.38
296.448	305.38
296.679	286.38
296.909	277.38
297.14	266.38
297.37	281.38
297.601	262.38
297.831	276.38
298.062	275.38
298.292	281.38
298.523	279.38
298.753	292.38
298.984	282.38
299.214	278.38
299.445	292.38
299.675	292.38
299.905	297.38
300.136	291.38
300.366	280.38
300.597	290.38
300.827	299.38
301.057	306.38
301.288	299.38
301.518	314.38
301.748	280.38
301.979	284.38
302.209	304.38
302.439	293.38
302.669	314.38
302.9	291.38
303.13	307.38
303.36	296.38
303.59	312.38
303.82	326.38
304.051	308.38
304.281	302.38
304.511	316.38
304.741	293.38
304.971	280.38
305.201	280.38
305.431	319.38
305.661	299.38
305.891	302.38
306.121	292.38
306.352	312.38
306.582	318.38
306.812	312.38
307.042	296.38
307.272	297.38
307.502	301.38
307.731	309.38
307.961	312.38
308.191	306.38
308.421	312.38
308.651	316.38
308.881	321.38
309.111	319.38
309.341	317.38
309.571	316.38
309.8	333.38
310.03	328.38
310.26	350.38
310.49	342.38
310.72	362.38
310.949	365.38
311.179	400.38
311.409	374.38
311.639	374.38
311.868	368.38
312.098	372.38
312.328	371.38
312.557	389.38
312.787	406.38
313.017	393.38
313.246	394.38
313.476	362.38
313.706	358.38
313.935	361.38
314.165	386.38
314.394	378.38
314.624	368.38
314.853	369.38
315.083	360.38
315.312	354.38
315.542	353.38
315.771	361.38
316.001	328.38
316.23	350.38
316.46	338.38
316.689	346.38
316.919	347.38
317.148	376.38
317.377	359.38
317.607	360.38
317.836	372.38
318.065	349.38
318.295	342.38
318.524	361.38
318.753	349.38
318.983	352.38
319.212	340.38
319.441	377.38
319.67	357.38
319.9	340.38
320.129	356.38
320.358	366.38
320.587	360.38
320.816	385.38
321.046	380.38
321.275	383.38
321.504	380.38
321.733	387.38
321.962	380.38
322.191	385.38
322.42	413.38
322.649	436.38
322.878	456.38
323.108	474.38
323.337	487.38
323.566	523.38
323.795	558.38
324.024	623.38
324.253	749.38
324.482	1050.38
324.71	1638.38
324.939	2387.38
325.168	2058.38
325.397	1087.38
325.626	702.38
325.855	583.38
326.084	536.38
326.313	518.38
326.542	504.38
326.77	576.38
326.999	697.38
327.228	981.38
327.457	1418.38
327.686	1814.38
327.914	1206.38
328.143	811.38
328.372	668.38
328.6	609.38
328.829	594.38
329.058	587.38
329.287	624.38
329.515	562.38
329.744	541.38
329.972	500.38
330.201	537.38
330.43	584.38
330.658	635.38
330.887	632.38
331.115	613.38
331.344	544.38
331.572	485.38
331.801	485.38
332.03	482.38
332.258	444.38
332.486	428.38
332.715	447.38
332.943	408.38
333.172	424.38
333.4	444.38
333.629	431.38
333.857	452.38
334.085	453.38
334.314	461.38
334.542	492.38
334.771	509.38
334.999	479.38
335.227	452.38
335.455	405.38
335.684	436.38
335.912	408.38
336.14	396.38
336.369	414.38
336.597	428.38
336.825	419.38
337.053	399.38
337.281	400.38
337.51	404.38
337.738	413.38
337.966	397.38
338.194	412.38
338.422	410.38
338.65	395.38
338.878	398.38
339.106	404.38
339.334	386.38
339.562	400.38
339.79	401.38
340.018	394.38
340.246	406.38
340.474	413.38
340.702	394.38
340.93	375.38
341.158	386.38
341.386	397.38
341.614	414.38
341.842	408.38
342.07	367.38
342.298	378.38
342.526	394.38
342.754	365.38
342.981	369.38
343.209	358.38
343.437	378.38
343.665	375.38
343.893	388.38
344.12	390.38
344.348	377.38
344.576	398.38
344.804	400.38
345.031	414.38
345.259	434.38
345.487	406.38
345.714	409.38
345.942	395.38
346.17	396.38
346.397	382.38
346.625	391.38
346.853	384.38
347.08	383.38
347.308	401.38
347.535	386.38
347.763	412.38
347.99	412.38
348.218	393.38
348.445	422.38
348.673	415.38
348.9	399.38
349.128	399.38
349.355	391.38
349.583	369.38
349.81	360.38
350.037	377.38
350.265	374.38
350.492	384.38
350.72	377.38
350.947	367.38
351.174	414.38
351.402	414.38
351.629	390.38
351.856	386.38
352.083	402.38
352.311	427.38
352.538	406.38
352.765	392.38
352.992	401.38
353.22	390.38
353.447	409.38
353.674	396.38
353.901	343.38
354.128	367.38
354.355	383.38
354.583	369.38
354.81	380.38
355.037	356.38
355.264	334.38
355.491	358.38
355.718	352.38
355.945	335.38
356.172	354.38
356.399	348.38
356.626	346.38
356.853	352.38
357.08	351.38
357.307	357.38
357.534	331.38
357.761	343.38
357.988	345.38
358.215	356.38
358.441	365.38
358.668	355.38
358.895	349.38
359.122	352.38
359.349	377.38
359.576	410.38
359.802	424.38
360.029	453.38
360.256	448.38
360.483	431.38
360.709	390.38
360.936	390.38
361.163	378.38
361.39	381.38
361.616	398.38
361.843	384.38
362.07	381.38
362.296	394.38
362.523	392.38
362.749	388.38
362.976	404.38
363.203	366.38
363.429	372.38
363.656	376.38
363.882	368.38
364.109	360.38
364.335	381.38
364.562	367.38
364.788	366.38
365.015	354.38
365.241	350.38
365.468	374.38
365.694	388.38
365.92	376.38
366.147	368.38
366.373	358.38
366.599	352.38
366.826	361.38
367.052	354.38
367.278	356.38
367.505	354.38
367.731	360.38
367.957	349.38
368.184	373.38
368.41	367.38
368.636	380.38
368.862	370.38
369.089	361.38
369.315	386.38
369.541	352.38
369.767	342.38
369.993	365.38
370.219	356.38
370.445	351.38
370.672	373.38
370.898	356.38
371.124	344.38
371.35	350.38
371.576	353.38
371.802	341.38
372.028	352.38
372.254	344.38
372.48	358.38
372.706	344.38
372.932	356.38
373.158	354.38
373.384	361.38
373.61	360.38
373.835	352.38
374.061	360.38
374.287	366.38
374.513	353.38
374.739	342.38
374.965	344.38
375.191	354.38
375.416	382.38
375.642	353.38
375.868	359.38
376.094	341.38
376.319	342.38
376.545	363.38
376.771	356.38
376.997	350.38
377.222	359.38
377.448	340.38
377.674	345.38
377.899	349.38
378.125	330.38
378.35	350.38
378.576	354.38
378.802	355.38
379.027	348.38
379.253	345.38
379.478	338.38
379.704	354.38
379.929	348.38
380.155	365.38
380.38	354.38
380.606	357.38
380.831	343.38
381.057	365.38
381.282	350.38
381.507	338.38
381.733	380.38
381.958	360.38
382.184	346.38
382.409	354.38
382.634	361.38
382.86	354.38
383.085	379.38
383.31	358.38
383.535	360.38
383.761	375.38
383.986	355.38
384.211	356.38
384.436	358.38
384.662	374.38
384.887	368.38
385.112	365.38
385.337	354.38
385.562	359.38
385.787	368.38
386.013	377.38
386.238	388.38
386.463	388.38
386.688	378.38
386.913	360.38
387.138	376.38
387.363	378.38
387.588	387.38
387.813	382.38
388.038	370.38
388.263	382.38
388.488	382.38
388.713	373.38
388.938	375.38
389.163	400.38
389.387	372.38
389.612	384.38
389.837	369.38
390.062	388.38
390.287	376.38
390.512	375.38
390.736	370.38
390.961	353.38
391.186	360.38
391.411	381.38
391.636	384.38
391.86	368.38
392.085	376.38
392.31	367.38
392.534	377.38
392.759	380.38
392.984	384.38
393.208	375.38
393.433	376.38
393.658	384.38
393.882	360.38
394.107	380.38
394.331	387.38
394.556	400.38
394.78	381.38
395.005	358.38
395.229	370.38
395.454	388.38
395.678	384.38
395.903	375.38
396.127	405.38
396.352	389.38
396.576	390.38
396.801	391.38
397.025	406.38
397.249	393.38
397.474	421.38
397.698	404.38
397.922	408.38
398.147	433.38
398.371	414.38
398.595	388.38
398.82	404.38
399.044	427.38
399.268	434.38
399.492	444.38
399.717	443.38
399.941	480.38
400.165	497.38
400.389	557.38
400.613	458.38
400.837	444.38
401.062	420.38
401.286	427.38
401.51	438.38
401.734	436.38
401.958	429.38
402.182	434.38
402.406	453.38
402.63	454.38
402.854	433.38
403.078	439.38
403.302	454.38
403.526	440.38
403.75	452.38
403.974	433.38
404.198	432.38
404.422	434.38
404.645	464.38
404.869	452.38
405.093	470.38
405.317	493.38
405.541	553.38
405.765	506.38
405.988	475.38
406.212	466.38
406.436	504.38
406.66	524.38
406.883	503.38
407.107	514.38
407.331	541.38
407.555	594.38
407.778	605.38
408.002	560.38
408.226	517.38
408.449	515.38
408.673	504.38
408.896	522.38
409.12	557.38
409.344	502.38
409.567	475.38
409.791	458.38
410.014	461.38
410.238	435.38
410.461	458.38
410.685	444.38
410.908	470.38
411.132	504.38
411.355	534.38
411.578	512.38
411.802	462.38
412.025	452.38
412.249	460.38
412.472	515.38
412.695	514.38
412.919	524.38
413.142	448.38
413.365	426.38
413.589	438.38
413.812	402.38
414.035	419.38
414.258	423.38
414.482	440.38
414.705	399.38
414.928	413.38
415.151	419.38
415.374	404.38
415.597	397.38
415.821	422.38
416.044	425.38
416.267	440.38
416.49	428.38
416.713	403.38
416.936	405.38
417.159	427.38
417.382	433.38
417.605	453.38
417.828	456.38
418.051	454.38
418.274	453.38
418.497	410.38
418.72	425.38
418.943	418.38
419.166	422.38
419.389	448.38
419.611	454.38
419.834	429.38
420.057	448.38
420.28	448.38
420.503	470.38
420.726	447.38
420.948	460.38
421.171	517.38
421.394	541.38
421.617	489.38
421.839	447.38
422.062	462.38
422.285	459.38
422.507	512.38
422.73	600.38
422.953	572.38
423.175	496.38
423.398	478.38
423.621	473.38
423.843	491.38
424.066	493.38
424.288	497.38
424.511	493.38
424.733	548.38
424.956	630.38
425.178	621.38
425.401	618.38
425.623	652.38
425.846	546.38
426.068	496.38
426.291	489.38
426.513	496.38
426.735	528.38
426.958	574.38
427.18	645.38
427.402	740.38
427.625	840.38
427.847	748.38
428.069	656.38
428.292	560.38
428.514	518.38
428.736	504.38
428.958	480.38
429.181	473.38
429.403	462.38
429.625	478.38
429.847	509.38
430.069	561.38
430.292	587.38
430.514	506.38
430.736	444.38
430.958	454.38
431.18	462.38
431.402	431.38
431.624	422.38
431.846	433.38
432.068	429.38
432.29	439.38
432.512	422.38
432.734	422.38
432.956	439.38
433.178	445.38
433.4	449.38
433.622	446.38
433.844	409.38
434.066	446.38
434.287	442.38
434.509	452.38
434.731	447.38
434.953	434.38
435.175	451.38
435.397	497.38
435.618	492.38
435.84	560.38
436.062	619.38
436.284	705.38
436.505	570.38
436.727	507.38
436.949	496.38
437.17	475.38
437.392	491.38
437.614	479.38
437.835	487.38
438.057	645.38
438.278	703.38
438.5	726.38
438.721	760.38
438.943	738.38
439.165	615.38
439.386	546.38
439.608	538.38
439.829	530.38
440.05	589.38
440.272	599.38
440.493	553.38
440.715	522.38
440.936	495.38
441.158	465.38
441.379	468.38
441.6	464.38
441.822	522.38
442.043	577.38
442.264	638.38
442.486	704.38
442.707	586.38
442.928	528.38
443.149	530.38
443.371	566.38
443.592	598.38
443.813	689.38
444.034	736.38
444.255	588.38
444.476	536.38
444.698	526.38
444.919	498.38
445.14	631.38
445.361	582.38
445.582	546.38
445.803	621.38
446.024	713.38
446.245	713.38
446.466	650.38
446.687	561.38
446.908	526.38
447.129	465.38
447.35	488.38
447.571	442.38
447.792	442.38
448.013	477.38
448.234	486.38
448.455	540.38
448.675	636.38
448.896	775.38
449.117	663.38
449.338	609.38
449.559	720.38
449.779	770.38
450	641.38
450.221	553.38
450.442	497.38
450.662	486.38
450.883	489.38
451.104	526.38
451.324	466.38
451.545	442.38
451.766	431.38
451.986	450.38
452.207	422.38
452.428	422.38
452.648	415.38
452.869	424.38
453.089	443.38
453.31	454.38
453.53	428.38
453.751	446.38
453.971	429.38
454.192	454.38
454.412	447.38
454.633	426.38
454.853	425.38
455.073	427.38
455.294	450.38
455.514	516.38
455.734	492.38
455.955	444.38
456.175	424.38
456.395	397.38
456.616	406.38
456.836	382.38
457.056	384.38
457.276	384.38
457.497	405.38
457.717	394.38
457.937	399.38
458.157	402.38
458.377	402.38
458.598	443.38
458.818	505.38
459.038	596.38
459.258	596.38
459.478	492.38
459.698	449.38
459.918	433.38
460.138	437.38
460.358	445.38
460.578	417.38
460.798	456.38
461.018	444.38
461.238	434.38
461.458	422.38
461.678	415.38
461.898	417.38
462.118	421.38
462.338	423.38
462.558	440.38
462.777	414.38
462.997	434.38
463.217	448.38
463.437	440.38
463.657	437.38
463.876	442.38
464.096	451.38
464.316	450.38
464.536	464.38
464.755	465.38
464.975	493.38
465.195	500.38
465.414	629.38
465.634	528.38
465.854	486.38
466.073	446.38
466.293	442.38
466.512	439.38
466.732	445.38
466.951	422.38
467.171	400.38
467.391	430.38
467.61	444.38
467.829	461.38
468.049	442.38
468.268	440.38
468.488	418.38
468.707	419.38
468.927	408.38
469.146	403.38
469.365	437.38
469.585	419.38
469.804	412.38
470.023	441.38
470.243	445.38
470.462	434.38
470.681	439.38
470.901	433.38
471.12	422.38
471.339	428.38
471.558	443.38
471.777	406.38
471.997	431.38
472.216	430.38
472.435	456.38
472.654	474.38
472.873	439.38
473.092	422.38
473.311	401.38
473.53	440.38
473.749	440.38
473.968	491.38
474.187	577.38
474.406	599.38
474.625	516.38
474.844	450.38
475.063	440.38
475.282	448.38
475.501	412.38
475.72	443.38
475.939	441.38
476.158	433.38
476.377	450.38
476.596	446.38
476.814	454.38
477.033	462.38
477.252	456.38
477.471	476.38
477.69	476.38
477.908	450.38
478.127	471.38
478.346	467.38
478.564	473.38
478.783	461.38
479.002	480.38
479.22	467.38
479.439	500.38
479.658	514.38
479.876	521.38
480.095	524.38
480.313	564.38
480.532	527.38
480.751	510.38
480.969	545.38
481.188	613.38
481.406	650.38
481.624	554.38
481.843	549.38
482.061	536.38
482.28	518.38
482.498	514.38
482.717	507.38
482.935	519.38
483.153	491.38
483.372	521.38
483.59	518.38
483.808	504.38
484.027	514.38
484.245	497.38
484.463	509.38
484.681	504.38
484.9	496.38
485.118	526.38
485.336	526.38
485.554	521.38
485.772	542.38
485.99	526.38
486.209	528.38
486.427	528.38
486.645	542.38
486.863	537.38
487.081	544.38
487.299	544.38
487.517	538.38
487.735	559.38
487.953	559.38
488.171	546.38
488.389	558.38
488.607	573.38
488.825	591.38
489.043	561.38
489.261	561.38
489.479	546.38
489.696	567.38
489.914	574.38
490.132	556.38
490.35	585.38
490.568	576.38
490.786	577.38
491.003	583.38
491.221	613.38
491.439	615.38
491.657	616.38
491.874	617.38
492.092	628.38
492.31	639.38
492.527	632.38
492.745	650.38
492.963	649.38
493.18	675.38
493.398	630.38
493.615	634.38
493.833	650.38
494.05	645.38
494.268	660.38
494.485	646.38
494.703	663.38
494.92	667.38
495.138	656.38
495.355	676.38
495.573	679.38
495.79	656.38
496.008	666.38
496.225	643.38
496.442	652.38
496.66	660.38
496.877	650.38
497.094	666.38
497.312	641.38
497.529	664.38
497.746	640.38
497.963	687.38
498.181	701.38
498.398	700.38
498.615	726.38
498.832	718.38
499.049	696.38
499.267	720.38
499.484	728.38
499.701	765.38
499.918	734.38
500.135	778.38
500.352	780.38
500.569	796.38
500.786	797.38
501.003	817.38
501.22	795.38
501.437	792.38
501.654	795.38
501.871	801.38
502.088	795.38
502.305	740.38
502.522	735.38
502.739	719.38
502.956	681.38
503.172	682.38
503.389	702.38
503.606	682.38
503.823	676.38
504.04	679.38
504.256	632.38
504.473	625.38
504.69	646.38
504.907	640.38
505.123	646.38
505.34	614.38
505.557	635.38
505.773	625.38
505.99	637.38
506.207	643.38
506.423	637.38
506.64	637.38
506.856	629.38
507.073	636.38
507.289	646.38
507.506	648.38
507.722	648.38
507.939	664.38
508.155	661.38
508.372	616.38
508.588	610.38
508.805	636.38
509.021	620.38
509.238	618.38
509.454	625.38
509.67	624.38
509.887	631.38
510.103	636.38
510.319	618.38
510.536	757.38
510.752	1350.38
510.968	1048.38
511.184	657.38
511.401	644.38
511.617	606.38
511.833	595.38
512.049	607.38
512.265	585.38
512.481	595.38
512.698	606.38
512.914	614.38
513.13	603.38
513.346	577.38
513.562	602.38
513.778	598.38
513.994	592.38
514.21	598.38
514.426	641.38
514.642	705.38
514.858	725.38
515.074	790.38
515.29	945.38
515.506	1489.38
515.721	1186.38
515.937	754.38
516.153	685.38
516.369	640.38
516.585	622.38
516.801	589.38
517.016	601.38
517.232	594.38
517.448	595.38
517.664	608.38
517.879	588.38
518.095	577.38
518.311	570.38
518.527	578.38
518.742	578.38
518.958	588.38
519.173	600.38
519.389	585.38
519.605	605.38
519.82	606.38
520.036	626.38
520.251	671.38
520.467	670.38
520.682	664.38
520.898	682.38
521.113	744.38
521.329	795.38
521.544	901.38
521.76	1185.38
521.975	1960.38
522.19	1921.38
522.406	1020.38
522.621	738.38
522.836	624.38
523.052	596.38
523.267	580.38
523.482	569.38
523.698	556.38
523.913	552.38
524.128	543.38
524.343	524.38
524.559	500.38
524.774	525.38
524.989	522.38
525.204	522.38
525.419	509.38
525.634	532.38
525.849	500.38
526.064	497.38
526.28	492.38
526.495	480.38
526.71	497.38
526.925	494.38
527.14	476.38
527.355	463.38
527.57	461.38
527.785	480.38
527.999	451.38
528.214	475.38
528.429	477.38
528.644	455.38
528.859	471.38
529.074	481.38
529.289	506.38
529.503	602.38
529.718	567.38
529.933	535.38
530.148	508.38
530.363	489.38
530.577	459.38
530.792	466.38
531.007	469.38
531.221	449.38
531.436	463.38
531.651	462.38
531.865	442.38
532.08	452.38
532.295	443.38
532.509	437.38
532.724	438.38
532.938	447.38
533.153	444.38
533.367	423.38
533.582	455.38
533.796	450.38
534.011	448.38
534.225	456.38
534.44	432.38
534.654	428.38
534.868	437.38
535.083	418.38
535.297	430.38
535.511	427.38
535.726	463.38
535.94	438.38
536.154	424.38
536.369	431.38
536.583	433.38
536.797	425.38
537.011	414.38
537.225	421.38
537.44	413.38
537.654	429.38
537.868	408.38
538.082	438.38
538.296	413.38
538.51	432.38
538.724	432.38
538.938	429.38
539.153	431.38
539.367	447.38
539.581	460.38
539.795	445.38
540.009	424.38
540.222	410.38
540.436	437.38
540.65	440.38
540.864	422.38
541.078	452.38
541.292	423.38
541.506	417.38
541.72	432.38
541.934	427.38
542.147	438.38
542.361	424.38
542.575	409.38
542.789	414.38
543.002	431.38
543.216	409.38
543.43	446.38
543.644	432.38
543.857	420.38
544.071	423.38
544.285	438.38
544.498	427.38
544.712	425.38
544.925	393.38
545.139	415.38
545.352	421.38
545.566	411.38
545.779	416.38
545.993	392.38
546.206	414.38
546.42	408.38
546.633	394.38
546.847	404.38
547.06	410.38
547.274	395.38
547.487	393.38
547.7	389.38
547.914	405.38
548.127	398.38
548.34	389.38
548.554	401.38
548.767	381.38
548.98	393.38
549.193	387.38
549.407	407.38
549.62	399.38
549.833	411.38
550.046	361.38
550.259	392.38
550.473	378.38
550.686	382.38
550.899	413.38
551.112	390.38
551.325	394.38
551.538	376.38
551.751	380.38
551.964	388.38
552.177	376.38
552.39	395.38
552.603	389.38
552.816	393.38
553.029	397.38
553.242	390.38
553.455	373.38
553.667	396.38
553.88	408.38
554.093	401.38
554.306	410.38
554.519	386.38
554.732	395.38
554.944	380.38
555.157	397.38
555.37	381.38
555.583	382.38
555.795	398.38
556.008	383.38
556.221	374.38
556.433	365.38
556.646	362.38
556.859	376.38
557.071	350.38
557.284	365.38
557.496	354.38
557.709	351.38
557.921	346.38
558.134	369.38
558.346	365.38
558.559	351.38
558.771	359.38
558.984	367.38
559.196	354.38
559.409	373.38
559.621	364.38
559.833	342.38
560.046	349.38
560.258	350.38
560.47	362.38
560.683	363.38
560.895	347.38
561.107	366.38
561.32	372.38
561.532	366.38
561.744	354.38
561.956	335.38
562.168	353.38
562.381	369.38
562.593	354.38
562.805	362.38
563.017	351.38
563.229	347.38
563.441	341.38
563.653	343.38
563.865	343.38
564.077	345.38
564.289	341.38
564.501	367.38
564.713	378.38
564.925	336.38
565.137	384.38
565.349	365.38
565.561	358.38
565.773	372.38
565.985	365.38
566.197	374.38
566.408	386.38
566.62	389.38
566.832	418.38
567.044	389.38
567.255	406.38
567.467	401.38
567.679	403.38
567.891	400.38
568.102	416.38
568.314	420.38
568.526	398.38
568.737	385.38
568.949	369.38
569.161	350.38
569.372	358.38
569.584	361.38
569.795	366.38
570.007	352.38
570.218	403.38
570.43	396.38
570.641	346.38
570.853	340.38
571.064	330.38
571.276	341.38
571.487	338.38
571.698	335.38
571.91	325.38
572.121	328.38
572.333	305.38
572.544	308.38
572.755	334.38
572.966	342.38
573.178	309.38
573.389	297.38
573.6	312.38
573.811	306.38
574.023	302.38
574.234	298.38
574.445	301.38
574.656	312.38
574.867	308.38
575.078	309.38
575.289	314.38
575.501	296.38
575.712	280.38
575.923	316.38
576.134	294.38
576.345	301.38
576.556	308.38
576.767	287.38
576.978	289.38
577.188	318.38
577.399	298.38
577.61	313.38
577.821	302.38
578.032	292.38
578.243	341.38
578.454	620.38
578.665	460.38
578.875	319.38
579.086	302.38
579.297	289.38
579.508	294.38
579.718	281.38
579.929	302.38
580.14	271.38
580.35	277.38
580.561	292.38
580.772	288.38
580.982	299.38
581.193	285.38
581.403	288.38
581.614	286.38
581.825	265.38
582.035	278.38
582.246	286.38
582.456	282.38
582.667	285.38
582.877	264.38
583.087	272.38
583.298	278.38
583.508	288.38
583.719	269.38
583.929	284.38
584.139	284.38
584.35	279.38
584.56	276.38
584.77	288.38
584.981	290.38
585.191	277.38
585.401	276.38
585.611	269.38
585.821	257.38
586.032	268.38
586.242	302.38
586.452	280.38
586.662	276.38
586.872	285.38
587.082	259.38
587.292	268.38
587.502	268.38
587.713	272.38
587.923	273.38
588.133	262.38
588.343	273.38
588.553	281.38
588.762	276.38
588.972	278.38
589.182	268.38
589.392	272.38
589.602	274.38
589.812	265.38
590.022	264.38
590.232	281.38
590.441	254.38
590.651	265.38
590.861	263.38
591.071	264.38
591.281	272.38
591.49	265.38
591.7	271.38
591.91	274.38
592.119	270.38
592.329	270.38
592.539	276.38
592.748	284.38
592.958	258.38
593.167	269.38
593.377	282.38
593.587	273.38
593.796	264.38
594.006	278.38
594.215	274.38
594.424	272.38
594.634	277.38
594.843	262.38
595.053	273.38
595.262	280.38
595.472	266.38
595.681	266.38
595.89	271.38
596.1	269.38
596.309	258.38
596.518	264.38
596.727	267.38
596.937	248.38
597.146	252.38
597.355	253.38
597.564	266.38
597.774	263.38
597.983	239.38
598.192	234.38
598.401	246.38
598.61	235.38
598.819	249.38
599.028	238.38
599.237	263.38
599.446	249.38
599.655	248.38
599.864	256.38
600.073	237.38
600.282	256.38
600.491	236.38
600.7	221.38
600.909	235.38
601.118	248.38
601.327	241.38
601.536	245.38
601.745	233.38
601.953	246.38
602.162	253.38
602.371	241.38
602.58	252.38
602.789	247.38
602.997	240.38
603.206	228.38
603.415	229.38
603.623	238.38
603.832	221.38
604.041	241.38
604.249	226.38
604.458	232.38
604.666	223.38
604.875	231.38
605.084	228.38
605.292	246.38
605.501	224.38
605.709	216.38
605.918	220.38
606.126	236.38
606.334	226.38
606.543	225.38
606.751	240.38
606.96	205.38
607.168	231.38
607.376	226.38
607.585	240.38
607.793	212.38
608.001	216.38
608.21	224.38
608.418	221.38
608.626	233.38
608.834	217.38
609.043	222.38
609.251	220.38
609.459	207.38
609.667	214.38
609.875	217.38
610.083	219.38
610.291	231.38
610.499	236.38
610.707	215.38
610.916	225.38
611.124	219.38
611.332	230.38
611.54	234.38
611.748	226.38
611.955	239.38
612.163	231.38
612.371	223.38
612.579	231.38
612.787	209.38
612.995	225.38
613.203	231.38
613.411	226.38
613.618	230.38
613.826	232.38
614.034	221.38
614.242	206.38
614.449	201.38
614.657	228.38
614.865	217.38
615.072	222.38
615.28	225.38
615.488	212.38
615.695	207.38
615.903	210.38
616.111	209.38
616.318	218.38
616.526	204.38
616.733	214.38
616.941	223.38
617.148	236.38
617.356	229.38
617.563	205.38
617.771	224.38
617.978	210.38
618.185	239.38
618.393	208.38
618.6	207.38
618.807	215.38
619.015	206.38
619.222	221.38
619.429	216.38
619.637	208.38
619.844	199.38
620.051	212.38
620.258	196.38
620.466	217.38
620.673	194.38
620.88	208.38
621.087	208.38
621.294	203.38
621.501	210.38
621.708	203.38
621.915	202.38
622.122	199.38
622.329	196.38
622.536	195.38
622.743	206.38
622.95	213.38
623.157	206.38
623.364	200.38
623.571	208.38
623.778	204.38
623.985	219.38
624.192	190.38
624.399	191.38
624.606	194.38
624.812	187.38
625.019	180.38
625.226	200.38
625.433	221.38
625.639	215.38
625.846	191.38
626.053	193.38
626.259	212.38
626.466	194.38
626.673	194.38
626.879	188.38
627.086	194.38
627.293	213.38
627.499	202.38
627.706	193.38
627.912	186.38
628.119	206.38
628.325	206.38
628.532	185.38
628.738	196.38
628.945	194.38
629.151	196.38
629.357	196.38
629.564	187.38
629.77	198.38
629.976	191.38
630.183	181.38
630.389	184.38
630.595	186.38
630.802	204.38
631.008	169.38
631.214	193.38
631.42	192.38
631.627	175.38
631.833	176.38
632.039	168.38
632.245	164.38
632.451	189.38
632.657	178.38
632.863	173.38
633.069	185.38
633.275	168.38
633.481	177.38
633.688	189.38
633.893	185.38
634.099	166.38
634.305	188.38
634.511	170.38
634.717	178.38
634.923	176.38
635.129	157.38
635.335	168.38
635.541	158.38
635.747	173.38
635.952	177.38
636.158	175.38
636.364	183.38
636.57	174.38
636.775	192.38
636.981	170.38
637.187	196.38
637.392	175.38
637.598	184.38
637.804	159.38
638.009	175.38
638.215	162.38
638.421	149.38
638.626	150.38
638.832	179.38
639.037	183.38
639.243	152.38
639.448	171.38
639.654	183.38
639.859	160.38
640.065	178.38
640.27	169.38
640.475	172.38
640.681	175.38
640.886	162.38
641.091	167.38
641.297	175.38
641.502	148.38
641.707	165.38
641.913	162.38
642.118	174.38
642.323	152.38
642.528	174.38
642.733	155.38
642.939	168.38
643.144	152.38
643.349	143.38
643.554	164.38
643.759	156.38
643.964	161.38
644.169	165.38
644.374	162.38
644.579	151.38
644.784	176.38
644.989	156.38
645.194	158.38
645.399	146.38
645.604	167.38
645.809	157.38
646.014	180.38
646.219	140.38
646.423	150.38
646.628	177.38
646.833	169.38
647.038	139.38
647.243	159.38
647.447	155.38
647.652	160.38
647.857	164.38
648.062	163.38
648.266	164.38
648.471	174.38
648.676	154.38
648.88	157.38
649.085	152.38
649.289	162.38
649.494	149.38
649.698	190.38
649.903	176.38
650.107	150.38
650.312	161.38
650.516	154.38
650.721	159.38
650.925	141.38
651.13	156.38
651.334	154.38
651.539	141.38
651.743	131.38
651.947	153.38
652.152	152.38
652.356	139.38
652.56	143.38
652.764	133.38
652.969	129.38
653.173	130.38
653.377	143.38
653.581	146.38
653.785	133.38
653.99	121.38
654.194	116.38
654.398	128.38
654.602	122.38
654.806	137.38
655.01	141.38
655.214	126.38
655.418	136.38
655.622	119.38
655.826	131.38
656.03	124.38
656.234	124.38
656.438	130.38
656.642	124.38
656.846	113.38
657.049	127.38
657.253	105.38
657.457	110.38
657.661	117.38
657.865	118.38
658.068	109.38
658.272	117.38
658.476	134.38
658.68	98.38
658.883	102.38
659.087	96.38
659.291	88.38
659.494	104.38
659.698	105.38
659.901	112.38
660.105	97.38
660.309	102.38
660.512	97.38
660.716	86.38
660.919	98.38
661.123	85.38
661.326	97.38
661.53	93.38
661.733	94.38
661.936	98.38
662.14	97.38
662.343	86.38
662.546	93.38
662.75	85.38
662.953	79.38
663.156	76.38
663.36	85.38
663.563	85.38
663.766	94.38
663.969	84.38
664.173	86.38
664.376	72.38
664.579	83.38
664.782	94.38
664.985	84.38
665.188	90.38
665.391	90.38
665.594	96.38
665.797	83.38
666	88.38
666.203	85.38
666.406	93.38
666.609	91.38
666.812	74.38
667.015	79.38
667.218	82.38
667.421	92.38
667.624	86.38
667.827	81.38
668.03	83.38
668.232	86.38
668.435	84.38
668.638	71.38
668.841	85.38
669.043	89.38
669.246	89.38
669.449	82.38
669.651	88.38
669.854	83.38
670.057	87.38
670.259	85.38
670.462	80.38
670.665	93.38
670.867	81.38
671.07	92.38
671.272	94.38
671.475	85.38
671.677	90.38
671.88	89.38
672.082	86.38
672.284	94.38
672.487	81.38
672.689	81.38
672.892	95.38
