Data from 1980.PennyLincolnUp.Lamp.En5.5.200Scan.071819.P1_HRD10591_16-38-09-957.txt Node
Date: Thu Jul 18 16:38:09 EDT 2019
User: cochatt
Spectrometer: HR+D1059
Trigger mode: 1
Integration Time (sec): 1.000000E-1
Scans to average: 1
Electric dark correction enabled: true
Nonlinearity correction enabled: false
Boxcar width: 0
XAxis mode: Wavelengths
Number of Pixels in Spectrum: 2048
>>>>>Begin Spectral Data<<<<<
223.165	-14.12
223.4	-14.12
223.635	-14.12
223.869	-11.12
224.104	-12.12
224.338	-9.12
224.573	-15.12
224.808	-13.12
225.042	-11.12
225.277	-5.12
225.511	9.88
225.746	0.88
225.98	-6.12
226.215	6.88
226.449	12.88
226.683	11.88
226.918	20.88
227.152	33.88
227.387	39.88
227.621	20.88
227.856	43.88
228.09	42.88
228.324	44.88
228.559	54.88
228.793	65.88
229.027	104.88
229.262	107.88
229.496	115.88
229.73	133.88
229.964	168.88
230.199	139.88
230.433	124.88
230.667	118.88
230.901	134.88
231.136	122.88
231.37	112.88
231.604	102.88
231.838	109.88
232.072	105.88
232.306	100.88
232.541	103.88
232.775	119.88
233.009	118.88
233.243	110.88
233.477	115.88
233.711	106.88
233.945	98.88
234.179	112.88
234.413	114.88
234.647	119.88
234.881	122.88
235.115	129.88
235.349	123.88
235.583	122.88
235.817	116.88
236.051	127.88
236.285	136.88
236.519	104.88
236.753	139.88
236.987	147.88
237.221	195.88
237.455	258.88
237.689	204.88
237.922	157.88
238.156	139.88
238.39	124.88
238.624	134.88
238.858	130.88
239.091	131.88
239.325	129.88
239.559	127.88
239.793	129.88
240.027	154.88
240.26	154.88
240.494	164.88
240.728	193.88
240.961	165.88
241.195	137.88
241.429	139.88
241.662	146.88
241.896	138.88
242.13	131.88
242.363	132.88
242.597	146.88
242.83	155.88
243.064	139.88
243.298	137.88
243.531	128.88
243.765	144.88
243.998	135.88
244.232	141.88
244.465	163.88
244.699	141.88
244.932	143.88
245.166	135.88
245.399	162.88
245.633	159.88
245.866	141.88
246.099	161.88
246.333	133.88
246.566	144.88
246.8	140.88
247.033	153.88
247.266	156.88
247.5	156.88
247.733	165.88
247.966	170.88
248.2	167.88
248.433	180.88
248.666	162.88
248.899	197.88
249.133	199.88
249.366	211.88
249.599	200.88
249.832	194.88
250.066	180.88
250.299	186.88
250.532	201.88
250.765	204.88
250.998	205.88
251.231	234.88
251.465	231.88
251.698	220.88
251.931	201.88
252.164	198.88
252.397	212.88
252.63	206.88
252.863	208.88
253.096	227.88
253.329	232.88
253.562	246.88
253.795	245.88
254.028	227.88
254.261	239.88
254.494	250.88
254.727	284.88
254.96	301.88
255.193	286.88
255.426	280.88
255.659	252.88
255.892	259.88
256.124	244.88
256.357	244.88
256.59	238.88
256.823	247.88
257.056	207.88
257.289	224.88
257.521	229.88
257.754	221.88
257.987	224.88
258.22	214.88
258.452	222.88
258.685	197.88
258.918	218.88
259.151	213.88
259.383	206.88
259.616	241.88
259.849	220.88
260.081	242.88
260.314	251.88
260.547	264.88
260.779	252.88
261.012	258.88
261.244	246.88
261.477	226.88
261.71	235.88
261.942	247.88
262.175	242.88
262.407	223.88
262.64	226.88
262.872	220.88
263.105	221.88
263.337	221.88
263.57	204.88
263.802	210.88
264.035	223.88
264.267	216.88
264.499	216.88
264.732	217.88
264.964	211.88
265.197	211.88
265.429	224.88
265.661	207.88
265.894	217.88
266.126	223.88
266.358	222.88
266.591	209.88
266.823	219.88
267.055	221.88
267.287	231.88
267.52	233.88
267.752	224.88
267.984	224.88
268.216	229.88
268.448	245.88
268.681	254.88
268.913	242.88
269.145	240.88
269.377	278.88
269.609	274.88
269.841	281.88
270.073	290.88
270.306	306.88
270.538	314.88
270.77	333.88
271.002	331.88
271.234	311.88
271.466	312.88
271.698	322.88
271.93	308.88
272.162	338.88
272.394	319.88
272.626	310.88
272.858	297.88
273.09	293.88
273.322	289.88
273.553	277.88
273.785	278.88
274.017	271.88
274.249	263.88
274.481	257.88
274.713	267.88
274.945	263.88
275.176	285.88
275.408	257.88
275.64	272.88
275.872	270.88
276.104	261.88
276.335	267.88
276.567	274.88
276.799	282.88
277.031	299.88
277.262	317.88
277.494	312.88
277.726	319.88
277.957	300.88
278.189	286.88
278.421	260.88
278.652	245.88
278.884	273.88
279.115	275.88
279.347	259.88
279.579	257.88
279.81	268.88
280.042	249.88
280.273	268.88
280.505	266.88
280.736	252.88
280.968	258.88
281.199	258.88
281.431	272.88
281.662	265.88
281.894	258.88
282.125	280.88
282.356	291.88
282.588	319.88
282.819	293.88
283.051	276.88
283.282	275.88
283.513	272.88
283.745	255.88
283.976	274.88
284.207	269.88
284.439	276.88
284.67	275.88
284.901	256.88
285.132	269.88
285.364	238.88
285.595	259.88
285.826	256.88
286.057	268.88
286.288	257.88
286.52	262.88
286.751	259.88
286.982	277.88
287.213	254.88
287.444	257.88
287.675	237.88
287.906	280.88
288.138	289.88
288.369	304.88
288.6	293.88
288.831	288.88
289.062	303.88
289.293	281.88
289.524	288.88
289.755	281.88
289.986	274.88
290.217	260.88
290.448	265.88
290.679	258.88
290.91	269.88
291.141	271.88
291.371	269.88
291.602	278.88
291.833	265.88
292.064	268.88
292.295	268.88
292.526	265.88
292.757	265.88
292.987	270.88
293.218	276.88
293.449	276.88
293.68	270.88
293.91	270.88
294.141	290.88
294.372	276.88
294.603	262.88
294.833	266.88
295.064	287.88
295.295	274.88
295.525	260.88
295.756	282.88
295.987	293.88
296.217	313.88
296.448	320.88
296.679	307.88
296.909	266.88
297.14	278.88
297.37	264.88
297.601	283.88
297.831	291.88
298.062	292.88
298.292	283.88
298.523	278.88
298.753	284.88
298.984	267.88
299.214	282.88
299.445	267.88
299.675	281.88
299.905	290.88
300.136	299.88
300.366	270.88
300.597	294.88
300.827	300.88
301.057	311.88
301.288	322.88
301.518	308.88
301.748	305.88
301.979	300.88
302.209	325.88
302.439	315.88
302.669	315.88
302.9	289.88
303.13	295.88
303.36	311.88
303.59	310.88
303.82	292.88
304.051	329.88
304.281	292.88
304.511	310.88
304.741	303.88
304.971	299.88
305.201	304.88
305.431	308.88
305.661	314.88
305.891	309.88
306.121	308.88
306.352	309.88
306.582	319.88
306.812	316.88
307.042	297.88
307.272	314.88
307.502	319.88
307.731	326.88
307.961	324.88
308.191	300.88
308.421	312.88
308.651	329.88
308.881	318.88
309.111	302.88
309.341	333.88
309.571	318.88
309.8	352.88
310.03	362.88
310.26	364.88
310.49	353.88
310.72	368.88
310.949	396.88
311.179	388.88
311.409	362.88
311.639	374.88
311.868	369.88
312.098	365.88
312.328	366.88
312.557	395.88
312.787	400.88
313.017	385.88
313.246	373.88
313.476	346.88
313.706	358.88
313.935	350.88
314.165	372.88
314.394	397.88
314.624	412.88
314.853	362.88
315.083	377.88
315.312	372.88
315.542	366.88
315.771	352.88
316.001	361.88
316.23	356.88
316.46	342.88
316.689	348.88
316.919	362.88
317.148	380.88
317.377	382.88
317.607	373.88
317.836	365.88
318.065	358.88
318.295	355.88
318.524	354.88
318.753	361.88
318.983	345.88
319.212	365.88
319.441	381.88
319.67	376.88
319.9	381.88
320.129	378.88
320.358	373.88
320.587	388.88
320.816	375.88
321.046	391.88
321.275	408.88
321.504	391.88
321.733	392.88
321.962	409.88
322.191	427.88
322.42	418.88
322.649	460.88
322.878	458.88
323.108	474.88
323.337	496.88
323.566	512.88
323.795	575.88
324.024	616.88
324.253	772.88
324.482	1089.88
324.71	1700.88
324.939	2428.88
325.168	2188.88
325.397	1146.88
325.626	758.88
325.855	612.88
326.084	552.88
326.313	524.88
326.542	530.88
326.77	589.88
326.999	678.88
327.228	927.88
327.457	1514.88
327.686	1888.88
327.914	1249.88
328.143	823.88
328.372	708.88
328.6	634.88
328.829	607.88
329.058	630.88
329.287	628.88
329.515	597.88
329.744	550.88
329.972	532.88
330.201	571.88
330.43	616.88
330.658	606.88
330.887	637.88
331.115	658.88
331.344	542.88
331.572	506.88
331.801	494.88
332.03	505.88
332.258	462.88
332.486	440.88
332.715	437.88
332.943	444.88
333.172	451.88
333.4	440.88
333.629	440.88
333.857	456.88
334.085	471.88
334.314	501.88
334.542	515.88
334.771	573.88
334.999	460.88
335.227	450.88
335.455	436.88
335.684	432.88
335.912	423.88
336.14	405.88
336.369	406.88
336.597	441.88
336.825	434.88
337.053	416.88
337.281	420.88
337.51	418.88
337.738	413.88
337.966	423.88
338.194	420.88
338.422	416.88
338.65	413.88
338.878	407.88
339.106	387.88
339.334	418.88
339.562	402.88
339.79	410.88
340.018	395.88
340.246	430.88
340.474	412.88
340.702	402.88
340.93	412.88
341.158	384.88
341.386	402.88
341.614	421.88
341.842	406.88
342.07	384.88
342.298	384.88
342.526	395.88
342.754	395.88
342.981	388.88
343.209	385.88
343.437	388.88
343.665	378.88
343.893	410.88
344.12	406.88
344.348	416.88
344.576	402.88
344.804	396.88
345.031	413.88
345.259	418.88
345.487	427.88
345.714	425.88
345.942	408.88
346.17	395.88
346.397	405.88
346.625	403.88
346.853	403.88
347.08	379.88
347.308	408.88
347.535	412.88
347.763	407.88
347.99	418.88
348.218	409.88
348.445	401.88
348.673	426.88
348.9	410.88
349.128	386.88
349.355	387.88
349.583	380.88
349.81	404.88
350.037	388.88
350.265	383.88
350.492	392.88
350.72	390.88
350.947	387.88
351.174	384.88
351.402	413.88
351.629	413.88
351.856	407.88
352.083	429.88
352.311	436.88
352.538	416.88
352.765	444.88
352.992	429.88
353.22	404.88
353.447	408.88
353.674	404.88
353.901	380.88
354.128	366.88
354.355	361.88
354.583	357.88
354.81	370.88
355.037	350.88
355.264	362.88
355.491	348.88
355.718	351.88
355.945	355.88
356.172	350.88
356.399	364.88
356.626	372.88
356.853	356.88
357.08	378.88
357.307	350.88
357.534	345.88
357.761	352.88
357.988	355.88
358.215	378.88
358.441	366.88
358.668	376.88
358.895	382.88
359.122	380.88
359.349	379.88
359.576	406.88
359.802	428.88
360.029	446.88
360.256	470.88
360.483	454.88
360.709	429.88
360.936	404.88
361.163	394.88
361.39	399.88
361.616	403.88
361.843	391.88
362.07	382.88
362.296	390.88
362.523	398.88
362.749	377.88
362.976	398.88
363.203	374.88
363.429	384.88
363.656	374.88
363.882	380.88
364.109	362.88
364.335	382.88
364.562	375.88
364.788	362.88
365.015	364.88
365.241	372.88
365.468	364.88
365.694	391.88
365.92	404.88
366.147	393.88
366.373	380.88
366.599	359.88
366.826	358.88
367.052	376.88
367.278	384.88
367.505	359.88
367.731	389.88
367.957	380.88
368.184	364.88
368.41	399.88
368.636	376.88
368.862	398.88
369.089	380.88
369.315	362.88
369.541	380.88
369.767	372.88
369.993	376.88
370.219	360.88
370.445	356.88
370.672	357.88
370.898	384.88
371.124	362.88
371.35	359.88
371.576	359.88
371.802	362.88
372.028	358.88
372.254	360.88
372.48	361.88
372.706	365.88
372.932	365.88
373.158	346.88
373.384	370.88
373.61	365.88
373.835	360.88
374.061	374.88
374.287	359.88
374.513	379.88
374.739	371.88
374.965	377.88
375.191	370.88
375.416	368.88
375.642	380.88
375.868	377.88
376.094	338.88
376.319	350.88
376.545	359.88
376.771	357.88
376.997	355.88
377.222	372.88
377.448	352.88
377.674	352.88
377.899	345.88
378.125	353.88
378.35	342.88
378.576	358.88
378.802	356.88
379.027	378.88
379.253	362.88
379.478	364.88
379.704	353.88
379.929	349.88
380.155	359.88
380.38	360.88
380.606	352.88
380.831	376.88
381.057	386.88
381.282	356.88
381.507	366.88
381.733	372.88
381.958	359.88
382.184	360.88
382.409	373.88
382.634	357.88
382.86	373.88
383.085	363.88
383.31	361.88
383.535	374.88
383.761	379.88
383.986	402.88
384.211	385.88
384.436	375.88
384.662	373.88
384.887	380.88
385.112	358.88
385.337	368.88
385.562	374.88
385.787	386.88
386.013	372.88
386.238	388.88
386.463	408.88
386.688	414.88
386.913	380.88
387.138	365.88
387.363	357.88
387.588	388.88
387.813	376.88
388.038	380.88
388.263	380.88
388.488	397.88
388.713	381.88
388.938	404.88
389.163	390.88
389.387	369.88
389.612	369.88
389.837	377.88
390.062	393.88
390.287	376.88
390.512	388.88
390.736	361.88
390.961	390.88
391.186	388.88
391.411	380.88
391.636	378.88
391.86	375.88
392.085	391.88
392.31	368.88
392.534	380.88
392.759	400.88
392.984	398.88
393.208	386.88
393.433	374.88
393.658	374.88
393.882	375.88
394.107	385.88
394.331	401.88
394.556	368.88
394.78	378.88
395.005	386.88
395.229	373.88
395.454	404.88
395.678	408.88
395.903	398.88
396.127	420.88
396.352	428.88
396.576	405.88
396.801	392.88
397.025	417.88
397.249	420.88
397.474	400.88
397.698	395.88
397.922	417.88
398.147	445.88
398.371	432.88
398.595	428.88
398.82	431.88
399.044	447.88
399.268	445.88
399.492	470.88
399.717	468.88
399.941	495.88
400.165	537.88
400.389	550.88
400.613	521.88
400.837	448.88
401.062	460.88
401.286	441.88
401.51	441.88
401.734	439.88
401.958	435.88
402.182	464.88
402.406	440.88
402.63	465.88
402.854	441.88
403.078	458.88
403.302	453.88
403.526	463.88
403.75	455.88
403.974	461.88
404.198	458.88
404.422	460.88
404.645	460.88
404.869	490.88
405.093	494.88
405.317	533.88
405.541	588.88
405.765	518.88
405.988	482.88
406.212	517.88
406.436	532.88
406.66	522.88
406.883	514.88
407.107	520.88
407.331	575.88
407.555	635.88
407.778	613.88
408.002	572.88
408.226	520.88
408.449	500.88
408.673	494.88
408.896	566.88
409.12	578.88
409.344	561.88
409.567	518.88
409.791	486.88
410.014	478.88
410.238	465.88
410.461	450.88
410.685	483.88
410.908	480.88
411.132	521.88
411.355	568.88
411.578	524.88
411.802	466.88
412.025	482.88
412.249	483.88
412.472	489.88
412.695	534.88
412.919	522.88
413.142	486.88
413.365	470.88
413.589	439.88
413.812	427.88
414.035	448.88
414.258	432.88
414.482	460.88
414.705	416.88
414.928	433.88
415.151	424.88
415.374	430.88
415.597	428.88
415.821	442.88
416.044	424.88
416.267	439.88
416.49	442.88
416.713	445.88
416.936	436.88
417.159	433.88
417.382	444.88
417.605	425.88
417.828	452.88
418.051	464.88
418.274	455.88
418.497	447.88
418.72	439.88
418.943	426.88
419.166	438.88
419.389	451.88
419.611	456.88
419.834	466.88
420.057	478.88
420.28	470.88
420.503	478.88
420.726	488.88
420.948	472.88
421.171	526.88
421.394	549.88
421.617	479.88
421.839	498.88
422.062	466.88
422.285	486.88
422.507	538.88
422.73	604.88
422.953	577.88
423.175	516.88
423.398	504.88
423.621	496.88
423.843	517.88
424.066	524.88
424.288	520.88
424.511	533.88
424.733	580.88
424.956	654.88
425.178	617.88
425.401	639.88
425.623	650.88
425.846	590.88
426.068	514.88
426.291	521.88
426.513	500.88
426.735	522.88
426.958	565.88
427.18	644.88
427.402	780.88
427.625	851.88
427.847	806.88
428.069	671.88
428.292	602.88
428.514	547.88
428.736	522.88
428.958	514.88
429.181	457.88
429.403	448.88
429.625	484.88
429.847	513.88
430.069	608.88
430.292	594.88
430.514	497.88
430.736	489.88
430.958	481.88
431.18	470.88
431.402	456.88
431.624	472.88
431.846	434.88
432.068	441.88
432.29	452.88
432.512	450.88
432.734	465.88
432.956	465.88
433.178	462.88
433.4	444.88
433.622	461.88
433.844	431.88
434.066	435.88
434.287	447.88
434.509	446.88
434.731	454.88
434.953	452.88
435.175	510.88
435.397	489.88
435.618	523.88
435.84	560.88
436.062	675.88
436.284	730.88
436.505	606.88
436.727	576.88
436.949	524.88
437.17	491.88
437.392	496.88
437.614	485.88
437.835	536.88
438.057	620.88
438.278	762.88
438.5	741.88
438.721	808.88
438.943	766.88
439.165	638.88
439.386	549.88
439.608	535.88
439.829	544.88
440.05	565.88
440.272	607.88
440.493	588.88
440.715	523.88
440.936	513.88
441.158	513.88
441.379	499.88
441.6	516.88
441.822	517.88
442.043	587.88
442.264	642.88
442.486	710.88
442.707	600.88
442.928	542.88
443.149	555.88
443.371	573.88
443.592	598.88
443.813	714.88
444.034	736.88
444.255	620.88
444.476	550.88
444.698	533.88
444.919	515.88
445.14	568.88
445.361	569.88
445.582	568.88
445.803	625.88
446.024	742.88
446.245	714.88
446.466	676.88
446.687	576.88
446.908	525.88
447.129	501.88
447.35	501.88
447.571	477.88
447.792	478.88
448.013	504.88
448.234	506.88
448.455	566.88
448.675	680.88
448.896	780.88
449.117	670.88
449.338	637.88
449.559	747.88
449.779	803.88
450	650.88
450.221	577.88
450.442	530.88
450.662	505.88
450.883	514.88
451.104	515.88
451.324	493.88
451.545	462.88
451.766	460.88
451.986	437.88
452.207	431.88
452.428	433.88
452.648	451.88
452.869	450.88
453.089	456.88
453.31	472.88
453.53	436.88
453.751	432.88
453.971	429.88
454.192	462.88
454.412	473.88
454.633	467.88
454.853	444.88
455.073	437.88
455.294	458.88
455.514	534.88
455.734	546.88
455.955	457.88
456.175	432.88
456.395	397.88
456.616	402.88
456.836	417.88
457.056	397.88
457.276	392.88
457.497	422.88
457.717	404.88
457.937	398.88
458.157	413.88
458.377	425.88
458.598	444.88
458.818	494.88
459.038	596.88
459.258	624.88
459.478	498.88
459.698	471.88
459.918	416.88
460.138	424.88
460.358	435.88
460.578	436.88
460.798	452.88
461.018	441.88
461.238	438.88
461.458	439.88
461.678	436.88
461.898	422.88
462.118	449.88
462.338	451.88
462.558	439.88
462.777	444.88
462.997	449.88
463.217	469.88
463.437	464.88
463.657	441.88
463.876	446.88
464.096	452.88
464.316	458.88
464.536	460.88
464.755	490.88
464.975	516.88
465.195	528.88
465.414	631.88
465.634	541.88
465.854	500.88
466.073	457.88
466.293	451.88
466.512	438.88
466.732	429.88
466.951	441.88
467.171	429.88
467.391	440.88
467.61	464.88
467.829	468.88
468.049	465.88
468.268	468.88
468.488	442.88
468.707	423.88
468.927	411.88
469.146	413.88
469.365	416.88
469.585	422.88
469.804	429.88
470.023	436.88
470.243	458.88
470.462	451.88
470.681	469.88
470.901	458.88
471.12	434.88
471.339	444.88
471.558	445.88
471.777	450.88
471.997	445.88
472.216	447.88
472.435	484.88
472.654	462.88
472.873	436.88
473.092	438.88
473.311	453.88
473.53	449.88
473.749	475.88
473.968	501.88
474.187	593.88
474.406	643.88
474.625	532.88
474.844	476.88
475.063	442.88
475.282	446.88
475.501	456.88
475.72	458.88
475.939	437.88
476.158	462.88
476.377	448.88
476.596	468.88
476.814	477.88
477.033	469.88
477.252	485.88
477.471	470.88
477.69	470.88
477.908	472.88
478.127	475.88
478.346	474.88
478.564	485.88
478.783	485.88
479.002	519.88
479.22	514.88
479.439	503.88
479.658	536.88
479.876	546.88
480.095	531.88
480.313	570.88
480.532	550.88
480.751	544.88
480.969	567.88
481.188	606.88
481.406	681.88
481.624	606.88
481.843	564.88
482.061	528.88
482.28	532.88
482.498	518.88
482.717	513.88
482.935	527.88
483.153	546.88
483.372	530.88
483.59	536.88
483.808	512.88
484.027	532.88
484.245	540.88
484.463	532.88
484.681	557.88
484.9	530.88
485.118	546.88
485.336	536.88
485.554	517.88
485.772	530.88
485.99	565.88
486.209	551.88
486.427	536.88
486.645	556.88
486.863	578.88
487.081	581.88
487.299	608.88
487.517	556.88
487.735	556.88
487.953	568.88
488.171	572.88
488.389	562.88
488.607	571.88
488.825	573.88
489.043	586.88
489.261	592.88
489.479	588.88
489.696	579.88
489.914	588.88
490.132	569.88
490.35	612.88
490.568	587.88
490.786	619.88
491.003	642.88
491.221	620.88
491.439	652.88
491.657	660.88
491.874	648.88
492.092	646.88
492.31	679.88
492.527	689.88
492.745	657.88
492.963	686.88
493.18	667.88
493.398	667.88
493.615	671.88
493.833	685.88
494.05	674.88
494.268	707.88
494.485	687.88
494.703	684.88
494.92	676.88
495.138	678.88
495.355	691.88
495.573	672.88
495.79	670.88
496.008	668.88
496.225	673.88
496.442	675.88
496.66	696.88
496.877	648.88
497.094	684.88
497.312	699.88
497.529	705.88
497.746	663.88
497.963	704.88
498.181	704.88
498.398	730.88
498.615	719.88
498.832	737.88
499.049	740.88
499.267	749.88
499.484	771.88
499.701	786.88
499.918	779.88
500.135	818.88
500.352	811.88
500.569	836.88
500.786	820.88
501.003	831.88
501.22	833.88
501.437	805.88
501.654	793.88
501.871	834.88
502.088	805.88
502.305	775.88
502.522	752.88
502.739	750.88
502.956	724.88
503.172	707.88
503.389	702.88
503.606	702.88
503.823	722.88
504.04	706.88
504.256	693.88
504.473	669.88
504.69	677.88
504.907	684.88
505.123	646.88
505.34	672.88
505.557	649.88
505.773	668.88
505.99	658.88
506.207	653.88
506.423	664.88
506.64	644.88
506.856	638.88
507.073	656.88
507.289	624.88
507.506	638.88
507.722	675.88
507.939	676.88
508.155	660.88
508.372	638.88
508.588	653.88
508.805	620.88
509.021	627.88
509.238	654.88
509.454	673.88
509.67	640.88
509.887	642.88
510.103	626.88
510.319	647.88
510.536	804.88
510.752	1349.88
510.968	1098.88
511.184	672.88
511.401	636.88
511.617	627.88
511.833	620.88
512.049	625.88
512.265	619.88
512.481	598.88
512.698	605.88
512.914	595.88
513.13	618.88
513.346	583.88
513.562	594.88
513.778	601.88
513.994	616.88
514.21	627.88
514.426	658.88
514.642	700.88
514.858	754.88
515.074	778.88
515.29	960.88
515.506	1474.88
515.721	1221.88
515.937	796.88
516.153	693.88
516.369	674.88
516.585	633.88
516.801	613.88
517.016	606.88
517.232	618.88
517.448	610.88
517.664	637.88
517.879	594.88
518.095	605.88
518.311	613.88
518.527	618.88
518.742	581.88
518.958	598.88
519.173	600.88
519.389	595.88
519.605	581.88
519.82	616.88
520.036	636.88
520.251	658.88
520.467	689.88
520.682	700.88
520.898	689.88
521.113	733.88
521.329	799.88
521.544	904.88
521.76	1181.88
521.975	2034.88
522.19	2008.88
522.406	1013.88
522.621	758.88
522.836	652.88
523.052	621.88
523.267	580.88
523.482	574.88
523.698	570.88
523.913	590.88
524.128	566.88
524.343	542.88
524.559	550.88
524.774	524.88
524.989	523.88
525.204	528.88
525.419	533.88
525.634	527.88
525.849	521.88
526.064	513.88
526.28	514.88
526.495	495.88
526.71	483.88
526.925	496.88
527.14	488.88
527.355	484.88
527.57	485.88
527.785	513.88
527.999	465.88
528.214	480.88
528.429	488.88
528.644	484.88
528.859	469.88
529.074	476.88
529.289	506.88
529.503	631.88
529.718	610.88
529.933	555.88
530.148	498.88
530.363	504.88
530.577	458.88
530.792	465.88
531.007	450.88
531.221	466.88
531.436	469.88
531.651	451.88
531.865	486.88
532.08	455.88
532.295	453.88
532.509	451.88
532.724	463.88
532.938	457.88
533.153	464.88
533.367	461.88
533.582	436.88
533.796	454.88
534.011	456.88
534.225	442.88
534.44	443.88
534.654	432.88
534.868	449.88
535.083	445.88
535.297	428.88
535.511	459.88
535.726	456.88
535.94	463.88
536.154	439.88
536.369	444.88
536.583	443.88
536.797	430.88
537.011	428.88
537.225	439.88
537.44	420.88
537.654	428.88
537.868	447.88
538.082	441.88
538.296	442.88
538.51	441.88
538.724	444.88
538.938	440.88
539.153	415.88
539.367	466.88
539.581	450.88
539.795	447.88
540.009	443.88
540.222	421.88
540.436	440.88
540.65	432.88
540.864	425.88
541.078	446.88
541.292	454.88
541.506	453.88
541.72	452.88
541.934	436.88
542.147	437.88
542.361	442.88
542.575	416.88
542.789	449.88
543.002	434.88
543.216	449.88
543.43	437.88
543.644	432.88
543.857	446.88
544.071	442.88
544.285	441.88
544.498	437.88
544.712	436.88
544.925	439.88
545.139	413.88
545.352	409.88
545.566	421.88
545.779	414.88
545.993	422.88
546.206	429.88
546.42	391.88
546.633	414.88
546.847	405.88
547.06	411.88
547.274	420.88
547.487	388.88
547.7	410.88
547.914	397.88
548.127	409.88
548.34	384.88
548.554	404.88
548.767	387.88
548.98	407.88
549.193	404.88
549.407	411.88
549.62	403.88
549.833	404.88
550.046	404.88
550.259	422.88
550.473	386.88
550.686	401.88
550.899	415.88
551.112	414.88
551.325	392.88
551.538	411.88
551.751	387.88
551.964	392.88
552.177	415.88
552.39	404.88
552.603	412.88
552.816	427.88
553.029	387.88
553.242	396.88
553.455	398.88
553.667	429.88
553.88	420.88
554.093	442.88
554.306	384.88
554.519	406.88
554.732	410.88
554.944	392.88
555.157	381.88
555.37	382.88
555.583	388.88
555.795	391.88
556.008	362.88
556.221	386.88
556.433	386.88
556.646	389.88
556.859	386.88
557.071	381.88
557.284	368.88
557.496	374.88
557.709	388.88
557.921	380.88
558.134	382.88
558.346	391.88
558.559	373.88
558.771	360.88
558.984	380.88
559.196	357.88
559.409	357.88
559.621	371.88
559.833	368.88
560.046	356.88
560.258	372.88
560.47	341.88
560.683	374.88
560.895	368.88
561.107	367.88
561.32	348.88
561.532	363.88
561.744	349.88
561.956	374.88
562.168	358.88
562.381	380.88
562.593	356.88
562.805	348.88
563.017	353.88
563.229	360.88
563.441	343.88
563.653	368.88
563.865	344.88
564.077	358.88
564.289	382.88
564.501	362.88
564.713	388.88
564.925	378.88
565.137	368.88
565.349	385.88
565.561	392.88
565.773	378.88
565.985	378.88
566.197	378.88
566.408	386.88
566.62	376.88
566.832	428.88
567.044	393.88
567.255	413.88
567.467	412.88
567.679	391.88
567.891	426.88
568.102	398.88
568.314	402.88
568.526	420.88
568.737	408.88
568.949	388.88
569.161	361.88
569.372	367.88
569.584	352.88
569.795	360.88
570.007	389.88
570.218	421.88
570.43	392.88
570.641	333.88
570.853	332.88
571.064	358.88
571.276	332.88
571.487	350.88
571.698	339.88
571.91	321.88
572.121	336.88
572.333	331.88
572.544	333.88
572.755	333.88
572.966	338.88
573.178	307.88
573.389	329.88
573.6	324.88
573.811	312.88
574.023	336.88
574.234	315.88
574.445	316.88
574.656	317.88
574.867	310.88
575.078	321.88
575.289	315.88
575.501	311.88
575.712	300.88
575.923	315.88
576.134	344.88
576.345	306.88
576.556	320.88
576.767	322.88
576.978	306.88
577.188	311.88
577.399	301.88
577.61	300.88
577.821	312.88
578.032	318.88
578.243	371.88
578.454	615.88
578.665	452.88
578.875	351.88
579.086	315.88
579.297	301.88
579.508	290.88
579.718	298.88
579.929	296.88
580.14	298.88
580.35	288.88
580.561	296.88
580.772	288.88
580.982	285.88
581.193	290.88
581.403	296.88
581.614	290.88
581.825	301.88
582.035	280.88
582.246	280.88
582.456	276.88
582.667	289.88
582.877	284.88
583.087	294.88
583.298	291.88
583.508	268.88
583.719	270.88
583.929	271.88
584.139	293.88
584.35	270.88
584.56	292.88
584.77	281.88
584.981	286.88
585.191	285.88
585.401	292.88
585.611	287.88
585.821	300.88
586.032	276.88
586.242	277.88
586.452	292.88
586.662	286.88
586.872	266.88
587.082	270.88
587.292	274.88
587.502	276.88
587.713	266.88
587.923	281.88
588.133	264.88
588.343	278.88
588.553	275.88
588.762	279.88
588.972	254.88
589.182	270.88
589.392	283.88
589.602	270.88
589.812	283.88
590.022	252.88
590.232	272.88
590.441	286.88
590.651	268.88
590.861	260.88
591.071	270.88
591.281	267.88
591.49	269.88
591.7	271.88
591.91	257.88
592.119	273.88
592.329	282.88
592.539	293.88
592.748	311.88
592.958	273.88
593.167	282.88
593.377	289.88
593.587	294.88
593.796	285.88
594.006	284.88
594.215	276.88
594.424	282.88
594.634	285.88
594.843	274.88
595.053	271.88
595.262	279.88
595.472	286.88
595.681	262.88
595.89	247.88
596.1	256.88
596.309	275.88
596.518	271.88
596.727	265.88
596.937	261.88
597.146	266.88
597.355	270.88
597.564	258.88
597.774	236.88
597.983	244.88
598.192	248.88
598.401	266.88
598.61	254.88
598.819	236.88
599.028	251.88
599.237	270.88
599.446	256.88
599.655	254.88
599.864	233.88
600.073	234.88
600.282	227.88
600.491	242.88
600.7	242.88
600.909	243.88
601.118	249.88
601.327	247.88
601.536	236.88
601.745	248.88
601.953	245.88
602.162	251.88
602.371	236.88
602.58	243.88
602.789	241.88
602.997	234.88
603.206	245.88
603.415	227.88
603.623	261.88
603.832	230.88
604.041	221.88
604.249	234.88
604.458	217.88
604.666	222.88
604.875	246.88
605.084	247.88
605.292	230.88
605.501	231.88
605.709	237.88
605.918	228.88
606.126	241.88
606.334	256.88
606.543	237.88
606.751	225.88
606.96	228.88
607.168	234.88
607.376	235.88
607.585	233.88
607.793	220.88
608.001	224.88
608.21	228.88
608.418	231.88
608.626	226.88
608.834	235.88
609.043	240.88
609.251	237.88
609.459	224.88
609.667	244.88
609.875	217.88
610.083	242.88
610.291	232.88
610.499	230.88
610.707	215.88
610.916	249.88
611.124	242.88
611.332	233.88
611.54	240.88
611.748	253.88
611.955	240.88
612.163	226.88
612.371	222.88
612.579	215.88
612.787	230.88
612.995	233.88
613.203	218.88
613.411	217.88
613.618	216.88
613.826	225.88
614.034	211.88
614.242	200.88
614.449	222.88
614.657	226.88
614.865	222.88
615.072	222.88
615.28	215.88
615.488	222.88
615.695	209.88
615.903	226.88
616.111	237.88
616.318	209.88
616.526	217.88
616.733	222.88
616.941	210.88
617.148	233.88
617.356	226.88
617.563	218.88
617.771	213.88
617.978	229.88
618.185	229.88
618.393	206.88
618.6	228.88
618.807	210.88
619.015	238.88
619.222	217.88
619.429	216.88
619.637	215.88
619.844	224.88
620.051	238.88
620.258	212.88
620.466	213.88
620.673	197.88
620.88	204.88
621.087	208.88
621.294	213.88
621.501	220.88
621.708	210.88
621.915	209.88
622.122	221.88
622.329	221.88
622.536	206.88
622.743	194.88
622.95	210.88
623.157	196.88
623.364	194.88
623.571	213.88
623.778	205.88
623.985	191.88
624.192	201.88
624.399	200.88
624.606	209.88
624.812	210.88
625.019	203.88
625.226	203.88
625.433	197.88
625.639	216.88
625.846	201.88
626.053	196.88
626.259	196.88
626.466	179.88
626.673	211.88
626.879	200.88
627.086	182.88
627.293	194.88
627.499	182.88
627.706	200.88
627.912	193.88
628.119	180.88
628.325	199.88
628.532	176.88
628.738	201.88
628.945	188.88
629.151	185.88
629.357	171.88
629.564	202.88
629.77	200.88
629.976	185.88
630.183	190.88
630.389	202.88
630.595	183.88
630.802	166.88
631.008	196.88
631.214	191.88
631.42	191.88
631.627	188.88
631.833	194.88
632.039	169.88
632.245	180.88
632.451	181.88
632.657	177.88
632.863	177.88
633.069	186.88
633.275	165.88
633.481	173.88
633.688	188.88
633.893	180.88
634.099	184.88
634.305	184.88
634.511	181.88
634.717	173.88
634.923	163.88
635.129	169.88
635.335	174.88
635.541	172.88
635.747	165.88
635.952	186.88
636.158	162.88
636.364	185.88
636.57	186.88
636.775	181.88
636.981	164.88
637.187	162.88
637.392	169.88
637.598	177.88
637.804	169.88
638.009	169.88
638.215	162.88
638.421	177.88
638.626	168.88
638.832	164.88
639.037	174.88
639.243	166.88
639.448	154.88
639.654	161.88
639.859	180.88
640.065	173.88
640.27	175.88
640.475	182.88
640.681	184.88
640.886	170.88
641.091	155.88
641.297	163.88
641.502	168.88
641.707	156.88
641.913	157.88
642.118	169.88
642.323	172.88
642.528	147.88
642.733	168.88
642.939	150.88
643.144	171.88
643.349	162.88
643.554	160.88
643.759	148.88
643.964	155.88
644.169	167.88
644.374	168.88
644.579	153.88
644.784	172.88
644.989	149.88
645.194	166.88
645.399	146.88
645.604	173.88
645.809	174.88
646.014	151.88
646.219	176.88
646.423	161.88
646.628	152.88
646.833	171.88
647.038	173.88
647.243	142.88
647.447	165.88
647.652	160.88
647.857	141.88
648.062	162.88
648.266	143.88
648.471	153.88
648.676	163.88
648.88	173.88
649.085	171.88
649.289	161.88
649.494	182.88
649.698	195.88
649.903	175.88
650.107	164.88
650.312	150.88
650.516	143.88
650.721	167.88
650.925	170.88
651.13	141.88
651.334	141.88
651.539	126.88
651.743	143.88
651.947	130.88
652.152	133.88
652.356	148.88
652.56	138.88
652.764	134.88
652.969	142.88
653.173	130.88
653.377	128.88
653.581	129.88
653.785	130.88
653.99	120.88
654.194	137.88
654.398	123.88
654.602	133.88
654.806	121.88
655.01	139.88
655.214	145.88
655.418	125.88
655.622	128.88
655.826	138.88
656.03	132.88
656.234	137.88
656.438	116.88
656.642	124.88
656.846	138.88
657.049	111.88
657.253	120.88
657.457	120.88
657.661	104.88
657.865	112.88
658.068	110.88
658.272	116.88
658.476	124.88
658.68	110.88
658.883	104.88
659.087	90.88
659.291	91.88
659.494	76.88
659.698	100.88
659.901	95.88
660.105	108.88
660.309	101.88
660.512	98.88
660.716	93.88
660.919	98.88
661.123	91.88
661.326	86.88
661.53	89.88
661.733	88.88
661.936	91.88
662.14	97.88
662.343	99.88
662.546	85.88
662.75	99.88
662.953	91.88
663.156	84.88
663.36	80.88
663.563	89.88
663.766	71.88
663.969	85.88
664.173	97.88
664.376	89.88
664.579	90.88
664.782	92.88
664.985	91.88
665.188	90.88
665.391	72.88
665.594	88.88
665.797	86.88
666	95.88
666.203	86.88
666.406	82.88
666.609	90.88
666.812	79.88
667.015	87.88
667.218	96.88
667.421	84.88
667.624	84.88
667.827	79.88
668.03	81.88
668.232	96.88
668.435	74.88
668.638	82.88
668.841	85.88
669.043	90.88
669.246	88.88
669.449	84.88
669.651	68.88
669.854	90.88
670.057	84.88
670.259	68.88
670.462	79.88
670.665	82.88
670.867	73.88
671.07	81.88
671.272	85.88
671.475	82.88
671.677	64.88
671.88	76.88
672.082	77.88
672.284	84.88
672.487	77.88
672.689	92.88
672.892	77.88
