Data from 1980.PennyLincolnUp.Lamp.En5.5.200Scan.071819.P1_HRD10591_16-38-04-957.txt Node
Date: Thu Jul 18 16:38:04 EDT 2019
User: cochatt
Spectrometer: HR+D1059
Trigger mode: 1
Integration Time (sec): 1.000000E-1
Scans to average: 1
Electric dark correction enabled: true
Nonlinearity correction enabled: false
Boxcar width: 0
XAxis mode: Wavelengths
Number of Pixels in Spectrum: 2048
>>>>>Begin Spectral Data<<<<<
223.165	3.69
223.4	3.69
223.635	3.69
223.869	-8.31
224.104	-8.31
224.338	-18.31
224.573	-28.31
224.808	-15.31
225.042	-20.31
225.277	-7.31
225.511	-3.31
225.746	3.69
225.98	-1.31
226.215	10.69
226.449	19.69
226.683	12.69
226.918	28.69
227.152	31.69
227.387	49.69
227.621	36.69
227.856	54.69
228.09	39.69
228.324	55.69
228.559	64.69
228.793	68.69
229.027	124.69
229.262	123.69
229.496	114.69
229.73	139.69
229.964	169.69
230.199	157.69
230.433	129.69
230.667	105.69
230.901	119.69
231.136	125.69
231.37	118.69
231.604	115.69
231.838	111.69
232.072	106.69
232.306	115.69
232.541	113.69
232.775	111.69
233.009	114.69
233.243	118.69
233.477	115.69
233.711	125.69
233.945	130.69
234.179	129.69
234.413	117.69
234.647	135.69
234.881	121.69
235.115	114.69
235.349	117.69
235.583	129.69
235.817	133.69
236.051	135.69
236.285	136.69
236.519	133.69
236.753	137.69
236.987	158.69
237.221	210.69
237.455	261.69
237.689	199.69
237.922	147.69
238.156	143.69
238.39	141.69
238.624	129.69
238.858	139.69
239.091	129.69
239.325	132.69
239.559	121.69
239.793	139.69
240.027	137.69
240.26	157.69
240.494	181.69
240.728	163.69
240.961	163.69
241.195	160.69
241.429	129.69
241.662	151.69
241.896	137.69
242.13	134.69
242.363	129.69
242.597	150.69
242.83	143.69
243.064	144.69
243.298	149.69
243.531	136.69
243.765	148.69
243.998	151.69
244.232	151.69
244.465	159.69
244.699	141.69
244.932	139.69
245.166	148.69
245.399	151.69
245.633	153.69
245.866	161.69
246.099	161.69
246.333	146.69
246.566	144.69
246.8	155.69
247.033	154.69
247.266	158.69
247.5	174.69
247.733	171.69
247.966	190.69
248.2	189.69
248.433	170.69
248.666	193.69
248.899	207.69
249.133	215.69
249.366	224.69
249.599	222.69
249.832	190.69
250.066	189.69
250.299	198.69
250.532	195.69
250.765	219.69
250.998	218.69
251.231	228.69
251.465	230.69
251.698	201.69
251.931	215.69
252.164	220.69
252.397	211.69
252.63	210.69
252.863	212.69
253.096	241.69
253.329	238.69
253.562	238.69
253.795	238.69
254.028	244.69
254.261	224.69
254.494	233.69
254.727	275.69
254.96	303.69
255.193	288.69
255.426	279.69
255.659	248.69
255.892	257.69
256.124	245.69
256.357	255.69
256.59	223.69
256.823	229.69
257.056	228.69
257.289	212.69
257.521	214.69
257.754	214.69
257.987	205.69
258.22	233.69
258.452	199.69
258.685	223.69
258.918	229.69
259.151	225.69
259.383	225.69
259.616	243.69
259.849	241.69
260.081	265.69
260.314	275.69
260.547	271.69
260.779	270.69
261.012	261.69
261.244	262.69
261.477	229.69
261.71	237.69
261.942	254.69
262.175	252.69
262.407	267.69
262.64	231.69
262.872	219.69
263.105	234.69
263.337	226.69
263.57	215.69
263.802	219.69
264.035	208.69
264.267	224.69
264.499	219.69
264.732	213.69
264.964	209.69
265.197	216.69
265.429	223.69
265.661	223.69
265.894	201.69
266.126	204.69
266.358	207.69
266.591	221.69
266.823	233.69
267.055	221.69
267.287	229.69
267.52	217.69
267.752	243.69
267.984	228.69
268.216	235.69
268.448	242.69
268.681	241.69
268.913	265.69
269.145	268.69
269.377	302.69
269.609	305.69
269.841	277.69
270.073	285.69
270.306	296.69
270.538	333.69
270.77	341.69
271.002	338.69
271.234	309.69
271.466	323.69
271.698	353.69
271.93	354.69
272.162	344.69
272.394	338.69
272.626	326.69
272.858	325.69
273.09	304.69
273.322	270.69
273.553	282.69
273.785	274.69
274.017	278.69
274.249	279.69
274.481	287.69
274.713	264.69
274.945	271.69
275.176	246.69
275.408	257.69
275.64	283.69
275.872	267.69
276.104	273.69
276.335	286.69
276.567	307.69
276.799	310.69
277.031	330.69
277.262	356.69
277.494	332.69
277.726	313.69
277.957	302.69
278.189	297.69
278.421	295.69
278.652	278.69
278.884	271.69
279.115	257.69
279.347	259.69
279.579	263.69
279.81	271.69
280.042	250.69
280.273	259.69
280.505	275.69
280.736	265.69
280.968	276.69
281.199	281.69
281.431	269.69
281.662	288.69
281.894	266.69
282.125	283.69
282.356	276.69
282.588	316.69
282.819	305.69
283.051	277.69
283.282	251.69
283.513	257.69
283.745	274.69
283.976	276.69
284.207	285.69
284.439	269.69
284.67	263.69
284.901	283.69
285.132	284.69
285.364	271.69
285.595	277.69
285.826	273.69
286.057	285.69
286.288	257.69
286.52	275.69
286.751	246.69
286.982	291.69
287.213	273.69
287.444	273.69
287.675	294.69
287.906	299.69
288.138	296.69
288.369	300.69
288.6	283.69
288.831	289.69
289.062	268.69
289.293	289.69
289.524	285.69
289.755	297.69
289.986	286.69
290.217	289.69
290.448	259.69
290.679	275.69
290.91	273.69
291.141	270.69
291.371	264.69
291.602	275.69
291.833	287.69
292.064	277.69
292.295	291.69
292.526	285.69
292.757	270.69
292.987	285.69
293.218	262.69
293.449	281.69
293.68	295.69
293.91	295.69
294.141	285.69
294.372	280.69
294.603	283.69
294.833	269.69
295.064	267.69
295.295	276.69
295.525	284.69
295.756	293.69
295.987	277.69
296.217	342.69
296.448	357.69
296.679	307.69
296.909	275.69
297.14	282.69
297.37	295.69
297.601	279.69
297.831	287.69
298.062	289.69
298.292	289.69
298.523	300.69
298.753	310.69
298.984	292.69
299.214	317.69
299.445	301.69
299.675	296.69
299.905	298.69
300.136	284.69
300.366	298.69
300.597	268.69
300.827	297.69
301.057	313.69
301.288	322.69
301.518	306.69
301.748	306.69
301.979	301.69
302.209	305.69
302.439	324.69
302.669	306.69
302.9	334.69
303.13	306.69
303.36	332.69
303.59	331.69
303.82	335.69
304.051	350.69
304.281	324.69
304.511	324.69
304.741	306.69
304.971	298.69
305.201	311.69
305.431	321.69
305.661	326.69
305.891	302.69
306.121	328.69
306.352	318.69
306.582	319.69
306.812	321.69
307.042	339.69
307.272	330.69
307.502	312.69
307.731	334.69
307.961	328.69
308.191	335.69
308.421	334.69
308.651	334.69
308.881	359.69
309.111	349.69
309.341	353.69
309.571	348.69
309.8	360.69
310.03	366.69
310.26	379.69
310.49	379.69
310.72	406.69
310.949	396.69
311.179	418.69
311.409	393.69
311.639	385.69
311.868	354.69
312.098	382.69
312.328	382.69
312.557	391.69
312.787	430.69
313.017	427.69
313.246	394.69
313.476	366.69
313.706	377.69
313.935	379.69
314.165	399.69
314.394	426.69
314.624	399.69
314.853	391.69
315.083	363.69
315.312	368.69
315.542	361.69
315.771	354.69
316.001	346.69
316.23	366.69
316.46	361.69
316.689	382.69
316.919	382.69
317.148	389.69
317.377	403.69
317.607	379.69
317.836	371.69
318.065	378.69
318.295	370.69
318.524	372.69
318.753	362.69
318.983	366.69
319.212	361.69
319.441	381.69
319.67	381.69
319.9	386.69
320.129	387.69
320.358	409.69
320.587	372.69
320.816	385.69
321.046	418.69
321.275	407.69
321.504	401.69
321.733	407.69
321.962	432.69
322.191	438.69
322.42	453.69
322.649	485.69
322.878	471.69
323.108	502.69
323.337	513.69
323.566	554.69
323.795	586.69
324.024	644.69
324.253	783.69
324.482	1157.69
324.71	1774.69
324.939	2522.69
325.168	2248.69
325.397	1197.69
325.626	779.69
325.855	618.69
326.084	538.69
326.313	540.69
326.542	563.69
326.77	627.69
326.999	731.69
327.228	989.69
327.457	1581.69
327.686	1914.69
327.914	1318.69
328.143	840.69
328.372	714.69
328.6	653.69
328.829	619.69
329.058	641.69
329.287	647.69
329.515	633.69
329.744	565.69
329.972	575.69
330.201	578.69
330.43	631.69
330.658	666.69
330.887	693.69
331.115	661.69
331.344	572.69
331.572	529.69
331.801	528.69
332.03	509.69
332.258	469.69
332.486	446.69
332.715	457.69
332.943	437.69
333.172	449.69
333.4	450.69
333.629	456.69
333.857	452.69
334.085	493.69
334.314	525.69
334.542	548.69
334.771	565.69
334.999	511.69
335.227	471.69
335.455	443.69
335.684	436.69
335.912	442.69
336.14	407.69
336.369	433.69
336.597	445.69
336.825	426.69
337.053	444.69
337.281	423.69
337.51	437.69
337.738	418.69
337.966	422.69
338.194	433.69
338.422	443.69
338.65	442.69
338.878	432.69
339.106	423.69
339.334	431.69
339.562	417.69
339.79	403.69
340.018	437.69
340.246	412.69
340.474	415.69
340.702	417.69
340.93	429.69
341.158	406.69
341.386	438.69
341.614	408.69
341.842	424.69
342.07	420.69
342.298	440.69
342.526	416.69
342.754	388.69
342.981	390.69
343.209	396.69
343.437	401.69
343.665	403.69
343.893	416.69
344.12	417.69
344.348	418.69
344.576	451.69
344.804	443.69
345.031	413.69
345.259	442.69
345.487	439.69
345.714	436.69
345.942	428.69
346.17	421.69
346.397	399.69
346.625	407.69
346.853	414.69
347.08	393.69
347.308	410.69
347.535	428.69
347.763	426.69
347.99	442.69
348.218	411.69
348.445	427.69
348.673	443.69
348.9	425.69
349.128	409.69
349.355	383.69
349.583	411.69
349.81	394.69
350.037	365.69
350.265	406.69
350.492	385.69
350.72	386.69
350.947	409.69
351.174	420.69
351.402	410.69
351.629	430.69
351.856	418.69
352.083	454.69
352.311	426.69
352.538	436.69
352.765	436.69
352.992	429.69
353.22	409.69
353.447	405.69
353.674	397.69
353.901	388.69
354.128	387.69
354.355	398.69
354.583	376.69
354.81	391.69
355.037	388.69
355.264	354.69
355.491	382.69
355.718	372.69
355.945	350.69
356.172	387.69
356.399	365.69
356.626	377.69
356.853	375.69
357.08	353.69
357.307	360.69
357.534	372.69
357.761	377.69
357.988	379.69
358.215	359.69
358.441	385.69
358.668	377.69
358.895	358.69
359.122	387.69
359.349	401.69
359.576	405.69
359.802	457.69
360.029	468.69
360.256	492.69
360.483	439.69
360.709	429.69
360.936	415.69
361.163	416.69
361.39	433.69
361.616	397.69
361.843	396.69
362.07	407.69
362.296	415.69
362.523	418.69
362.749	407.69
362.976	416.69
363.203	383.69
363.429	370.69
363.656	396.69
363.882	391.69
364.109	389.69
364.335	397.69
364.562	382.69
364.788	393.69
365.015	389.69
365.241	382.69
365.468	381.69
365.694	385.69
365.92	399.69
366.147	385.69
366.373	393.69
366.599	380.69
366.826	363.69
367.052	384.69
367.278	367.69
367.505	389.69
367.731	385.69
367.957	370.69
368.184	401.69
368.41	395.69
368.636	394.69
368.862	384.69
369.089	389.69
369.315	373.69
369.541	358.69
369.767	393.69
369.993	381.69
370.219	378.69
370.445	367.69
370.672	395.69
370.898	383.69
371.124	393.69
371.35	378.69
371.576	376.69
371.802	376.69
372.028	379.69
372.254	377.69
372.48	369.69
372.706	373.69
372.932	381.69
373.158	371.69
373.384	373.69
373.61	389.69
373.835	374.69
374.061	377.69
374.287	387.69
374.513	373.69
374.739	372.69
374.965	377.69
375.191	378.69
375.416	373.69
375.642	373.69
375.868	360.69
376.094	393.69
376.319	364.69
376.545	350.69
376.771	364.69
376.997	360.69
377.222	373.69
377.448	365.69
377.674	383.69
377.899	371.69
378.125	366.69
378.35	374.69
378.576	362.69
378.802	360.69
379.027	372.69
379.253	351.69
379.478	383.69
379.704	371.69
379.929	386.69
380.155	375.69
380.38	365.69
380.606	387.69
380.831	391.69
381.057	385.69
381.282	364.69
381.507	374.69
381.733	371.69
381.958	357.69
382.184	381.69
382.409	359.69
382.634	369.69
382.86	391.69
383.085	386.69
383.31	381.69
383.535	375.69
383.761	390.69
383.986	392.69
384.211	379.69
384.436	382.69
384.662	369.69
384.887	377.69
385.112	398.69
385.337	390.69
385.562	395.69
385.787	399.69
386.013	405.69
386.238	418.69
386.463	411.69
386.688	400.69
386.913	370.69
387.138	395.69
387.363	389.69
387.588	400.69
387.813	372.69
388.038	386.69
388.263	380.69
388.488	405.69
388.713	390.69
388.938	407.69
389.163	395.69
389.387	390.69
389.612	404.69
389.837	397.69
390.062	382.69
390.287	409.69
390.512	398.69
390.736	359.69
390.961	386.69
391.186	393.69
391.411	398.69
391.636	418.69
391.86	383.69
392.085	412.69
392.31	412.69
392.534	395.69
392.759	403.69
392.984	415.69
393.208	400.69
393.433	376.69
393.658	397.69
393.882	385.69
394.107	401.69
394.331	385.69
394.556	390.69
394.78	411.69
395.005	431.69
395.229	393.69
395.454	416.69
395.678	405.69
395.903	407.69
396.127	446.69
396.352	445.69
396.576	436.69
396.801	420.69
397.025	415.69
397.249	415.69
397.474	430.69
397.698	419.69
397.922	420.69
398.147	435.69
398.371	446.69
398.595	424.69
398.82	417.69
399.044	437.69
399.268	451.69
399.492	461.69
399.717	483.69
399.941	518.69
400.165	563.69
400.389	545.69
400.613	492.69
400.837	482.69
401.062	463.69
401.286	452.69
401.51	449.69
401.734	441.69
401.958	444.69
402.182	469.69
402.406	463.69
402.63	455.69
402.854	440.69
403.078	470.69
403.302	471.69
403.526	456.69
403.75	459.69
403.974	469.69
404.198	469.69
404.422	471.69
404.645	498.69
404.869	491.69
405.093	511.69
405.317	551.69
405.541	591.69
405.765	547.69
405.988	502.69
406.212	517.69
406.436	540.69
406.66	564.69
406.883	528.69
407.107	538.69
407.331	577.69
407.555	650.69
407.778	650.69
408.002	591.69
408.226	526.69
408.449	526.69
408.673	530.69
408.896	539.69
409.12	582.69
409.344	569.69
409.567	494.69
409.791	506.69
410.014	476.69
410.238	471.69
410.461	464.69
410.685	463.69
410.908	497.69
411.132	554.69
411.355	567.69
411.578	541.69
411.802	473.69
412.025	461.69
412.249	492.69
412.472	523.69
412.695	539.69
412.919	532.69
413.142	491.69
413.365	469.69
413.589	451.69
413.812	447.69
414.035	473.69
414.258	445.69
414.482	443.69
414.705	439.69
414.928	440.69
415.151	442.69
415.374	420.69
415.597	422.69
415.821	428.69
416.044	443.69
416.267	455.69
416.49	445.69
416.713	450.69
416.936	434.69
417.159	422.69
417.382	457.69
417.605	442.69
417.828	467.69
418.051	482.69
418.274	475.69
418.497	433.69
418.72	455.69
418.943	445.69
419.166	452.69
419.389	462.69
419.611	486.69
419.834	473.69
420.057	497.69
420.28	458.69
420.503	490.69
420.726	461.69
420.948	495.69
421.171	552.69
421.394	567.69
421.617	526.69
421.839	495.69
422.062	487.69
422.285	497.69
422.507	563.69
422.73	647.69
422.953	635.69
423.175	527.69
423.398	533.69
423.621	505.69
423.843	513.69
424.066	510.69
424.288	534.69
424.511	565.69
424.733	620.69
424.956	699.69
425.178	683.69
425.401	662.69
425.623	694.69
425.846	575.69
426.068	552.69
426.291	525.69
426.513	529.69
426.735	528.69
426.958	608.69
427.18	693.69
427.402	800.69
427.625	881.69
427.847	814.69
428.069	697.69
428.292	637.69
428.514	544.69
428.736	514.69
428.958	531.69
429.181	493.69
429.403	503.69
429.625	509.69
429.847	527.69
430.069	619.69
430.292	621.69
430.514	519.69
430.736	494.69
430.958	489.69
431.18	468.69
431.402	471.69
431.624	458.69
431.846	444.69
432.068	464.69
432.29	455.69
432.512	460.69
432.734	457.69
432.956	464.69
433.178	487.69
433.4	485.69
433.622	472.69
433.844	460.69
434.066	457.69
434.287	457.69
434.509	463.69
434.731	463.69
434.953	479.69
435.175	492.69
435.397	522.69
435.618	556.69
435.84	582.69
436.062	681.69
436.284	730.69
436.505	622.69
436.727	573.69
436.949	519.69
437.17	488.69
437.392	485.69
437.614	526.69
437.835	577.69
438.057	663.69
438.278	769.69
438.5	753.69
438.721	812.69
438.943	801.69
439.165	637.69
439.386	593.69
439.608	570.69
439.829	576.69
440.05	593.69
440.272	629.69
440.493	592.69
440.715	547.69
440.936	510.69
441.158	489.69
441.379	510.69
441.6	505.69
441.822	532.69
442.043	585.69
442.264	667.69
442.486	711.69
442.707	607.69
442.928	557.69
443.149	556.69
443.371	587.69
443.592	624.69
443.813	731.69
444.034	775.69
444.255	655.69
444.476	577.69
444.698	564.69
444.919	533.69
445.14	606.69
445.361	587.69
445.582	601.69
445.803	653.69
446.024	765.69
446.245	779.69
446.466	680.69
446.687	599.69
446.908	565.69
447.129	517.69
447.35	508.69
447.571	521.69
447.792	507.69
448.013	509.69
448.234	518.69
448.455	581.69
448.675	678.69
448.896	795.69
449.117	676.69
449.338	653.69
449.559	756.69
449.779	814.69
450	679.69
450.221	579.69
450.442	531.69
450.662	506.69
450.883	513.69
451.104	535.69
451.324	524.69
451.545	478.69
451.766	484.69
451.986	446.69
452.207	462.69
452.428	439.69
452.648	425.69
452.869	433.69
453.089	455.69
453.31	485.69
453.53	488.69
453.751	451.69
453.971	453.69
454.192	485.69
454.412	469.69
454.633	458.69
454.853	443.69
455.073	413.69
455.294	472.69
455.514	554.69
455.734	539.69
455.955	446.69
456.175	432.69
456.395	425.69
456.616	409.69
456.836	410.69
457.056	418.69
457.276	402.69
457.497	414.69
457.717	411.69
457.937	413.69
458.157	423.69
458.377	439.69
458.598	456.69
458.818	543.69
459.038	645.69
459.258	660.69
459.478	539.69
459.698	469.69
459.918	441.69
460.138	444.69
460.358	442.69
460.578	462.69
460.798	461.69
461.018	468.69
461.238	445.69
461.458	449.69
461.678	460.69
461.898	451.69
462.118	441.69
462.338	447.69
462.558	449.69
462.777	439.69
462.997	449.69
463.217	463.69
463.437	461.69
463.657	452.69
463.876	475.69
464.096	465.69
464.316	456.69
464.536	497.69
464.755	486.69
464.975	505.69
465.195	527.69
465.414	631.69
465.634	566.69
465.854	513.69
466.073	491.69
466.293	473.69
466.512	446.69
466.732	460.69
466.951	444.69
467.171	457.69
467.391	449.69
467.61	472.69
467.829	467.69
468.049	470.69
468.268	456.69
468.488	465.69
468.707	447.69
468.927	442.69
469.146	431.69
469.365	427.69
469.585	420.69
469.804	461.69
470.023	454.69
470.243	469.69
470.462	480.69
470.681	474.69
470.901	474.69
471.12	450.69
471.339	456.69
471.558	463.69
471.777	448.69
471.997	472.69
472.216	472.69
472.435	505.69
472.654	478.69
472.873	475.69
473.092	463.69
473.311	466.69
473.53	456.69
473.749	471.69
473.968	516.69
474.187	630.69
474.406	649.69
474.625	541.69
474.844	486.69
475.063	474.69
475.282	460.69
475.501	443.69
475.72	448.69
475.939	450.69
476.158	462.69
476.377	466.69
476.596	458.69
476.814	470.69
477.033	486.69
477.252	478.69
477.471	470.69
477.69	482.69
477.908	479.69
478.127	511.69
478.346	513.69
478.564	478.69
478.783	493.69
479.002	542.69
479.22	525.69
479.439	501.69
479.658	563.69
479.876	556.69
480.095	554.69
480.313	575.69
480.532	561.69
480.751	552.69
480.969	553.69
481.188	649.69
481.406	692.69
481.624	582.69
481.843	584.69
482.061	559.69
482.28	553.69
482.498	537.69
482.717	556.69
482.935	529.69
483.153	550.69
483.372	550.69
483.59	550.69
483.808	555.69
484.027	524.69
484.245	534.69
484.463	525.69
484.681	545.69
484.9	551.69
485.118	543.69
485.336	542.69
485.554	533.69
485.772	555.69
485.99	553.69
486.209	565.69
486.427	563.69
486.645	573.69
486.863	608.69
487.081	610.69
487.299	579.69
487.517	583.69
487.735	562.69
487.953	581.69
488.171	581.69
488.389	590.69
488.607	590.69
488.825	601.69
489.043	583.69
489.261	593.69
489.479	583.69
489.696	616.69
489.914	612.69
490.132	605.69
490.35	625.69
490.568	605.69
490.786	635.69
491.003	631.69
491.221	669.69
491.439	646.69
491.657	693.69
491.874	687.69
492.092	683.69
492.31	697.69
492.527	697.69
492.745	694.69
492.963	692.69
493.18	719.69
493.398	695.69
493.615	683.69
493.833	717.69
494.05	680.69
494.268	689.69
494.485	704.69
494.703	706.69
494.92	717.69
495.138	709.69
495.355	683.69
495.573	716.69
495.79	712.69
496.008	695.69
496.225	714.69
496.442	723.69
496.66	716.69
496.877	691.69
497.094	702.69
497.312	694.69
497.529	708.69
497.746	731.69
497.963	738.69
498.181	741.69
498.398	737.69
498.615	737.69
498.832	766.69
499.049	749.69
499.267	757.69
499.484	789.69
499.701	798.69
499.918	812.69
500.135	799.69
500.352	849.69
500.569	845.69
500.786	861.69
501.003	875.69
501.22	823.69
501.437	810.69
501.654	825.69
501.871	839.69
502.088	801.69
502.305	814.69
502.522	778.69
502.739	764.69
502.956	706.69
503.172	713.69
503.389	746.69
503.606	718.69
503.823	749.69
504.04	705.69
504.256	700.69
504.473	677.69
504.69	675.69
504.907	700.69
505.123	693.69
505.34	668.69
505.557	686.69
505.773	676.69
505.99	673.69
506.207	672.69
506.423	691.69
506.64	676.69
506.856	661.69
507.073	652.69
507.289	673.69
507.506	678.69
507.722	705.69
507.939	724.69
508.155	698.69
508.372	651.69
508.588	648.69
508.805	643.69
509.021	653.69
509.238	691.69
509.454	679.69
509.67	678.69
509.887	660.69
510.103	659.69
510.319	695.69
510.536	814.69
510.752	1398.69
510.968	1116.69
511.184	693.69
511.401	675.69
511.617	658.69
511.833	639.69
512.049	641.69
512.265	639.69
512.481	627.69
512.698	633.69
512.914	629.69
513.13	631.69
513.346	625.69
513.562	613.69
513.778	626.69
513.994	643.69
514.21	646.69
514.426	674.69
514.642	767.69
514.858	783.69
515.074	858.69
515.29	1045.69
515.506	1587.69
515.721	1299.69
515.937	802.69
516.153	742.69
516.369	681.69
516.585	636.69
516.801	638.69
517.016	646.69
517.232	633.69
517.448	629.69
517.664	649.69
517.879	618.69
518.095	627.69
518.311	629.69
518.527	626.69
518.742	617.69
518.958	633.69
519.173	631.69
519.389	625.69
519.605	630.69
519.82	647.69
520.036	647.69
520.251	690.69
520.467	718.69
520.682	701.69
520.898	739.69
521.113	757.69
521.329	826.69
521.544	972.69
521.76	1277.69
521.975	2141.69
522.19	2091.69
522.406	1127.69
522.621	768.69
522.836	693.69
523.052	646.69
523.267	626.69
523.482	597.69
523.698	584.69
523.913	570.69
524.128	607.69
524.343	592.69
524.559	547.69
524.774	552.69
524.989	527.69
525.204	554.69
525.419	542.69
525.634	540.69
525.849	532.69
526.064	500.69
526.28	520.69
526.495	521.69
526.71	521.69
526.925	488.69
527.14	489.69
527.355	511.69
527.57	493.69
527.785	491.69
527.999	498.69
528.214	491.69
528.429	501.69
528.644	503.69
528.859	497.69
529.074	512.69
529.289	524.69
529.503	612.69
529.718	618.69
529.933	546.69
530.148	512.69
530.363	519.69
530.577	484.69
530.792	491.69
531.007	486.69
531.221	513.69
531.436	494.69
531.651	486.69
531.865	492.69
532.08	469.69
532.295	460.69
532.509	459.69
532.724	473.69
532.938	464.69
533.153	480.69
533.367	458.69
533.582	477.69
533.796	469.69
534.011	454.69
534.225	479.69
534.44	443.69
534.654	454.69
534.868	443.69
535.083	473.69
535.297	443.69
535.511	452.69
535.726	483.69
535.94	483.69
536.154	472.69
536.369	475.69
536.583	444.69
536.797	462.69
537.011	438.69
537.225	442.69
537.44	430.69
537.654	469.69
537.868	451.69
538.082	445.69
538.296	454.69
538.51	435.69
538.724	452.69
538.938	454.69
539.153	463.69
539.367	458.69
539.581	472.69
539.795	454.69
540.009	447.69
540.222	451.69
540.436	435.69
540.65	452.69
540.864	447.69
541.078	458.69
541.292	483.69
541.506	452.69
541.72	421.69
541.934	446.69
542.147	446.69
542.361	423.69
542.575	439.69
542.789	453.69
543.002	437.69
543.216	465.69
543.43	446.69
543.644	457.69
543.857	441.69
544.071	422.69
544.285	427.69
544.498	447.69
544.712	435.69
544.925	423.69
545.139	425.69
545.352	424.69
545.566	431.69
545.779	437.69
545.993	425.69
546.206	430.69
546.42	440.69
546.633	426.69
546.847	451.69
547.06	420.69
547.274	411.69
547.487	405.69
547.7	409.69
547.914	428.69
548.127	422.69
548.34	420.69
548.554	411.69
548.767	410.69
548.98	408.69
549.193	421.69
549.407	415.69
549.62	405.69
549.833	398.69
550.046	414.69
550.259	396.69
550.473	395.69
550.686	417.69
550.899	428.69
551.112	400.69
551.325	398.69
551.538	411.69
551.751	415.69
551.964	393.69
552.177	397.69
552.39	419.69
552.603	401.69
552.816	407.69
553.029	406.69
553.242	421.69
553.455	410.69
553.667	426.69
553.88	423.69
554.093	427.69
554.306	407.69
554.519	415.69
554.732	416.69
554.944	403.69
555.157	404.69
555.37	398.69
555.583	383.69
555.795	399.69
556.008	395.69
556.221	400.69
556.433	410.69
556.646	381.69
556.859	393.69
557.071	411.69
557.284	389.69
557.496	373.69
557.709	372.69
557.921	346.69
558.134	366.69
558.346	386.69
558.559	374.69
558.771	381.69
558.984	378.69
559.196	373.69
559.409	362.69
559.621	367.69
559.833	365.69
560.046	345.69
560.258	360.69
560.47	369.69
560.683	358.69
560.895	363.69
561.107	380.69
561.32	364.69
561.532	362.69
561.744	377.69
561.956	357.69
562.168	377.69
562.381	367.69
562.593	373.69
562.805	361.69
563.017	367.69
563.229	358.69
563.441	366.69
563.653	381.69
563.865	364.69
564.077	375.69
564.289	371.69
564.501	354.69
564.713	371.69
564.925	377.69
565.137	398.69
565.349	415.69
565.561	384.69
565.773	396.69
565.985	409.69
566.197	406.69
566.408	407.69
566.62	416.69
566.832	419.69
567.044	401.69
567.255	414.69
567.467	427.69
567.679	393.69
567.891	433.69
568.102	412.69
568.314	416.69
568.526	398.69
568.737	408.69
568.949	381.69
569.161	360.69
569.372	383.69
569.584	360.69
569.795	361.69
570.007	366.69
570.218	428.69
570.43	413.69
570.641	371.69
570.853	343.69
571.064	345.69
571.276	355.69
571.487	355.69
571.698	349.69
571.91	343.69
572.121	353.69
572.333	337.69
572.544	352.69
572.755	318.69
572.966	350.69
573.178	354.69
573.389	348.69
573.6	333.69
573.811	333.69
574.023	323.69
574.234	327.69
574.445	328.69
574.656	305.69
574.867	313.69
575.078	315.69
575.289	307.69
575.501	311.69
575.712	301.69
575.923	311.69
576.134	335.69
576.345	320.69
576.556	321.69
576.767	307.69
576.978	333.69
577.188	320.69
577.399	333.69
577.61	310.69
577.821	299.69
578.032	303.69
578.243	373.69
578.454	655.69
578.665	473.69
578.875	313.69
579.086	333.69
579.297	315.69
579.508	309.69
579.718	321.69
579.929	287.69
580.14	306.69
580.35	291.69
580.561	288.69
580.772	294.69
580.982	301.69
581.193	295.69
581.403	306.69
581.614	300.69
581.825	296.69
582.035	307.69
582.246	277.69
582.456	301.69
582.667	290.69
582.877	301.69
583.087	270.69
583.298	298.69
583.508	313.69
583.719	298.69
583.929	289.69
584.139	302.69
584.35	285.69
584.56	285.69
584.77	292.69
584.981	283.69
585.191	283.69
585.401	280.69
585.611	282.69
585.821	281.69
586.032	283.69
586.242	276.69
586.452	281.69
586.662	270.69
586.872	285.69
587.082	289.69
587.292	281.69
587.502	281.69
587.713	296.69
587.923	277.69
588.133	287.69
588.343	285.69
588.553	285.69
588.762	281.69
588.972	288.69
589.182	266.69
589.392	273.69
589.602	274.69
589.812	267.69
590.022	280.69
590.232	271.69
590.441	278.69
590.651	290.69
590.861	254.69
591.071	268.69
591.281	281.69
591.49	277.69
591.7	294.69
591.91	290.69
592.119	271.69
592.329	279.69
592.539	300.69
592.748	288.69
592.958	285.69
593.167	289.69
593.377	302.69
593.587	298.69
593.796	302.69
594.006	286.69
594.215	279.69
594.424	293.69
594.634	271.69
594.843	286.69
595.053	264.69
595.262	261.69
595.472	265.69
595.681	269.69
595.89	269.69
596.1	281.69
596.309	295.69
596.518	286.69
596.727	290.69
596.937	269.69
597.146	283.69
597.355	259.69
597.564	257.69
597.774	260.69
597.983	269.69
598.192	282.69
598.401	251.69
598.61	242.69
598.819	231.69
599.028	254.69
599.237	262.69
599.446	259.69
599.655	248.69
599.864	245.69
600.073	266.69
600.282	239.69
600.491	263.69
600.7	251.69
600.909	237.69
601.118	253.69
601.327	241.69
601.536	228.69
601.745	244.69
601.953	249.69
602.162	253.69
602.371	252.69
602.58	242.69
602.789	244.69
602.997	257.69
603.206	239.69
603.415	242.69
603.623	232.69
603.832	255.69
604.041	239.69
604.249	227.69
604.458	240.69
604.666	241.69
604.875	228.69
605.084	246.69
605.292	244.69
605.501	228.69
605.709	226.69
605.918	225.69
606.126	240.69
606.334	230.69
606.543	242.69
606.751	238.69
606.96	225.69
607.168	237.69
607.376	230.69
607.585	260.69
607.793	245.69
608.001	221.69
608.21	222.69
608.418	230.69
608.626	233.69
608.834	235.69
609.043	233.69
609.251	245.69
609.459	232.69
609.667	226.69
609.875	232.69
610.083	210.69
610.291	211.69
610.499	235.69
610.707	248.69
610.916	228.69
611.124	236.69
611.332	230.69
611.54	259.69
611.748	224.69
611.955	245.69
612.163	243.69
612.371	217.69
612.579	233.69
612.787	233.69
612.995	245.69
613.203	219.69
613.411	211.69
613.618	198.69
613.826	234.69
614.034	242.69
614.242	212.69
614.449	232.69
614.657	226.69
614.865	199.69
615.072	230.69
615.28	250.69
615.488	226.69
615.695	222.69
615.903	235.69
616.111	216.69
616.318	223.69
616.526	227.69
616.733	238.69
616.941	236.69
617.148	241.69
617.356	247.69
617.563	220.69
617.771	227.69
617.978	218.69
618.185	216.69
618.393	223.69
618.6	219.69
618.807	202.69
619.015	221.69
619.222	226.69
619.429	222.69
619.637	238.69
619.844	227.69
620.051	223.69
620.258	211.69
620.466	229.69
620.673	221.69
620.88	219.69
621.087	195.69
621.294	215.69
621.501	206.69
621.708	227.69
621.915	223.69
622.122	222.69
622.329	225.69
622.536	215.69
622.743	203.69
622.95	222.69
623.157	223.69
623.364	202.69
623.571	217.69
623.778	214.69
623.985	215.69
624.192	215.69
624.399	211.69
624.606	206.69
624.812	204.69
625.019	214.69
625.226	198.69
625.433	201.69
625.639	202.69
625.846	219.69
626.053	210.69
626.259	199.69
626.466	225.69
626.673	214.69
626.879	201.69
627.086	194.69
627.293	202.69
627.499	205.69
627.706	204.69
627.912	201.69
628.119	203.69
628.325	198.69
628.532	187.69
628.738	198.69
628.945	193.69
629.151	181.69
629.357	196.69
629.564	192.69
629.77	217.69
629.976	197.69
630.183	193.69
630.389	179.69
630.595	197.69
630.802	182.69
631.008	184.69
631.214	203.69
631.42	197.69
631.627	197.69
631.833	190.69
632.039	189.69
632.245	191.69
632.451	178.69
632.657	190.69
632.863	182.69
633.069	187.69
633.275	177.69
633.481	187.69
633.688	174.69
633.893	173.69
634.099	173.69
634.305	189.69
634.511	185.69
634.717	194.69
634.923	174.69
635.129	177.69
635.335	167.69
635.541	185.69
635.747	174.69
635.952	154.69
636.158	163.69
636.364	188.69
636.57	185.69
636.775	187.69
636.981	166.69
637.187	188.69
637.392	179.69
637.598	174.69
637.804	171.69
638.009	158.69
638.215	183.69
638.421	167.69
638.626	170.69
638.832	178.69
639.037	148.69
639.243	169.69
639.448	166.69
639.654	182.69
639.859	155.69
640.065	158.69
640.27	180.69
640.475	171.69
640.681	173.69
640.886	173.69
641.091	181.69
641.297	186.69
641.502	164.69
641.707	165.69
641.913	177.69
642.118	171.69
642.323	165.69
642.528	167.69
642.733	146.69
642.939	152.69
643.144	162.69
643.349	170.69
643.554	173.69
643.759	157.69
643.964	137.69
644.169	166.69
644.374	168.69
644.579	159.69
644.784	160.69
644.989	154.69
645.194	168.69
645.399	171.69
645.604	162.69
645.809	166.69
646.014	161.69
646.219	173.69
646.423	162.69
646.628	163.69
646.833	164.69
647.038	165.69
647.243	165.69
647.447	170.69
647.652	183.69
647.857	168.69
648.062	157.69
648.266	158.69
648.471	162.69
648.676	156.69
648.88	165.69
649.085	163.69
649.289	158.69
649.494	164.69
649.698	172.69
649.903	165.69
650.107	156.69
650.312	169.69
650.516	163.69
650.721	167.69
650.925	136.69
651.13	133.69
651.334	142.69
651.539	137.69
651.743	148.69
651.947	164.69
652.152	138.69
652.356	149.69
652.56	144.69
652.764	139.69
652.969	149.69
653.173	144.69
653.377	135.69
653.581	139.69
653.785	134.69
653.99	139.69
654.194	133.69
654.398	142.69
654.602	137.69
654.806	151.69
655.01	143.69
655.214	129.69
655.418	137.69
655.622	118.69
655.826	142.69
656.03	120.69
656.234	125.69
656.438	139.69
656.642	136.69
656.846	124.69
657.049	127.69
657.253	121.69
657.457	113.69
657.661	121.69
657.865	118.69
658.068	117.69
658.272	116.69
658.476	109.69
658.68	108.69
658.883	94.69
659.087	99.69
659.291	102.69
659.494	110.69
659.698	115.69
659.901	105.69
660.105	98.69
660.309	118.69
660.512	90.69
660.716	94.69
660.919	95.69
661.123	105.69
661.326	96.69
661.53	89.69
661.733	90.69
661.936	91.69
662.14	102.69
662.343	92.69
662.546	96.69
662.75	92.69
662.953	89.69
663.156	82.69
663.36	105.69
663.563	87.69
663.766	69.69
663.969	78.69
664.173	79.69
664.376	97.69
664.579	90.69
664.782	84.69
664.985	80.69
665.188	84.69
665.391	84.69
665.594	87.69
665.797	92.69
666	105.69
666.203	87.69
666.406	90.69
666.609	83.69
666.812	88.69
667.015	96.69
667.218	75.69
667.421	86.69
667.624	91.69
667.827	84.69
668.03	93.69
668.232	82.69
668.435	82.69
668.638	88.69
668.841	83.69
669.043	86.69
669.246	83.69
669.449	89.69
669.651	90.69
669.854	81.69
670.057	91.69
670.259	86.69
670.462	85.69
670.665	104.69
670.867	74.69
671.07	94.69
671.272	74.69
671.475	83.69
671.677	93.69
671.88	66.69
672.082	78.69
672.284	97.69
672.487	94.69
672.689	85.69
672.892	98.69
