Data from 1980.PennyLincolnUp.Lamp.En5.5.200Scan.071819.P1_HRD10591_16-36-52-956.txt Node
Date: Thu Jul 18 16:36:52 EDT 2019
User: cochatt
Spectrometer: HR+D1059
Trigger mode: 1
Integration Time (sec): 1.000000E-1
Scans to average: 1
Electric dark correction enabled: true
Nonlinearity correction enabled: false
Boxcar width: 0
XAxis mode: Wavelengths
Number of Pixels in Spectrum: 2048
>>>>>Begin Spectral Data<<<<<
223.165	-26.94
223.4	-26.94
223.635	-26.94
223.869	-19.94
224.104	-8.94
224.338	-23.94
224.573	0.06
224.808	-11.94
225.042	-5.94
225.277	-0.94
225.511	2.06
225.746	3.06
225.98	15.06
226.215	1.06
226.449	26.06
226.683	17.06
226.918	16.06
227.152	18.06
227.387	30.06
227.621	35.06
227.856	38.06
228.09	51.06
228.324	45.06
228.559	41.06
228.793	54.06
229.027	83.06
229.262	117.06
229.496	114.06
229.73	123.06
229.964	157.06
230.199	118.06
230.433	113.06
230.667	105.06
230.901	110.06
231.136	113.06
231.37	109.06
231.604	103.06
231.838	102.06
232.072	107.06
232.306	94.06
232.541	108.06
232.775	112.06
233.009	113.06
233.243	104.06
233.477	123.06
233.711	90.06
233.945	102.06
234.179	108.06
234.413	103.06
234.647	101.06
234.881	111.06
235.115	111.06
235.349	112.06
235.583	117.06
235.817	102.06
236.051	111.06
236.285	119.06
236.519	111.06
236.753	129.06
236.987	133.06
237.221	175.06
237.455	231.06
237.689	190.06
237.922	136.06
238.156	126.06
238.39	135.06
238.624	116.06
238.858	116.06
239.091	115.06
239.325	117.06
239.559	117.06
239.793	107.06
240.027	115.06
240.26	133.06
240.494	153.06
240.728	137.06
240.961	144.06
241.195	153.06
241.429	123.06
241.662	134.06
241.896	110.06
242.13	130.06
242.363	130.06
242.597	134.06
242.83	131.06
243.064	125.06
243.298	141.06
243.531	130.06
243.765	129.06
243.998	125.06
244.232	131.06
244.465	117.06
244.699	119.06
244.932	133.06
245.166	137.06
245.399	121.06
245.633	138.06
245.866	143.06
246.099	133.06
246.333	147.06
246.566	125.06
246.8	140.06
247.033	131.06
247.266	145.06
247.5	146.06
247.733	163.06
247.966	168.06
248.2	174.06
248.433	170.06
248.666	154.06
248.899	169.06
249.133	175.06
249.366	205.06
249.599	193.06
249.832	173.06
250.066	191.06
250.299	177.06
250.532	184.06
250.765	212.06
250.998	212.06
251.231	217.06
251.465	212.06
251.698	197.06
251.931	186.06
252.164	201.06
252.397	195.06
252.63	191.06
252.863	204.06
253.096	202.06
253.329	206.06
253.562	219.06
253.795	218.06
254.028	194.06
254.261	217.06
254.494	218.06
254.727	246.06
254.96	272.06
255.193	270.06
255.426	255.06
255.659	237.06
255.892	191.06
256.124	219.06
256.357	207.06
256.59	214.06
256.823	216.06
257.056	201.06
257.289	222.06
257.521	197.06
257.754	193.06
257.987	198.06
258.22	211.06
258.452	191.06
258.685	193.06
258.918	201.06
259.151	200.06
259.383	208.06
259.616	213.06
259.849	215.06
260.081	224.06
260.314	235.06
260.547	263.06
260.779	225.06
261.012	239.06
261.244	201.06
261.477	225.06
261.71	233.06
261.942	217.06
262.175	231.06
262.407	219.06
262.64	206.06
262.872	201.06
263.105	203.06
263.337	215.06
263.57	209.06
263.802	204.06
264.035	203.06
264.267	205.06
264.499	202.06
264.732	200.06
264.964	191.06
265.197	179.06
265.429	191.06
265.661	193.06
265.894	201.06
266.126	202.06
266.358	171.06
266.591	204.06
266.823	204.06
267.055	208.06
267.287	194.06
267.52	203.06
267.752	198.06
267.984	192.06
268.216	223.06
268.448	217.06
268.681	217.06
268.913	225.06
269.145	227.06
269.377	267.06
269.609	237.06
269.841	263.06
270.073	249.06
270.306	264.06
270.538	287.06
270.77	287.06
271.002	283.06
271.234	260.06
271.466	295.06
271.698	275.06
271.93	302.06
272.162	292.06
272.394	298.06
272.626	278.06
272.858	263.06
273.09	290.06
273.322	262.06
273.553	266.06
273.785	247.06
274.017	253.06
274.249	240.06
274.481	232.06
274.713	233.06
274.945	243.06
275.176	225.06
275.408	255.06
275.64	240.06
275.872	237.06
276.104	246.06
276.335	241.06
276.567	259.06
276.799	269.06
277.031	270.06
277.262	276.06
277.494	296.06
277.726	269.06
277.957	258.06
278.189	258.06
278.421	251.06
278.652	248.06
278.884	241.06
279.115	240.06
279.347	251.06
279.579	244.06
279.81	243.06
280.042	237.06
280.273	256.06
280.505	231.06
280.736	232.06
280.968	232.06
281.199	227.06
281.431	235.06
281.662	237.06
281.894	225.06
282.125	227.06
282.356	257.06
282.588	277.06
282.819	274.06
283.051	242.06
283.282	239.06
283.513	257.06
283.745	245.06
283.976	245.06
284.207	243.06
284.439	233.06
284.67	258.06
284.901	259.06
285.132	260.06
285.364	253.06
285.595	250.06
285.826	233.06
286.057	224.06
286.288	260.06
286.52	245.06
286.751	254.06
286.982	267.06
287.213	265.06
287.444	247.06
287.675	247.06
287.906	257.06
288.138	254.06
288.369	269.06
288.6	259.06
288.831	283.06
289.062	276.06
289.293	266.06
289.524	265.06
289.755	249.06
289.986	239.06
290.217	262.06
290.448	260.06
290.679	241.06
290.91	256.06
291.141	250.06
291.371	249.06
291.602	240.06
291.833	225.06
292.064	259.06
292.295	246.06
292.526	244.06
292.757	251.06
292.987	255.06
293.218	232.06
293.449	266.06
293.68	247.06
293.91	231.06
294.141	239.06
294.372	241.06
294.603	236.06
294.833	245.06
295.064	243.06
295.295	248.06
295.525	273.06
295.756	254.06
295.987	257.06
296.217	299.06
296.448	298.06
296.679	284.06
296.909	244.06
297.14	235.06
297.37	265.06
297.601	267.06
297.831	278.06
298.062	265.06
298.292	257.06
298.523	252.06
298.753	275.06
298.984	257.06
299.214	249.06
299.445	253.06
299.675	257.06
299.905	276.06
300.136	269.06
300.366	267.06
300.597	275.06
300.827	271.06
301.057	275.06
301.288	281.06
301.518	287.06
301.748	260.06
301.979	271.06
302.209	277.06
302.439	280.06
302.669	303.06
302.9	282.06
303.13	272.06
303.36	282.06
303.59	284.06
303.82	278.06
304.051	285.06
304.281	279.06
304.511	265.06
304.741	273.06
304.971	275.06
305.201	268.06
305.431	282.06
305.661	280.06
305.891	290.06
306.121	291.06
306.352	303.06
306.582	288.06
306.812	281.06
307.042	286.06
307.272	275.06
307.502	302.06
307.731	277.06
307.961	303.06
308.191	279.06
308.421	288.06
308.651	284.06
308.881	282.06
309.111	291.06
309.341	291.06
309.571	305.06
309.8	311.06
310.03	324.06
310.26	329.06
310.49	323.06
310.72	336.06
310.949	344.06
311.179	337.06
311.409	354.06
311.639	333.06
311.868	317.06
312.098	343.06
312.328	356.06
312.557	368.06
312.787	374.06
313.017	351.06
313.246	337.06
313.476	328.06
313.706	335.06
313.935	336.06
314.165	353.06
314.394	351.06
314.624	339.06
314.853	352.06
315.083	339.06
315.312	319.06
315.542	307.06
315.771	313.06
316.001	313.06
316.23	340.06
316.46	341.06
316.689	341.06
316.919	325.06
317.148	332.06
317.377	328.06
317.607	345.06
317.836	335.06
318.065	342.06
318.295	337.06
318.524	322.06
318.753	305.06
318.983	318.06
319.212	344.06
319.441	337.06
319.67	350.06
319.9	334.06
320.129	330.06
320.358	341.06
320.587	326.06
320.816	355.06
321.046	345.06
321.275	352.06
321.504	353.06
321.733	348.06
321.962	343.06
322.191	356.06
322.42	389.06
322.649	402.06
322.878	406.06
323.108	406.06
323.337	434.06
323.566	460.06
323.795	495.06
324.024	539.06
324.253	643.06
324.482	932.06
324.71	1419.06
324.939	2105.06
325.168	1864.06
325.397	1000.06
325.626	647.06
325.855	523.06
326.084	476.06
326.313	464.06
326.542	483.06
326.77	507.06
326.999	621.06
327.228	818.06
327.457	1270.06
327.686	1577.06
327.914	1073.06
328.143	707.06
328.372	595.06
328.6	570.06
328.829	534.06
329.058	542.06
329.287	554.06
329.515	509.06
329.744	482.06
329.972	486.06
330.201	501.06
330.43	522.06
330.658	561.06
330.887	593.06
331.115	546.06
331.344	464.06
331.572	426.06
331.801	457.06
332.03	451.06
332.258	418.06
332.486	388.06
332.715	399.06
332.943	389.06
333.172	390.06
333.4	407.06
333.629	401.06
333.857	413.06
334.085	425.06
334.314	417.06
334.542	448.06
334.771	470.06
334.999	429.06
335.227	393.06
335.455	397.06
335.684	392.06
335.912	381.06
336.14	367.06
336.369	376.06
336.597	381.06
336.825	383.06
337.053	398.06
337.281	356.06
337.51	361.06
337.738	377.06
337.966	399.06
338.194	388.06
338.422	401.06
338.65	383.06
338.878	382.06
339.106	371.06
339.334	377.06
339.562	373.06
339.79	360.06
340.018	353.06
340.246	357.06
340.474	363.06
340.702	372.06
340.93	354.06
341.158	384.06
341.386	381.06
341.614	370.06
341.842	378.06
342.07	370.06
342.298	366.06
342.526	345.06
342.754	330.06
342.981	352.06
343.209	351.06
343.437	375.06
343.665	377.06
343.893	348.06
344.12	367.06
344.348	373.06
344.576	362.06
344.804	377.06
345.031	379.06
345.259	402.06
345.487	387.06
345.714	363.06
345.942	368.06
346.17	352.06
346.397	377.06
346.625	356.06
346.853	362.06
347.08	353.06
347.308	359.06
347.535	381.06
347.763	394.06
347.99	389.06
348.218	368.06
348.445	379.06
348.673	373.06
348.9	354.06
349.128	371.06
349.355	360.06
349.583	345.06
349.81	345.06
350.037	346.06
350.265	358.06
350.492	360.06
350.72	343.06
350.947	361.06
351.174	368.06
351.402	371.06
351.629	360.06
351.856	370.06
352.083	365.06
352.311	375.06
352.538	390.06
352.765	382.06
352.992	373.06
353.22	367.06
353.447	350.06
353.674	345.06
353.901	351.06
354.128	337.06
354.355	336.06
354.583	339.06
354.81	330.06
355.037	342.06
355.264	334.06
355.491	340.06
355.718	340.06
355.945	331.06
356.172	322.06
356.399	326.06
356.626	334.06
356.853	333.06
357.08	322.06
357.307	328.06
357.534	328.06
357.761	327.06
357.988	341.06
358.215	334.06
358.441	337.06
358.668	329.06
358.895	340.06
359.122	358.06
359.349	370.06
359.576	373.06
359.802	374.06
360.029	405.06
360.256	430.06
360.483	401.06
360.709	401.06
360.936	367.06
361.163	377.06
361.39	345.06
361.616	376.06
361.843	355.06
362.07	360.06
362.296	358.06
362.523	365.06
362.749	358.06
362.976	356.06
363.203	351.06
363.429	329.06
363.656	335.06
363.882	358.06
364.109	329.06
364.335	334.06
364.562	347.06
364.788	325.06
365.015	339.06
365.241	322.06
365.468	339.06
365.694	360.06
365.92	342.06
366.147	358.06
366.373	327.06
366.599	338.06
366.826	357.06
367.052	339.06
367.278	339.06
367.505	330.06
367.731	344.06
367.957	339.06
368.184	339.06
368.41	342.06
368.636	374.06
368.862	369.06
369.089	351.06
369.315	327.06
369.541	337.06
369.767	340.06
369.993	350.06
370.219	338.06
370.445	329.06
370.672	345.06
370.898	341.06
371.124	344.06
371.35	341.06
371.576	333.06
371.802	337.06
372.028	349.06
372.254	334.06
372.48	330.06
372.706	339.06
372.932	327.06
373.158	343.06
373.384	339.06
373.61	338.06
373.835	331.06
374.061	342.06
374.287	353.06
374.513	351.06
374.739	353.06
374.965	337.06
375.191	341.06
375.416	334.06
375.642	342.06
375.868	347.06
376.094	340.06
376.319	328.06
376.545	332.06
376.771	350.06
376.997	334.06
377.222	362.06
377.448	355.06
377.674	325.06
377.899	330.06
378.125	325.06
378.35	331.06
378.576	333.06
378.802	334.06
379.027	346.06
379.253	328.06
379.478	323.06
379.704	337.06
379.929	337.06
380.155	336.06
380.38	329.06
380.606	340.06
380.831	338.06
381.057	329.06
381.282	340.06
381.507	320.06
381.733	322.06
381.958	343.06
382.184	321.06
382.409	324.06
382.634	350.06
382.86	346.06
383.085	339.06
383.31	349.06
383.535	347.06
383.761	346.06
383.986	359.06
384.211	353.06
384.436	344.06
384.662	347.06
384.887	372.06
385.112	351.06
385.337	350.06
385.562	330.06
385.787	374.06
386.013	388.06
386.238	358.06
386.463	362.06
386.688	360.06
386.913	360.06
387.138	353.06
387.363	329.06
387.588	346.06
387.813	356.06
388.038	363.06
388.263	369.06
388.488	360.06
388.713	345.06
388.938	356.06
389.163	365.06
389.387	354.06
389.612	364.06
389.837	365.06
390.062	351.06
390.287	345.06
390.512	365.06
390.736	366.06
390.961	360.06
391.186	348.06
391.411	375.06
391.636	358.06
391.86	373.06
392.085	365.06
392.31	356.06
392.534	354.06
392.759	369.06
392.984	375.06
393.208	352.06
393.433	367.06
393.658	367.06
393.882	348.06
394.107	362.06
394.331	355.06
394.556	356.06
394.78	344.06
395.005	359.06
395.229	352.06
395.454	349.06
395.678	370.06
395.903	403.06
396.127	410.06
396.352	393.06
396.576	361.06
396.801	372.06
397.025	379.06
397.249	373.06
397.474	381.06
397.698	368.06
397.922	398.06
398.147	402.06
398.371	407.06
398.595	402.06
398.82	390.06
399.044	409.06
399.268	418.06
399.492	414.06
399.717	421.06
399.941	457.06
400.165	487.06
400.389	507.06
400.613	455.06
400.837	426.06
401.062	419.06
401.286	410.06
401.51	417.06
401.734	411.06
401.958	392.06
402.182	420.06
402.406	415.06
402.63	414.06
402.854	399.06
403.078	417.06
403.302	407.06
403.526	428.06
403.75	414.06
403.974	423.06
404.198	397.06
404.422	435.06
404.645	433.06
404.869	427.06
405.093	454.06
405.317	500.06
405.541	509.06
405.765	467.06
405.988	474.06
406.212	468.06
406.436	509.06
406.66	483.06
406.883	464.06
407.107	497.06
407.331	521.06
407.555	593.06
407.778	545.06
408.002	523.06
408.226	477.06
408.449	463.06
408.673	467.06
408.896	500.06
409.12	523.06
409.344	516.06
409.567	445.06
409.791	430.06
410.014	423.06
410.238	438.06
410.461	431.06
410.685	435.06
410.908	466.06
411.132	487.06
411.355	522.06
411.578	473.06
411.802	447.06
412.025	413.06
412.249	426.06
412.472	436.06
412.695	477.06
412.919	487.06
413.142	457.06
413.365	416.06
413.589	405.06
413.812	403.06
414.035	398.06
414.258	390.06
414.482	402.06
414.705	389.06
414.928	406.06
415.151	401.06
415.374	395.06
415.597	402.06
415.821	429.06
416.044	396.06
416.267	396.06
416.49	387.06
416.713	387.06
416.936	399.06
417.159	414.06
417.382	434.06
417.605	407.06
417.828	403.06
418.051	432.06
418.274	401.06
418.497	406.06
418.72	407.06
418.943	415.06
419.166	420.06
419.389	410.06
419.611	436.06
419.834	419.06
420.057	435.06
420.28	439.06
420.503	414.06
420.726	427.06
420.948	423.06
421.171	484.06
421.394	511.06
421.617	445.06
421.839	441.06
422.062	439.06
422.285	472.06
422.507	517.06
422.73	559.06
422.953	548.06
423.175	487.06
423.398	479.06
423.621	449.06
423.843	470.06
424.066	480.06
424.288	452.06
424.511	474.06
424.733	532.06
424.956	609.06
425.178	593.06
425.401	599.06
425.623	608.06
425.846	526.06
426.068	493.06
426.291	465.06
426.513	479.06
426.735	468.06
426.958	498.06
427.18	591.06
427.402	695.06
427.625	807.06
427.847	715.06
428.069	582.06
428.292	511.06
428.514	486.06
428.736	440.06
428.958	452.06
429.181	454.06
429.403	437.06
429.625	458.06
429.847	484.06
430.069	541.06
430.292	545.06
430.514	453.06
430.736	435.06
430.958	434.06
431.18	434.06
431.402	401.06
431.624	376.06
431.846	409.06
432.068	400.06
432.29	400.06
432.512	419.06
432.734	419.06
432.956	435.06
433.178	424.06
433.4	425.06
433.622	428.06
433.844	407.06
434.066	418.06
434.287	399.06
434.509	411.06
434.731	412.06
434.953	415.06
435.175	440.06
435.397	472.06
435.618	502.06
435.84	515.06
436.062	596.06
436.284	670.06
436.505	557.06
436.727	498.06
436.949	466.06
437.17	450.06
437.392	442.06
437.614	450.06
437.835	496.06
438.057	571.06
438.278	663.06
438.5	652.06
438.721	727.06
438.943	685.06
439.165	564.06
439.386	503.06
439.608	503.06
439.829	500.06
440.05	546.06
440.272	557.06
440.493	527.06
440.715	478.06
440.936	465.06
441.158	449.06
441.379	466.06
441.6	448.06
441.822	482.06
442.043	501.06
442.264	582.06
442.486	641.06
442.707	545.06
442.928	474.06
443.149	514.06
443.371	526.06
443.592	558.06
443.813	641.06
444.034	673.06
444.255	579.06
444.476	511.06
444.698	463.06
444.919	461.06
445.14	557.06
445.361	537.06
445.582	529.06
445.803	569.06
446.024	663.06
446.245	690.06
446.466	624.06
446.687	523.06
446.908	462.06
447.129	481.06
447.35	467.06
447.571	447.06
447.792	430.06
448.013	456.06
448.234	452.06
448.455	496.06
448.675	601.06
448.896	714.06
449.117	609.06
449.338	579.06
449.559	665.06
449.779	769.06
450	597.06
450.221	515.06
450.442	466.06
450.662	453.06
450.883	470.06
451.104	465.06
451.324	477.06
451.545	433.06
451.766	437.06
451.986	399.06
452.207	384.06
452.428	392.06
452.648	426.06
452.869	402.06
453.089	422.06
453.31	429.06
453.53	410.06
453.751	407.06
453.971	413.06
454.192	427.06
454.412	415.06
454.633	403.06
454.853	391.06
455.073	393.06
455.294	416.06
455.514	509.06
455.734	481.06
455.955	409.06
456.175	383.06
456.395	370.06
456.616	383.06
456.836	376.06
457.056	387.06
457.276	378.06
457.497	359.06
457.717	379.06
457.937	386.06
458.157	360.06
458.377	378.06
458.598	431.06
458.818	477.06
459.038	536.06
459.258	557.06
459.478	490.06
459.698	405.06
459.918	412.06
460.138	400.06
460.358	410.06
460.578	403.06
460.798	395.06
461.018	400.06
461.238	393.06
461.458	393.06
461.678	388.06
461.898	392.06
462.118	403.06
462.338	393.06
462.558	406.06
462.777	389.06
462.997	415.06
463.217	419.06
463.437	440.06
463.657	412.06
463.876	401.06
464.096	401.06
464.316	414.06
464.536	430.06
464.755	443.06
464.975	450.06
465.195	497.06
465.414	574.06
465.634	520.06
465.854	457.06
466.073	427.06
466.293	405.06
466.512	419.06
466.732	394.06
466.951	393.06
467.171	393.06
467.391	401.06
467.61	421.06
467.829	409.06
468.049	417.06
468.268	404.06
468.488	393.06
468.707	399.06
468.927	387.06
469.146	406.06
469.365	395.06
469.585	379.06
469.804	399.06
470.023	393.06
470.243	406.06
470.462	417.06
470.681	455.06
470.901	402.06
471.12	388.06
471.339	379.06
471.558	391.06
471.777	394.06
471.997	387.06
472.216	408.06
472.435	438.06
472.654	425.06
472.873	417.06
473.092	403.06
473.311	399.06
473.53	412.06
473.749	443.06
473.968	454.06
474.187	545.06
474.406	573.06
474.625	466.06
474.844	439.06
475.063	403.06
475.282	397.06
475.501	397.06
475.72	411.06
475.939	408.06
476.158	415.06
476.377	415.06
476.596	430.06
476.814	442.06
477.033	447.06
477.252	443.06
477.471	449.06
477.69	425.06
477.908	426.06
478.127	453.06
478.346	448.06
478.564	445.06
478.783	449.06
479.002	453.06
479.22	460.06
479.439	468.06
479.658	515.06
479.876	505.06
480.095	496.06
480.313	498.06
480.532	491.06
480.751	499.06
480.969	508.06
481.188	553.06
481.406	600.06
481.624	535.06
481.843	506.06
482.061	501.06
482.28	480.06
482.498	477.06
482.717	465.06
482.935	477.06
483.153	478.06
483.372	497.06
483.59	509.06
483.808	466.06
484.027	486.06
484.245	475.06
484.463	472.06
484.681	489.06
484.9	491.06
485.118	486.06
485.336	502.06
485.554	498.06
485.772	490.06
485.99	494.06
486.209	523.06
486.427	520.06
486.645	531.06
486.863	516.06
487.081	523.06
487.299	520.06
487.517	515.06
487.735	513.06
487.953	535.06
488.171	538.06
488.389	524.06
488.607	545.06
488.825	541.06
489.043	509.06
489.261	517.06
489.479	550.06
489.696	537.06
489.914	532.06
490.132	529.06
490.35	565.06
490.568	542.06
490.786	557.06
491.003	555.06
491.221	584.06
491.439	581.06
491.657	601.06
491.874	622.06
492.092	615.06
492.31	624.06
492.527	605.06
492.745	598.06
492.963	633.06
493.18	629.06
493.398	618.06
493.615	623.06
493.833	616.06
494.05	604.06
494.268	645.06
494.485	623.06
494.703	617.06
494.92	619.06
495.138	625.06
495.355	616.06
495.573	628.06
495.79	625.06
496.008	607.06
496.225	637.06
496.442	618.06
496.66	622.06
496.877	615.06
497.094	619.06
497.312	626.06
497.529	631.06
497.746	649.06
497.963	614.06
498.181	657.06
498.398	667.06
498.615	675.06
498.832	677.06
499.049	674.06
499.267	705.06
499.484	682.06
499.701	719.06
499.918	717.06
500.135	743.06
500.352	766.06
500.569	771.06
500.786	802.06
501.003	770.06
501.22	742.06
501.437	741.06
501.654	752.06
501.871	773.06
502.088	726.06
502.305	711.06
502.522	687.06
502.739	672.06
502.956	652.06
503.172	647.06
503.389	634.06
503.606	641.06
503.823	663.06
504.04	625.06
504.256	632.06
504.473	615.06
504.69	633.06
504.907	621.06
505.123	628.06
505.34	612.06
505.557	586.06
505.773	584.06
505.99	610.06
506.207	607.06
506.423	599.06
506.64	607.06
506.856	600.06
507.073	603.06
507.289	588.06
507.506	605.06
507.722	600.06
507.939	634.06
508.155	595.06
508.372	582.06
508.588	577.06
508.805	559.06
509.021	579.06
509.238	599.06
509.454	590.06
509.67	592.06
509.887	591.06
510.103	598.06
510.319	604.06
510.536	703.06
510.752	1206.06
510.968	997.06
511.184	609.06
511.401	600.06
511.617	598.06
511.833	555.06
512.049	551.06
512.265	556.06
512.481	541.06
512.698	563.06
512.914	556.06
513.13	552.06
513.346	549.06
513.562	552.06
513.778	558.06
513.994	569.06
514.21	591.06
514.426	624.06
514.642	657.06
514.858	674.06
515.074	701.06
515.29	899.06
515.506	1339.06
515.721	1079.06
515.937	711.06
516.153	627.06
516.369	617.06
516.585	584.06
516.801	565.06
517.016	561.06
517.232	567.06
517.448	566.06
517.664	542.06
517.879	557.06
518.095	541.06
518.311	529.06
518.527	538.06
518.742	558.06
518.958	544.06
519.173	561.06
519.389	564.06
519.605	554.06
519.82	539.06
520.036	596.06
520.251	598.06
520.467	647.06
520.682	625.06
520.898	629.06
521.113	651.06
521.329	723.06
521.544	805.06
521.76	1057.06
521.975	1795.06
522.19	1752.06
522.406	928.06
522.621	680.06
522.836	597.06
523.052	589.06
523.267	521.06
523.482	534.06
523.698	515.06
523.913	537.06
524.128	522.06
524.343	509.06
524.559	463.06
524.774	504.06
524.989	477.06
525.204	466.06
525.419	477.06
525.634	468.06
525.849	466.06
526.064	479.06
526.28	465.06
526.495	425.06
526.71	445.06
526.925	432.06
527.14	455.06
527.355	424.06
527.57	429.06
527.785	439.06
527.999	440.06
528.214	453.06
528.429	442.06
528.644	431.06
528.859	447.06
529.074	458.06
529.289	475.06
529.503	540.06
529.718	531.06
529.933	484.06
530.148	451.06
530.363	447.06
530.577	442.06
530.792	443.06
531.007	424.06
531.221	417.06
531.436	426.06
531.651	440.06
531.865	433.06
532.08	418.06
532.295	432.06
532.509	405.06
532.724	427.06
532.938	422.06
533.153	448.06
533.367	417.06
533.582	433.06
533.796	418.06
534.011	401.06
534.225	427.06
534.44	408.06
534.654	409.06
534.868	418.06
535.083	405.06
535.297	419.06
535.511	418.06
535.726	434.06
535.94	421.06
536.154	404.06
536.369	417.06
536.583	413.06
536.797	419.06
537.011	411.06
537.225	396.06
537.44	413.06
537.654	391.06
537.868	406.06
538.082	391.06
538.296	405.06
538.51	415.06
538.724	410.06
538.938	405.06
539.153	409.06
539.367	407.06
539.581	429.06
539.795	403.06
540.009	399.06
540.222	407.06
540.436	408.06
540.65	417.06
540.864	412.06
541.078	420.06
541.292	399.06
541.506	399.06
541.72	393.06
541.934	417.06
542.147	412.06
542.361	419.06
542.575	401.06
542.789	401.06
543.002	407.06
543.216	399.06
543.43	409.06
543.644	413.06
543.857	415.06
544.071	405.06
544.285	403.06
544.498	393.06
544.712	383.06
544.925	407.06
545.139	400.06
545.352	370.06
545.566	398.06
545.779	385.06
545.993	381.06
546.206	370.06
546.42	387.06
546.633	387.06
546.847	381.06
547.06	393.06
547.274	374.06
547.487	377.06
547.7	379.06
547.914	390.06
548.127	387.06
548.34	395.06
548.554	382.06
548.767	372.06
548.98	380.06
549.193	389.06
549.407	381.06
549.62	375.06
549.833	387.06
550.046	359.06
550.259	367.06
550.473	376.06
550.686	386.06
550.899	374.06
551.112	375.06
551.325	360.06
551.538	355.06
551.751	370.06
551.964	371.06
552.177	385.06
552.39	368.06
552.603	370.06
552.816	369.06
553.029	379.06
553.242	387.06
553.455	402.06
553.667	393.06
553.88	394.06
554.093	383.06
554.306	401.06
554.519	358.06
554.732	373.06
554.944	377.06
555.157	346.06
555.37	359.06
555.583	348.06
555.795	359.06
556.008	345.06
556.221	340.06
556.433	355.06
556.646	331.06
556.859	331.06
557.071	344.06
557.284	356.06
557.496	365.06
557.709	365.06
557.921	353.06
558.134	355.06
558.346	357.06
558.559	345.06
558.771	330.06
558.984	358.06
559.196	328.06
559.409	343.06
559.621	341.06
559.833	333.06
560.046	347.06
560.258	323.06
560.47	339.06
560.683	318.06
560.895	321.06
561.107	328.06
561.32	343.06
561.532	332.06
561.744	350.06
561.956	333.06
562.168	338.06
562.381	340.06
562.593	353.06
562.805	342.06
563.017	339.06
563.229	341.06
563.441	331.06
563.653	343.06
563.865	334.06
564.077	322.06
564.289	334.06
564.501	352.06
564.713	346.06
564.925	338.06
565.137	363.06
565.349	343.06
565.561	369.06
565.773	351.06
565.985	357.06
566.197	376.06
566.408	357.06
566.62	383.06
566.832	384.06
567.044	386.06
567.255	385.06
567.467	389.06
567.679	394.06
567.891	379.06
568.102	382.06
568.314	378.06
568.526	385.06
568.737	367.06
568.949	352.06
569.161	344.06
569.372	335.06
569.584	336.06
569.795	330.06
570.007	330.06
570.218	373.06
570.43	364.06
570.641	341.06
570.853	319.06
571.064	313.06
571.276	329.06
571.487	310.06
571.698	321.06
571.91	319.06
572.121	303.06
572.333	306.06
572.544	306.06
572.755	308.06
572.966	306.06
573.178	306.06
573.389	292.06
573.6	315.06
573.811	301.06
574.023	287.06
574.234	306.06
574.445	279.06
574.656	285.06
574.867	289.06
575.078	287.06
575.289	290.06
575.501	289.06
575.712	268.06
575.923	279.06
576.134	286.06
576.345	282.06
576.556	280.06
576.767	291.06
576.978	303.06
577.188	289.06
577.399	297.06
577.61	286.06
577.821	286.06
578.032	282.06
578.243	336.06
578.454	561.06
578.665	414.06
578.875	298.06
579.086	284.06
579.297	287.06
579.508	278.06
579.718	283.06
579.929	259.06
580.14	250.06
580.35	266.06
580.561	279.06
580.772	278.06
580.982	269.06
581.193	259.06
581.403	268.06
581.614	270.06
581.825	276.06
582.035	277.06
582.246	273.06
582.456	264.06
582.667	283.06
582.877	265.06
583.087	267.06
583.298	255.06
583.508	277.06
583.719	271.06
583.929	254.06
584.139	275.06
584.35	243.06
584.56	278.06
584.77	257.06
584.981	262.06
585.191	238.06
585.401	258.06
585.611	263.06
585.821	266.06
586.032	265.06
586.242	262.06
586.452	266.06
586.662	265.06
586.872	270.06
587.082	261.06
587.292	255.06
587.502	252.06
587.713	278.06
587.923	258.06
588.133	242.06
588.343	251.06
588.553	274.06
588.762	233.06
588.972	241.06
589.182	280.06
589.392	263.06
589.602	271.06
589.812	251.06
590.022	250.06
590.232	241.06
590.441	248.06
590.651	260.06
590.861	264.06
591.071	259.06
591.281	247.06
591.49	246.06
591.7	251.06
591.91	261.06
592.119	268.06
592.329	263.06
592.539	257.06
592.748	256.06
592.958	266.06
593.167	271.06
593.377	259.06
593.587	263.06
593.796	255.06
594.006	263.06
594.215	250.06
594.424	248.06
594.634	259.06
594.843	255.06
595.053	265.06
595.262	279.06
595.472	253.06
595.681	246.06
595.89	241.06
596.1	241.06
596.309	255.06
596.518	234.06
596.727	225.06
596.937	242.06
597.146	255.06
597.355	233.06
597.564	232.06
597.774	233.06
597.983	250.06
598.192	244.06
598.401	226.06
598.61	215.06
598.819	232.06
599.028	233.06
599.237	223.06
599.446	230.06
599.655	223.06
599.864	241.06
600.073	247.06
600.282	218.06
600.491	226.06
600.7	232.06
600.909	225.06
601.118	248.06
601.327	229.06
601.536	219.06
601.745	211.06
601.953	232.06
602.162	232.06
602.371	232.06
602.58	237.06
602.789	241.06
602.997	207.06
603.206	216.06
603.415	239.06
603.623	221.06
603.832	221.06
604.041	227.06
604.249	207.06
604.458	221.06
604.666	226.06
604.875	216.06
605.084	217.06
605.292	228.06
605.501	206.06
605.709	207.06
605.918	217.06
606.126	211.06
606.334	214.06
606.543	228.06
606.751	227.06
606.96	219.06
607.168	234.06
607.376	227.06
607.585	219.06
607.793	232.06
608.001	218.06
608.21	219.06
608.418	215.06
608.626	202.06
608.834	214.06
609.043	204.06
609.251	219.06
609.459	221.06
609.667	206.06
609.875	212.06
610.083	211.06
610.291	230.06
610.499	213.06
610.707	218.06
610.916	222.06
611.124	210.06
611.332	202.06
611.54	228.06
611.748	213.06
611.955	217.06
612.163	217.06
612.371	223.06
612.579	198.06
612.787	199.06
612.995	223.06
613.203	220.06
613.411	209.06
613.618	202.06
613.826	213.06
614.034	217.06
614.242	213.06
614.449	197.06
614.657	199.06
614.865	200.06
615.072	213.06
615.28	200.06
615.488	198.06
615.695	199.06
615.903	214.06
616.111	222.06
616.318	232.06
616.526	225.06
616.733	206.06
616.941	203.06
617.148	202.06
617.356	212.06
617.563	198.06
617.771	189.06
617.978	204.06
618.185	202.06
618.393	195.06
618.6	218.06
618.807	213.06
619.015	210.06
619.222	194.06
619.429	189.06
619.637	198.06
619.844	206.06
620.051	211.06
620.258	197.06
620.466	193.06
620.673	198.06
620.88	205.06
621.087	189.06
621.294	208.06
621.501	197.06
621.708	207.06
621.915	182.06
622.122	198.06
622.329	187.06
622.536	203.06
622.743	187.06
622.95	197.06
623.157	198.06
623.364	204.06
623.571	201.06
623.778	195.06
623.985	207.06
624.192	195.06
624.399	184.06
624.606	179.06
624.812	207.06
625.019	196.06
625.226	189.06
625.433	189.06
625.639	192.06
625.846	182.06
626.053	178.06
626.259	179.06
626.466	185.06
626.673	178.06
626.879	194.06
627.086	169.06
627.293	189.06
627.499	168.06
627.706	179.06
627.912	184.06
628.119	168.06
628.325	179.06
628.532	179.06
628.738	184.06
628.945	182.06
629.151	182.06
629.357	174.06
629.564	162.06
629.77	182.06
629.976	187.06
630.183	175.06
630.389	168.06
630.595	179.06
630.802	179.06
631.008	190.06
631.214	174.06
631.42	183.06
631.627	173.06
631.833	165.06
632.039	174.06
632.245	167.06
632.451	161.06
632.657	175.06
632.863	182.06
633.069	164.06
633.275	175.06
633.481	166.06
633.688	153.06
633.893	171.06
634.099	165.06
634.305	186.06
634.511	166.06
634.717	164.06
634.923	163.06
635.129	159.06
635.335	178.06
635.541	180.06
635.747	164.06
635.952	165.06
636.158	143.06
636.364	175.06
636.57	178.06
636.775	183.06
636.981	165.06
637.187	161.06
637.392	160.06
637.598	175.06
637.804	163.06
638.009	170.06
638.215	177.06
638.421	155.06
638.626	143.06
638.832	169.06
639.037	156.06
639.243	161.06
639.448	159.06
639.654	167.06
639.859	167.06
640.065	146.06
640.27	162.06
640.475	155.06
640.681	147.06
640.886	150.06
641.091	159.06
641.297	166.06
641.502	158.06
641.707	148.06
641.913	153.06
642.118	167.06
642.323	153.06
642.528	179.06
642.733	163.06
642.939	163.06
643.144	153.06
643.349	154.06
643.554	161.06
643.759	143.06
643.964	167.06
644.169	159.06
644.374	158.06
644.579	154.06
644.784	148.06
644.989	160.06
645.194	158.06
645.399	163.06
645.604	139.06
645.809	148.06
646.014	163.06
646.219	169.06
646.423	150.06
646.628	154.06
646.833	151.06
647.038	146.06
647.243	149.06
647.447	153.06
647.652	161.06
647.857	140.06
648.062	162.06
648.266	153.06
648.471	143.06
648.676	145.06
648.88	156.06
649.085	163.06
649.289	139.06
649.494	179.06
649.698	160.06
649.903	155.06
650.107	152.06
650.312	143.06
650.516	143.06
650.721	145.06
650.925	142.06
651.13	141.06
651.334	121.06
651.539	131.06
651.743	125.06
651.947	129.06
652.152	137.06
652.356	138.06
652.56	128.06
652.764	152.06
652.969	140.06
653.173	126.06
653.377	130.06
653.581	124.06
653.785	125.06
653.99	123.06
654.194	132.06
654.398	135.06
654.602	121.06
654.806	117.06
655.01	141.06
655.214	119.06
655.418	127.06
655.622	127.06
655.826	116.06
656.03	125.06
656.234	126.06
656.438	119.06
656.642	115.06
656.846	114.06
657.049	117.06
657.253	115.06
657.457	109.06
657.661	118.06
657.865	105.06
658.068	90.06
658.272	101.06
658.476	112.06
658.68	95.06
658.883	100.06
659.087	103.06
659.291	95.06
659.494	104.06
659.698	98.06
659.901	84.06
660.105	98.06
660.309	94.06
660.512	88.06
660.716	89.06
660.919	97.06
661.123	98.06
661.326	86.06
661.53	98.06
661.733	81.06
661.936	87.06
662.14	88.06
662.343	71.06
662.546	69.06
662.75	85.06
662.953	86.06
663.156	75.06
663.36	80.06
663.563	91.06
663.766	78.06
663.969	97.06
664.173	75.06
664.376	92.06
664.579	74.06
664.782	81.06
664.985	81.06
665.188	73.06
665.391	95.06
665.594	86.06
665.797	106.06
666	72.06
666.203	77.06
666.406	92.06
666.609	90.06
666.812	87.06
667.015	67.06
667.218	61.06
667.421	83.06
667.624	79.06
667.827	81.06
668.03	80.06
668.232	77.06
668.435	80.06
668.638	81.06
668.841	88.06
669.043	78.06
669.246	88.06
669.449	90.06
669.651	78.06
669.854	83.06
670.057	74.06
670.259	71.06
670.462	81.06
670.665	85.06
670.867	86.06
671.07	86.06
671.272	94.06
671.475	88.06
671.677	80.06
671.88	72.06
672.082	82.06
672.284	81.06
672.487	79.06
672.689	77.06
672.892	76.06
