Data from 1980.PennyLincolnUp.Lamp.En5.5.200Scan.071819.P1_HRD10591_16-38-43-957.txt Node
Date: Thu Jul 18 16:38:43 EDT 2019
User: cochatt
Spectrometer: HR+D1059
Trigger mode: 1
Integration Time (sec): 1.000000E-1
Scans to average: 1
Electric dark correction enabled: true
Nonlinearity correction enabled: false
Boxcar width: 0
XAxis mode: Wavelengths
Number of Pixels in Spectrum: 2048
>>>>>Begin Spectral Data<<<<<
223.165	-14.31
223.4	-14.31
223.635	-14.31
223.869	-30.31
224.104	-17.31
224.338	1.69
224.573	-5.31
224.808	-18.31
225.042	-2.31
225.277	1.69
225.511	7.69
225.746	-5.31
225.98	10.69
226.215	5.69
226.449	12.69
226.683	19.69
226.918	14.69
227.152	18.69
227.387	16.69
227.621	34.69
227.856	49.69
228.09	55.69
228.324	48.69
228.559	49.69
228.793	66.69
229.027	89.69
229.262	114.69
229.496	115.69
229.73	145.69
229.964	174.69
230.199	140.69
230.433	113.69
230.667	112.69
230.901	122.69
231.136	126.69
231.37	115.69
231.604	104.69
231.838	126.69
232.072	115.69
232.306	120.69
232.541	103.69
232.775	114.69
233.009	116.69
233.243	118.69
233.477	117.69
233.711	128.69
233.945	103.69
234.179	120.69
234.413	110.69
234.647	117.69
234.881	125.69
235.115	122.69
235.349	122.69
235.583	110.69
235.817	120.69
236.051	131.69
236.285	128.69
236.519	131.69
236.753	142.69
236.987	148.69
237.221	201.69
237.455	251.69
237.689	200.69
237.922	155.69
238.156	139.69
238.39	144.69
238.624	118.69
238.858	138.69
239.091	114.69
239.325	130.69
239.559	126.69
239.793	142.69
240.027	141.69
240.26	154.69
240.494	176.69
240.728	157.69
240.961	149.69
241.195	143.69
241.429	135.69
241.662	138.69
241.896	122.69
242.13	143.69
242.363	139.69
242.597	133.69
242.83	150.69
243.064	135.69
243.298	139.69
243.531	144.69
243.765	151.69
243.998	138.69
244.232	162.69
244.465	124.69
244.699	146.69
244.932	141.69
245.166	141.69
245.399	149.69
245.633	133.69
245.866	126.69
246.099	144.69
246.333	138.69
246.566	156.69
246.8	161.69
247.033	162.69
247.266	162.69
247.5	169.69
247.733	173.69
247.966	184.69
248.2	181.69
248.433	164.69
248.666	188.69
248.899	213.69
249.133	193.69
249.366	217.69
249.599	201.69
249.832	187.69
250.066	195.69
250.299	197.69
250.532	199.69
250.765	223.69
250.998	236.69
251.231	231.69
251.465	217.69
251.698	217.69
251.931	195.69
252.164	189.69
252.397	214.69
252.63	214.69
252.863	215.69
253.096	229.69
253.329	238.69
253.562	251.69
253.795	232.69
254.028	229.69
254.261	222.69
254.494	243.69
254.727	274.69
254.96	304.69
255.193	316.69
255.426	281.69
255.659	269.69
255.892	235.69
256.124	247.69
256.357	242.69
256.59	259.69
256.823	229.69
257.056	216.69
257.289	213.69
257.521	227.69
257.754	217.69
257.987	223.69
258.22	216.69
258.452	201.69
258.685	222.69
258.918	219.69
259.151	217.69
259.383	219.69
259.616	230.69
259.849	226.69
260.081	255.69
260.314	277.69
260.547	262.69
260.779	236.69
261.012	247.69
261.244	253.69
261.477	244.69
261.71	225.69
261.942	239.69
262.175	256.69
262.407	228.69
262.64	236.69
262.872	221.69
263.105	211.69
263.337	214.69
263.57	214.69
263.802	200.69
264.035	202.69
264.267	213.69
264.499	192.69
264.732	204.69
264.964	215.69
265.197	208.69
265.429	226.69
265.661	221.69
265.894	216.69
266.126	203.69
266.358	214.69
266.591	223.69
266.823	230.69
267.055	229.69
267.287	223.69
267.52	209.69
267.752	216.69
267.984	234.69
268.216	246.69
268.448	230.69
268.681	232.69
268.913	240.69
269.145	275.69
269.377	281.69
269.609	266.69
269.841	291.69
270.073	290.69
270.306	299.69
270.538	337.69
270.77	345.69
271.002	326.69
271.234	319.69
271.466	321.69
271.698	349.69
271.93	347.69
272.162	362.69
272.394	332.69
272.626	311.69
272.858	293.69
273.09	293.69
273.322	282.69
273.553	260.69
273.785	274.69
274.017	276.69
274.249	296.69
274.481	274.69
274.713	283.69
274.945	259.69
275.176	268.69
275.408	267.69
275.64	266.69
275.872	277.69
276.104	257.69
276.335	261.69
276.567	284.69
276.799	291.69
277.031	325.69
277.262	325.69
277.494	328.69
277.726	321.69
277.957	309.69
278.189	285.69
278.421	276.69
278.652	267.69
278.884	279.69
279.115	283.69
279.347	279.69
279.579	263.69
279.81	271.69
280.042	262.69
280.273	263.69
280.505	263.69
280.736	280.69
280.968	278.69
281.199	247.69
281.431	284.69
281.662	245.69
281.894	233.69
282.125	260.69
282.356	276.69
282.588	306.69
282.819	312.69
283.051	278.69
283.282	277.69
283.513	277.69
283.745	243.69
283.976	271.69
284.207	278.69
284.439	263.69
284.67	278.69
284.901	262.69
285.132	260.69
285.364	256.69
285.595	261.69
285.826	269.69
286.057	283.69
286.288	273.69
286.52	281.69
286.751	269.69
286.982	277.69
287.213	258.69
287.444	291.69
287.675	281.69
287.906	289.69
288.138	288.69
288.369	292.69
288.6	287.69
288.831	296.69
289.062	270.69
289.293	289.69
289.524	284.69
289.755	268.69
289.986	287.69
290.217	281.69
290.448	263.69
290.679	279.69
290.91	265.69
291.141	266.69
291.371	264.69
291.602	259.69
291.833	270.69
292.064	279.69
292.295	271.69
292.526	268.69
292.757	286.69
292.987	268.69
293.218	269.69
293.449	295.69
293.68	268.69
293.91	277.69
294.141	273.69
294.372	284.69
294.603	270.69
294.833	285.69
295.064	277.69
295.295	283.69
295.525	273.69
295.756	289.69
295.987	307.69
296.217	311.69
296.448	322.69
296.679	307.69
296.909	259.69
297.14	279.69
297.37	301.69
297.601	259.69
297.831	275.69
298.062	268.69
298.292	285.69
298.523	266.69
298.753	294.69
298.984	299.69
299.214	289.69
299.445	293.69
299.675	290.69
299.905	302.69
300.136	289.69
300.366	311.69
300.597	291.69
300.827	300.69
301.057	299.69
301.288	317.69
301.518	302.69
301.748	305.69
301.979	307.69
302.209	306.69
302.439	309.69
302.669	313.69
302.9	322.69
303.13	307.69
303.36	312.69
303.59	318.69
303.82	312.69
304.051	315.69
304.281	305.69
304.511	312.69
304.741	301.69
304.971	301.69
305.201	318.69
305.431	298.69
305.661	294.69
305.891	297.69
306.121	318.69
306.352	336.69
306.582	311.69
306.812	300.69
307.042	321.69
307.272	312.69
307.502	323.69
307.731	305.69
307.961	309.69
308.191	306.69
308.421	311.69
308.651	317.69
308.881	330.69
309.111	323.69
309.341	345.69
309.571	336.69
309.8	350.69
310.03	355.69
310.26	394.69
310.49	366.69
310.72	388.69
310.949	400.69
311.179	392.69
311.409	388.69
311.639	366.69
311.868	377.69
312.098	383.69
312.328	379.69
312.557	382.69
312.787	411.69
313.017	426.69
313.246	368.69
313.476	358.69
313.706	385.69
313.935	381.69
314.165	385.69
314.394	409.69
314.624	406.69
314.853	377.69
315.083	391.69
315.312	380.69
315.542	370.69
315.771	363.69
316.001	354.69
316.23	340.69
316.46	358.69
316.689	369.69
316.919	379.69
317.148	385.69
317.377	391.69
317.607	385.69
317.836	389.69
318.065	367.69
318.295	371.69
318.524	367.69
318.753	350.69
318.983	352.69
319.212	378.69
319.441	371.69
319.67	390.69
319.9	385.69
320.129	375.69
320.358	360.69
320.587	385.69
320.816	375.69
321.046	400.69
321.275	405.69
321.504	383.69
321.733	406.69
321.962	407.69
322.191	438.69
322.42	449.69
322.649	451.69
322.878	474.69
323.108	483.69
323.337	511.69
323.566	541.69
323.795	593.69
324.024	631.69
324.253	804.69
324.482	1162.69
324.71	1766.69
324.939	2594.69
325.168	2265.69
325.397	1201.69
325.626	769.69
325.855	623.69
326.084	590.69
326.313	555.69
326.542	548.69
326.77	632.69
326.999	728.69
327.228	1024.69
327.457	1576.69
327.686	1974.69
327.914	1328.69
328.143	857.69
328.372	721.69
328.6	671.69
328.829	613.69
329.058	629.69
329.287	677.69
329.515	606.69
329.744	575.69
329.972	560.69
330.201	600.69
330.43	608.69
330.658	685.69
330.887	694.69
331.115	657.69
331.344	558.69
331.572	513.69
331.801	537.69
332.03	520.69
332.258	491.69
332.486	463.69
332.715	424.69
332.943	440.69
333.172	444.69
333.4	419.69
333.629	460.69
333.857	487.69
334.085	471.69
334.314	499.69
334.542	543.69
334.771	557.69
334.999	493.69
335.227	471.69
335.455	463.69
335.684	432.69
335.912	423.69
336.14	422.69
336.369	422.69
336.597	422.69
336.825	432.69
337.053	399.69
337.281	397.69
337.51	415.69
337.738	414.69
337.966	422.69
338.194	425.69
338.422	431.69
338.65	421.69
338.878	413.69
339.106	400.69
339.334	405.69
339.562	408.69
339.79	380.69
340.018	429.69
340.246	419.69
340.474	419.69
340.702	423.69
340.93	430.69
341.158	399.69
341.386	416.69
341.614	421.69
341.842	418.69
342.07	406.69
342.298	396.69
342.526	398.69
342.754	393.69
342.981	372.69
343.209	373.69
343.437	385.69
343.665	371.69
343.893	398.69
344.12	389.69
344.348	410.69
344.576	416.69
344.804	414.69
345.031	420.69
345.259	444.69
345.487	441.69
345.714	421.69
345.942	420.69
346.17	409.69
346.397	394.69
346.625	402.69
346.853	405.69
347.08	408.69
347.308	425.69
347.535	410.69
347.763	422.69
347.99	420.69
348.218	432.69
348.445	443.69
348.673	423.69
348.9	409.69
349.128	390.69
349.355	397.69
349.583	403.69
349.81	396.69
350.037	394.69
350.265	376.69
350.492	389.69
350.72	389.69
350.947	392.69
351.174	409.69
351.402	433.69
351.629	433.69
351.856	420.69
352.083	439.69
352.311	436.69
352.538	425.69
352.765	415.69
352.992	404.69
353.22	387.69
353.447	413.69
353.674	391.69
353.901	385.69
354.128	381.69
354.355	371.69
354.583	377.69
354.81	366.69
355.037	362.69
355.264	380.69
355.491	372.69
355.718	343.69
355.945	373.69
356.172	381.69
356.399	365.69
356.626	355.69
356.853	345.69
357.08	368.69
357.307	365.69
357.534	340.69
357.761	356.69
357.988	358.69
358.215	359.69
358.441	353.69
358.668	383.69
358.895	384.69
359.122	383.69
359.349	367.69
359.576	404.69
359.802	415.69
360.029	473.69
360.256	481.69
360.483	458.69
360.709	413.69
360.936	393.69
361.163	412.69
361.39	392.69
361.616	407.69
361.843	400.69
362.07	414.69
362.296	437.69
362.523	387.69
362.749	395.69
362.976	404.69
363.203	363.69
363.429	367.69
363.656	378.69
363.882	395.69
364.109	368.69
364.335	370.69
364.562	373.69
364.788	389.69
365.015	374.69
365.241	373.69
365.468	404.69
365.694	380.69
365.92	398.69
366.147	394.69
366.373	371.69
366.599	386.69
366.826	390.69
367.052	371.69
367.278	385.69
367.505	373.69
367.731	395.69
367.957	383.69
368.184	377.69
368.41	379.69
368.636	413.69
368.862	390.69
369.089	387.69
369.315	379.69
369.541	355.69
369.767	382.69
369.993	373.69
370.219	359.69
370.445	363.69
370.672	375.69
370.898	357.69
371.124	353.69
371.35	369.69
371.576	382.69
371.802	369.69
372.028	366.69
372.254	351.69
372.48	362.69
372.706	354.69
372.932	374.69
373.158	351.69
373.384	358.69
373.61	358.69
373.835	360.69
374.061	374.69
374.287	371.69
374.513	369.69
374.739	374.69
374.965	363.69
375.191	363.69
375.416	355.69
375.642	360.69
375.868	385.69
376.094	365.69
376.319	367.69
376.545	377.69
376.771	366.69
376.997	367.69
377.222	357.69
377.448	362.69
377.674	362.69
377.899	364.69
378.125	371.69
378.35	339.69
378.576	359.69
378.802	339.69
379.027	363.69
379.253	356.69
379.478	344.69
379.704	366.69
379.929	367.69
380.155	353.69
380.38	348.69
380.606	357.69
380.831	345.69
381.057	353.69
381.282	370.69
381.507	353.69
381.733	361.69
381.958	353.69
382.184	362.69
382.409	362.69
382.634	359.69
382.86	365.69
383.085	373.69
383.31	374.69
383.535	375.69
383.761	367.69
383.986	371.69
384.211	371.69
384.436	374.69
384.662	375.69
384.887	371.69
385.112	374.69
385.337	377.69
385.562	376.69
385.787	392.69
386.013	401.69
386.238	409.69
386.463	415.69
386.688	377.69
386.913	371.69
387.138	361.69
387.363	392.69
387.588	358.69
387.813	377.69
388.038	369.69
388.263	375.69
388.488	381.69
388.713	387.69
388.938	381.69
389.163	375.69
389.387	389.69
389.612	375.69
389.837	381.69
390.062	377.69
390.287	371.69
390.512	377.69
390.736	366.69
390.961	375.69
391.186	391.69
391.411	385.69
391.636	388.69
391.86	384.69
392.085	389.69
392.31	396.69
392.534	379.69
392.759	379.69
392.984	386.69
393.208	392.69
393.433	392.69
393.658	394.69
393.882	369.69
394.107	384.69
394.331	403.69
394.556	363.69
394.78	371.69
395.005	399.69
395.229	389.69
395.454	399.69
395.678	388.69
395.903	408.69
396.127	437.69
396.352	433.69
396.576	421.69
396.801	383.69
397.025	387.69
397.249	386.69
397.474	399.69
397.698	386.69
397.922	412.69
398.147	426.69
398.371	457.69
398.595	430.69
398.82	424.69
399.044	432.69
399.268	417.69
399.492	445.69
399.717	484.69
399.941	487.69
400.165	529.69
400.389	537.69
400.613	483.69
400.837	449.69
401.062	463.69
401.286	447.69
401.51	457.69
401.734	438.69
401.958	423.69
402.182	445.69
402.406	457.69
402.63	456.69
402.854	451.69
403.078	465.69
403.302	470.69
403.526	475.69
403.75	473.69
403.974	449.69
404.198	460.69
404.422	484.69
404.645	484.69
404.869	469.69
405.093	497.69
405.317	557.69
405.541	549.69
405.765	531.69
405.988	476.69
406.212	512.69
406.436	540.69
406.66	521.69
406.883	531.69
407.107	538.69
407.331	591.69
407.555	623.69
407.778	644.69
408.002	583.69
408.226	520.69
408.449	527.69
408.673	509.69
408.896	547.69
409.12	587.69
409.344	542.69
409.567	480.69
409.791	484.69
410.014	465.69
410.238	455.69
410.461	461.69
410.685	460.69
410.908	490.69
411.132	511.69
411.355	559.69
411.578	523.69
411.802	488.69
412.025	475.69
412.249	480.69
412.472	523.69
412.695	542.69
412.919	549.69
413.142	483.69
413.365	458.69
413.589	463.69
413.812	473.69
414.035	442.69
414.258	425.69
414.482	408.69
414.705	427.69
414.928	433.69
415.151	422.69
415.374	442.69
415.597	432.69
415.821	409.69
416.044	440.69
416.267	436.69
416.49	441.69
416.713	435.69
416.936	423.69
417.159	440.69
417.382	434.69
417.605	447.69
417.828	464.69
418.051	478.69
418.274	455.69
418.497	452.69
418.72	439.69
418.943	426.69
419.166	464.69
419.389	478.69
419.611	445.69
419.834	449.69
420.057	462.69
420.28	463.69
420.503	478.69
420.726	486.69
420.948	482.69
421.171	518.69
421.394	569.69
421.617	508.69
421.839	466.69
422.062	476.69
422.285	513.69
422.507	531.69
422.73	629.69
422.953	593.69
423.175	549.69
423.398	499.69
423.621	470.69
423.843	519.69
424.066	504.69
424.288	509.69
424.511	543.69
424.733	597.69
424.956	653.69
425.178	633.69
425.401	663.69
425.623	678.69
425.846	593.69
426.068	527.69
426.291	527.69
426.513	510.69
426.735	546.69
426.958	563.69
427.18	650.69
427.402	785.69
427.625	932.69
427.847	812.69
428.069	708.69
428.292	612.69
428.514	538.69
428.736	515.69
428.958	512.69
429.181	490.69
429.403	509.69
429.625	501.69
429.847	532.69
430.069	593.69
430.292	560.69
430.514	505.69
430.736	489.69
430.958	456.69
431.18	449.69
431.402	449.69
431.624	447.69
431.846	439.69
432.068	438.69
432.29	440.69
432.512	447.69
432.734	448.69
432.956	458.69
433.178	484.69
433.4	476.69
433.622	466.69
433.844	446.69
434.066	442.69
434.287	445.69
434.509	443.69
434.731	467.69
434.953	469.69
435.175	482.69
435.397	531.69
435.618	537.69
435.84	597.69
436.062	678.69
436.284	735.69
436.505	617.69
436.727	562.69
436.949	509.69
437.17	502.69
437.392	482.69
437.614	487.69
437.835	506.69
438.057	656.69
438.278	783.69
438.5	760.69
438.721	807.69
438.943	774.69
439.165	632.69
439.386	557.69
439.608	564.69
439.829	537.69
440.05	599.69
440.272	633.69
440.493	597.69
440.715	535.69
440.936	499.69
441.158	506.69
441.379	496.69
441.6	498.69
441.822	537.69
442.043	588.69
442.264	648.69
442.486	680.69
442.707	613.69
442.928	538.69
443.149	561.69
443.371	599.69
443.592	617.69
443.813	706.69
444.034	767.69
444.255	640.69
444.476	547.69
444.698	543.69
444.919	517.69
445.14	607.69
445.361	583.69
445.582	595.69
445.803	646.69
446.024	745.69
446.245	802.69
446.466	696.69
446.687	585.69
446.908	548.69
447.129	522.69
447.35	476.69
447.571	497.69
447.792	507.69
448.013	499.69
448.234	522.69
448.455	583.69
448.675	702.69
448.896	771.69
449.117	691.69
449.338	643.69
449.559	725.69
449.779	831.69
450	686.69
450.221	574.69
450.442	508.69
450.662	501.69
450.883	513.69
451.104	541.69
451.324	517.69
451.545	486.69
451.766	451.69
451.986	457.69
452.207	426.69
452.428	443.69
452.648	450.69
452.869	443.69
453.089	457.69
453.31	470.69
453.53	461.69
453.751	454.69
453.971	440.69
454.192	494.69
454.412	494.69
454.633	436.69
454.853	430.69
455.073	445.69
455.294	469.69
455.514	544.69
455.734	525.69
455.955	459.69
456.175	433.69
456.395	389.69
456.616	416.69
456.836	403.69
457.056	407.69
457.276	399.69
457.497	398.69
457.717	421.69
457.937	415.69
458.157	432.69
458.377	437.69
458.598	457.69
458.818	533.69
459.038	634.69
459.258	639.69
459.478	521.69
459.698	458.69
459.918	436.69
460.138	448.69
460.358	459.69
460.578	439.69
460.798	456.69
461.018	476.69
461.238	429.69
461.458	441.69
461.678	416.69
461.898	433.69
462.118	429.69
462.338	440.69
462.558	428.69
462.777	453.69
462.997	445.69
463.217	457.69
463.437	456.69
463.657	447.69
463.876	443.69
464.096	456.69
464.316	465.69
464.536	489.69
464.755	461.69
464.975	475.69
465.195	557.69
465.414	667.69
465.634	570.69
465.854	507.69
466.073	482.69
466.293	462.69
466.512	433.69
466.732	434.69
466.951	430.69
467.171	445.69
467.391	444.69
467.61	448.69
467.829	466.69
468.049	442.69
468.268	475.69
468.488	429.69
468.707	448.69
468.927	421.69
469.146	427.69
469.365	427.69
469.585	434.69
469.804	432.69
470.023	442.69
470.243	453.69
470.462	449.69
470.681	462.69
470.901	462.69
471.12	465.69
471.339	444.69
471.558	437.69
471.777	469.69
471.997	453.69
472.216	455.69
472.435	504.69
472.654	476.69
472.873	472.69
473.092	446.69
473.311	454.69
473.53	451.69
473.749	454.69
473.968	504.69
474.187	605.69
474.406	629.69
474.625	504.69
474.844	469.69
475.063	465.69
475.282	449.69
475.501	458.69
475.72	447.69
475.939	479.69
476.158	483.69
476.377	473.69
476.596	468.69
476.814	477.69
477.033	478.69
477.252	486.69
477.471	459.69
477.69	456.69
477.908	481.69
478.127	471.69
478.346	484.69
478.564	503.69
478.783	505.69
479.002	493.69
479.22	509.69
479.439	518.69
479.658	566.69
479.876	546.69
480.095	549.69
480.313	557.69
480.532	551.69
480.751	557.69
480.969	563.69
481.188	633.69
481.406	695.69
481.624	608.69
481.843	582.69
482.061	542.69
482.28	527.69
482.498	520.69
482.717	519.69
482.935	520.69
483.153	516.69
483.372	543.69
483.59	529.69
483.808	539.69
484.027	542.69
484.245	520.69
484.463	514.69
484.681	541.69
484.9	543.69
485.118	549.69
485.336	535.69
485.554	535.69
485.772	553.69
485.99	539.69
486.209	543.69
486.427	554.69
486.645	558.69
486.863	598.69
487.081	582.69
487.299	587.69
487.517	571.69
487.735	582.69
487.953	556.69
488.171	578.69
488.389	599.69
488.607	567.69
488.825	574.69
489.043	583.69
489.261	570.69
489.479	561.69
489.696	593.69
489.914	600.69
490.132	586.69
490.35	624.69
490.568	605.69
490.786	629.69
491.003	627.69
491.221	634.69
491.439	656.69
491.657	669.69
491.874	669.69
492.092	654.69
492.31	678.69
492.527	658.69
492.745	666.69
492.963	701.69
493.18	685.69
493.398	686.69
493.615	697.69
493.833	696.69
494.05	715.69
494.268	689.69
494.485	673.69
494.703	691.69
494.92	699.69
495.138	695.69
495.355	695.69
495.573	707.69
495.79	706.69
496.008	713.69
496.225	701.69
496.442	691.69
496.66	702.69
496.877	708.69
497.094	665.69
497.312	674.69
497.529	715.69
497.746	716.69
497.963	710.69
498.181	744.69
498.398	760.69
498.615	742.69
498.832	742.69
499.049	733.69
499.267	753.69
499.484	770.69
499.701	765.69
499.918	797.69
500.135	801.69
500.352	809.69
500.569	820.69
500.786	841.69
501.003	864.69
501.22	851.69
501.437	808.69
501.654	833.69
501.871	856.69
502.088	813.69
502.305	780.69
502.522	729.69
502.739	740.69
502.956	704.69
503.172	711.69
503.389	704.69
503.606	711.69
503.823	712.69
504.04	702.69
504.256	675.69
504.473	675.69
504.69	680.69
504.907	689.69
505.123	669.69
505.34	675.69
505.557	675.69
505.773	685.69
505.99	677.69
506.207	670.69
506.423	666.69
506.64	670.69
506.856	664.69
507.073	658.69
507.289	664.69
507.506	679.69
507.722	692.69
507.939	729.69
508.155	672.69
508.372	659.69
508.588	630.69
508.805	643.69
509.021	658.69
509.238	656.69
509.454	671.69
509.67	668.69
509.887	664.69
510.103	662.69
510.319	688.69
510.536	821.69
510.752	1427.69
510.968	1120.69
511.184	704.69
511.401	639.69
511.617	634.69
511.833	649.69
512.049	626.69
512.265	639.69
512.481	616.69
512.698	630.69
512.914	627.69
513.13	603.69
513.346	609.69
513.562	594.69
513.778	608.69
513.994	616.69
514.21	664.69
514.426	675.69
514.642	754.69
514.858	779.69
515.074	824.69
515.29	1027.69
515.506	1578.69
515.721	1270.69
515.937	809.69
516.153	691.69
516.369	688.69
516.585	660.69
516.801	635.69
517.016	627.69
517.232	638.69
517.448	623.69
517.664	611.69
517.879	604.69
518.095	615.69
518.311	623.69
518.527	616.69
518.742	639.69
518.958	595.69
519.173	603.69
519.389	640.69
519.605	628.69
519.82	619.69
520.036	621.69
520.251	691.69
520.467	686.69
520.682	691.69
520.898	708.69
521.113	757.69
521.329	836.69
521.544	936.69
521.76	1261.69
521.975	2111.69
522.19	2067.69
522.406	1079.69
522.621	787.69
522.836	710.69
523.052	650.69
523.267	610.69
523.482	581.69
523.698	575.69
523.913	585.69
524.128	576.69
524.343	573.69
524.559	535.69
524.774	553.69
524.989	525.69
525.204	549.69
525.419	544.69
525.634	514.69
525.849	546.69
526.064	500.69
526.28	518.69
526.495	500.69
526.71	490.69
526.925	518.69
527.14	498.69
527.355	500.69
527.57	487.69
527.785	473.69
527.999	480.69
528.214	479.69
528.429	493.69
528.644	471.69
528.859	472.69
529.074	517.69
529.289	529.69
529.503	617.69
529.718	620.69
529.933	553.69
530.148	534.69
530.363	472.69
530.577	505.69
530.792	470.69
531.007	499.69
531.221	486.69
531.436	504.69
531.651	469.69
531.865	477.69
532.08	469.69
532.295	472.69
532.509	432.69
532.724	470.69
532.938	456.69
533.153	460.69
533.367	455.69
533.582	457.69
533.796	448.69
534.011	465.69
534.225	457.69
534.44	446.69
534.654	439.69
534.868	434.69
535.083	441.69
535.297	454.69
535.511	463.69
535.726	470.69
535.94	464.69
536.154	479.69
536.369	454.69
536.583	450.69
536.797	458.69
537.011	446.69
537.225	457.69
537.44	437.69
537.654	440.69
537.868	441.69
538.082	472.69
538.296	451.69
538.51	431.69
538.724	463.69
538.938	455.69
539.153	452.69
539.367	445.69
539.581	463.69
539.795	456.69
540.009	434.69
540.222	442.69
540.436	449.69
540.65	466.69
540.864	437.69
541.078	483.69
541.292	476.69
541.506	449.69
541.72	465.69
541.934	462.69
542.147	450.69
542.361	441.69
542.575	458.69
542.789	425.69
543.002	413.69
543.216	441.69
543.43	445.69
543.644	443.69
543.857	413.69
544.071	434.69
544.285	453.69
544.498	431.69
544.712	462.69
544.925	425.69
545.139	411.69
545.352	416.69
545.566	417.69
545.779	423.69
545.993	420.69
546.206	404.69
546.42	411.69
546.633	430.69
546.847	420.69
547.06	419.69
547.274	411.69
547.487	407.69
547.7	431.69
547.914	435.69
548.127	405.69
548.34	409.69
548.554	404.69
548.767	400.69
548.98	431.69
549.193	396.69
549.407	401.69
549.62	401.69
549.833	419.69
550.046	401.69
550.259	396.69
550.473	398.69
550.686	403.69
550.899	404.69
551.112	395.69
551.325	423.69
551.538	393.69
551.751	393.69
551.964	390.69
552.177	383.69
552.39	394.69
552.603	378.69
552.816	401.69
553.029	410.69
553.242	388.69
553.455	397.69
553.667	415.69
553.88	431.69
554.093	413.69
554.306	407.69
554.519	411.69
554.732	409.69
554.944	406.69
555.157	397.69
555.37	401.69
555.583	391.69
555.795	401.69
556.008	386.69
556.221	381.69
556.433	383.69
556.646	384.69
556.859	380.69
557.071	365.69
557.284	359.69
557.496	357.69
557.709	353.69
557.921	382.69
558.134	365.69
558.346	377.69
558.559	387.69
558.771	384.69
558.984	365.69
559.196	367.69
559.409	378.69
559.621	370.69
559.833	376.69
560.046	378.69
560.258	381.69
560.47	370.69
560.683	373.69
560.895	367.69
561.107	350.69
561.32	371.69
561.532	358.69
561.744	363.69
561.956	360.69
562.168	356.69
562.381	366.69
562.593	373.69
562.805	372.69
563.017	367.69
563.229	352.69
563.441	353.69
563.653	367.69
563.865	355.69
564.077	345.69
564.289	351.69
564.501	373.69
564.713	363.69
564.925	373.69
565.137	388.69
565.349	368.69
565.561	377.69
565.773	391.69
565.985	370.69
566.197	387.69
566.408	385.69
566.62	389.69
566.832	414.69
567.044	397.69
567.255	393.69
567.467	409.69
567.679	434.69
567.891	396.69
568.102	437.69
568.314	399.69
568.526	377.69
568.737	389.69
568.949	369.69
569.161	373.69
569.372	375.69
569.584	367.69
569.795	369.69
570.007	369.69
570.218	447.69
570.43	414.69
570.641	355.69
570.853	360.69
571.064	346.69
571.276	348.69
571.487	344.69
571.698	361.69
571.91	346.69
572.121	325.69
572.333	343.69
572.544	344.69
572.755	329.69
572.966	330.69
573.178	332.69
573.389	339.69
573.6	311.69
573.811	323.69
574.023	305.69
574.234	326.69
574.445	312.69
574.656	324.69
574.867	309.69
575.078	325.69
575.289	304.69
575.501	320.69
575.712	303.69
575.923	301.69
576.134	314.69
576.345	327.69
576.556	294.69
576.767	318.69
576.978	329.69
577.188	315.69
577.399	304.69
577.61	297.69
577.821	306.69
578.032	302.69
578.243	370.69
578.454	655.69
578.665	476.69
578.875	332.69
579.086	314.69
579.297	316.69
579.508	306.69
579.718	298.69
579.929	303.69
580.14	311.69
580.35	296.69
580.561	298.69
580.772	286.69
580.982	279.69
581.193	278.69
581.403	287.69
581.614	271.69
581.825	277.69
582.035	281.69
582.246	298.69
582.456	291.69
582.667	290.69
582.877	271.69
583.087	284.69
583.298	267.69
583.508	287.69
583.719	282.69
583.929	298.69
584.139	277.69
584.35	284.69
584.56	289.69
584.77	268.69
584.981	295.69
585.191	287.69
585.401	268.69
585.611	305.69
585.821	278.69
586.032	294.69
586.242	279.69
586.452	278.69
586.662	280.69
586.872	285.69
587.082	265.69
587.292	279.69
587.502	272.69
587.713	275.69
587.923	274.69
588.133	283.69
588.343	292.69
588.553	275.69
588.762	275.69
588.972	270.69
589.182	271.69
589.392	272.69
589.602	274.69
589.812	278.69
590.022	265.69
590.232	267.69
590.441	254.69
590.651	268.69
590.861	259.69
591.071	269.69
591.281	261.69
591.49	280.69
591.7	268.69
591.91	256.69
592.119	272.69
592.329	279.69
592.539	289.69
592.748	277.69
592.958	267.69
593.167	277.69
593.377	265.69
593.587	293.69
593.796	292.69
594.006	282.69
594.215	286.69
594.424	295.69
594.634	276.69
594.843	264.69
595.053	285.69
595.262	272.69
595.472	276.69
595.681	261.69
595.89	279.69
596.1	266.69
596.309	271.69
596.518	278.69
596.727	256.69
596.937	253.69
597.146	253.69
597.355	248.69
597.564	240.69
597.774	248.69
597.983	260.69
598.192	238.69
598.401	261.69
598.61	243.69
598.819	277.69
599.028	235.69
599.237	243.69
599.446	229.69
599.655	241.69
599.864	257.69
600.073	226.69
600.282	239.69
600.491	255.69
600.7	248.69
600.909	237.69
601.118	232.69
601.327	242.69
601.536	234.69
601.745	245.69
601.953	247.69
602.162	233.69
602.371	234.69
602.58	250.69
602.789	244.69
602.997	234.69
603.206	240.69
603.415	253.69
603.623	230.69
603.832	229.69
604.041	244.69
604.249	218.69
604.458	224.69
604.666	233.69
604.875	229.69
605.084	247.69
605.292	247.69
605.501	228.69
605.709	221.69
605.918	233.69
606.126	211.69
606.334	223.69
606.543	221.69
606.751	211.69
606.96	241.69
607.168	224.69
607.376	224.69
607.585	222.69
607.793	223.69
608.001	228.69
608.21	217.69
608.418	237.69
608.626	226.69
608.834	239.69
609.043	231.69
609.251	224.69
609.459	226.69
609.667	251.69
609.875	224.69
610.083	243.69
610.291	227.69
610.499	234.69
610.707	220.69
610.916	217.69
611.124	229.69
611.332	237.69
611.54	256.69
611.748	227.69
611.955	223.69
612.163	216.69
612.371	230.69
612.579	226.69
612.787	217.69
612.995	226.69
613.203	223.69
613.411	226.69
613.618	229.69
613.826	217.69
614.034	220.69
614.242	226.69
614.449	243.69
614.657	226.69
614.865	232.69
615.072	214.69
615.28	222.69
615.488	226.69
615.695	227.69
615.903	219.69
616.111	231.69
616.318	212.69
616.526	226.69
616.733	210.69
616.941	215.69
617.148	216.69
617.356	229.69
617.563	209.69
617.771	223.69
617.978	213.69
618.185	215.69
618.393	225.69
618.6	215.69
618.807	197.69
619.015	232.69
619.222	238.69
619.429	222.69
619.637	217.69
619.844	210.69
620.051	223.69
620.258	208.69
620.466	203.69
620.673	208.69
620.88	194.69
621.087	199.69
621.294	215.69
621.501	203.69
621.708	213.69
621.915	205.69
622.122	205.69
622.329	227.69
622.536	217.69
622.743	218.69
622.95	207.69
623.157	208.69
623.364	210.69
623.571	213.69
623.778	200.69
623.985	213.69
624.192	194.69
624.399	203.69
624.606	196.69
624.812	198.69
625.019	196.69
625.226	204.69
625.433	216.69
625.639	197.69
625.846	202.69
626.053	204.69
626.259	189.69
626.466	207.69
626.673	192.69
626.879	200.69
627.086	202.69
627.293	202.69
627.499	185.69
627.706	197.69
627.912	192.69
628.119	175.69
628.325	185.69
628.532	185.69
628.738	194.69
628.945	207.69
629.151	205.69
629.357	169.69
629.564	192.69
629.77	205.69
629.976	198.69
630.183	187.69
630.389	195.69
630.595	191.69
630.802	182.69
631.008	184.69
631.214	192.69
631.42	189.69
631.627	188.69
631.833	181.69
632.039	179.69
632.245	186.69
632.451	178.69
632.657	182.69
632.863	161.69
633.069	174.69
633.275	166.69
633.481	181.69
633.688	181.69
633.893	181.69
634.099	163.69
634.305	167.69
634.511	165.69
634.717	173.69
634.923	164.69
635.129	169.69
635.335	174.69
635.541	161.69
635.747	168.69
635.952	177.69
636.158	185.69
636.364	167.69
636.57	170.69
636.775	160.69
636.981	162.69
637.187	174.69
637.392	173.69
637.598	162.69
637.804	163.69
638.009	183.69
638.215	169.69
638.421	159.69
638.626	166.69
638.832	169.69
639.037	173.69
639.243	170.69
639.448	169.69
639.654	178.69
639.859	159.69
640.065	165.69
640.27	164.69
640.475	153.69
640.681	169.69
640.886	169.69
641.091	160.69
641.297	169.69
641.502	164.69
641.707	153.69
641.913	161.69
642.118	169.69
642.323	156.69
642.528	149.69
642.733	148.69
642.939	156.69
643.144	153.69
643.349	151.69
643.554	162.69
643.759	158.69
643.964	158.69
644.169	151.69
644.374	153.69
644.579	169.69
644.784	164.69
644.989	150.69
645.194	153.69
645.399	155.69
645.604	141.69
645.809	159.69
646.014	147.69
646.219	151.69
646.423	160.69
646.628	150.69
646.833	149.69
647.038	153.69
647.243	137.69
647.447	143.69
647.652	157.69
647.857	157.69
648.062	166.69
648.266	159.69
648.471	165.69
648.676	151.69
648.88	149.69
649.085	153.69
649.289	165.69
649.494	162.69
649.698	169.69
649.903	188.69
650.107	162.69
650.312	162.69
650.516	158.69
650.721	148.69
650.925	143.69
651.13	142.69
651.334	147.69
651.539	149.69
651.743	136.69
651.947	135.69
652.152	145.69
652.356	139.69
652.56	131.69
652.764	144.69
652.969	119.69
653.173	124.69
653.377	133.69
653.581	128.69
653.785	126.69
653.99	127.69
654.194	120.69
654.398	129.69
654.602	127.69
654.806	127.69
655.01	128.69
655.214	138.69
655.418	130.69
655.622	121.69
655.826	137.69
656.03	119.69
656.234	113.69
656.438	123.69
656.642	127.69
656.846	125.69
657.049	115.69
657.253	118.69
657.457	122.69
657.661	107.69
657.865	101.69
658.068	100.69
658.272	114.69
658.476	111.69
658.68	97.69
658.883	109.69
659.087	85.69
659.291	91.69
659.494	87.69
659.698	83.69
659.901	96.69
660.105	84.69
660.309	90.69
660.512	102.69
660.716	73.69
660.919	93.69
661.123	86.69
661.326	80.69
661.53	96.69
661.733	101.69
661.936	90.69
662.14	99.69
662.343	97.69
662.546	98.69
662.75	94.69
662.953	80.69
663.156	97.69
663.36	86.69
663.563	89.69
663.766	81.69
663.969	81.69
664.173	97.69
664.376	82.69
664.579	93.69
664.782	81.69
664.985	73.69
665.188	79.69
665.391	82.69
665.594	75.69
665.797	70.69
666	82.69
666.203	86.69
666.406	80.69
666.609	86.69
666.812	77.69
667.015	82.69
667.218	78.69
667.421	100.69
667.624	85.69
667.827	62.69
668.03	77.69
668.232	70.69
668.435	74.69
668.638	79.69
668.841	88.69
669.043	86.69
669.246	82.69
669.449	81.69
669.651	95.69
669.854	84.69
670.057	95.69
670.259	81.69
670.462	75.69
670.665	70.69
670.867	69.69
671.07	83.69
671.272	88.69
671.475	88.69
671.677	87.69
671.88	81.69
672.082	85.69
672.284	68.69
672.487	73.69
672.689	79.69
672.892	87.69
