Data from 1980.PennyLincolnUp.Lamp.En5.5.200Scan.071819.P1_HRD10591_16-38-22-957.txt Node
Date: Thu Jul 18 16:38:22 EDT 2019
User: cochatt
Spectrometer: HR+D1059
Trigger mode: 1
Integration Time (sec): 1.000000E-1
Scans to average: 1
Electric dark correction enabled: true
Nonlinearity correction enabled: false
Boxcar width: 0
XAxis mode: Wavelengths
Number of Pixels in Spectrum: 2048
>>>>>Begin Spectral Data<<<<<
223.165	-24.31
223.4	-24.31
223.635	-24.31
223.869	-4.31
224.104	-4.31
224.338	-20.31
224.573	-26.31
224.808	-9.31
225.042	-4.31
225.277	-3.31
225.511	-12.31
225.746	0.69
225.98	3.69
226.215	12.69
226.449	0.69
226.683	31.69
226.918	20.69
227.152	38.69
227.387	22.69
227.621	37.69
227.856	53.69
228.09	36.69
228.324	57.69
228.559	55.69
228.793	68.69
229.027	114.69
229.262	112.69
229.496	111.69
229.73	141.69
229.964	180.69
230.199	142.69
230.433	117.69
230.667	115.69
230.901	117.69
231.136	108.69
231.37	111.69
231.604	121.69
231.838	99.69
232.072	113.69
232.306	108.69
232.541	107.69
232.775	114.69
233.009	125.69
233.243	105.69
233.477	117.69
233.711	104.69
233.945	111.69
234.179	133.69
234.413	115.69
234.647	121.69
234.881	120.69
235.115	114.69
235.349	125.69
235.583	125.69
235.817	113.69
236.051	136.69
236.285	123.69
236.519	127.69
236.753	131.69
236.987	136.69
237.221	196.69
237.455	243.69
237.689	207.69
237.922	152.69
238.156	138.69
238.39	125.69
238.624	129.69
238.858	124.69
239.091	120.69
239.325	118.69
239.559	127.69
239.793	130.69
240.027	144.69
240.26	145.69
240.494	148.69
240.728	160.69
240.961	156.69
241.195	152.69
241.429	153.69
241.662	138.69
241.896	144.69
242.13	125.69
242.363	139.69
242.597	142.69
242.83	141.69
243.064	155.69
243.298	131.69
243.531	159.69
243.765	138.69
243.998	147.69
244.232	151.69
244.465	159.69
244.699	161.69
244.932	140.69
245.166	156.69
245.399	135.69
245.633	132.69
245.866	123.69
246.099	135.69
246.333	152.69
246.566	144.69
246.8	141.69
247.033	136.69
247.266	164.69
247.5	169.69
247.733	173.69
247.966	181.69
248.2	163.69
248.433	172.69
248.666	181.69
248.899	212.69
249.133	195.69
249.366	214.69
249.599	212.69
249.832	195.69
250.066	192.69
250.299	190.69
250.532	211.69
250.765	200.69
250.998	228.69
251.231	238.69
251.465	226.69
251.698	228.69
251.931	204.69
252.164	202.69
252.397	203.69
252.63	224.69
252.863	210.69
253.096	213.69
253.329	262.69
253.562	241.69
253.795	230.69
254.028	225.69
254.261	229.69
254.494	237.69
254.727	262.69
254.96	299.69
255.193	288.69
255.426	271.69
255.659	268.69
255.892	250.69
256.124	274.69
256.357	218.69
256.59	229.69
256.823	236.69
257.056	215.69
257.289	228.69
257.521	221.69
257.754	200.69
257.987	210.69
258.22	220.69
258.452	196.69
258.685	212.69
258.918	224.69
259.151	208.69
259.383	235.69
259.616	213.69
259.849	236.69
260.081	248.69
260.314	256.69
260.547	265.69
260.779	261.69
261.012	247.69
261.244	235.69
261.477	235.69
261.71	236.69
261.942	238.69
262.175	252.69
262.407	265.69
262.64	228.69
262.872	204.69
263.105	215.69
263.337	213.69
263.57	214.69
263.802	205.69
264.035	209.69
264.267	199.69
264.499	200.69
264.732	210.69
264.964	219.69
265.197	214.69
265.429	211.69
265.661	206.69
265.894	205.69
266.126	222.69
266.358	216.69
266.591	206.69
266.823	220.69
267.055	224.69
267.287	217.69
267.52	226.69
267.752	227.69
267.984	232.69
268.216	205.69
268.448	222.69
268.681	245.69
268.913	251.69
269.145	270.69
269.377	270.69
269.609	293.69
269.841	263.69
270.073	267.69
270.306	311.69
270.538	351.69
270.77	342.69
271.002	311.69
271.234	313.69
271.466	309.69
271.698	322.69
271.93	332.69
272.162	329.69
272.394	322.69
272.626	328.69
272.858	304.69
273.09	323.69
273.322	300.69
273.553	260.69
273.785	288.69
274.017	281.69
274.249	265.69
274.481	253.69
274.713	274.69
274.945	276.69
275.176	257.69
275.408	261.69
275.64	274.69
275.872	265.69
276.104	257.69
276.335	287.69
276.567	266.69
276.799	283.69
277.031	300.69
277.262	321.69
277.494	331.69
277.726	335.69
277.957	289.69
278.189	292.69
278.421	287.69
278.652	281.69
278.884	265.69
279.115	264.69
279.347	261.69
279.579	232.69
279.81	239.69
280.042	246.69
280.273	241.69
280.505	243.69
280.736	257.69
280.968	272.69
281.199	260.69
281.431	268.69
281.662	262.69
281.894	268.69
282.125	276.69
282.356	272.69
282.588	303.69
282.819	303.69
283.051	279.69
283.282	269.69
283.513	257.69
283.745	274.69
283.976	269.69
284.207	265.69
284.439	267.69
284.67	272.69
284.901	256.69
285.132	283.69
285.364	266.69
285.595	259.69
285.826	268.69
286.057	264.69
286.288	268.69
286.52	266.69
286.751	272.69
286.982	249.69
287.213	281.69
287.444	266.69
287.675	277.69
287.906	291.69
288.138	285.69
288.369	295.69
288.6	296.69
288.831	281.69
289.062	280.69
289.293	277.69
289.524	264.69
289.755	269.69
289.986	295.69
290.217	275.69
290.448	288.69
290.679	272.69
290.91	278.69
291.141	267.69
291.371	260.69
291.602	247.69
291.833	279.69
292.064	269.69
292.295	263.69
292.526	283.69
292.757	279.69
292.987	251.69
293.218	276.69
293.449	261.69
293.68	275.69
293.91	259.69
294.141	269.69
294.372	263.69
294.603	275.69
294.833	276.69
295.064	264.69
295.295	280.69
295.525	263.69
295.756	268.69
295.987	293.69
296.217	324.69
296.448	348.69
296.679	281.69
296.909	284.69
297.14	272.69
297.37	281.69
297.601	276.69
297.831	277.69
298.062	274.69
298.292	283.69
298.523	262.69
298.753	290.69
298.984	283.69
299.214	288.69
299.445	281.69
299.675	285.69
299.905	294.69
300.136	285.69
300.366	296.69
300.597	291.69
300.827	284.69
301.057	311.69
301.288	303.69
301.518	316.69
301.748	291.69
301.979	279.69
302.209	323.69
302.439	295.69
302.669	297.69
302.9	293.69
303.13	317.69
303.36	320.69
303.59	317.69
303.82	325.69
304.051	316.69
304.281	307.69
304.511	302.69
304.741	298.69
304.971	298.69
305.201	301.69
305.431	306.69
305.661	295.69
305.891	288.69
306.121	312.69
306.352	299.69
306.582	303.69
306.812	308.69
307.042	293.69
307.272	319.69
307.502	305.69
307.731	309.69
307.961	307.69
308.191	306.69
308.421	327.69
308.651	323.69
308.881	321.69
309.111	317.69
309.341	305.69
309.571	327.69
309.8	341.69
310.03	356.69
310.26	374.69
310.49	371.69
310.72	364.69
310.949	385.69
311.179	399.69
311.409	370.69
311.639	371.69
311.868	375.69
312.098	365.69
312.328	387.69
312.557	389.69
312.787	403.69
313.017	409.69
313.246	371.69
313.476	387.69
313.706	349.69
313.935	363.69
314.165	380.69
314.394	387.69
314.624	381.69
314.853	369.69
315.083	373.69
315.312	360.69
315.542	357.69
315.771	347.69
316.001	335.69
316.23	347.69
316.46	380.69
316.689	351.69
316.919	369.69
317.148	401.69
317.377	370.69
317.607	376.69
317.836	372.69
318.065	358.69
318.295	358.69
318.524	356.69
318.753	354.69
318.983	354.69
319.212	347.69
319.441	379.69
319.67	367.69
319.9	351.69
320.129	368.69
320.358	357.69
320.587	368.69
320.816	367.69
321.046	363.69
321.275	378.69
321.504	367.69
321.733	379.69
321.962	371.69
322.191	391.69
322.42	447.69
322.649	458.69
322.878	465.69
323.108	476.69
323.337	503.69
323.566	501.69
323.795	559.69
324.024	630.69
324.253	769.69
324.482	1092.69
324.71	1693.69
324.939	2424.69
325.168	2193.69
325.397	1155.69
325.626	757.69
325.855	585.69
326.084	573.69
326.313	540.69
326.542	503.69
326.77	587.69
326.999	708.69
327.228	972.69
327.457	1493.69
327.686	1892.69
327.914	1287.69
328.143	832.69
328.372	697.69
328.6	661.69
328.829	626.69
329.058	616.69
329.287	654.69
329.515	597.69
329.744	536.69
329.972	547.69
330.201	570.69
330.43	602.69
330.658	632.69
330.887	705.69
331.115	632.69
331.344	556.69
331.572	493.69
331.801	465.69
332.03	499.69
332.258	475.69
332.486	445.69
332.715	418.69
332.943	424.69
333.172	416.69
333.4	419.69
333.629	435.69
333.857	459.69
334.085	458.69
334.314	501.69
334.542	529.69
334.771	554.69
334.999	488.69
335.227	460.69
335.455	450.69
335.684	423.69
335.912	419.69
336.14	404.69
336.369	423.69
336.597	421.69
336.825	421.69
337.053	412.69
337.281	406.69
337.51	410.69
337.738	424.69
337.966	411.69
338.194	417.69
338.422	433.69
338.65	421.69
338.878	421.69
339.106	403.69
339.334	395.69
339.562	417.69
339.79	410.69
340.018	389.69
340.246	402.69
340.474	416.69
340.702	390.69
340.93	385.69
341.158	383.69
341.386	402.69
341.614	401.69
341.842	418.69
342.07	400.69
342.298	398.69
342.526	390.69
342.754	380.69
342.981	361.69
343.209	386.69
343.437	380.69
343.665	384.69
343.893	363.69
344.12	405.69
344.348	390.69
344.576	393.69
344.804	395.69
345.031	405.69
345.259	415.69
345.487	418.69
345.714	410.69
345.942	419.69
346.17	363.69
346.397	379.69
346.625	394.69
346.853	403.69
347.08	388.69
347.308	411.69
347.535	423.69
347.763	416.69
347.99	396.69
348.218	396.69
348.445	405.69
348.673	403.69
348.9	405.69
349.128	388.69
349.355	392.69
349.583	384.69
349.81	373.69
350.037	393.69
350.265	384.69
350.492	383.69
350.72	381.69
350.947	404.69
351.174	394.69
351.402	402.69
351.629	425.69
351.856	410.69
352.083	423.69
352.311	431.69
352.538	424.69
352.765	425.69
352.992	405.69
353.22	401.69
353.447	383.69
353.674	402.69
353.901	376.69
354.128	361.69
354.355	357.69
354.583	360.69
354.81	383.69
355.037	391.69
355.264	338.69
355.491	357.69
355.718	362.69
355.945	351.69
356.172	359.69
356.399	339.69
356.626	339.69
356.853	365.69
357.08	336.69
357.307	343.69
357.534	327.69
357.761	377.69
357.988	373.69
358.215	359.69
358.441	363.69
358.668	365.69
358.895	355.69
359.122	376.69
359.349	382.69
359.576	389.69
359.802	443.69
360.029	468.69
360.256	472.69
360.483	459.69
360.709	405.69
360.936	411.69
361.163	394.69
361.39	408.69
361.616	404.69
361.843	403.69
362.07	403.69
362.296	391.69
362.523	388.69
362.749	398.69
362.976	385.69
363.203	389.69
363.429	378.69
363.656	379.69
363.882	382.69
364.109	367.69
364.335	378.69
364.562	359.69
364.788	365.69
365.015	371.69
365.241	368.69
365.468	375.69
365.694	379.69
365.92	377.69
366.147	391.69
366.373	374.69
366.599	347.69
366.826	357.69
367.052	372.69
367.278	359.69
367.505	354.69
367.731	373.69
367.957	383.69
368.184	367.69
368.41	364.69
368.636	375.69
368.862	397.69
369.089	379.69
369.315	371.69
369.541	345.69
369.767	363.69
369.993	367.69
370.219	357.69
370.445	357.69
370.672	356.69
370.898	363.69
371.124	330.69
371.35	356.69
371.576	370.69
371.802	351.69
372.028	323.69
372.254	336.69
372.48	377.69
372.706	364.69
372.932	354.69
373.158	352.69
373.384	360.69
373.61	361.69
373.835	362.69
374.061	348.69
374.287	377.69
374.513	368.69
374.739	359.69
374.965	338.69
375.191	348.69
375.416	369.69
375.642	363.69
375.868	356.69
376.094	360.69
376.319	356.69
376.545	347.69
376.771	359.69
376.997	375.69
377.222	363.69
377.448	376.69
377.674	363.69
377.899	344.69
378.125	364.69
378.35	354.69
378.576	346.69
378.802	365.69
379.027	343.69
379.253	336.69
379.478	321.69
379.704	342.69
379.929	351.69
380.155	355.69
380.38	370.69
380.606	381.69
380.831	345.69
381.057	357.69
381.282	361.69
381.507	343.69
381.733	362.69
381.958	346.69
382.184	365.69
382.409	368.69
382.634	359.69
382.86	371.69
383.085	358.69
383.31	364.69
383.535	348.69
383.761	345.69
383.986	356.69
384.211	359.69
384.436	371.69
384.662	355.69
384.887	368.69
385.112	372.69
385.337	370.69
385.562	377.69
385.787	382.69
386.013	389.69
386.238	374.69
386.463	397.69
386.688	388.69
386.913	361.69
387.138	375.69
387.363	367.69
387.588	357.69
387.813	364.69
388.038	386.69
388.263	372.69
388.488	364.69
388.713	387.69
388.938	369.69
389.163	370.69
389.387	365.69
389.612	369.69
389.837	357.69
390.062	377.69
390.287	372.69
390.512	364.69
390.736	370.69
390.961	383.69
391.186	377.69
391.411	380.69
391.636	390.69
391.86	377.69
392.085	369.69
392.31	370.69
392.534	384.69
392.759	388.69
392.984	381.69
393.208	378.69
393.433	377.69
393.658	378.69
393.882	362.69
394.107	376.69
394.331	373.69
394.556	359.69
394.78	366.69
395.005	378.69
395.229	356.69
395.454	397.69
395.678	399.69
395.903	422.69
396.127	433.69
396.352	441.69
396.576	404.69
396.801	384.69
397.025	383.69
397.249	374.69
397.474	389.69
397.698	407.69
397.922	412.69
398.147	410.69
398.371	436.69
398.595	393.69
398.82	404.69
399.044	404.69
399.268	434.69
399.492	447.69
399.717	468.69
399.941	479.69
400.165	523.69
400.389	545.69
400.613	489.69
400.837	470.69
401.062	457.69
401.286	434.69
401.51	420.69
401.734	417.69
401.958	425.69
402.182	416.69
402.406	441.69
402.63	425.69
402.854	432.69
403.078	439.69
403.302	437.69
403.526	431.69
403.75	453.69
403.974	452.69
404.198	454.69
404.422	447.69
404.645	445.69
404.869	444.69
405.093	468.69
405.317	514.69
405.541	563.69
405.765	515.69
405.988	476.69
406.212	499.69
406.436	514.69
406.66	515.69
406.883	477.69
407.107	536.69
407.331	552.69
407.555	600.69
407.778	612.69
408.002	541.69
408.226	496.69
408.449	493.69
408.673	485.69
408.896	522.69
409.12	593.69
409.344	517.69
409.567	464.69
409.791	449.69
410.014	452.69
410.238	448.69
410.461	454.69
410.685	465.69
410.908	477.69
411.132	497.69
411.355	539.69
411.578	510.69
411.802	467.69
412.025	453.69
412.249	459.69
412.472	479.69
412.695	505.69
412.919	529.69
413.142	468.69
413.365	435.69
413.589	448.69
413.812	427.69
414.035	447.69
414.258	416.69
414.482	416.69
414.705	412.69
414.928	436.69
415.151	421.69
415.374	409.69
415.597	426.69
415.821	422.69
416.044	424.69
416.267	425.69
416.49	412.69
416.713	425.69
416.936	437.69
417.159	431.69
417.382	441.69
417.605	412.69
417.828	441.69
418.051	461.69
418.274	447.69
418.497	440.69
418.72	445.69
418.943	449.69
419.166	431.69
419.389	461.69
419.611	443.69
419.834	444.69
420.057	470.69
420.28	441.69
420.503	467.69
420.726	444.69
420.948	450.69
421.171	535.69
421.394	581.69
421.617	499.69
421.839	466.69
422.062	456.69
422.285	476.69
422.507	529.69
422.73	590.69
422.953	603.69
423.175	517.69
423.398	508.69
423.621	477.69
423.843	499.69
424.066	488.69
424.288	499.69
424.511	509.69
424.733	571.69
424.956	637.69
425.178	639.69
425.401	608.69
425.623	637.69
425.846	563.69
426.068	508.69
426.291	491.69
426.513	515.69
426.735	515.69
426.958	576.69
427.18	635.69
427.402	738.69
427.625	849.69
427.847	792.69
428.069	668.69
428.292	592.69
428.514	529.69
428.736	484.69
428.958	506.69
429.181	474.69
429.403	495.69
429.625	491.69
429.847	521.69
430.069	550.69
430.292	589.69
430.514	508.69
430.736	474.69
430.958	451.69
431.18	462.69
431.402	452.69
431.624	451.69
431.846	428.69
432.068	443.69
432.29	448.69
432.512	439.69
432.734	444.69
432.956	437.69
433.178	448.69
433.4	459.69
433.622	448.69
433.844	446.69
434.066	425.69
434.287	439.69
434.509	428.69
434.731	465.69
434.953	435.69
435.175	484.69
435.397	496.69
435.618	502.69
435.84	555.69
436.062	643.69
436.284	719.69
436.505	595.69
436.727	530.69
436.949	500.69
437.17	513.69
437.392	471.69
437.614	462.69
437.835	556.69
438.057	641.69
438.278	731.69
438.5	741.69
438.721	777.69
438.943	752.69
439.165	632.69
439.386	525.69
439.608	525.69
439.829	562.69
440.05	556.69
440.272	608.69
440.493	595.69
440.715	538.69
440.936	485.69
441.158	471.69
441.379	476.69
441.6	496.69
441.822	531.69
442.043	539.69
442.264	636.69
442.486	692.69
442.707	567.69
442.928	545.69
443.149	519.69
443.371	563.69
443.592	610.69
443.813	702.69
444.034	751.69
444.255	582.69
444.476	532.69
444.698	499.69
444.919	508.69
445.14	596.69
445.361	552.69
445.582	546.69
445.803	626.69
446.024	760.69
446.245	749.69
446.466	660.69
446.687	581.69
446.908	544.69
447.129	492.69
447.35	510.69
447.571	505.69
447.792	474.69
448.013	476.69
448.234	533.69
448.455	556.69
448.675	659.69
448.896	766.69
449.117	672.69
449.338	647.69
449.559	740.69
449.779	797.69
450	659.69
450.221	551.69
450.442	508.69
450.662	478.69
450.883	470.69
451.104	509.69
451.324	497.69
451.545	470.69
451.766	449.69
451.986	446.69
452.207	433.69
452.428	418.69
452.648	409.69
452.869	434.69
453.089	453.69
453.31	451.69
453.53	452.69
453.751	455.69
453.971	420.69
454.192	460.69
454.412	454.69
454.633	424.69
454.853	433.69
455.073	419.69
455.294	472.69
455.514	534.69
455.734	524.69
455.955	438.69
456.175	408.69
456.395	395.69
456.616	395.69
456.836	382.69
457.056	406.69
457.276	395.69
457.497	387.69
457.717	380.69
457.937	406.69
458.157	422.69
458.377	417.69
458.598	426.69
458.818	535.69
459.038	609.69
459.258	598.69
459.478	515.69
459.698	464.69
459.918	445.69
460.138	447.69
460.358	445.69
460.578	439.69
460.798	439.69
461.018	440.69
461.238	434.69
461.458	426.69
461.678	420.69
461.898	429.69
462.118	427.69
462.338	432.69
462.558	424.69
462.777	443.69
462.997	435.69
463.217	424.69
463.437	439.69
463.657	425.69
463.876	435.69
464.096	457.69
464.316	436.69
464.536	448.69
464.755	469.69
464.975	451.69
465.195	527.69
465.414	627.69
465.634	540.69
465.854	487.69
466.073	477.69
466.293	462.69
466.512	440.69
466.732	427.69
466.951	415.69
467.171	420.69
467.391	411.69
467.61	460.69
467.829	461.69
468.049	442.69
468.268	437.69
468.488	439.69
468.707	428.69
468.927	421.69
469.146	407.69
469.365	422.69
469.585	415.69
469.804	424.69
470.023	437.69
470.243	442.69
470.462	440.69
470.681	502.69
470.901	468.69
471.12	426.69
471.339	437.69
471.558	457.69
471.777	415.69
471.997	405.69
472.216	436.69
472.435	498.69
472.654	477.69
472.873	447.69
473.092	451.69
473.311	419.69
473.53	425.69
473.749	433.69
473.968	515.69
474.187	612.69
474.406	623.69
474.625	516.69
474.844	459.69
475.063	444.69
475.282	438.69
475.501	438.69
475.72	453.69
475.939	448.69
476.158	432.69
476.377	455.69
476.596	450.69
476.814	471.69
477.033	451.69
477.252	453.69
477.471	451.69
477.69	478.69
477.908	492.69
478.127	469.69
478.346	473.69
478.564	478.69
478.783	474.69
479.002	482.69
479.22	478.69
479.439	505.69
479.658	529.69
479.876	530.69
480.095	521.69
480.313	567.69
480.532	544.69
480.751	540.69
480.969	554.69
481.188	618.69
481.406	654.69
481.624	573.69
481.843	537.69
482.061	538.69
482.28	529.69
482.498	502.69
482.717	509.69
482.935	539.69
483.153	515.69
483.372	502.69
483.59	532.69
483.808	508.69
484.027	499.69
484.245	518.69
484.463	522.69
484.681	532.69
484.9	524.69
485.118	537.69
485.336	528.69
485.554	523.69
485.772	547.69
485.99	531.69
486.209	553.69
486.427	541.69
486.645	540.69
486.863	584.69
487.081	610.69
487.299	579.69
487.517	569.69
487.735	577.69
487.953	554.69
488.171	573.69
488.389	577.69
488.607	563.69
488.825	549.69
489.043	559.69
489.261	557.69
489.479	567.69
489.696	571.69
489.914	571.69
490.132	577.69
490.35	593.69
490.568	605.69
490.786	588.69
491.003	611.69
491.221	633.69
491.439	644.69
491.657	646.69
491.874	611.69
492.092	641.69
492.31	659.69
492.527	669.69
492.745	670.69
492.963	658.69
493.18	667.69
493.398	669.69
493.615	691.69
493.833	689.69
494.05	654.69
494.268	683.69
494.485	685.69
494.703	685.69
494.92	684.69
495.138	677.69
495.355	694.69
495.573	684.69
495.79	687.69
496.008	677.69
496.225	666.69
496.442	692.69
496.66	659.69
496.877	658.69
497.094	673.69
497.312	678.69
497.529	686.69
497.746	700.69
497.963	705.69
498.181	737.69
498.398	723.69
498.615	734.69
498.832	727.69
499.049	712.69
499.267	711.69
499.484	715.69
499.701	744.69
499.918	764.69
500.135	788.69
500.352	777.69
500.569	783.69
500.786	801.69
501.003	801.69
501.22	809.69
501.437	801.69
501.654	786.69
501.871	812.69
502.088	797.69
502.305	749.69
502.522	723.69
502.739	738.69
502.956	683.69
503.172	681.69
503.389	684.69
503.606	704.69
503.823	706.69
504.04	684.69
504.256	681.69
504.473	676.69
504.69	691.69
504.907	675.69
505.123	622.69
505.34	641.69
505.557	641.69
505.773	637.69
505.99	641.69
506.207	679.69
506.423	643.69
506.64	643.69
506.856	648.69
507.073	628.69
507.289	652.69
507.506	639.69
507.722	650.69
507.939	718.69
508.155	663.69
508.372	625.69
508.588	627.69
508.805	605.69
509.021	618.69
509.238	631.69
509.454	672.69
509.67	677.69
509.887	634.69
510.103	629.69
510.319	659.69
510.536	757.69
510.752	1318.69
510.968	1047.69
511.184	689.69
511.401	657.69
511.617	641.69
511.833	599.69
512.049	593.69
512.265	605.69
512.481	608.69
512.698	589.69
512.914	591.69
513.13	593.69
513.346	602.69
513.562	595.69
513.778	618.69
513.994	637.69
514.21	639.69
514.426	672.69
514.642	707.69
514.858	735.69
515.074	795.69
515.29	979.69
515.506	1556.69
515.721	1214.69
515.937	771.69
516.153	693.69
516.369	628.69
516.585	631.69
516.801	612.69
517.016	601.69
517.232	614.69
517.448	600.69
517.664	613.69
517.879	610.69
518.095	615.69
518.311	621.69
518.527	623.69
518.742	593.69
518.958	586.69
519.173	600.69
519.389	607.69
519.605	589.69
519.82	598.69
520.036	627.69
520.251	637.69
520.467	705.69
520.682	691.69
520.898	708.69
521.113	713.69
521.329	795.69
521.544	908.69
521.76	1205.69
521.975	2051.69
522.19	2007.69
522.406	1041.69
522.621	759.69
522.836	663.69
523.052	631.69
523.267	613.69
523.482	583.69
523.698	580.69
523.913	578.69
524.128	552.69
524.343	549.69
524.559	530.69
524.774	512.69
524.989	528.69
525.204	550.69
525.419	534.69
525.634	493.69
525.849	489.69
526.064	497.69
526.28	509.69
526.495	477.69
526.71	484.69
526.925	515.69
527.14	474.69
527.355	460.69
527.57	493.69
527.785	489.69
527.999	456.69
528.214	460.69
528.429	474.69
528.644	488.69
528.859	460.69
529.074	496.69
529.289	500.69
529.503	607.69
529.718	611.69
529.933	536.69
530.148	519.69
530.363	510.69
530.577	476.69
530.792	473.69
531.007	469.69
531.221	465.69
531.436	450.69
531.651	475.69
531.865	433.69
532.08	437.69
532.295	443.69
532.509	444.69
532.724	452.69
532.938	463.69
533.153	467.69
533.367	423.69
533.582	472.69
533.796	445.69
534.011	432.69
534.225	435.69
534.44	424.69
534.654	428.69
534.868	425.69
535.083	432.69
535.297	441.69
535.511	461.69
535.726	458.69
535.94	440.69
536.154	417.69
536.369	451.69
536.583	449.69
536.797	437.69
537.011	437.69
537.225	426.69
537.44	443.69
537.654	424.69
537.868	423.69
538.082	443.69
538.296	423.69
538.51	437.69
538.724	432.69
538.938	443.69
539.153	439.69
539.367	452.69
539.581	449.69
539.795	443.69
540.009	427.69
540.222	415.69
540.436	444.69
540.65	431.69
540.864	425.69
541.078	442.69
541.292	426.69
541.506	444.69
541.72	431.69
541.934	433.69
542.147	422.69
542.361	452.69
542.575	420.69
542.789	412.69
543.002	416.69
543.216	427.69
543.43	437.69
543.644	431.69
543.857	422.69
544.071	433.69
544.285	422.69
544.498	438.69
544.712	412.69
544.925	395.69
545.139	417.69
545.352	407.69
545.566	413.69
545.779	415.69
545.993	397.69
546.206	410.69
546.42	410.69
546.633	413.69
546.847	396.69
547.06	398.69
547.274	367.69
547.487	424.69
547.7	407.69
547.914	400.69
548.127	388.69
548.34	383.69
548.554	396.69
548.767	415.69
548.98	381.69
549.193	375.69
549.407	388.69
549.62	407.69
549.833	385.69
550.046	374.69
550.259	387.69
550.473	387.69
550.686	396.69
550.899	374.69
551.112	411.69
551.325	391.69
551.538	378.69
551.751	397.69
551.964	393.69
552.177	394.69
552.39	386.69
552.603	422.69
552.816	395.69
553.029	383.69
553.242	409.69
553.455	381.69
553.667	411.69
553.88	405.69
554.093	408.69
554.306	410.69
554.519	408.69
554.732	408.69
554.944	384.69
555.157	388.69
555.37	383.69
555.583	395.69
555.795	383.69
556.008	378.69
556.221	364.69
556.433	382.69
556.646	372.69
556.859	384.69
557.071	359.69
557.284	361.69
557.496	363.69
557.709	375.69
557.921	356.69
558.134	380.69
558.346	357.69
558.559	362.69
558.771	383.69
558.984	375.69
559.196	359.69
559.409	377.69
559.621	343.69
559.833	348.69
560.046	354.69
560.258	370.69
560.47	375.69
560.683	348.69
560.895	348.69
561.107	356.69
561.32	353.69
561.532	362.69
561.744	353.69
561.956	345.69
562.168	346.69
562.381	347.69
562.593	376.69
562.805	379.69
563.017	359.69
563.229	362.69
563.441	337.69
563.653	362.69
563.865	362.69
564.077	362.69
564.289	349.69
564.501	389.69
564.713	356.69
564.925	370.69
565.137	375.69
565.349	377.69
565.561	375.69
565.773	373.69
565.985	363.69
566.197	378.69
566.408	373.69
566.62	394.69
566.832	391.69
567.044	373.69
567.255	397.69
567.467	405.69
567.679	402.69
567.891	387.69
568.102	386.69
568.314	405.69
568.526	395.69
568.737	379.69
568.949	343.69
569.161	359.69
569.372	365.69
569.584	338.69
569.795	352.69
570.007	377.69
570.218	397.69
570.43	404.69
570.641	348.69
570.853	345.69
571.064	341.69
571.276	333.69
571.487	338.69
571.698	340.69
571.91	316.69
572.121	348.69
572.333	325.69
572.544	337.69
572.755	333.69
572.966	321.69
573.178	338.69
573.389	313.69
573.6	336.69
573.811	332.69
574.023	321.69
574.234	317.69
574.445	309.69
574.656	303.69
574.867	307.69
575.078	316.69
575.289	295.69
575.501	297.69
575.712	299.69
575.923	296.69
576.134	315.69
576.345	303.69
576.556	290.69
576.767	285.69
576.978	305.69
577.188	303.69
577.399	323.69
577.61	289.69
577.821	313.69
578.032	299.69
578.243	358.69
578.454	610.69
578.665	472.69
578.875	320.69
579.086	287.69
579.297	297.69
579.508	316.69
579.718	301.69
579.929	287.69
580.14	275.69
580.35	276.69
580.561	290.69
580.772	291.69
580.982	287.69
581.193	284.69
581.403	299.69
581.614	295.69
581.825	279.69
582.035	277.69
582.246	261.69
582.456	298.69
582.667	276.69
582.877	281.69
583.087	282.69
583.298	279.69
583.508	287.69
583.719	280.69
583.929	287.69
584.139	263.69
584.35	261.69
584.56	284.69
584.77	305.69
584.981	267.69
585.191	271.69
585.401	272.69
585.611	288.69
585.821	281.69
586.032	270.69
586.242	265.69
586.452	269.69
586.662	265.69
586.872	267.69
587.082	274.69
587.292	270.69
587.502	263.69
587.713	268.69
587.923	278.69
588.133	281.69
588.343	277.69
588.553	279.69
588.762	268.69
588.972	277.69
589.182	259.69
589.392	268.69
589.602	253.69
589.812	282.69
590.022	290.69
590.232	265.69
590.441	278.69
590.651	259.69
590.861	265.69
591.071	274.69
591.281	259.69
591.49	266.69
591.7	260.69
591.91	268.69
592.119	257.69
592.329	261.69
592.539	276.69
592.748	264.69
592.958	251.69
593.167	267.69
593.377	268.69
593.587	284.69
593.796	280.69
594.006	272.69
594.215	268.69
594.424	279.69
594.634	273.69
594.843	287.69
595.053	265.69
595.262	263.69
595.472	247.69
595.681	268.69
595.89	275.69
596.1	257.69
596.309	259.69
596.518	263.69
596.727	257.69
596.937	258.69
597.146	255.69
597.355	257.69
597.564	263.69
597.774	266.69
597.983	255.69
598.192	242.69
598.401	249.69
598.61	236.69
598.819	240.69
599.028	239.69
599.237	259.69
599.446	239.69
599.655	240.69
599.864	239.69
600.073	255.69
600.282	236.69
600.491	244.69
600.7	248.69
600.909	220.69
601.118	229.69
601.327	226.69
601.536	236.69
601.745	234.69
601.953	226.69
602.162	222.69
602.371	234.69
602.58	249.69
602.789	250.69
602.997	251.69
603.206	240.69
603.415	228.69
603.623	239.69
603.832	241.69
604.041	225.69
604.249	240.69
604.458	220.69
604.666	235.69
604.875	234.69
605.084	234.69
605.292	237.69
605.501	217.69
605.709	230.69
605.918	220.69
606.126	232.69
606.334	235.69
606.543	233.69
606.751	227.69
606.96	237.69
607.168	221.69
607.376	232.69
607.585	233.69
607.793	223.69
608.001	227.69
608.21	209.69
608.418	223.69
608.626	220.69
608.834	230.69
609.043	235.69
609.251	232.69
609.459	222.69
609.667	217.69
609.875	217.69
610.083	220.69
610.291	225.69
610.499	221.69
610.707	230.69
610.916	216.69
611.124	218.69
611.332	221.69
611.54	231.69
611.748	231.69
611.955	227.69
612.163	224.69
612.371	225.69
612.579	215.69
612.787	219.69
612.995	217.69
613.203	212.69
613.411	231.69
613.618	212.69
613.826	211.69
614.034	213.69
614.242	216.69
614.449	223.69
614.657	213.69
614.865	217.69
615.072	220.69
615.28	215.69
615.488	225.69
615.695	208.69
615.903	235.69
616.111	207.69
616.318	209.69
616.526	213.69
616.733	236.69
616.941	225.69
617.148	219.69
617.356	217.69
617.563	211.69
617.771	228.69
617.978	219.69
618.185	210.69
618.393	202.69
618.6	221.69
618.807	216.69
619.015	223.69
619.222	222.69
619.429	226.69
619.637	214.69
619.844	201.69
620.051	200.69
620.258	207.69
620.466	201.69
620.673	194.69
620.88	190.69
621.087	205.69
621.294	212.69
621.501	210.69
621.708	186.69
621.915	225.69
622.122	201.69
622.329	205.69
622.536	214.69
622.743	215.69
622.95	210.69
623.157	201.69
623.364	187.69
623.571	206.69
623.778	194.69
623.985	210.69
624.192	199.69
624.399	208.69
624.606	204.69
624.812	209.69
625.019	197.69
625.226	195.69
625.433	207.69
625.639	194.69
625.846	190.69
626.053	209.69
626.259	200.69
626.466	210.69
626.673	199.69
626.879	193.69
627.086	191.69
627.293	205.69
627.499	200.69
627.706	193.69
627.912	191.69
628.119	169.69
628.325	196.69
628.532	200.69
628.738	184.69
628.945	200.69
629.151	186.69
629.357	185.69
629.564	202.69
629.77	191.69
629.976	181.69
630.183	203.69
630.389	187.69
630.595	175.69
630.802	171.69
631.008	171.69
631.214	189.69
631.42	170.69
631.627	185.69
631.833	198.69
632.039	182.69
632.245	178.69
632.451	176.69
632.657	183.69
632.863	176.69
633.069	199.69
633.275	187.69
633.481	185.69
633.688	172.69
633.893	183.69
634.099	161.69
634.305	193.69
634.511	170.69
634.717	156.69
634.923	173.69
635.129	156.69
635.335	162.69
635.541	163.69
635.747	168.69
635.952	174.69
636.158	185.69
636.364	175.69
636.57	190.69
636.775	178.69
636.981	169.69
637.187	170.69
637.392	159.69
637.598	169.69
637.804	173.69
638.009	181.69
638.215	164.69
638.421	166.69
638.626	167.69
638.832	167.69
639.037	165.69
639.243	165.69
639.448	149.69
639.654	162.69
639.859	160.69
640.065	155.69
640.27	147.69
640.475	151.69
640.681	163.69
640.886	152.69
641.091	175.69
641.297	147.69
641.502	151.69
641.707	162.69
641.913	163.69
642.118	164.69
642.323	162.69
642.528	164.69
642.733	177.69
642.939	157.69
643.144	165.69
643.349	152.69
643.554	172.69
643.759	160.69
643.964	139.69
644.169	165.69
644.374	150.69
644.579	147.69
644.784	160.69
644.989	165.69
645.194	150.69
645.399	179.69
645.604	147.69
645.809	143.69
646.014	161.69
646.219	171.69
646.423	164.69
646.628	162.69
646.833	164.69
647.038	151.69
647.243	176.69
647.447	156.69
647.652	160.69
647.857	152.69
648.062	157.69
648.266	147.69
648.471	151.69
648.676	152.69
648.88	156.69
649.085	158.69
649.289	147.69
649.494	167.69
649.698	195.69
649.903	184.69
650.107	159.69
650.312	152.69
650.516	129.69
650.721	159.69
650.925	132.69
651.13	140.69
651.334	154.69
651.539	124.69
651.743	152.69
651.947	145.69
652.152	157.69
652.356	118.69
652.56	137.69
652.764	125.69
652.969	133.69
653.173	129.69
653.377	123.69
653.581	141.69
653.785	128.69
653.99	135.69
654.194	132.69
654.398	141.69
654.602	134.69
654.806	132.69
655.01	129.69
655.214	118.69
655.418	111.69
655.622	125.69
655.826	115.69
656.03	117.69
656.234	124.69
656.438	129.69
656.642	121.69
656.846	114.69
657.049	109.69
657.253	122.69
657.457	122.69
657.661	113.69
657.865	103.69
658.068	104.69
658.272	96.69
658.476	98.69
658.68	115.69
658.883	105.69
659.087	105.69
659.291	95.69
659.494	104.69
659.698	92.69
659.901	102.69
660.105	95.69
660.309	88.69
660.512	100.69
660.716	103.69
660.919	95.69
661.123	92.69
661.326	92.69
661.53	90.69
661.733	95.69
661.936	92.69
662.14	88.69
662.343	78.69
662.546	94.69
662.75	93.69
662.953	95.69
663.156	82.69
663.36	80.69
663.563	88.69
663.766	70.69
663.969	77.69
664.173	89.69
664.376	85.69
664.579	72.69
664.782	74.69
664.985	87.69
665.188	85.69
665.391	82.69
665.594	92.69
665.797	75.69
666	78.69
666.203	72.69
666.406	84.69
666.609	74.69
666.812	69.69
667.015	80.69
667.218	81.69
667.421	75.69
667.624	79.69
667.827	75.69
668.03	82.69
668.232	68.69
668.435	72.69
668.638	89.69
668.841	84.69
669.043	76.69
669.246	85.69
669.449	77.69
669.651	93.69
669.854	81.69
670.057	86.69
670.259	85.69
670.462	73.69
670.665	78.69
670.867	94.69
671.07	85.69
671.272	95.69
671.475	80.69
671.677	84.69
671.88	84.69
672.082	91.69
672.284	81.69
672.487	74.69
672.689	78.69
672.892	81.69
