Data from 1980.PennyLincolnUp.Lamp.En5.5.200Scan.071819.P1_HRD10591_16-36-17-956.txt Node
Date: Thu Jul 18 16:36:17 EDT 2019
User: cochatt
Spectrometer: HR+D1059
Trigger mode: 1
Integration Time (sec): 1.000000E-1
Scans to average: 1
Electric dark correction enabled: true
Nonlinearity correction enabled: false
Boxcar width: 0
XAxis mode: Wavelengths
Number of Pixels in Spectrum: 2048
>>>>>Begin Spectral Data<<<<<
223.165	-21.62
223.4	-21.62
223.635	-21.62
223.869	-12.62
224.104	-17.62
224.338	4.38
224.573	-5.62
224.808	-13.62
225.042	-2.62
225.277	-8.62
225.511	-3.62
225.746	-0.62
225.98	1.38
226.215	20.38
226.449	9.38
226.683	8.38
226.918	20.38
227.152	22.38
227.387	38.38
227.621	26.38
227.856	48.38
228.09	47.38
228.324	44.38
228.559	62.38
228.793	67.38
229.027	89.38
229.262	98.38
229.496	99.38
229.73	115.38
229.964	152.38
230.199	127.38
230.433	107.38
230.667	120.38
230.901	102.38
231.136	102.38
231.37	115.38
231.604	118.38
231.838	105.38
232.072	112.38
232.306	96.38
232.541	109.38
232.775	108.38
233.009	108.38
233.243	104.38
233.477	106.38
233.711	83.38
233.945	95.38
234.179	120.38
234.413	122.38
234.647	92.38
234.881	114.38
235.115	102.38
235.349	116.38
235.583	116.38
235.817	113.38
236.051	125.38
236.285	116.38
236.519	114.38
236.753	102.38
236.987	117.38
237.221	170.38
237.455	196.38
237.689	160.38
237.922	125.38
238.156	124.38
238.39	116.38
238.624	134.38
238.858	130.38
239.091	130.38
239.325	114.38
239.559	115.38
239.793	111.38
240.027	128.38
240.26	118.38
240.494	141.38
240.728	145.38
240.961	120.38
241.195	137.38
241.429	139.38
241.662	106.38
241.896	128.38
242.13	110.38
242.363	114.38
242.597	119.38
242.83	122.38
243.064	115.38
243.298	105.38
243.531	130.38
243.765	119.38
243.998	122.38
244.232	117.38
244.465	123.38
244.699	137.38
244.932	132.38
245.166	128.38
245.399	115.38
245.633	139.38
245.866	145.38
246.099	128.38
246.333	129.38
246.566	151.38
246.8	127.38
247.033	136.38
247.266	144.38
247.5	130.38
247.733	132.38
247.966	160.38
248.2	153.38
248.433	137.38
248.666	151.38
248.899	173.38
249.133	186.38
249.366	204.38
249.599	176.38
249.832	175.38
250.066	164.38
250.299	165.38
250.532	170.38
250.765	188.38
250.998	176.38
251.231	194.38
251.465	194.38
251.698	180.38
251.931	185.38
252.164	176.38
252.397	176.38
252.63	187.38
252.863	178.38
253.096	192.38
253.329	202.38
253.562	198.38
253.795	197.38
254.028	197.38
254.261	218.38
254.494	192.38
254.727	226.38
254.96	244.38
255.193	221.38
255.426	211.38
255.659	195.38
255.892	195.38
256.124	196.38
256.357	199.38
256.59	199.38
256.823	197.38
257.056	208.38
257.289	184.38
257.521	191.38
257.754	194.38
257.987	203.38
258.22	197.38
258.452	200.38
258.685	185.38
258.918	188.38
259.151	193.38
259.383	200.38
259.616	193.38
259.849	189.38
260.081	213.38
260.314	198.38
260.547	223.38
260.779	201.38
261.012	198.38
261.244	198.38
261.477	188.38
261.71	188.38
261.942	195.38
262.175	195.38
262.407	199.38
262.64	186.38
262.872	193.38
263.105	179.38
263.337	202.38
263.57	180.38
263.802	203.38
264.035	198.38
264.267	179.38
264.499	193.38
264.732	189.38
264.964	184.38
265.197	181.38
265.429	190.38
265.661	185.38
265.894	188.38
266.126	184.38
266.358	165.38
266.591	180.38
266.823	178.38
267.055	193.38
267.287	205.38
267.52	206.38
267.752	192.38
267.984	199.38
268.216	188.38
268.448	186.38
268.681	187.38
268.913	210.38
269.145	215.38
269.377	233.38
269.609	215.38
269.841	232.38
270.073	214.38
270.306	241.38
270.538	256.38
270.77	274.38
271.002	253.38
271.234	231.38
271.466	248.38
271.698	242.38
271.93	252.38
272.162	260.38
272.394	255.38
272.626	265.38
272.858	253.38
273.09	226.38
273.322	219.38
273.553	218.38
273.785	224.38
274.017	232.38
274.249	219.38
274.481	218.38
274.713	213.38
274.945	223.38
275.176	221.38
275.408	221.38
275.64	231.38
275.872	218.38
276.104	221.38
276.335	215.38
276.567	223.38
276.799	229.38
277.031	228.38
277.262	260.38
277.494	267.38
277.726	258.38
277.957	228.38
278.189	230.38
278.421	236.38
278.652	232.38
278.884	228.38
279.115	228.38
279.347	220.38
279.579	211.38
279.81	235.38
280.042	221.38
280.273	205.38
280.505	205.38
280.736	218.38
280.968	213.38
281.199	187.38
281.431	204.38
281.662	221.38
281.894	206.38
282.125	212.38
282.356	224.38
282.588	243.38
282.819	246.38
283.051	234.38
283.282	224.38
283.513	209.38
283.745	216.38
283.976	231.38
284.207	216.38
284.439	215.38
284.67	213.38
284.901	215.38
285.132	219.38
285.364	229.38
285.595	216.38
285.826	215.38
286.057	226.38
286.288	216.38
286.52	196.38
286.751	234.38
286.982	211.38
287.213	232.38
287.444	238.38
287.675	233.38
287.906	242.38
288.138	233.38
288.369	241.38
288.6	245.38
288.831	232.38
289.062	234.38
289.293	224.38
289.524	256.38
289.755	238.38
289.986	236.38
290.217	225.38
290.448	222.38
290.679	231.38
290.91	228.38
291.141	238.38
291.371	233.38
291.602	234.38
291.833	217.38
292.064	229.38
292.295	228.38
292.526	221.38
292.757	244.38
292.987	240.38
293.218	221.38
293.449	246.38
293.68	231.38
293.91	229.38
294.141	248.38
294.372	225.38
294.603	230.38
294.833	227.38
295.064	233.38
295.295	244.38
295.525	226.38
295.756	232.38
295.987	234.38
296.217	267.38
296.448	270.38
296.679	241.38
296.909	227.38
297.14	247.38
297.37	227.38
297.601	254.38
297.831	249.38
298.062	241.38
298.292	245.38
298.523	249.38
298.753	238.38
298.984	226.38
299.214	237.38
299.445	240.38
299.675	246.38
299.905	241.38
300.136	246.38
300.366	240.38
300.597	269.38
300.827	257.38
301.057	247.38
301.288	256.38
301.518	243.38
301.748	242.38
301.979	256.38
302.209	261.38
302.439	268.38
302.669	252.38
302.9	246.38
303.13	265.38
303.36	270.38
303.59	257.38
303.82	270.38
304.051	264.38
304.281	245.38
304.511	270.38
304.741	237.38
304.971	264.38
305.201	253.38
305.431	258.38
305.661	256.38
305.891	244.38
306.121	265.38
306.352	264.38
306.582	258.38
306.812	271.38
307.042	247.38
307.272	258.38
307.502	260.38
307.731	267.38
307.961	259.38
308.191	249.38
308.421	274.38
308.651	258.38
308.881	266.38
309.111	270.38
309.341	258.38
309.571	268.38
309.8	280.38
310.03	300.38
310.26	280.38
310.49	297.38
310.72	282.38
310.949	310.38
311.179	322.38
311.409	304.38
311.639	307.38
311.868	297.38
312.098	297.38
312.328	295.38
312.557	301.38
312.787	309.38
313.017	309.38
313.246	298.38
313.476	273.38
313.706	289.38
313.935	316.38
314.165	306.38
314.394	300.38
314.624	314.38
314.853	295.38
315.083	299.38
315.312	281.38
315.542	295.38
315.771	289.38
316.001	295.38
316.23	297.38
316.46	275.38
316.689	298.38
316.919	301.38
317.148	305.38
317.377	300.38
317.607	301.38
317.836	290.38
318.065	288.38
318.295	291.38
318.524	300.38
318.753	288.38
318.983	300.38
319.212	311.38
319.441	299.38
319.67	308.38
319.9	303.38
320.129	299.38
320.358	290.38
320.587	301.38
320.816	306.38
321.046	306.38
321.275	309.38
321.504	288.38
321.733	313.38
321.962	305.38
322.191	326.38
322.42	332.38
322.649	348.38
322.878	348.38
323.108	360.38
323.337	380.38
323.566	380.38
323.795	422.38
324.024	438.38
324.253	524.38
324.482	732.38
324.71	1144.38
324.939	1674.38
325.168	1487.38
325.397	771.38
325.626	509.38
325.855	430.38
326.084	415.38
326.313	410.38
326.542	396.38
326.77	420.38
326.999	509.38
327.228	682.38
327.457	1017.38
327.686	1246.38
327.914	843.38
328.143	546.38
328.372	500.38
328.6	460.38
328.829	452.38
329.058	452.38
329.287	450.38
329.515	419.38
329.744	394.38
329.972	380.38
330.201	408.38
330.43	408.38
330.658	446.38
330.887	468.38
331.115	452.38
331.344	398.38
331.572	378.38
331.801	380.38
332.03	382.38
332.258	354.38
332.486	345.38
332.715	349.38
332.943	337.38
333.172	334.38
333.4	342.38
333.629	344.38
333.857	365.38
334.085	364.38
334.314	350.38
334.542	389.38
334.771	380.38
334.999	371.38
335.227	370.38
335.455	350.38
335.684	356.38
335.912	342.38
336.14	344.38
336.369	340.38
336.597	339.38
336.825	337.38
337.053	323.38
337.281	330.38
337.51	346.38
337.738	345.38
337.966	348.38
338.194	333.38
338.422	348.38
338.65	340.38
338.878	328.38
339.106	330.38
339.334	344.38
339.562	310.38
339.79	333.38
340.018	334.38
340.246	335.38
340.474	338.38
340.702	336.38
340.93	338.38
341.158	322.38
341.386	325.38
341.614	337.38
341.842	334.38
342.07	341.38
342.298	308.38
342.526	317.38
342.754	325.38
342.981	312.38
343.209	322.38
343.437	328.38
343.665	306.38
343.893	324.38
344.12	344.38
344.348	335.38
344.576	338.38
344.804	342.38
345.031	351.38
345.259	338.38
345.487	358.38
345.714	335.38
345.942	314.38
346.17	340.38
346.397	334.38
346.625	322.38
346.853	326.38
347.08	338.38
347.308	330.38
347.535	314.38
347.763	332.38
347.99	336.38
348.218	340.38
348.445	323.38
348.673	330.38
348.9	327.38
349.128	322.38
349.355	292.38
349.583	321.38
349.81	333.38
350.037	309.38
350.265	325.38
350.492	332.38
350.72	325.38
350.947	318.38
351.174	331.38
351.402	335.38
351.629	325.38
351.856	336.38
352.083	340.38
352.311	343.38
352.538	350.38
352.765	345.38
352.992	331.38
353.22	339.38
353.447	347.38
353.674	334.38
353.901	302.38
354.128	306.38
354.355	290.38
354.583	312.38
354.81	294.38
355.037	314.38
355.264	300.38
355.491	314.38
355.718	306.38
355.945	313.38
356.172	295.38
356.399	316.38
356.626	320.38
356.853	316.38
357.08	294.38
357.307	295.38
357.534	309.38
357.761	294.38
357.988	297.38
358.215	296.38
358.441	294.38
358.668	314.38
358.895	331.38
359.122	314.38
359.349	301.38
359.576	319.38
359.802	347.38
360.029	347.38
360.256	378.38
360.483	350.38
360.709	335.38
360.936	314.38
361.163	340.38
361.39	332.38
361.616	333.38
361.843	325.38
362.07	334.38
362.296	334.38
362.523	328.38
362.749	332.38
362.976	321.38
363.203	321.38
363.429	321.38
363.656	328.38
363.882	316.38
364.109	313.38
364.335	297.38
364.562	316.38
364.788	322.38
365.015	310.38
365.241	305.38
365.468	313.38
365.694	316.38
365.92	314.38
366.147	302.38
366.373	315.38
366.599	315.38
366.826	313.38
367.052	301.38
367.278	315.38
367.505	309.38
367.731	302.38
367.957	315.38
368.184	318.38
368.41	307.38
368.636	324.38
368.862	340.38
369.089	320.38
369.315	310.38
369.541	308.38
369.767	321.38
369.993	308.38
370.219	308.38
370.445	322.38
370.672	292.38
370.898	310.38
371.124	311.38
371.35	293.38
371.576	309.38
371.802	326.38
372.028	299.38
372.254	319.38
372.48	326.38
372.706	328.38
372.932	296.38
373.158	313.38
373.384	328.38
373.61	330.38
373.835	329.38
374.061	314.38
374.287	315.38
374.513	318.38
374.739	307.38
374.965	300.38
375.191	306.38
375.416	314.38
375.642	312.38
375.868	319.38
376.094	312.38
376.319	313.38
376.545	310.38
376.771	317.38
376.997	307.38
377.222	322.38
377.448	312.38
377.674	305.38
377.899	315.38
378.125	317.38
378.35	313.38
378.576	310.38
378.802	319.38
379.027	304.38
379.253	301.38
379.478	294.38
379.704	320.38
379.929	290.38
380.155	323.38
380.38	327.38
380.606	325.38
380.831	326.38
381.057	325.38
381.282	325.38
381.507	333.38
381.733	325.38
381.958	316.38
382.184	307.38
382.409	348.38
382.634	330.38
382.86	322.38
383.085	325.38
383.31	306.38
383.535	334.38
383.761	333.38
383.986	337.38
384.211	333.38
384.436	310.38
384.662	326.38
384.887	332.38
385.112	344.38
385.337	345.38
385.562	344.38
385.787	333.38
386.013	362.38
386.238	336.38
386.463	339.38
386.688	332.38
386.913	327.38
387.138	339.38
387.363	341.38
387.588	334.38
387.813	336.38
388.038	346.38
388.263	359.38
388.488	329.38
388.713	336.38
388.938	343.38
389.163	357.38
389.387	362.38
389.612	337.38
389.837	322.38
390.062	344.38
390.287	338.38
390.512	331.38
390.736	340.38
390.961	338.38
391.186	326.38
391.411	322.38
391.636	329.38
391.86	342.38
392.085	346.38
392.31	347.38
392.534	361.38
392.759	353.38
392.984	349.38
393.208	334.38
393.433	342.38
393.658	352.38
393.882	330.38
394.107	340.38
394.331	339.38
394.556	341.38
394.78	326.38
395.005	326.38
395.229	341.38
395.454	368.38
395.678	340.38
395.903	350.38
396.127	376.38
396.352	380.38
396.576	357.38
396.801	352.38
397.025	376.38
397.249	360.38
397.474	342.38
397.698	362.38
397.922	373.38
398.147	394.38
398.371	378.38
398.595	362.38
398.82	372.38
399.044	363.38
399.268	389.38
399.492	391.38
399.717	435.38
399.941	444.38
400.165	446.38
400.389	469.38
400.613	422.38
400.837	411.38
401.062	385.38
401.286	389.38
401.51	392.38
401.734	356.38
401.958	372.38
402.182	394.38
402.406	386.38
402.63	381.38
402.854	385.38
403.078	374.38
403.302	394.38
403.526	388.38
403.75	392.38
403.974	414.38
404.198	396.38
404.422	381.38
404.645	391.38
404.869	390.38
405.093	410.38
405.317	444.38
405.541	470.38
405.765	420.38
405.988	434.38
406.212	423.38
406.436	432.38
406.66	467.38
406.883	435.38
407.107	440.38
407.331	457.38
407.555	539.38
407.778	534.38
408.002	482.38
408.226	428.38
408.449	429.38
408.673	450.38
408.896	460.38
409.12	518.38
409.344	472.38
409.567	410.38
409.791	406.38
410.014	404.38
410.238	388.38
410.461	397.38
410.685	405.38
410.908	415.38
411.132	427.38
411.355	461.38
411.578	443.38
411.802	387.38
412.025	421.38
412.249	406.38
412.472	419.38
412.695	448.38
412.919	426.38
413.142	396.38
413.365	387.38
413.589	379.38
413.812	370.38
414.035	385.38
414.258	377.38
414.482	376.38
414.705	378.38
414.928	356.38
415.151	368.38
415.374	373.38
415.597	366.38
415.821	368.38
416.044	380.38
416.267	377.38
416.49	372.38
416.713	390.38
416.936	384.38
417.159	379.38
417.382	380.38
417.605	386.38
417.828	392.38
418.051	392.38
418.274	398.38
418.497	384.38
418.72	369.38
418.943	385.38
419.166	390.38
419.389	404.38
419.611	401.38
419.834	400.38
420.057	406.38
420.28	397.38
420.503	395.38
420.726	387.38
420.948	416.38
421.171	437.38
421.394	461.38
421.617	429.38
421.839	405.38
422.062	390.38
422.285	426.38
422.507	447.38
422.73	544.38
422.953	490.38
423.175	438.38
423.398	420.38
423.621	410.38
423.843	434.38
424.066	424.38
424.288	423.38
424.511	434.38
424.733	502.38
424.956	551.38
425.178	538.38
425.401	517.38
425.623	566.38
425.846	463.38
426.068	454.38
426.291	434.38
426.513	436.38
426.735	423.38
426.958	496.38
427.18	564.38
427.402	643.38
427.625	692.38
427.847	597.38
428.069	532.38
428.292	472.38
428.514	436.38
428.736	429.38
428.958	416.38
429.181	400.38
429.403	398.38
429.625	424.38
429.847	445.38
430.069	498.38
430.292	484.38
430.514	414.38
430.736	418.38
430.958	399.38
431.18	366.38
431.402	380.38
431.624	373.38
431.846	345.38
432.068	376.38
432.29	371.38
432.512	377.38
432.734	389.38
432.956	387.38
433.178	400.38
433.4	412.38
433.622	372.38
433.844	391.38
434.066	390.38
434.287	374.38
434.509	385.38
434.731	393.38
434.953	392.38
435.175	412.38
435.397	419.38
435.618	425.38
435.84	444.38
436.062	536.38
436.284	618.38
436.505	504.38
436.727	461.38
436.949	424.38
437.17	412.38
437.392	403.38
437.614	440.38
437.835	442.38
438.057	501.38
438.278	606.38
438.5	614.38
438.721	666.38
438.943	638.38
439.165	497.38
439.386	459.38
439.608	450.38
439.829	454.38
440.05	473.38
440.272	491.38
440.493	464.38
440.715	433.38
440.936	434.38
441.158	395.38
441.379	404.38
441.6	410.38
441.822	445.38
442.043	465.38
442.264	526.38
442.486	572.38
442.707	486.38
442.928	465.38
443.149	450.38
443.371	485.38
443.592	498.38
443.813	602.38
444.034	630.38
444.255	531.38
444.476	476.38
444.698	429.38
444.919	426.38
445.14	539.38
445.361	505.38
445.582	467.38
445.803	542.38
446.024	595.38
446.245	609.38
446.466	554.38
446.687	470.38
446.908	456.38
447.129	412.38
447.35	406.38
447.571	421.38
447.792	401.38
448.013	399.38
448.234	439.38
448.455	459.38
448.675	573.38
448.896	668.38
449.117	566.38
449.338	522.38
449.559	612.38
449.779	682.38
450	554.38
450.221	468.38
450.442	416.38
450.662	400.38
450.883	410.38
451.104	422.38
451.324	440.38
451.545	392.38
451.766	370.38
451.986	377.38
452.207	389.38
452.428	357.38
452.648	380.38
452.869	350.38
453.089	378.38
453.31	375.38
453.53	363.38
453.751	360.38
453.971	383.38
454.192	380.38
454.412	348.38
454.633	375.38
454.853	368.38
455.073	373.38
455.294	372.38
455.514	419.38
455.734	417.38
455.955	358.38
456.175	352.38
456.395	342.38
456.616	328.38
456.836	345.38
457.056	357.38
457.276	342.38
457.497	344.38
457.717	361.38
457.937	338.38
458.157	353.38
458.377	371.38
458.598	358.38
458.818	428.38
459.038	474.38
459.258	497.38
459.478	434.38
459.698	382.38
459.918	374.38
460.138	360.38
460.358	368.38
460.578	371.38
460.798	397.38
461.018	407.38
461.238	370.38
461.458	354.38
461.678	370.38
461.898	364.38
462.118	377.38
462.338	382.38
462.558	382.38
462.777	411.38
462.997	408.38
463.217	389.38
463.437	392.38
463.657	404.38
463.876	406.38
464.096	397.38
464.316	373.38
464.536	406.38
464.755	411.38
464.975	407.38
465.195	433.38
465.414	505.38
465.634	451.38
465.854	402.38
466.073	398.38
466.293	367.38
466.512	376.38
466.732	361.38
466.951	363.38
467.171	350.38
467.391	394.38
467.61	386.38
467.829	377.38
468.049	377.38
468.268	374.38
468.488	355.38
468.707	344.38
468.927	367.38
469.146	337.38
469.365	358.38
469.585	328.38
469.804	350.38
470.023	395.38
470.243	380.38
470.462	366.38
470.681	404.38
470.901	410.38
471.12	370.38
471.339	398.38
471.558	377.38
471.777	366.38
471.997	376.38
472.216	368.38
472.435	403.38
472.654	372.38
472.873	381.38
473.092	375.38
473.311	378.38
473.53	372.38
473.749	372.38
473.968	418.38
474.187	499.38
474.406	500.38
474.625	411.38
474.844	390.38
475.063	367.38
475.282	388.38
475.501	361.38
475.72	398.38
475.939	382.38
476.158	384.38
476.377	385.38
476.596	403.38
476.814	401.38
477.033	398.38
477.252	407.38
477.471	392.38
477.69	397.38
477.908	384.38
478.127	398.38
478.346	407.38
478.564	410.38
478.783	395.38
479.002	406.38
479.22	429.38
479.439	449.38
479.658	439.38
479.876	426.38
480.095	436.38
480.313	453.38
480.532	437.38
480.751	451.38
480.969	451.38
481.188	474.38
481.406	490.38
481.624	461.38
481.843	455.38
482.061	465.38
482.28	435.38
482.498	432.38
482.717	434.38
482.935	441.38
483.153	440.38
483.372	442.38
483.59	446.38
483.808	437.38
484.027	461.38
484.245	448.38
484.463	467.38
484.681	442.38
484.9	448.38
485.118	447.38
485.336	442.38
485.554	460.38
485.772	462.38
485.99	463.38
486.209	473.38
486.427	471.38
486.645	462.38
486.863	477.38
487.081	481.38
487.299	480.38
487.517	488.38
487.735	497.38
487.953	479.38
488.171	489.38
488.389	494.38
488.607	468.38
488.825	481.38
489.043	480.38
489.261	472.38
489.479	473.38
489.696	493.38
489.914	477.38
490.132	496.38
490.35	516.38
490.568	498.38
490.786	501.38
491.003	510.38
491.221	522.38
491.439	532.38
491.657	544.38
491.874	549.38
492.092	517.38
492.31	539.38
492.527	528.38
492.745	536.38
492.963	545.38
493.18	562.38
493.398	557.38
493.615	557.38
493.833	566.38
494.05	574.38
494.268	570.38
494.485	569.38
494.703	556.38
494.92	547.38
495.138	577.38
495.355	563.38
495.573	547.38
495.79	579.38
496.008	556.38
496.225	553.38
496.442	554.38
496.66	571.38
496.877	545.38
497.094	548.38
497.312	566.38
497.529	592.38
497.746	590.38
497.963	597.38
498.181	585.38
498.398	593.38
498.615	622.38
498.832	628.38
499.049	640.38
499.267	661.38
499.484	630.38
499.701	658.38
499.918	678.38
500.135	708.38
500.352	712.38
500.569	718.38
500.786	717.38
501.003	726.38
501.22	712.38
501.437	684.38
501.654	695.38
501.871	675.38
502.088	677.38
502.305	643.38
502.522	634.38
502.739	626.38
502.956	612.38
503.172	576.38
503.389	597.38
503.606	595.38
503.823	588.38
504.04	576.38
504.256	579.38
504.473	575.38
504.69	570.38
504.907	554.38
505.123	553.38
505.34	546.38
505.557	522.38
505.773	544.38
505.99	557.38
506.207	542.38
506.423	548.38
506.64	531.38
506.856	560.38
507.073	534.38
507.289	543.38
507.506	542.38
507.722	556.38
507.939	544.38
508.155	533.38
508.372	523.38
508.588	532.38
508.805	539.38
509.021	535.38
509.238	520.38
509.454	524.38
509.67	551.38
509.887	531.38
510.103	533.38
510.319	535.38
510.536	598.38
510.752	955.38
510.968	814.38
511.184	533.38
511.401	505.38
511.617	512.38
511.833	506.38
512.049	486.38
512.265	486.38
512.481	483.38
512.698	485.38
512.914	486.38
513.13	481.38
513.346	484.38
513.562	480.38
513.778	501.38
513.994	488.38
514.21	506.38
514.426	530.38
514.642	584.38
514.858	560.38
515.074	608.38
515.29	710.38
515.506	1042.38
515.721	845.38
515.937	592.38
516.153	535.38
516.369	542.38
516.585	525.38
516.801	509.38
517.016	513.38
517.232	496.38
517.448	478.38
517.664	505.38
517.879	506.38
518.095	484.38
518.311	483.38
518.527	489.38
518.742	479.38
518.958	490.38
519.173	487.38
519.389	485.38
519.605	514.38
519.82	490.38
520.036	496.38
520.251	517.38
520.467	542.38
520.682	531.38
520.898	546.38
521.113	566.38
521.329	600.38
521.544	656.38
521.76	832.38
521.975	1342.38
522.19	1366.38
522.406	756.38
522.621	589.38
522.836	506.38
523.052	498.38
523.267	478.38
523.482	454.38
523.698	453.38
523.913	457.38
524.128	436.38
524.343	454.38
524.559	416.38
524.774	424.38
524.989	431.38
525.204	432.38
525.419	426.38
525.634	418.38
525.849	446.38
526.064	432.38
526.28	411.38
526.495	402.38
526.71	407.38
526.925	392.38
527.14	417.38
527.355	399.38
527.57	414.38
527.785	390.38
527.999	396.38
528.214	406.38
528.429	395.38
528.644	413.38
528.859	405.38
529.074	425.38
529.289	434.38
529.503	473.38
529.718	473.38
529.933	432.38
530.148	434.38
530.363	396.38
530.577	394.38
530.792	429.38
531.007	394.38
531.221	410.38
531.436	394.38
531.651	404.38
531.865	408.38
532.08	382.38
532.295	398.38
532.509	391.38
532.724	389.38
532.938	402.38
533.153	383.38
533.367	375.38
533.582	391.38
533.796	404.38
534.011	392.38
534.225	382.38
534.44	377.38
534.654	389.38
534.868	384.38
535.083	372.38
535.297	387.38
535.511	370.38
535.726	388.38
535.94	398.38
536.154	386.38
536.369	386.38
536.583	358.38
536.797	360.38
537.011	381.38
537.225	362.38
537.44	374.38
537.654	379.38
537.868	370.38
538.082	375.38
538.296	371.38
538.51	376.38
538.724	389.38
538.938	374.38
539.153	388.38
539.367	391.38
539.581	376.38
539.795	372.38
540.009	370.38
540.222	353.38
540.436	380.38
540.65	376.38
540.864	374.38
541.078	371.38
541.292	404.38
541.506	387.38
541.72	390.38
541.934	366.38
542.147	377.38
542.361	378.38
542.575	368.38
542.789	384.38
543.002	377.38
543.216	370.38
543.43	361.38
543.644	384.38
543.857	378.38
544.071	365.38
544.285	378.38
544.498	368.38
544.712	372.38
544.925	371.38
545.139	375.38
545.352	373.38
545.566	371.38
545.779	357.38
545.993	355.38
546.206	356.38
546.42	375.38
546.633	346.38
546.847	362.38
547.06	362.38
547.274	353.38
547.487	352.38
547.7	369.38
547.914	338.38
548.127	357.38
548.34	353.38
548.554	369.38
548.767	354.38
548.98	348.38
549.193	350.38
549.407	357.38
549.62	361.38
549.833	361.38
550.046	344.38
550.259	365.38
550.473	349.38
550.686	358.38
550.899	357.38
551.112	357.38
551.325	348.38
551.538	346.38
551.751	344.38
551.964	336.38
552.177	353.38
552.39	352.38
552.603	338.38
552.816	342.38
553.029	355.38
553.242	370.38
553.455	370.38
553.667	375.38
553.88	370.38
554.093	373.38
554.306	348.38
554.519	352.38
554.732	358.38
554.944	340.38
555.157	335.38
555.37	329.38
555.583	357.38
555.795	342.38
556.008	326.38
556.221	322.38
556.433	318.38
556.646	350.38
556.859	336.38
557.071	334.38
557.284	326.38
557.496	320.38
557.709	327.38
557.921	317.38
558.134	333.38
558.346	307.38
558.559	297.38
558.771	315.38
558.984	316.38
559.196	317.38
559.409	320.38
559.621	306.38
559.833	320.38
560.046	293.38
560.258	316.38
560.47	314.38
560.683	337.38
560.895	318.38
561.107	310.38
561.32	318.38
561.532	318.38
561.744	321.38
561.956	328.38
562.168	314.38
562.381	329.38
562.593	350.38
562.805	322.38
563.017	340.38
563.229	330.38
563.441	311.38
563.653	326.38
563.865	328.38
564.077	320.38
564.289	326.38
564.501	338.38
564.713	328.38
564.925	325.38
565.137	338.38
565.349	351.38
565.561	338.38
565.773	337.38
565.985	335.38
566.197	355.38
566.408	338.38
566.62	353.38
566.832	372.38
567.044	376.38
567.255	393.38
567.467	380.38
567.679	354.38
567.891	360.38
568.102	376.38
568.314	358.38
568.526	351.38
568.737	341.38
568.949	334.38
569.161	323.38
569.372	348.38
569.584	335.38
569.795	338.38
570.007	318.38
570.218	356.38
570.43	349.38
570.641	305.38
570.853	315.38
571.064	294.38
571.276	306.38
571.487	314.38
571.698	310.38
571.91	307.38
572.121	307.38
572.333	302.38
572.544	291.38
572.755	293.38
572.966	290.38
573.178	269.38
573.389	282.38
573.6	290.38
573.811	266.38
574.023	288.38
574.234	288.38
574.445	276.38
574.656	284.38
574.867	281.38
575.078	294.38
575.289	290.38
575.501	270.38
575.712	277.38
575.923	264.38
576.134	262.38
576.345	275.38
576.556	278.38
576.767	268.38
576.978	292.38
577.188	276.38
577.399	252.38
577.61	287.38
577.821	268.38
578.032	275.38
578.243	295.38
578.454	461.38
578.665	364.38
578.875	284.38
579.086	255.38
579.297	264.38
579.508	249.38
579.718	277.38
579.929	264.38
580.14	248.38
580.35	267.38
580.561	256.38
580.772	269.38
580.982	240.38
581.193	259.38
581.403	252.38
581.614	261.38
581.825	248.38
582.035	247.38
582.246	261.38
582.456	253.38
582.667	256.38
582.877	234.38
583.087	231.38
583.298	243.38
583.508	237.38
583.719	245.38
583.929	249.38
584.139	252.38
584.35	256.38
584.56	269.38
584.77	240.38
584.981	271.38
585.191	264.38
585.401	266.38
585.611	243.38
585.821	257.38
586.032	260.38
586.242	237.38
586.452	236.38
586.662	246.38
586.872	244.38
587.082	250.38
587.292	254.38
587.502	251.38
587.713	236.38
587.923	245.38
588.133	227.38
588.343	240.38
588.553	244.38
588.762	230.38
588.972	248.38
589.182	272.38
589.392	268.38
589.602	266.38
589.812	252.38
590.022	264.38
590.232	238.38
590.441	249.38
590.651	252.38
590.861	235.38
591.071	249.38
591.281	244.38
591.49	242.38
591.7	253.38
591.91	246.38
592.119	232.38
592.329	240.38
592.539	267.38
592.748	242.38
592.958	248.38
593.167	245.38
593.377	256.38
593.587	252.38
593.796	247.38
594.006	253.38
594.215	227.38
594.424	251.38
594.634	244.38
594.843	245.38
595.053	247.38
595.262	241.38
595.472	246.38
595.681	260.38
595.89	247.38
596.1	241.38
596.309	233.38
596.518	248.38
596.727	244.38
596.937	241.38
597.146	228.38
597.355	228.38
597.564	233.38
597.774	233.38
597.983	230.38
598.192	217.38
598.401	204.38
598.61	230.38
598.819	214.38
599.028	224.38
599.237	228.38
599.446	217.38
599.655	211.38
599.864	230.38
600.073	223.38
600.282	219.38
600.491	229.38
600.7	230.38
600.909	216.38
601.118	224.38
601.327	215.38
601.536	217.38
601.745	218.38
601.953	204.38
602.162	215.38
602.371	207.38
602.58	205.38
602.789	214.38
602.997	219.38
603.206	209.38
603.415	236.38
603.623	242.38
603.832	209.38
604.041	206.38
604.249	209.38
604.458	204.38
604.666	210.38
604.875	202.38
605.084	201.38
605.292	198.38
605.501	206.38
605.709	211.38
605.918	217.38
606.126	218.38
606.334	209.38
606.543	219.38
606.751	223.38
606.96	212.38
607.168	226.38
607.376	207.38
607.585	201.38
607.793	220.38
608.001	206.38
608.21	204.38
608.418	199.38
608.626	206.38
608.834	214.38
609.043	199.38
609.251	202.38
609.459	205.38
609.667	228.38
609.875	201.38
610.083	216.38
610.291	205.38
610.499	200.38
610.707	211.38
610.916	198.38
611.124	199.38
611.332	208.38
611.54	217.38
611.748	204.38
611.955	197.38
612.163	184.38
612.371	196.38
612.579	217.38
612.787	193.38
612.995	192.38
613.203	211.38
613.411	199.38
613.618	199.38
613.826	206.38
614.034	192.38
614.242	188.38
614.449	193.38
614.657	202.38
614.865	200.38
615.072	198.38
615.28	199.38
615.488	198.38
615.695	210.38
615.903	201.38
616.111	194.38
616.318	204.38
616.526	209.38
616.733	199.38
616.941	196.38
617.148	211.38
617.356	205.38
617.563	197.38
617.771	206.38
617.978	191.38
618.185	191.38
618.393	193.38
618.6	201.38
618.807	189.38
619.015	220.38
619.222	203.38
619.429	207.38
619.637	203.38
619.844	193.38
620.051	197.38
620.258	193.38
620.466	186.38
620.673	199.38
620.88	190.38
621.087	178.38
621.294	188.38
621.501	210.38
621.708	195.38
621.915	174.38
622.122	182.38
622.329	179.38
622.536	188.38
622.743	188.38
622.95	188.38
623.157	191.38
623.364	189.38
623.571	184.38
623.778	194.38
623.985	183.38
624.192	194.38
624.399	178.38
624.606	204.38
624.812	182.38
625.019	180.38
625.226	176.38
625.433	169.38
625.639	189.38
625.846	170.38
626.053	187.38
626.259	187.38
626.466	184.38
626.673	174.38
626.879	176.38
627.086	185.38
627.293	177.38
627.499	177.38
627.706	191.38
627.912	189.38
628.119	179.38
628.325	178.38
628.532	177.38
628.738	167.38
628.945	180.38
629.151	161.38
629.357	170.38
629.564	174.38
629.77	179.38
629.976	172.38
630.183	180.38
630.389	169.38
630.595	168.38
630.802	173.38
631.008	161.38
631.214	162.38
631.42	167.38
631.627	170.38
631.833	149.38
632.039	160.38
632.245	146.38
632.451	168.38
632.657	178.38
632.863	158.38
633.069	167.38
633.275	170.38
633.481	154.38
633.688	164.38
633.893	171.38
634.099	156.38
634.305	156.38
634.511	180.38
634.717	160.38
634.923	169.38
635.129	157.38
635.335	150.38
635.541	155.38
635.747	162.38
635.952	168.38
636.158	161.38
636.364	161.38
636.57	177.38
636.775	161.38
636.981	175.38
637.187	176.38
637.392	154.38
637.598	152.38
637.804	153.38
638.009	165.38
638.215	162.38
638.421	151.38
638.626	144.38
638.832	156.38
639.037	157.38
639.243	154.38
639.448	156.38
639.654	140.38
639.859	167.38
640.065	159.38
640.27	142.38
640.475	144.38
640.681	162.38
640.886	151.38
641.091	159.38
641.297	136.38
641.502	166.38
641.707	154.38
641.913	161.38
642.118	157.38
642.323	154.38
642.528	153.38
642.733	161.38
642.939	153.38
643.144	157.38
643.349	135.38
643.554	132.38
643.759	145.38
643.964	149.38
644.169	134.38
644.374	144.38
644.579	152.38
644.784	157.38
644.989	146.38
645.194	149.38
645.399	149.38
645.604	156.38
645.809	147.38
646.014	154.38
646.219	152.38
646.423	145.38
646.628	143.38
646.833	142.38
647.038	141.38
647.243	146.38
647.447	160.38
647.652	156.38
647.857	150.38
648.062	148.38
648.266	147.38
648.471	140.38
648.676	147.38
648.88	146.38
649.085	138.38
649.289	156.38
649.494	139.38
649.698	157.38
649.903	150.38
650.107	161.38
650.312	129.38
650.516	138.38
650.721	134.38
650.925	137.38
651.13	133.38
651.334	129.38
651.539	139.38
651.743	140.38
651.947	142.38
652.152	132.38
652.356	153.38
652.56	148.38
652.764	136.38
652.969	139.38
653.173	122.38
653.377	125.38
653.581	130.38
653.785	128.38
653.99	119.38
654.194	120.38
654.398	116.38
654.602	121.38
654.806	126.38
655.01	126.38
655.214	121.38
655.418	119.38
655.622	105.38
655.826	130.38
656.03	124.38
656.234	124.38
656.438	128.38
656.642	124.38
656.846	126.38
657.049	121.38
657.253	104.38
657.457	106.38
657.661	104.38
657.865	106.38
658.068	100.38
658.272	98.38
658.476	114.38
658.68	109.38
658.883	94.38
659.087	94.38
659.291	97.38
659.494	103.38
659.698	87.38
659.901	93.38
660.105	89.38
660.309	114.38
660.512	99.38
660.716	94.38
660.919	101.38
661.123	99.38
661.326	91.38
661.53	97.38
661.733	99.38
661.936	82.38
662.14	98.38
662.343	84.38
662.546	74.38
662.75	86.38
662.953	89.38
663.156	84.38
663.36	86.38
663.563	88.38
663.766	73.38
663.969	76.38
664.173	84.38
664.376	93.38
664.579	89.38
664.782	94.38
664.985	85.38
665.188	77.38
665.391	97.38
665.594	88.38
665.797	82.38
666	86.38
666.203	79.38
666.406	87.38
666.609	73.38
666.812	90.38
667.015	74.38
667.218	92.38
667.421	82.38
667.624	69.38
667.827	81.38
668.03	84.38
668.232	80.38
668.435	100.38
668.638	79.38
668.841	90.38
669.043	87.38
669.246	74.38
669.449	82.38
669.651	85.38
669.854	72.38
670.057	84.38
670.259	88.38
670.462	90.38
670.665	87.38
670.867	84.38
671.07	84.38
671.272	77.38
671.475	77.38
671.677	64.38
671.88	83.38
672.082	77.38
672.284	80.38
672.487	86.38
672.689	81.38
672.892	85.38
