Data from 1980.PennyLincolnUp.Lamp.En5.5.200Scan.071819.P1_HRD10591_16-36-55-956.txt Node
Date: Thu Jul 18 16:36:55 EDT 2019
User: cochatt
Spectrometer: HR+D1059
Trigger mode: 1
Integration Time (sec): 1.000000E-1
Scans to average: 1
Electric dark correction enabled: true
Nonlinearity correction enabled: false
Boxcar width: 0
XAxis mode: Wavelengths
Number of Pixels in Spectrum: 2048
>>>>>Begin Spectral Data<<<<<
223.165	-19.94
223.4	-19.94
223.635	-19.94
223.869	-18.94
224.104	-18.94
224.338	-10.94
224.573	-17.94
224.808	-8.94
225.042	-2.94
225.277	-7.94
225.511	12.06
225.746	1.06
225.98	9.06
226.215	5.06
226.449	15.06
226.683	7.06
226.918	28.06
227.152	29.06
227.387	40.06
227.621	44.06
227.856	53.06
228.09	52.06
228.324	72.06
228.559	57.06
228.793	75.06
229.027	119.06
229.262	115.06
229.496	111.06
229.73	155.06
229.964	170.06
230.199	137.06
230.433	127.06
230.667	119.06
230.901	121.06
231.136	115.06
231.37	98.06
231.604	129.06
231.838	117.06
232.072	110.06
232.306	113.06
232.541	102.06
232.775	112.06
233.009	114.06
233.243	117.06
233.477	108.06
233.711	105.06
233.945	111.06
234.179	112.06
234.413	116.06
234.647	117.06
234.881	123.06
235.115	124.06
235.349	110.06
235.583	125.06
235.817	107.06
236.051	126.06
236.285	137.06
236.519	124.06
236.753	134.06
236.987	143.06
237.221	191.06
237.455	229.06
237.689	193.06
237.922	127.06
238.156	131.06
238.39	129.06
238.624	128.06
238.858	139.06
239.091	125.06
239.325	118.06
239.559	127.06
239.793	127.06
240.027	119.06
240.26	147.06
240.494	155.06
240.728	135.06
240.961	147.06
241.195	155.06
241.429	151.06
241.662	129.06
241.896	131.06
242.13	135.06
242.363	132.06
242.597	155.06
242.83	132.06
243.064	149.06
243.298	136.06
243.531	131.06
243.765	136.06
243.998	143.06
244.232	135.06
244.465	126.06
244.699	152.06
244.932	154.06
245.166	140.06
245.399	136.06
245.633	149.06
245.866	155.06
246.099	143.06
246.333	147.06
246.566	158.06
246.8	153.06
247.033	156.06
247.266	152.06
247.5	183.06
247.733	157.06
247.966	170.06
248.2	172.06
248.433	170.06
248.666	191.06
248.899	183.06
249.133	192.06
249.366	200.06
249.599	214.06
249.832	192.06
250.066	183.06
250.299	166.06
250.532	186.06
250.765	197.06
250.998	220.06
251.231	241.06
251.465	226.06
251.698	205.06
251.931	202.06
252.164	202.06
252.397	200.06
252.63	215.06
252.863	207.06
253.096	228.06
253.329	232.06
253.562	247.06
253.795	229.06
254.028	217.06
254.261	229.06
254.494	228.06
254.727	271.06
254.96	300.06
255.193	277.06
255.426	264.06
255.659	237.06
255.892	247.06
256.124	232.06
256.357	243.06
256.59	233.06
256.823	234.06
257.056	217.06
257.289	216.06
257.521	216.06
257.754	209.06
257.987	206.06
258.22	229.06
258.452	220.06
258.685	199.06
258.918	223.06
259.151	195.06
259.383	222.06
259.616	214.06
259.849	233.06
260.081	232.06
260.314	283.06
260.547	257.06
260.779	247.06
261.012	235.06
261.244	222.06
261.477	228.06
261.71	233.06
261.942	236.06
262.175	246.06
262.407	239.06
262.64	218.06
262.872	208.06
263.105	225.06
263.337	211.06
263.57	221.06
263.802	208.06
264.035	209.06
264.267	214.06
264.499	196.06
264.732	207.06
264.964	203.06
265.197	205.06
265.429	202.06
265.661	220.06
265.894	206.06
266.126	214.06
266.358	209.06
266.591	198.06
266.823	218.06
267.055	234.06
267.287	218.06
267.52	219.06
267.752	207.06
267.984	214.06
268.216	222.06
268.448	216.06
268.681	216.06
268.913	229.06
269.145	257.06
269.377	275.06
269.609	277.06
269.841	276.06
270.073	270.06
270.306	291.06
270.538	311.06
270.77	335.06
271.002	300.06
271.234	292.06
271.466	289.06
271.698	309.06
271.93	343.06
272.162	321.06
272.394	323.06
272.626	309.06
272.858	299.06
273.09	262.06
273.322	262.06
273.553	261.06
273.785	277.06
274.017	262.06
274.249	263.06
274.481	259.06
274.713	247.06
274.945	283.06
275.176	262.06
275.408	270.06
275.64	251.06
275.872	244.06
276.104	253.06
276.335	279.06
276.567	259.06
276.799	284.06
277.031	303.06
277.262	294.06
277.494	282.06
277.726	300.06
277.957	272.06
278.189	273.06
278.421	277.06
278.652	263.06
278.884	245.06
279.115	249.06
279.347	262.06
279.579	263.06
279.81	248.06
280.042	263.06
280.273	246.06
280.505	252.06
280.736	260.06
280.968	281.06
281.199	256.06
281.431	260.06
281.662	242.06
281.894	259.06
282.125	250.06
282.356	272.06
282.588	299.06
282.819	300.06
283.051	255.06
283.282	255.06
283.513	248.06
283.745	268.06
283.976	240.06
284.207	267.06
284.439	265.06
284.67	259.06
284.901	273.06
285.132	261.06
285.364	261.06
285.595	255.06
285.826	249.06
286.057	246.06
286.288	260.06
286.52	258.06
286.751	262.06
286.982	254.06
287.213	263.06
287.444	263.06
287.675	280.06
287.906	287.06
288.138	294.06
288.369	312.06
288.6	284.06
288.831	278.06
289.062	279.06
289.293	268.06
289.524	269.06
289.755	283.06
289.986	262.06
290.217	265.06
290.448	274.06
290.679	281.06
290.91	264.06
291.141	264.06
291.371	268.06
291.602	242.06
291.833	243.06
292.064	271.06
292.295	270.06
292.526	272.06
292.757	287.06
292.987	292.06
293.218	273.06
293.449	271.06
293.68	262.06
293.91	279.06
294.141	262.06
294.372	285.06
294.603	284.06
294.833	264.06
295.064	269.06
295.295	279.06
295.525	254.06
295.756	264.06
295.987	296.06
296.217	297.06
296.448	322.06
296.679	283.06
296.909	272.06
297.14	255.06
297.37	271.06
297.601	276.06
297.831	284.06
298.062	278.06
298.292	261.06
298.523	269.06
298.753	291.06
298.984	282.06
299.214	286.06
299.445	284.06
299.675	279.06
299.905	283.06
300.136	296.06
300.366	270.06
300.597	298.06
300.827	284.06
301.057	270.06
301.288	294.06
301.518	302.06
301.748	300.06
301.979	293.06
302.209	297.06
302.439	315.06
302.669	284.06
302.9	289.06
303.13	295.06
303.36	288.06
303.59	318.06
303.82	308.06
304.051	332.06
304.281	291.06
304.511	286.06
304.741	308.06
304.971	308.06
305.201	303.06
305.431	299.06
305.661	290.06
305.891	292.06
306.121	310.06
306.352	312.06
306.582	308.06
306.812	328.06
307.042	283.06
307.272	313.06
307.502	283.06
307.731	319.06
307.961	313.06
308.191	296.06
308.421	309.06
308.651	311.06
308.881	310.06
309.111	287.06
309.341	330.06
309.571	345.06
309.8	338.06
310.03	359.06
310.26	348.06
310.49	349.06
310.72	359.06
310.949	375.06
311.179	380.06
311.409	365.06
311.639	359.06
311.868	356.06
312.098	368.06
312.328	354.06
312.557	380.06
312.787	379.06
313.017	383.06
313.246	350.06
313.476	350.06
313.706	350.06
313.935	365.06
314.165	360.06
314.394	378.06
314.624	389.06
314.853	371.06
315.083	358.06
315.312	334.06
315.542	344.06
315.771	363.06
316.001	343.06
316.23	336.06
316.46	335.06
316.689	341.06
316.919	347.06
317.148	354.06
317.377	359.06
317.607	363.06
317.836	351.06
318.065	357.06
318.295	332.06
318.524	343.06
318.753	359.06
318.983	363.06
319.212	347.06
319.441	370.06
319.67	372.06
319.9	367.06
320.129	341.06
320.358	364.06
320.587	351.06
320.816	368.06
321.046	375.06
321.275	383.06
321.504	367.06
321.733	383.06
321.962	393.06
322.191	380.06
322.42	389.06
322.649	437.06
322.878	426.06
323.108	439.06
323.337	474.06
323.566	484.06
323.795	540.06
324.024	581.06
324.253	735.06
324.482	1007.06
324.71	1535.06
324.939	2254.06
325.168	1963.06
325.397	1016.06
325.626	673.06
325.855	563.06
326.084	505.06
326.313	512.06
326.542	496.06
326.77	545.06
326.999	651.06
327.228	914.06
327.457	1360.06
327.686	1681.06
327.914	1125.06
328.143	739.06
328.372	651.06
328.6	586.06
328.829	580.06
329.058	581.06
329.287	607.06
329.515	571.06
329.744	524.06
329.972	505.06
330.201	503.06
330.43	553.06
330.658	592.06
330.887	607.06
331.115	615.06
331.344	505.06
331.572	477.06
331.801	477.06
332.03	464.06
332.258	465.06
332.486	428.06
332.715	406.06
332.943	409.06
333.172	411.06
333.4	443.06
333.629	428.06
333.857	436.06
334.085	461.06
334.314	454.06
334.542	517.06
334.771	523.06
334.999	460.06
335.227	437.06
335.455	425.06
335.684	419.06
335.912	408.06
336.14	399.06
336.369	405.06
336.597	434.06
336.825	420.06
337.053	391.06
337.281	383.06
337.51	410.06
337.738	405.06
337.966	399.06
338.194	407.06
338.422	410.06
338.65	416.06
338.878	382.06
339.106	378.06
339.334	398.06
339.562	385.06
339.79	379.06
340.018	400.06
340.246	392.06
340.474	390.06
340.702	380.06
340.93	397.06
341.158	396.06
341.386	384.06
341.614	397.06
341.842	393.06
342.07	373.06
342.298	388.06
342.526	360.06
342.754	364.06
342.981	371.06
343.209	383.06
343.437	407.06
343.665	392.06
343.893	385.06
344.12	389.06
344.348	391.06
344.576	409.06
344.804	407.06
345.031	403.06
345.259	422.06
345.487	414.06
345.714	406.06
345.942	387.06
346.17	401.06
346.397	392.06
346.625	379.06
346.853	391.06
347.08	362.06
347.308	405.06
347.535	387.06
347.763	400.06
347.99	413.06
348.218	405.06
348.445	406.06
348.673	403.06
348.9	414.06
349.128	368.06
349.355	376.06
349.583	371.06
349.81	375.06
350.037	366.06
350.265	370.06
350.492	383.06
350.72	383.06
350.947	377.06
351.174	376.06
351.402	386.06
351.629	379.06
351.856	403.06
352.083	405.06
352.311	413.06
352.538	421.06
352.765	398.06
352.992	393.06
353.22	381.06
353.447	385.06
353.674	398.06
353.901	378.06
354.128	341.06
354.355	371.06
354.583	369.06
354.81	361.06
355.037	340.06
355.264	354.06
355.491	344.06
355.718	355.06
355.945	347.06
356.172	347.06
356.399	358.06
356.626	355.06
356.853	359.06
357.08	348.06
357.307	359.06
357.534	351.06
357.761	347.06
357.988	362.06
358.215	360.06
358.441	349.06
358.668	355.06
358.895	358.06
359.122	377.06
359.349	369.06
359.576	391.06
359.802	397.06
360.029	412.06
360.256	454.06
360.483	424.06
360.709	407.06
360.936	389.06
361.163	388.06
361.39	356.06
361.616	377.06
361.843	367.06
362.07	389.06
362.296	415.06
362.523	398.06
362.749	372.06
362.976	389.06
363.203	384.06
363.429	371.06
363.656	357.06
363.882	381.06
364.109	352.06
364.335	335.06
364.562	373.06
364.788	347.06
365.015	353.06
365.241	368.06
365.468	378.06
365.694	384.06
365.92	376.06
366.147	360.06
366.373	365.06
366.599	341.06
366.826	371.06
367.052	347.06
367.278	360.06
367.505	352.06
367.731	376.06
367.957	358.06
368.184	353.06
368.41	369.06
368.636	391.06
368.862	389.06
369.089	380.06
369.315	360.06
369.541	361.06
369.767	361.06
369.993	360.06
370.219	378.06
370.445	367.06
370.672	373.06
370.898	349.06
371.124	337.06
371.35	352.06
371.576	342.06
371.802	340.06
372.028	355.06
372.254	355.06
372.48	333.06
372.706	361.06
372.932	341.06
373.158	340.06
373.384	363.06
373.61	375.06
373.835	351.06
374.061	356.06
374.287	368.06
374.513	373.06
374.739	358.06
374.965	371.06
375.191	357.06
375.416	363.06
375.642	391.06
375.868	377.06
376.094	359.06
376.319	352.06
376.545	379.06
376.771	347.06
376.997	373.06
377.222	359.06
377.448	347.06
377.674	360.06
377.899	373.06
378.125	350.06
378.35	363.06
378.576	351.06
378.802	363.06
379.027	337.06
379.253	362.06
379.478	350.06
379.704	360.06
379.929	365.06
380.155	330.06
380.38	367.06
380.606	375.06
380.831	347.06
381.057	354.06
381.282	359.06
381.507	367.06
381.733	371.06
381.958	354.06
382.184	339.06
382.409	344.06
382.634	363.06
382.86	352.06
383.085	334.06
383.31	338.06
383.535	364.06
383.761	366.06
383.986	378.06
384.211	348.06
384.436	377.06
384.662	364.06
384.887	373.06
385.112	378.06
385.337	356.06
385.562	371.06
385.787	395.06
386.013	398.06
386.238	397.06
386.463	394.06
386.688	384.06
386.913	369.06
387.138	379.06
387.363	379.06
387.588	382.06
387.813	393.06
388.038	382.06
388.263	389.06
388.488	381.06
388.713	369.06
388.938	382.06
389.163	389.06
389.387	379.06
389.612	386.06
389.837	394.06
390.062	344.06
390.287	385.06
390.512	375.06
390.736	384.06
390.961	373.06
391.186	377.06
391.411	367.06
391.636	367.06
391.86	389.06
392.085	399.06
392.31	383.06
392.534	393.06
392.759	388.06
392.984	384.06
393.208	380.06
393.433	413.06
393.658	385.06
393.882	382.06
394.107	365.06
394.331	411.06
394.556	383.06
394.78	383.06
395.005	397.06
395.229	389.06
395.454	391.06
395.678	393.06
395.903	392.06
396.127	416.06
396.352	430.06
396.576	416.06
396.801	404.06
397.025	409.06
397.249	410.06
397.474	394.06
397.698	394.06
397.922	407.06
398.147	428.06
398.371	432.06
398.595	436.06
398.82	435.06
399.044	427.06
399.268	440.06
399.492	435.06
399.717	467.06
399.941	508.06
400.165	535.06
400.389	519.06
400.613	480.06
400.837	470.06
401.062	459.06
401.286	435.06
401.51	420.06
401.734	415.06
401.958	424.06
402.182	421.06
402.406	432.06
402.63	431.06
402.854	451.06
403.078	445.06
403.302	447.06
403.526	470.06
403.75	463.06
403.974	447.06
404.198	433.06
404.422	463.06
404.645	458.06
404.869	455.06
405.093	473.06
405.317	513.06
405.541	536.06
405.765	494.06
405.988	483.06
406.212	499.06
406.436	521.06
406.66	502.06
406.883	501.06
407.107	504.06
407.331	524.06
407.555	616.06
407.778	611.06
408.002	548.06
408.226	512.06
408.449	500.06
408.673	495.06
408.896	549.06
409.12	551.06
409.344	553.06
409.567	465.06
409.791	469.06
410.014	461.06
410.238	435.06
410.461	447.06
410.685	438.06
410.908	460.06
411.132	507.06
411.355	553.06
411.578	507.06
411.802	473.06
412.025	443.06
412.249	458.06
412.472	474.06
412.695	508.06
412.919	503.06
413.142	466.06
413.365	456.06
413.589	436.06
413.812	443.06
414.035	435.06
414.258	417.06
414.482	430.06
414.705	425.06
414.928	425.06
415.151	430.06
415.374	427.06
415.597	409.06
415.821	414.06
416.044	407.06
416.267	442.06
416.49	433.06
416.713	422.06
416.936	442.06
417.159	408.06
417.382	423.06
417.605	415.06
417.828	443.06
418.051	466.06
418.274	429.06
418.497	455.06
418.72	435.06
418.943	413.06
419.166	447.06
419.389	449.06
419.611	455.06
419.834	443.06
420.057	457.06
420.28	477.06
420.503	459.06
420.726	440.06
420.948	459.06
421.171	501.06
421.394	507.06
421.617	484.06
421.839	463.06
422.062	427.06
422.285	470.06
422.507	531.06
422.73	596.06
422.953	559.06
423.175	493.06
423.398	455.06
423.621	467.06
423.843	491.06
424.066	486.06
424.288	490.06
424.511	523.06
424.733	573.06
424.956	636.06
425.178	624.06
425.401	632.06
425.623	646.06
425.846	548.06
426.068	532.06
426.291	494.06
426.513	514.06
426.735	506.06
426.958	577.06
427.18	631.06
427.402	747.06
427.625	801.06
427.847	757.06
428.069	617.06
428.292	556.06
428.514	506.06
428.736	486.06
428.958	480.06
429.181	471.06
429.403	464.06
429.625	496.06
429.847	517.06
430.069	605.06
430.292	590.06
430.514	505.06
430.736	487.06
430.958	453.06
431.18	470.06
431.402	449.06
431.624	435.06
431.846	429.06
432.068	407.06
432.29	444.06
432.512	441.06
432.734	444.06
432.956	439.06
433.178	460.06
433.4	455.06
433.622	459.06
433.844	431.06
434.066	424.06
434.287	428.06
434.509	447.06
434.731	444.06
434.953	462.06
435.175	464.06
435.397	506.06
435.618	519.06
435.84	554.06
436.062	629.06
436.284	691.06
436.505	580.06
436.727	518.06
436.949	484.06
437.17	494.06
437.392	479.06
437.614	462.06
437.835	518.06
438.057	630.06
438.278	727.06
438.5	718.06
438.721	793.06
438.943	746.06
439.165	607.06
439.386	551.06
439.608	527.06
439.829	521.06
440.05	548.06
440.272	579.06
440.493	544.06
440.715	507.06
440.936	492.06
441.158	486.06
441.379	463.06
441.6	494.06
441.822	488.06
442.043	523.06
442.264	638.06
442.486	665.06
442.707	576.06
442.928	537.06
443.149	537.06
443.371	563.06
443.592	593.06
443.813	651.06
444.034	728.06
444.255	584.06
444.476	537.06
444.698	496.06
444.919	480.06
445.14	607.06
445.361	564.06
445.582	537.06
445.803	616.06
446.024	715.06
446.245	699.06
446.466	649.06
446.687	584.06
446.908	519.06
447.129	483.06
447.35	477.06
447.571	460.06
447.792	470.06
448.013	481.06
448.234	500.06
448.455	549.06
448.675	641.06
448.896	776.06
449.117	646.06
449.338	605.06
449.559	703.06
449.779	805.06
450	653.06
450.221	539.06
450.442	496.06
450.662	475.06
450.883	472.06
451.104	475.06
451.324	475.06
451.545	464.06
451.766	441.06
451.986	443.06
452.207	413.06
452.428	393.06
452.648	415.06
452.869	428.06
453.089	438.06
453.31	441.06
453.53	425.06
453.751	438.06
453.971	423.06
454.192	446.06
454.412	437.06
454.633	436.06
454.853	436.06
455.073	423.06
455.294	443.06
455.514	524.06
455.734	507.06
455.955	435.06
456.175	406.06
456.395	389.06
456.616	394.06
456.836	397.06
457.056	418.06
457.276	392.06
457.497	399.06
457.717	382.06
457.937	401.06
458.157	401.06
458.377	422.06
458.598	430.06
458.818	490.06
459.038	602.06
459.258	590.06
459.478	493.06
459.698	469.06
459.918	417.06
460.138	433.06
460.358	423.06
460.578	436.06
460.798	438.06
461.018	437.06
461.238	419.06
461.458	415.06
461.678	433.06
461.898	429.06
462.118	414.06
462.338	438.06
462.558	451.06
462.777	439.06
462.997	438.06
463.217	438.06
463.437	466.06
463.657	457.06
463.876	453.06
464.096	449.06
464.316	453.06
464.536	456.06
464.755	460.06
464.975	472.06
465.195	521.06
465.414	613.06
465.634	529.06
465.854	471.06
466.073	467.06
466.293	429.06
466.512	442.06
466.732	437.06
466.951	413.06
467.171	420.06
467.391	415.06
467.61	426.06
467.829	458.06
468.049	436.06
468.268	437.06
468.488	417.06
468.707	418.06
468.927	408.06
469.146	390.06
469.365	419.06
469.585	406.06
469.804	441.06
470.023	433.06
470.243	427.06
470.462	419.06
470.681	434.06
470.901	428.06
471.12	422.06
471.339	410.06
471.558	429.06
471.777	432.06
471.997	429.06
472.216	441.06
472.435	467.06
472.654	436.06
472.873	419.06
473.092	423.06
473.311	443.06
473.53	429.06
473.749	437.06
473.968	500.06
474.187	582.06
474.406	622.06
474.625	496.06
474.844	456.06
475.063	444.06
475.282	437.06
475.501	447.06
475.72	436.06
475.939	416.06
476.158	432.06
476.377	446.06
476.596	439.06
476.814	444.06
477.033	469.06
477.252	450.06
477.471	458.06
477.69	475.06
477.908	462.06
478.127	462.06
478.346	459.06
478.564	476.06
478.783	480.06
479.002	457.06
479.22	485.06
479.439	498.06
479.658	511.06
479.876	514.06
480.095	510.06
480.313	556.06
480.532	529.06
480.751	528.06
480.969	512.06
481.188	584.06
481.406	630.06
481.624	563.06
481.843	533.06
482.061	524.06
482.28	517.06
482.498	515.06
482.717	520.06
482.935	510.06
483.153	513.06
483.372	512.06
483.59	513.06
483.808	495.06
484.027	521.06
484.245	511.06
484.463	516.06
484.681	513.06
484.9	529.06
485.118	527.06
485.336	519.06
485.554	536.06
485.772	539.06
485.99	518.06
486.209	545.06
486.427	519.06
486.645	519.06
486.863	556.06
487.081	577.06
487.299	530.06
487.517	551.06
487.735	547.06
487.953	545.06
488.171	562.06
488.389	536.06
488.607	543.06
488.825	573.06
489.043	558.06
489.261	567.06
489.479	561.06
489.696	559.06
489.914	571.06
490.132	574.06
490.35	581.06
490.568	573.06
490.786	599.06
491.003	612.06
491.221	620.06
491.439	610.06
491.657	628.06
491.874	630.06
492.092	637.06
492.31	623.06
492.527	651.06
492.745	645.06
492.963	638.06
493.18	655.06
493.398	638.06
493.615	656.06
493.833	669.06
494.05	655.06
494.268	665.06
494.485	657.06
494.703	634.06
494.92	663.06
495.138	671.06
495.355	672.06
495.573	669.06
495.79	637.06
496.008	685.06
496.225	688.06
496.442	663.06
496.66	663.06
496.877	649.06
497.094	664.06
497.312	667.06
497.529	663.06
497.746	655.06
497.963	670.06
498.181	684.06
498.398	699.06
498.615	712.06
498.832	716.06
499.049	713.06
499.267	725.06
499.484	759.06
499.701	769.06
499.918	789.06
500.135	789.06
500.352	813.06
500.569	804.06
500.786	824.06
501.003	812.06
501.22	819.06
501.437	784.06
501.654	828.06
501.871	803.06
502.088	781.06
502.305	758.06
502.522	721.06
502.739	700.06
502.956	681.06
503.172	684.06
503.389	671.06
503.606	706.06
503.823	687.06
504.04	675.06
504.256	651.06
504.473	662.06
504.69	645.06
504.907	663.06
505.123	657.06
505.34	649.06
505.557	637.06
505.773	651.06
505.99	661.06
506.207	657.06
506.423	650.06
506.64	643.06
506.856	625.06
507.073	625.06
507.289	623.06
507.506	633.06
507.722	639.06
507.939	656.06
508.155	606.06
508.372	613.06
508.588	610.06
508.805	631.06
509.021	596.06
509.238	627.06
509.454	645.06
509.67	632.06
509.887	601.06
510.103	616.06
510.319	624.06
510.536	756.06
510.752	1290.06
510.968	1017.06
511.184	668.06
511.401	613.06
511.617	599.06
511.833	581.06
512.049	595.06
512.265	607.06
512.481	598.06
512.698	582.06
512.914	583.06
513.13	598.06
513.346	581.06
513.562	559.06
513.778	600.06
513.994	593.06
514.21	606.06
514.426	631.06
514.642	700.06
514.858	732.06
515.074	748.06
515.29	906.06
515.506	1452.06
515.721	1155.06
515.937	750.06
516.153	681.06
516.369	622.06
516.585	611.06
516.801	604.06
517.016	593.06
517.232	600.06
517.448	592.06
517.664	587.06
517.879	639.06
518.095	586.06
518.311	581.06
518.527	589.06
518.742	582.06
518.958	572.06
519.173	569.06
519.389	582.06
519.605	586.06
519.82	571.06
520.036	591.06
520.251	630.06
520.467	667.06
520.682	665.06
520.898	670.06
521.113	689.06
521.329	768.06
521.544	851.06
521.76	1103.06
521.975	1901.06
522.19	1869.06
522.406	1001.06
522.621	718.06
522.836	653.06
523.052	601.06
523.267	576.06
523.482	565.06
523.698	525.06
523.913	517.06
524.128	536.06
524.343	560.06
524.559	503.06
524.774	524.06
524.989	521.06
525.204	513.06
525.419	534.06
525.634	513.06
525.849	501.06
526.064	492.06
526.28	491.06
526.495	469.06
526.71	492.06
526.925	468.06
527.14	472.06
527.355	451.06
527.57	479.06
527.785	470.06
527.999	453.06
528.214	487.06
528.429	452.06
528.644	481.06
528.859	465.06
529.074	474.06
529.289	489.06
529.503	597.06
529.718	569.06
529.933	516.06
530.148	505.06
530.363	469.06
530.577	463.06
530.792	446.06
531.007	448.06
531.221	480.06
531.436	454.06
531.651	452.06
531.865	468.06
532.08	465.06
532.295	451.06
532.509	457.06
532.724	454.06
532.938	448.06
533.153	430.06
533.367	434.06
533.582	441.06
533.796	431.06
534.011	448.06
534.225	425.06
534.44	446.06
534.654	434.06
534.868	437.06
535.083	423.06
535.297	421.06
535.511	445.06
535.726	460.06
535.94	468.06
536.154	455.06
536.369	433.06
536.583	420.06
536.797	441.06
537.011	444.06
537.225	438.06
537.44	431.06
537.654	425.06
537.868	441.06
538.082	429.06
538.296	428.06
538.51	444.06
538.724	419.06
538.938	421.06
539.153	440.06
539.367	425.06
539.581	442.06
539.795	451.06
540.009	423.06
540.222	425.06
540.436	439.06
540.65	441.06
540.864	426.06
541.078	447.06
541.292	462.06
541.506	428.06
541.72	422.06
541.934	427.06
542.147	427.06
542.361	446.06
542.575	415.06
542.789	417.06
543.002	425.06
543.216	448.06
543.43	435.06
543.644	428.06
543.857	433.06
544.071	419.06
544.285	432.06
544.498	414.06
544.712	419.06
544.925	392.06
545.139	418.06
545.352	398.06
545.566	415.06
545.779	402.06
545.993	419.06
546.206	414.06
546.42	407.06
546.633	407.06
546.847	407.06
547.06	389.06
547.274	403.06
547.487	395.06
547.7	430.06
547.914	387.06
548.127	397.06
548.34	396.06
548.554	400.06
548.767	407.06
548.98	413.06
549.193	387.06
549.407	417.06
549.62	405.06
549.833	399.06
550.046	385.06
550.259	401.06
550.473	375.06
550.686	381.06
550.899	399.06
551.112	378.06
551.325	390.06
551.538	387.06
551.751	401.06
551.964	388.06
552.177	374.06
552.39	379.06
552.603	377.06
552.816	408.06
553.029	408.06
553.242	399.06
553.455	396.06
553.667	420.06
553.88	427.06
554.093	400.06
554.306	397.06
554.519	405.06
554.732	409.06
554.944	391.06
555.157	391.06
555.37	387.06
555.583	395.06
555.795	405.06
556.008	383.06
556.221	370.06
556.433	383.06
556.646	360.06
556.859	349.06
557.071	377.06
557.284	371.06
557.496	368.06
557.709	351.06
557.921	362.06
558.134	364.06
558.346	360.06
558.559	361.06
558.771	352.06
558.984	359.06
559.196	364.06
559.409	368.06
559.621	366.06
559.833	374.06
560.046	359.06
560.258	381.06
560.47	351.06
560.683	371.06
560.895	348.06
561.107	363.06
561.32	372.06
561.532	355.06
561.744	348.06
561.956	356.06
562.168	367.06
562.381	367.06
562.593	357.06
562.805	355.06
563.017	359.06
563.229	357.06
563.441	359.06
563.653	337.06
563.865	354.06
564.077	368.06
564.289	377.06
564.501	374.06
564.713	375.06
564.925	380.06
565.137	371.06
565.349	372.06
565.561	371.06
565.773	377.06
565.985	383.06
566.197	378.06
566.408	400.06
566.62	389.06
566.832	391.06
567.044	410.06
567.255	413.06
567.467	430.06
567.679	422.06
567.891	390.06
568.102	416.06
568.314	406.06
568.526	387.06
568.737	375.06
568.949	377.06
569.161	379.06
569.372	383.06
569.584	379.06
569.795	372.06
570.007	371.06
570.218	420.06
570.43	373.06
570.641	352.06
570.853	347.06
571.064	353.06
571.276	342.06
571.487	324.06
571.698	325.06
571.91	323.06
572.121	325.06
572.333	328.06
572.544	321.06
572.755	324.06
572.966	313.06
573.178	328.06
573.389	315.06
573.6	310.06
573.811	328.06
574.023	326.06
574.234	321.06
574.445	315.06
574.656	314.06
574.867	303.06
575.078	305.06
575.289	325.06
575.501	319.06
575.712	311.06
575.923	313.06
576.134	317.06
576.345	317.06
576.556	314.06
576.767	318.06
576.978	300.06
577.188	308.06
577.399	302.06
577.61	304.06
577.821	314.06
578.032	295.06
578.243	341.06
578.454	609.06
578.665	422.06
578.875	321.06
579.086	306.06
579.297	291.06
579.508	291.06
579.718	293.06
579.929	292.06
580.14	294.06
580.35	300.06
580.561	283.06
580.772	287.06
580.982	287.06
581.193	268.06
581.403	285.06
581.614	290.06
581.825	281.06
582.035	296.06
582.246	289.06
582.456	302.06
582.667	293.06
582.877	294.06
583.087	270.06
583.298	288.06
583.508	281.06
583.719	294.06
583.929	274.06
584.139	286.06
584.35	298.06
584.56	263.06
584.77	286.06
584.981	295.06
585.191	292.06
585.401	272.06
585.611	281.06
585.821	284.06
586.032	287.06
586.242	272.06
586.452	279.06
586.662	283.06
586.872	273.06
587.082	268.06
587.292	277.06
587.502	273.06
587.713	276.06
587.923	267.06
588.133	281.06
588.343	281.06
588.553	273.06
588.762	257.06
588.972	272.06
589.182	283.06
589.392	272.06
589.602	286.06
589.812	271.06
590.022	282.06
590.232	259.06
590.441	273.06
590.651	265.06
590.861	266.06
591.071	290.06
591.281	268.06
591.49	266.06
591.7	268.06
591.91	280.06
592.119	279.06
592.329	289.06
592.539	281.06
592.748	284.06
592.958	287.06
593.167	288.06
593.377	269.06
593.587	280.06
593.796	273.06
594.006	281.06
594.215	287.06
594.424	273.06
594.634	276.06
594.843	282.06
595.053	251.06
595.262	262.06
595.472	278.06
595.681	263.06
595.89	269.06
596.1	260.06
596.309	252.06
596.518	257.06
596.727	265.06
596.937	268.06
597.146	261.06
597.355	253.06
597.564	264.06
597.774	235.06
597.983	227.06
598.192	264.06
598.401	246.06
598.61	253.06
598.819	247.06
599.028	255.06
599.237	246.06
599.446	243.06
599.655	263.06
599.864	252.06
600.073	237.06
600.282	251.06
600.491	247.06
600.7	239.06
600.909	251.06
601.118	244.06
601.327	249.06
601.536	236.06
601.745	230.06
601.953	228.06
602.162	237.06
602.371	248.06
602.58	232.06
602.789	247.06
602.997	231.06
603.206	236.06
603.415	239.06
603.623	243.06
603.832	242.06
604.041	223.06
604.249	239.06
604.458	245.06
604.666	220.06
604.875	216.06
605.084	230.06
605.292	230.06
605.501	240.06
605.709	248.06
605.918	213.06
606.126	229.06
606.334	227.06
606.543	250.06
606.751	227.06
606.96	221.06
607.168	224.06
607.376	244.06
607.585	234.06
607.793	224.06
608.001	220.06
608.21	231.06
608.418	239.06
608.626	230.06
608.834	229.06
609.043	215.06
609.251	239.06
609.459	238.06
609.667	229.06
609.875	234.06
610.083	247.06
610.291	243.06
610.499	247.06
610.707	220.06
610.916	232.06
611.124	234.06
611.332	217.06
611.54	235.06
611.748	237.06
611.955	230.06
612.163	226.06
612.371	221.06
612.579	220.06
612.787	230.06
612.995	230.06
613.203	224.06
613.411	232.06
613.618	231.06
613.826	213.06
614.034	222.06
614.242	215.06
614.449	230.06
614.657	206.06
614.865	239.06
615.072	224.06
615.28	223.06
615.488	225.06
615.695	216.06
615.903	217.06
616.111	215.06
616.318	220.06
616.526	223.06
616.733	227.06
616.941	233.06
617.148	232.06
617.356	235.06
617.563	207.06
617.771	214.06
617.978	213.06
618.185	231.06
618.393	210.06
618.6	231.06
618.807	229.06
619.015	209.06
619.222	211.06
619.429	224.06
619.637	230.06
619.844	217.06
620.051	223.06
620.258	203.06
620.466	203.06
620.673	203.06
620.88	203.06
621.087	199.06
621.294	211.06
621.501	192.06
621.708	216.06
621.915	209.06
622.122	200.06
622.329	200.06
622.536	211.06
622.743	202.06
622.95	207.06
623.157	201.06
623.364	201.06
623.571	207.06
623.778	203.06
623.985	214.06
624.192	195.06
624.399	205.06
624.606	218.06
624.812	203.06
625.019	196.06
625.226	195.06
625.433	198.06
625.639	204.06
625.846	200.06
626.053	198.06
626.259	200.06
626.466	195.06
626.673	187.06
626.879	198.06
627.086	196.06
627.293	184.06
627.499	188.06
627.706	201.06
627.912	202.06
628.119	202.06
628.325	188.06
628.532	199.06
628.738	202.06
628.945	202.06
629.151	183.06
629.357	194.06
629.564	192.06
629.77	188.06
629.976	191.06
630.183	199.06
630.389	192.06
630.595	197.06
630.802	194.06
631.008	188.06
631.214	189.06
631.42	191.06
631.627	179.06
631.833	182.06
632.039	182.06
632.245	194.06
632.451	193.06
632.657	184.06
632.863	186.06
633.069	154.06
633.275	187.06
633.481	175.06
633.688	176.06
633.893	173.06
634.099	193.06
634.305	195.06
634.511	173.06
634.717	172.06
634.923	165.06
635.129	192.06
635.335	164.06
635.541	155.06
635.747	189.06
635.952	180.06
636.158	186.06
636.364	186.06
636.57	177.06
636.775	168.06
636.981	176.06
637.187	176.06
637.392	165.06
637.598	169.06
637.804	158.06
638.009	179.06
638.215	180.06
638.421	158.06
638.626	165.06
638.832	180.06
639.037	153.06
639.243	172.06
639.448	169.06
639.654	157.06
639.859	164.06
640.065	170.06
640.27	167.06
640.475	177.06
640.681	156.06
640.886	145.06
641.091	175.06
641.297	176.06
641.502	172.06
641.707	172.06
641.913	158.06
642.118	158.06
642.323	167.06
642.528	166.06
642.733	163.06
642.939	169.06
643.144	172.06
643.349	166.06
643.554	169.06
643.759	157.06
643.964	172.06
644.169	160.06
644.374	175.06
644.579	154.06
644.784	166.06
644.989	152.06
645.194	168.06
645.399	167.06
645.604	173.06
645.809	164.06
646.014	163.06
646.219	168.06
646.423	169.06
646.628	153.06
646.833	160.06
647.038	163.06
647.243	168.06
647.447	161.06
647.652	167.06
647.857	155.06
648.062	157.06
648.266	171.06
648.471	162.06
648.676	150.06
648.88	168.06
649.085	143.06
649.289	165.06
649.494	171.06
649.698	169.06
649.903	185.06
650.107	162.06
650.312	159.06
650.516	139.06
650.721	146.06
650.925	149.06
651.13	156.06
651.334	139.06
651.539	135.06
651.743	144.06
651.947	154.06
652.152	131.06
652.356	147.06
652.56	135.06
652.764	131.06
652.969	140.06
653.173	128.06
653.377	140.06
653.581	129.06
653.785	143.06
653.99	137.06
654.194	129.06
654.398	142.06
654.602	120.06
654.806	126.06
655.01	116.06
655.214	128.06
655.418	124.06
655.622	132.06
655.826	124.06
656.03	135.06
656.234	131.06
656.438	133.06
656.642	123.06
656.846	111.06
657.049	120.06
657.253	122.06
657.457	117.06
657.661	107.06
657.865	119.06
658.068	113.06
658.272	118.06
658.476	117.06
658.68	99.06
658.883	108.06
659.087	106.06
659.291	103.06
659.494	89.06
659.698	93.06
659.901	90.06
660.105	100.06
660.309	105.06
660.512	89.06
660.716	75.06
660.919	96.06
661.123	83.06
661.326	91.06
661.53	87.06
661.733	86.06
661.936	99.06
662.14	78.06
662.343	87.06
662.546	97.06
662.75	91.06
662.953	103.06
663.156	86.06
663.36	77.06
663.563	90.06
663.766	77.06
663.969	91.06
664.173	94.06
664.376	87.06
664.579	93.06
664.782	89.06
664.985	83.06
665.188	74.06
665.391	95.06
665.594	90.06
665.797	76.06
666	85.06
666.203	77.06
666.406	81.06
666.609	81.06
666.812	81.06
667.015	98.06
667.218	76.06
667.421	90.06
667.624	89.06
667.827	91.06
668.03	100.06
668.232	89.06
668.435	79.06
668.638	90.06
668.841	71.06
669.043	80.06
669.246	85.06
669.449	89.06
669.651	86.06
669.854	80.06
670.057	90.06
670.259	83.06
670.462	92.06
670.665	88.06
670.867	82.06
671.07	94.06
671.272	78.06
671.475	82.06
671.677	90.06
671.88	80.06
672.082	92.06
672.284	100.06
672.487	85.06
672.689	85.06
672.892	76.06
