Data from 1980.PennyLincolnUp.Lamp.En5.5.200Scan.071819.P1_HRD10591_16-39-03-957.txt Node
Date: Thu Jul 18 16:39:03 EDT 2019
User: cochatt
Spectrometer: HR+D1059
Trigger mode: 1
Integration Time (sec): 1.000000E-1
Scans to average: 1
Electric dark correction enabled: true
Nonlinearity correction enabled: false
Boxcar width: 0
XAxis mode: Wavelengths
Number of Pixels in Spectrum: 2048
>>>>>Begin Spectral Data<<<<<
223.165	-3.94
223.4	-3.94
223.635	-3.94
223.869	-12.94
224.104	-27.94
224.338	-22.94
224.573	-11.94
224.808	-19.94
225.042	-6.94
225.277	6.06
225.511	6.06
225.746	16.06
225.98	4.06
226.215	8.06
226.449	5.06
226.683	23.06
226.918	4.06
227.152	34.06
227.387	43.06
227.621	24.06
227.856	50.06
228.09	39.06
228.324	61.06
228.559	55.06
228.793	70.06
229.027	112.06
229.262	112.06
229.496	125.06
229.73	159.06
229.964	166.06
230.199	148.06
230.433	126.06
230.667	117.06
230.901	125.06
231.136	126.06
231.37	126.06
231.604	119.06
231.838	122.06
232.072	105.06
232.306	125.06
232.541	124.06
232.775	111.06
233.009	120.06
233.243	126.06
233.477	122.06
233.711	120.06
233.945	121.06
234.179	121.06
234.413	110.06
234.647	109.06
234.881	126.06
235.115	104.06
235.349	127.06
235.583	125.06
235.817	135.06
236.051	132.06
236.285	138.06
236.519	127.06
236.753	139.06
236.987	150.06
237.221	194.06
237.455	229.06
237.689	211.06
237.922	138.06
238.156	146.06
238.39	137.06
238.624	129.06
238.858	127.06
239.091	126.06
239.325	124.06
239.559	142.06
239.793	138.06
240.027	145.06
240.26	145.06
240.494	183.06
240.728	167.06
240.961	160.06
241.195	162.06
241.429	158.06
241.662	160.06
241.896	126.06
242.13	138.06
242.363	140.06
242.597	125.06
242.83	146.06
243.064	137.06
243.298	160.06
243.531	146.06
243.765	141.06
243.998	153.06
244.232	149.06
244.465	166.06
244.699	147.06
244.932	152.06
245.166	143.06
245.399	159.06
245.633	150.06
245.866	160.06
246.099	148.06
246.333	154.06
246.566	173.06
246.8	164.06
247.033	150.06
247.266	158.06
247.5	160.06
247.733	175.06
247.966	182.06
248.2	175.06
248.433	175.06
248.666	178.06
248.899	196.06
249.133	217.06
249.366	224.06
249.599	214.06
249.832	199.06
250.066	191.06
250.299	199.06
250.532	194.06
250.765	207.06
250.998	225.06
251.231	223.06
251.465	221.06
251.698	230.06
251.931	207.06
252.164	216.06
252.397	223.06
252.63	212.06
252.863	214.06
253.096	231.06
253.329	254.06
253.562	225.06
253.795	234.06
254.028	215.06
254.261	230.06
254.494	255.06
254.727	286.06
254.96	306.06
255.193	275.06
255.426	293.06
255.659	272.06
255.892	260.06
256.124	263.06
256.357	253.06
256.59	242.06
256.823	244.06
257.056	241.06
257.289	241.06
257.521	230.06
257.754	226.06
257.987	211.06
258.22	230.06
258.452	215.06
258.685	222.06
258.918	212.06
259.151	211.06
259.383	225.06
259.616	236.06
259.849	234.06
260.081	237.06
260.314	248.06
260.547	289.06
260.779	264.06
261.012	244.06
261.244	249.06
261.477	251.06
261.71	231.06
261.942	245.06
262.175	241.06
262.407	258.06
262.64	233.06
262.872	228.06
263.105	225.06
263.337	227.06
263.57	214.06
263.802	210.06
264.035	221.06
264.267	218.06
264.499	214.06
264.732	214.06
264.964	241.06
265.197	208.06
265.429	206.06
265.661	214.06
265.894	236.06
266.126	224.06
266.358	206.06
266.591	204.06
266.823	222.06
267.055	215.06
267.287	235.06
267.52	233.06
267.752	228.06
267.984	239.06
268.216	239.06
268.448	241.06
268.681	247.06
268.913	263.06
269.145	268.06
269.377	316.06
269.609	285.06
269.841	270.06
270.073	282.06
270.306	314.06
270.538	351.06
270.77	346.06
271.002	327.06
271.234	322.06
271.466	332.06
271.698	337.06
271.93	341.06
272.162	344.06
272.394	335.06
272.626	324.06
272.858	315.06
273.09	309.06
273.322	284.06
273.553	286.06
273.785	282.06
274.017	283.06
274.249	276.06
274.481	304.06
274.713	291.06
274.945	276.06
275.176	276.06
275.408	293.06
275.64	289.06
275.872	279.06
276.104	274.06
276.335	277.06
276.567	278.06
276.799	294.06
277.031	332.06
277.262	337.06
277.494	331.06
277.726	304.06
277.957	297.06
278.189	308.06
278.421	292.06
278.652	266.06
278.884	265.06
279.115	265.06
279.347	277.06
279.579	272.06
279.81	281.06
280.042	282.06
280.273	276.06
280.505	265.06
280.736	274.06
280.968	256.06
281.199	270.06
281.431	272.06
281.662	269.06
281.894	264.06
282.125	260.06
282.356	292.06
282.588	313.06
282.819	334.06
283.051	264.06
283.282	266.06
283.513	269.06
283.745	273.06
283.976	273.06
284.207	282.06
284.439	270.06
284.67	270.06
284.901	272.06
285.132	262.06
285.364	274.06
285.595	278.06
285.826	289.06
286.057	279.06
286.288	278.06
286.52	280.06
286.751	289.06
286.982	277.06
287.213	293.06
287.444	283.06
287.675	278.06
287.906	296.06
288.138	295.06
288.369	305.06
288.6	299.06
288.831	292.06
289.062	293.06
289.293	278.06
289.524	273.06
289.755	283.06
289.986	273.06
290.217	279.06
290.448	285.06
290.679	293.06
290.91	278.06
291.141	280.06
291.371	278.06
291.602	289.06
291.833	280.06
292.064	286.06
292.295	281.06
292.526	279.06
292.757	298.06
292.987	274.06
293.218	287.06
293.449	270.06
293.68	283.06
293.91	287.06
294.141	279.06
294.372	294.06
294.603	283.06
294.833	277.06
295.064	283.06
295.295	286.06
295.525	261.06
295.756	308.06
295.987	305.06
296.217	316.06
296.448	325.06
296.679	302.06
296.909	291.06
297.14	292.06
297.37	292.06
297.601	287.06
297.831	281.06
298.062	294.06
298.292	286.06
298.523	290.06
298.753	280.06
298.984	292.06
299.214	304.06
299.445	295.06
299.675	317.06
299.905	290.06
300.136	296.06
300.366	298.06
300.597	290.06
300.827	293.06
301.057	323.06
301.288	332.06
301.518	323.06
301.748	320.06
301.979	313.06
302.209	322.06
302.439	329.06
302.669	315.06
302.9	314.06
303.13	289.06
303.36	317.06
303.59	339.06
303.82	327.06
304.051	318.06
304.281	322.06
304.511	321.06
304.741	326.06
304.971	313.06
305.201	314.06
305.431	315.06
305.661	329.06
305.891	324.06
306.121	298.06
306.352	312.06
306.582	321.06
306.812	310.06
307.042	327.06
307.272	314.06
307.502	324.06
307.731	327.06
307.961	299.06
308.191	354.06
308.421	332.06
308.651	328.06
308.881	308.06
309.111	340.06
309.341	342.06
309.571	353.06
309.8	364.06
310.03	387.06
310.26	376.06
310.49	388.06
310.72	386.06
310.949	411.06
311.179	409.06
311.409	394.06
311.639	380.06
311.868	383.06
312.098	382.06
312.328	366.06
312.557	438.06
312.787	422.06
313.017	418.06
313.246	385.06
313.476	376.06
313.706	380.06
313.935	385.06
314.165	396.06
314.394	424.06
314.624	401.06
314.853	390.06
315.083	381.06
315.312	367.06
315.542	360.06
315.771	356.06
316.001	367.06
316.23	364.06
316.46	367.06
316.689	374.06
316.919	377.06
317.148	403.06
317.377	383.06
317.607	360.06
317.836	387.06
318.065	374.06
318.295	383.06
318.524	361.06
318.753	381.06
318.983	383.06
319.212	374.06
319.441	391.06
319.67	396.06
319.9	367.06
320.129	384.06
320.358	382.06
320.587	376.06
320.816	393.06
321.046	406.06
321.275	400.06
321.504	401.06
321.733	408.06
321.962	411.06
322.191	428.06
322.42	447.06
322.649	465.06
322.878	476.06
323.108	493.06
323.337	514.06
323.566	556.06
323.795	579.06
324.024	650.06
324.253	817.06
324.482	1170.06
324.71	1814.06
324.939	2598.06
325.168	2265.06
325.397	1200.06
325.626	786.06
325.855	629.06
326.084	572.06
326.313	546.06
326.542	535.06
326.77	596.06
326.999	740.06
327.228	989.06
327.457	1582.06
327.686	1967.06
327.914	1356.06
328.143	843.06
328.372	742.06
328.6	702.06
328.829	648.06
329.058	666.06
329.287	669.06
329.515	619.06
329.744	572.06
329.972	582.06
330.201	592.06
330.43	633.06
330.658	648.06
330.887	701.06
331.115	652.06
331.344	568.06
331.572	522.06
331.801	518.06
332.03	523.06
332.258	472.06
332.486	463.06
332.715	468.06
332.943	449.06
333.172	456.06
333.4	469.06
333.629	459.06
333.857	464.06
334.085	489.06
334.314	511.06
334.542	536.06
334.771	554.06
334.999	505.06
335.227	487.06
335.455	450.06
335.684	449.06
335.912	418.06
336.14	428.06
336.369	423.06
336.597	445.06
336.825	438.06
337.053	421.06
337.281	423.06
337.51	419.06
337.738	425.06
337.966	421.06
338.194	411.06
338.422	432.06
338.65	411.06
338.878	412.06
339.106	403.06
339.334	417.06
339.562	414.06
339.79	436.06
340.018	410.06
340.246	434.06
340.474	441.06
340.702	416.06
340.93	433.06
341.158	421.06
341.386	408.06
341.614	428.06
341.842	419.06
342.07	396.06
342.298	423.06
342.526	384.06
342.754	405.06
342.981	415.06
343.209	383.06
343.437	424.06
343.665	422.06
343.893	403.06
344.12	398.06
344.348	414.06
344.576	425.06
344.804	431.06
345.031	445.06
345.259	450.06
345.487	429.06
345.714	440.06
345.942	411.06
346.17	422.06
346.397	421.06
346.625	407.06
346.853	391.06
347.08	380.06
347.308	410.06
347.535	425.06
347.763	430.06
347.99	425.06
348.218	425.06
348.445	420.06
348.673	432.06
348.9	413.06
349.128	402.06
349.355	399.06
349.583	395.06
349.81	384.06
350.037	392.06
350.265	390.06
350.492	399.06
350.72	412.06
350.947	408.06
351.174	410.06
351.402	438.06
351.629	415.06
351.856	431.06
352.083	428.06
352.311	428.06
352.538	423.06
352.765	449.06
352.992	415.06
353.22	403.06
353.447	409.06
353.674	400.06
353.901	374.06
354.128	365.06
354.355	380.06
354.583	388.06
354.81	372.06
355.037	386.06
355.264	370.06
355.491	377.06
355.718	355.06
355.945	370.06
356.172	383.06
356.399	369.06
356.626	374.06
356.853	366.06
357.08	370.06
357.307	375.06
357.534	376.06
357.761	373.06
357.988	374.06
358.215	378.06
358.441	370.06
358.668	373.06
358.895	374.06
359.122	381.06
359.349	388.06
359.576	397.06
359.802	445.06
360.029	483.06
360.256	487.06
360.483	462.06
360.709	427.06
360.936	418.06
361.163	415.06
361.39	428.06
361.616	426.06
361.843	402.06
362.07	417.06
362.296	408.06
362.523	423.06
362.749	398.06
362.976	376.06
363.203	402.06
363.429	385.06
363.656	374.06
363.882	388.06
364.109	402.06
364.335	396.06
364.562	384.06
364.788	375.06
365.015	378.06
365.241	391.06
365.468	409.06
365.694	392.06
365.92	409.06
366.147	403.06
366.373	381.06
366.599	384.06
366.826	388.06
367.052	367.06
367.278	378.06
367.505	377.06
367.731	402.06
367.957	375.06
368.184	389.06
368.41	388.06
368.636	417.06
368.862	406.06
369.089	388.06
369.315	386.06
369.541	389.06
369.767	374.06
369.993	382.06
370.219	369.06
370.445	384.06
370.672	365.06
370.898	382.06
371.124	382.06
371.35	361.06
371.576	362.06
371.802	363.06
372.028	374.06
372.254	365.06
372.48	369.06
372.706	381.06
372.932	384.06
373.158	348.06
373.384	363.06
373.61	359.06
373.835	380.06
374.061	373.06
374.287	384.06
374.513	380.06
374.739	393.06
374.965	383.06
375.191	381.06
375.416	374.06
375.642	388.06
375.868	380.06
376.094	376.06
376.319	368.06
376.545	359.06
376.771	341.06
376.997	357.06
377.222	352.06
377.448	359.06
377.674	375.06
377.899	365.06
378.125	360.06
378.35	380.06
378.576	333.06
378.802	360.06
379.027	375.06
379.253	384.06
379.478	360.06
379.704	363.06
379.929	364.06
380.155	381.06
380.38	384.06
380.606	368.06
380.831	362.06
381.057	381.06
381.282	356.06
381.507	349.06
381.733	361.06
381.958	368.06
382.184	369.06
382.409	355.06
382.634	367.06
382.86	356.06
383.085	378.06
383.31	370.06
383.535	390.06
383.761	374.06
383.986	389.06
384.211	364.06
384.436	376.06
384.662	381.06
384.887	372.06
385.112	382.06
385.337	389.06
385.562	371.06
385.787	388.06
386.013	388.06
386.238	394.06
386.463	402.06
386.688	402.06
386.913	389.06
387.138	387.06
387.363	386.06
387.588	386.06
387.813	388.06
388.038	377.06
388.263	392.06
388.488	384.06
388.713	391.06
388.938	395.06
389.163	398.06
389.387	409.06
389.612	385.06
389.837	383.06
390.062	388.06
390.287	390.06
390.512	380.06
390.736	402.06
390.961	385.06
391.186	375.06
391.411	372.06
391.636	392.06
391.86	390.06
392.085	393.06
392.31	410.06
392.534	393.06
392.759	381.06
392.984	381.06
393.208	403.06
393.433	397.06
393.658	386.06
393.882	384.06
394.107	389.06
394.331	396.06
394.556	365.06
394.78	396.06
395.005	384.06
395.229	414.06
395.454	421.06
395.678	389.06
395.903	414.06
396.127	437.06
396.352	445.06
396.576	412.06
396.801	393.06
397.025	404.06
397.249	410.06
397.474	405.06
397.698	396.06
397.922	428.06
398.147	445.06
398.371	441.06
398.595	415.06
398.82	442.06
399.044	444.06
399.268	438.06
399.492	461.06
399.717	469.06
399.941	525.06
400.165	522.06
400.389	544.06
400.613	512.06
400.837	474.06
401.062	461.06
401.286	449.06
401.51	458.06
401.734	452.06
401.958	452.06
402.182	448.06
402.406	474.06
402.63	457.06
402.854	450.06
403.078	437.06
403.302	451.06
403.526	457.06
403.75	478.06
403.974	460.06
404.198	465.06
404.422	458.06
404.645	487.06
404.869	508.06
405.093	500.06
405.317	562.06
405.541	570.06
405.765	535.06
405.988	502.06
406.212	502.06
406.436	543.06
406.66	550.06
406.883	519.06
407.107	553.06
407.331	571.06
407.555	637.06
407.778	623.06
408.002	549.06
408.226	542.06
408.449	526.06
408.673	510.06
408.896	543.06
409.12	584.06
409.344	556.06
409.567	510.06
409.791	480.06
410.014	470.06
410.238	478.06
410.461	475.06
410.685	466.06
410.908	511.06
411.132	528.06
411.355	587.06
411.578	544.06
411.802	483.06
412.025	458.06
412.249	466.06
412.472	492.06
412.695	563.06
412.919	519.06
413.142	487.06
413.365	472.06
413.589	456.06
413.812	448.06
414.035	447.06
414.258	455.06
414.482	448.06
414.705	448.06
414.928	438.06
415.151	432.06
415.374	443.06
415.597	446.06
415.821	436.06
416.044	439.06
416.267	431.06
416.49	437.06
416.713	422.06
416.936	416.06
417.159	449.06
417.382	460.06
417.605	448.06
417.828	450.06
418.051	493.06
418.274	461.06
418.497	455.06
418.72	477.06
418.943	440.06
419.166	476.06
419.389	483.06
419.611	472.06
419.834	482.06
420.057	470.06
420.28	461.06
420.503	480.06
420.726	468.06
420.948	518.06
421.171	524.06
421.394	550.06
421.617	516.06
421.839	493.06
422.062	458.06
422.285	507.06
422.507	545.06
422.73	632.06
422.953	576.06
423.175	527.06
423.398	525.06
423.621	506.06
423.843	537.06
424.066	520.06
424.288	525.06
424.511	508.06
424.733	587.06
424.956	698.06
425.178	655.06
425.401	654.06
425.623	676.06
425.846	578.06
426.068	544.06
426.291	530.06
426.513	536.06
426.735	518.06
426.958	591.06
427.18	652.06
427.402	770.06
427.625	856.06
427.847	803.06
428.069	657.06
428.292	592.06
428.514	568.06
428.736	510.06
428.958	495.06
429.181	478.06
429.403	477.06
429.625	497.06
429.847	542.06
430.069	596.06
430.292	615.06
430.514	509.06
430.736	490.06
430.958	495.06
431.18	455.06
431.402	447.06
431.624	444.06
431.846	430.06
432.068	438.06
432.29	454.06
432.512	462.06
432.734	471.06
432.956	442.06
433.178	464.06
433.4	487.06
433.622	448.06
433.844	461.06
434.066	452.06
434.287	457.06
434.509	454.06
434.731	457.06
434.953	448.06
435.175	493.06
435.397	528.06
435.618	537.06
435.84	575.06
436.062	690.06
436.284	726.06
436.505	636.06
436.727	550.06
436.949	518.06
437.17	486.06
437.392	490.06
437.614	496.06
437.835	550.06
438.057	654.06
438.278	780.06
438.5	744.06
438.721	802.06
438.943	785.06
439.165	609.06
439.386	582.06
439.608	542.06
439.829	562.06
440.05	612.06
440.272	610.06
440.493	583.06
440.715	548.06
440.936	534.06
441.158	515.06
441.379	516.06
441.6	505.06
441.822	523.06
442.043	576.06
442.264	670.06
442.486	703.06
442.707	590.06
442.928	554.06
443.149	556.06
443.371	568.06
443.592	625.06
443.813	724.06
444.034	765.06
444.255	640.06
444.476	564.06
444.698	564.06
444.919	535.06
445.14	609.06
445.361	597.06
445.582	574.06
445.803	642.06
446.024	779.06
446.245	766.06
446.466	725.06
446.687	595.06
446.908	541.06
447.129	515.06
447.35	510.06
447.571	501.06
447.792	486.06
448.013	509.06
448.234	523.06
448.455	549.06
448.675	674.06
448.896	783.06
449.117	675.06
449.338	645.06
449.559	731.06
449.779	824.06
450	658.06
450.221	545.06
450.442	540.06
450.662	494.06
450.883	501.06
451.104	515.06
451.324	512.06
451.545	481.06
451.766	471.06
451.986	444.06
452.207	443.06
452.428	436.06
452.648	441.06
452.869	446.06
453.089	465.06
453.31	490.06
453.53	469.06
453.751	448.06
453.971	462.06
454.192	491.06
454.412	463.06
454.633	464.06
454.853	439.06
455.073	445.06
455.294	485.06
455.514	549.06
455.734	541.06
455.955	467.06
456.175	444.06
456.395	429.06
456.616	394.06
456.836	388.06
457.056	423.06
457.276	408.06
457.497	402.06
457.717	409.06
457.937	408.06
458.157	438.06
458.377	431.06
458.598	456.06
458.818	534.06
459.038	617.06
459.258	641.06
459.478	526.06
459.698	468.06
459.918	448.06
460.138	449.06
460.358	455.06
460.578	448.06
460.798	442.06
461.018	441.06
461.238	452.06
461.458	456.06
461.678	420.06
461.898	446.06
462.118	444.06
462.338	441.06
462.558	438.06
462.777	442.06
462.997	443.06
463.217	461.06
463.437	454.06
463.657	460.06
463.876	456.06
464.096	475.06
464.316	461.06
464.536	464.06
464.755	474.06
464.975	486.06
465.195	565.06
465.414	644.06
465.634	546.06
465.854	493.06
466.073	485.06
466.293	468.06
466.512	441.06
466.732	440.06
466.951	432.06
467.171	440.06
467.391	453.06
467.61	463.06
467.829	467.06
468.049	456.06
468.268	450.06
468.488	451.06
468.707	441.06
468.927	438.06
469.146	446.06
469.365	419.06
469.585	450.06
469.804	440.06
470.023	460.06
470.243	447.06
470.462	458.06
470.681	503.06
470.901	461.06
471.12	460.06
471.339	448.06
471.558	462.06
471.777	457.06
471.997	468.06
472.216	496.06
472.435	511.06
472.654	475.06
472.873	470.06
473.092	454.06
473.311	450.06
473.53	450.06
473.749	442.06
473.968	509.06
474.187	607.06
474.406	653.06
474.625	531.06
474.844	474.06
475.063	475.06
475.282	469.06
475.501	452.06
475.72	469.06
475.939	452.06
476.158	457.06
476.377	468.06
476.596	463.06
476.814	468.06
477.033	497.06
477.252	479.06
477.471	474.06
477.69	469.06
477.908	476.06
478.127	482.06
478.346	491.06
478.564	501.06
478.783	487.06
479.002	493.06
479.22	510.06
479.439	490.06
479.658	566.06
479.876	548.06
480.095	550.06
480.313	568.06
480.532	591.06
480.751	561.06
480.969	546.06
481.188	643.06
481.406	711.06
481.624	604.06
481.843	558.06
482.061	571.06
482.28	570.06
482.498	531.06
482.717	526.06
482.935	557.06
483.153	527.06
483.372	544.06
483.59	542.06
483.808	521.06
484.027	539.06
484.245	537.06
484.463	551.06
484.681	558.06
484.9	543.06
485.118	532.06
485.336	552.06
485.554	560.06
485.772	537.06
485.99	576.06
486.209	554.06
486.427	576.06
486.645	564.06
486.863	600.06
487.081	605.06
487.299	576.06
487.517	586.06
487.735	606.06
487.953	599.06
488.171	585.06
488.389	594.06
488.607	588.06
488.825	590.06
489.043	587.06
489.261	590.06
489.479	615.06
489.696	588.06
489.914	591.06
490.132	600.06
490.35	614.06
490.568	599.06
490.786	616.06
491.003	653.06
491.221	664.06
491.439	656.06
491.657	662.06
491.874	677.06
492.092	669.06
492.31	675.06
492.527	674.06
492.745	657.06
492.963	682.06
493.18	692.06
493.398	694.06
493.615	695.06
493.833	692.06
494.05	714.06
494.268	701.06
494.485	694.06
494.703	689.06
494.92	681.06
495.138	692.06
495.355	689.06
495.573	711.06
495.79	708.06
496.008	713.06
496.225	681.06
496.442	671.06
496.66	687.06
496.877	704.06
497.094	712.06
497.312	713.06
497.529	715.06
497.746	707.06
497.963	737.06
498.181	750.06
498.398	760.06
498.615	729.06
498.832	728.06
499.049	736.06
499.267	746.06
499.484	744.06
499.701	776.06
499.918	789.06
500.135	806.06
500.352	816.06
500.569	844.06
500.786	832.06
501.003	806.06
501.22	840.06
501.437	805.06
501.654	808.06
501.871	816.06
502.088	815.06
502.305	779.06
502.522	761.06
502.739	758.06
502.956	732.06
503.172	731.06
503.389	725.06
503.606	726.06
503.823	729.06
504.04	717.06
504.256	711.06
504.473	697.06
504.69	671.06
504.907	675.06
505.123	677.06
505.34	685.06
505.557	700.06
505.773	678.06
505.99	657.06
506.207	685.06
506.423	677.06
506.64	667.06
506.856	672.06
507.073	669.06
507.289	695.06
507.506	676.06
507.722	692.06
507.939	706.06
508.155	676.06
508.372	672.06
508.588	638.06
508.805	664.06
509.021	638.06
509.238	659.06
509.454	684.06
509.67	666.06
509.887	641.06
510.103	674.06
510.319	676.06
510.536	826.06
510.752	1392.06
510.968	1156.06
511.184	720.06
511.401	670.06
511.617	641.06
511.833	624.06
512.049	604.06
512.265	635.06
512.481	635.06
512.698	619.06
512.914	623.06
513.13	604.06
513.346	617.06
513.562	625.06
513.778	633.06
513.994	632.06
514.21	636.06
514.426	678.06
514.642	757.06
514.858	792.06
515.074	835.06
515.29	1024.06
515.506	1622.06
515.721	1251.06
515.937	833.06
516.153	712.06
516.369	666.06
516.585	640.06
516.801	648.06
517.016	635.06
517.232	642.06
517.448	617.06
517.664	638.06
517.879	606.06
518.095	607.06
518.311	615.06
518.527	606.06
518.742	621.06
518.958	604.06
519.173	615.06
519.389	608.06
519.605	624.06
519.82	612.06
520.036	637.06
520.251	670.06
520.467	724.06
520.682	721.06
520.898	713.06
521.113	782.06
521.329	821.06
521.544	948.06
521.76	1320.06
521.975	2195.06
522.19	2068.06
522.406	1080.06
522.621	772.06
522.836	701.06
523.052	670.06
523.267	632.06
523.482	610.06
523.698	585.06
523.913	615.06
524.128	586.06
524.343	567.06
524.559	564.06
524.774	553.06
524.989	538.06
525.204	530.06
525.419	548.06
525.634	548.06
525.849	525.06
526.064	508.06
526.28	498.06
526.495	497.06
526.71	506.06
526.925	490.06
527.14	504.06
527.355	487.06
527.57	530.06
527.785	488.06
527.999	476.06
528.214	458.06
528.429	532.06
528.644	502.06
528.859	490.06
529.074	499.06
529.289	534.06
529.503	640.06
529.718	639.06
529.933	543.06
530.148	490.06
530.363	532.06
530.577	513.06
530.792	495.06
531.007	465.06
531.221	478.06
531.436	497.06
531.651	456.06
531.865	465.06
532.08	479.06
532.295	487.06
532.509	475.06
532.724	482.06
532.938	475.06
533.153	458.06
533.367	454.06
533.582	478.06
533.796	483.06
534.011	452.06
534.225	453.06
534.44	458.06
534.654	458.06
534.868	459.06
535.083	457.06
535.297	464.06
535.511	467.06
535.726	478.06
535.94	473.06
536.154	469.06
536.369	468.06
536.583	449.06
536.797	459.06
537.011	443.06
537.225	460.06
537.44	445.06
537.654	450.06
537.868	448.06
538.082	442.06
538.296	463.06
538.51	454.06
538.724	450.06
538.938	444.06
539.153	467.06
539.367	454.06
539.581	468.06
539.795	452.06
540.009	460.06
540.222	438.06
540.436	443.06
540.65	463.06
540.864	472.06
541.078	455.06
541.292	447.06
541.506	462.06
541.72	455.06
541.934	438.06
542.147	448.06
542.361	428.06
542.575	451.06
542.789	440.06
543.002	428.06
543.216	444.06
543.43	446.06
543.644	433.06
543.857	453.06
544.071	454.06
544.285	467.06
544.498	440.06
544.712	417.06
544.925	446.06
545.139	421.06
545.352	429.06
545.566	424.06
545.779	442.06
545.993	430.06
546.206	417.06
546.42	427.06
546.633	409.06
546.847	421.06
547.06	432.06
547.274	442.06
547.487	431.06
547.7	426.06
547.914	418.06
548.127	405.06
548.34	409.06
548.554	399.06
548.767	390.06
548.98	403.06
549.193	427.06
549.407	401.06
549.62	411.06
549.833	403.06
550.046	423.06
550.259	424.06
550.473	395.06
550.686	418.06
550.899	409.06
551.112	414.06
551.325	416.06
551.538	418.06
551.751	401.06
551.964	413.06
552.177	406.06
552.39	402.06
552.603	386.06
552.816	421.06
553.029	425.06
553.242	398.06
553.455	425.06
553.667	430.06
553.88	447.06
554.093	416.06
554.306	431.06
554.519	424.06
554.732	400.06
554.944	424.06
555.157	399.06
555.37	398.06
555.583	389.06
555.795	390.06
556.008	400.06
556.221	382.06
556.433	382.06
556.646	361.06
556.859	376.06
557.071	364.06
557.284	367.06
557.496	382.06
557.709	390.06
557.921	389.06
558.134	387.06
558.346	367.06
558.559	373.06
558.771	367.06
558.984	357.06
559.196	369.06
559.409	380.06
559.621	357.06
559.833	384.06
560.046	376.06
560.258	368.06
560.47	370.06
560.683	369.06
560.895	369.06
561.107	359.06
561.32	351.06
561.532	382.06
561.744	362.06
561.956	361.06
562.168	356.06
562.381	379.06
562.593	387.06
562.805	367.06
563.017	370.06
563.229	348.06
563.441	368.06
563.653	367.06
563.865	357.06
564.077	369.06
564.289	365.06
564.501	376.06
564.713	396.06
564.925	372.06
565.137	392.06
565.349	382.06
565.561	394.06
565.773	391.06
565.985	394.06
566.197	409.06
566.408	399.06
566.62	402.06
566.832	411.06
567.044	415.06
567.255	413.06
567.467	415.06
567.679	424.06
567.891	403.06
568.102	401.06
568.314	410.06
568.526	402.06
568.737	394.06
568.949	393.06
569.161	373.06
569.372	358.06
569.584	357.06
569.795	367.06
570.007	367.06
570.218	423.06
570.43	423.06
570.641	379.06
570.853	345.06
571.064	354.06
571.276	348.06
571.487	346.06
571.698	343.06
571.91	348.06
572.121	354.06
572.333	353.06
572.544	362.06
572.755	316.06
572.966	322.06
573.178	342.06
573.389	334.06
573.6	313.06
573.811	330.06
574.023	342.06
574.234	313.06
574.445	318.06
574.656	311.06
574.867	328.06
575.078	353.06
575.289	324.06
575.501	302.06
575.712	310.06
575.923	310.06
576.134	308.06
576.345	314.06
576.556	333.06
576.767	321.06
576.978	326.06
577.188	338.06
577.399	316.06
577.61	312.06
577.821	315.06
578.032	309.06
578.243	340.06
578.454	648.06
578.665	465.06
578.875	346.06
579.086	295.06
579.297	312.06
579.508	318.06
579.718	318.06
579.929	310.06
580.14	327.06
580.35	310.06
580.561	311.06
580.772	309.06
580.982	296.06
581.193	310.06
581.403	291.06
581.614	284.06
581.825	289.06
582.035	284.06
582.246	289.06
582.456	301.06
582.667	284.06
582.877	280.06
583.087	304.06
583.298	298.06
583.508	295.06
583.719	301.06
583.929	305.06
584.139	297.06
584.35	279.06
584.56	291.06
584.77	307.06
584.981	280.06
585.191	292.06
585.401	290.06
585.611	272.06
585.821	301.06
586.032	294.06
586.242	295.06
586.452	284.06
586.662	286.06
586.872	295.06
587.082	298.06
587.292	287.06
587.502	270.06
587.713	294.06
587.923	287.06
588.133	278.06
588.343	284.06
588.553	285.06
588.762	290.06
588.972	282.06
589.182	276.06
589.392	280.06
589.602	281.06
589.812	266.06
590.022	280.06
590.232	280.06
590.441	272.06
590.651	300.06
590.861	272.06
591.071	284.06
591.281	273.06
591.49	289.06
591.7	288.06
591.91	267.06
592.119	276.06
592.329	274.06
592.539	287.06
592.748	283.06
592.958	286.06
593.167	288.06
593.377	292.06
593.587	283.06
593.796	293.06
594.006	286.06
594.215	277.06
594.424	281.06
594.634	275.06
594.843	257.06
595.053	285.06
595.262	285.06
595.472	273.06
595.681	288.06
595.89	269.06
596.1	274.06
596.309	257.06
596.518	258.06
596.727	258.06
596.937	270.06
597.146	276.06
597.355	279.06
597.564	270.06
597.774	267.06
597.983	251.06
598.192	239.06
598.401	250.06
598.61	249.06
598.819	268.06
599.028	252.06
599.237	253.06
599.446	266.06
599.655	255.06
599.864	244.06
600.073	239.06
600.282	250.06
600.491	255.06
600.7	223.06
600.909	244.06
601.118	244.06
601.327	249.06
601.536	247.06
601.745	234.06
601.953	253.06
602.162	250.06
602.371	251.06
602.58	254.06
602.789	238.06
602.997	245.06
603.206	223.06
603.415	224.06
603.623	242.06
603.832	254.06
604.041	233.06
604.249	225.06
604.458	241.06
604.666	233.06
604.875	241.06
605.084	249.06
605.292	250.06
605.501	238.06
605.709	247.06
605.918	212.06
606.126	233.06
606.334	234.06
606.543	221.06
606.751	215.06
606.96	221.06
607.168	231.06
607.376	232.06
607.585	237.06
607.793	233.06
608.001	221.06
608.21	225.06
608.418	250.06
608.626	243.06
608.834	231.06
609.043	220.06
609.251	249.06
609.459	246.06
609.667	239.06
609.875	250.06
610.083	232.06
610.291	241.06
610.499	231.06
610.707	255.06
610.916	240.06
611.124	250.06
611.332	237.06
611.54	226.06
611.748	239.06
611.955	232.06
612.163	229.06
612.371	234.06
612.579	238.06
612.787	229.06
612.995	240.06
613.203	248.06
613.411	218.06
613.618	230.06
613.826	232.06
614.034	221.06
614.242	228.06
614.449	234.06
614.657	245.06
614.865	231.06
615.072	239.06
615.28	213.06
615.488	216.06
615.695	218.06
615.903	219.06
616.111	213.06
616.318	235.06
616.526	225.06
616.733	216.06
616.941	224.06
617.148	209.06
617.356	226.06
617.563	226.06
617.771	223.06
617.978	225.06
618.185	221.06
618.393	222.06
618.6	237.06
618.807	229.06
619.015	228.06
619.222	245.06
619.429	223.06
619.637	226.06
619.844	219.06
620.051	222.06
620.258	223.06
620.466	221.06
620.673	215.06
620.88	219.06
621.087	206.06
621.294	221.06
621.501	209.06
621.708	218.06
621.915	228.06
622.122	214.06
622.329	224.06
622.536	197.06
622.743	229.06
622.95	214.06
623.157	210.06
623.364	209.06
623.571	216.06
623.778	201.06
623.985	213.06
624.192	210.06
624.399	214.06
624.606	207.06
624.812	200.06
625.019	213.06
625.226	183.06
625.433	198.06
625.639	199.06
625.846	208.06
626.053	200.06
626.259	211.06
626.466	210.06
626.673	197.06
626.879	192.06
627.086	200.06
627.293	200.06
627.499	186.06
627.706	198.06
627.912	206.06
628.119	204.06
628.325	202.06
628.532	199.06
628.738	204.06
628.945	198.06
629.151	181.06
629.357	177.06
629.564	205.06
629.77	185.06
629.976	184.06
630.183	194.06
630.389	189.06
630.595	197.06
630.802	183.06
631.008	184.06
631.214	188.06
631.42	180.06
631.627	190.06
631.833	175.06
632.039	179.06
632.245	181.06
632.451	189.06
632.657	197.06
632.863	190.06
633.069	192.06
633.275	186.06
633.481	186.06
633.688	183.06
633.893	184.06
634.099	173.06
634.305	185.06
634.511	185.06
634.717	193.06
634.923	196.06
635.129	168.06
635.335	184.06
635.541	158.06
635.747	175.06
635.952	182.06
636.158	186.06
636.364	177.06
636.57	168.06
636.775	180.06
636.981	172.06
637.187	176.06
637.392	167.06
637.598	182.06
637.804	183.06
638.009	166.06
638.215	176.06
638.421	168.06
638.626	172.06
638.832	168.06
639.037	185.06
639.243	174.06
639.448	177.06
639.654	168.06
639.859	176.06
640.065	171.06
640.27	171.06
640.475	169.06
640.681	168.06
640.886	189.06
641.091	170.06
641.297	180.06
641.502	164.06
641.707	165.06
641.913	170.06
642.118	162.06
642.323	163.06
642.528	168.06
642.733	152.06
642.939	177.06
643.144	178.06
643.349	170.06
643.554	165.06
643.759	163.06
643.964	156.06
644.169	167.06
644.374	162.06
644.579	174.06
644.784	173.06
644.989	164.06
645.194	161.06
645.399	162.06
645.604	155.06
645.809	156.06
646.014	168.06
646.219	156.06
646.423	159.06
646.628	169.06
646.833	158.06
647.038	169.06
647.243	166.06
647.447	156.06
647.652	168.06
647.857	172.06
648.062	180.06
648.266	169.06
648.471	156.06
648.676	162.06
648.88	180.06
649.085	164.06
649.289	168.06
649.494	167.06
649.698	175.06
649.903	172.06
650.107	180.06
650.312	188.06
650.516	152.06
650.721	153.06
650.925	159.06
651.13	158.06
651.334	151.06
651.539	142.06
651.743	144.06
651.947	140.06
652.152	136.06
652.356	132.06
652.56	128.06
652.764	142.06
652.969	136.06
653.173	145.06
653.377	145.06
653.581	129.06
653.785	141.06
653.99	135.06
654.194	131.06
654.398	132.06
654.602	128.06
654.806	150.06
655.01	150.06
655.214	129.06
655.418	126.06
655.622	118.06
655.826	124.06
656.03	129.06
656.234	140.06
656.438	141.06
656.642	133.06
656.846	133.06
657.049	130.06
657.253	133.06
657.457	120.06
657.661	119.06
657.865	112.06
658.068	106.06
658.272	125.06
658.476	115.06
658.68	116.06
658.883	105.06
659.087	120.06
659.291	97.06
659.494	99.06
659.698	95.06
659.901	97.06
660.105	99.06
660.309	92.06
660.512	92.06
660.716	96.06
660.919	104.06
661.123	96.06
661.326	103.06
661.53	94.06
661.733	87.06
661.936	105.06
662.14	82.06
662.343	95.06
662.546	88.06
662.75	109.06
662.953	98.06
663.156	92.06
663.36	82.06
663.563	104.06
663.766	89.06
663.969	92.06
664.173	94.06
664.376	107.06
664.579	90.06
664.782	101.06
664.985	88.06
665.188	88.06
665.391	89.06
665.594	85.06
665.797	83.06
666	82.06
666.203	86.06
666.406	102.06
666.609	95.06
666.812	83.06
667.015	84.06
667.218	90.06
667.421	90.06
667.624	93.06
667.827	90.06
668.03	86.06
668.232	78.06
668.435	84.06
668.638	87.06
668.841	91.06
669.043	74.06
669.246	92.06
669.449	92.06
669.651	90.06
669.854	78.06
670.057	90.06
670.259	91.06
670.462	72.06
670.665	89.06
670.867	92.06
671.07	86.06
671.272	82.06
671.475	96.06
671.677	88.06
671.88	91.06
672.082	77.06
672.284	98.06
672.487	86.06
672.689	80.06
672.892	89.06
