Data from 1980.PennyLincolnUp.Lamp.En5.5.200Scan.071819.P1_HRD10591_16-37-52-957.txt Node
Date: Thu Jul 18 16:37:52 EDT 2019
User: cochatt
Spectrometer: HR+D1059
Trigger mode: 1
Integration Time (sec): 1.000000E-1
Scans to average: 1
Electric dark correction enabled: true
Nonlinearity correction enabled: false
Boxcar width: 0
XAxis mode: Wavelengths
Number of Pixels in Spectrum: 2048
>>>>>Begin Spectral Data<<<<<
223.165	-14.19
223.4	-14.19
223.635	-14.19
223.869	-24.19
224.104	-11.19
224.338	-29.19
224.573	-2.19
224.808	4.81
225.042	-10.19
225.277	-2.19
225.511	2.81
225.746	1.81
225.98	2.81
226.215	-2.19
226.449	17.81
226.683	21.81
226.918	17.81
227.152	25.81
227.387	31.81
227.621	39.81
227.856	39.81
228.09	49.81
228.324	36.81
228.559	40.81
228.793	65.81
229.027	101.81
229.262	111.81
229.496	97.81
229.73	142.81
229.964	160.81
230.199	129.81
230.433	123.81
230.667	131.81
230.901	97.81
231.136	117.81
231.37	116.81
231.604	115.81
231.838	109.81
232.072	112.81
232.306	106.81
232.541	111.81
232.775	102.81
233.009	106.81
233.243	118.81
233.477	115.81
233.711	115.81
233.945	114.81
234.179	118.81
234.413	128.81
234.647	128.81
234.881	115.81
235.115	120.81
235.349	117.81
235.583	127.81
235.817	128.81
236.051	124.81
236.285	134.81
236.519	139.81
236.753	140.81
236.987	158.81
237.221	190.81
237.455	242.81
237.689	208.81
237.922	154.81
238.156	136.81
238.39	138.81
238.624	136.81
238.858	121.81
239.091	136.81
239.325	124.81
239.559	130.81
239.793	132.81
240.027	129.81
240.26	152.81
240.494	167.81
240.728	152.81
240.961	146.81
241.195	144.81
241.429	136.81
241.662	134.81
241.896	138.81
242.13	116.81
242.363	130.81
242.597	134.81
242.83	141.81
243.064	145.81
243.298	136.81
243.531	124.81
243.765	145.81
243.998	150.81
244.232	136.81
244.465	143.81
244.699	151.81
244.932	137.81
245.166	159.81
245.399	141.81
245.633	150.81
245.866	149.81
246.099	139.81
246.333	150.81
246.566	157.81
246.8	141.81
247.033	152.81
247.266	166.81
247.5	169.81
247.733	178.81
247.966	175.81
248.2	170.81
248.433	163.81
248.666	161.81
248.899	193.81
249.133	226.81
249.366	223.81
249.599	214.81
249.832	187.81
250.066	186.81
250.299	173.81
250.532	199.81
250.765	212.81
250.998	219.81
251.231	242.81
251.465	221.81
251.698	221.81
251.931	198.81
252.164	206.81
252.397	209.81
252.63	210.81
252.863	217.81
253.096	227.81
253.329	227.81
253.562	233.81
253.795	222.81
254.028	208.81
254.261	213.81
254.494	245.81
254.727	259.81
254.96	289.81
255.193	287.81
255.426	266.81
255.659	259.81
255.892	232.81
256.124	243.81
256.357	248.81
256.59	244.81
256.823	229.81
257.056	227.81
257.289	203.81
257.521	206.81
257.754	218.81
257.987	217.81
258.22	224.81
258.452	208.81
258.685	212.81
258.918	206.81
259.151	229.81
259.383	213.81
259.616	223.81
259.849	231.81
260.081	253.81
260.314	244.81
260.547	281.81
260.779	245.81
261.012	242.81
261.244	239.81
261.477	235.81
261.71	232.81
261.942	243.81
262.175	246.81
262.407	218.81
262.64	212.81
262.872	214.81
263.105	212.81
263.337	206.81
263.57	220.81
263.802	222.81
264.035	204.81
264.267	209.81
264.499	225.81
264.732	230.81
264.964	205.81
265.197	202.81
265.429	210.81
265.661	191.81
265.894	209.81
266.126	226.81
266.358	214.81
266.591	196.81
266.823	210.81
267.055	229.81
267.287	220.81
267.52	208.81
267.752	213.81
267.984	214.81
268.216	226.81
268.448	206.81
268.681	245.81
268.913	245.81
269.145	265.81
269.377	269.81
269.609	258.81
269.841	236.81
270.073	272.81
270.306	285.81
270.538	342.81
270.77	320.81
271.002	310.81
271.234	301.81
271.466	308.81
271.698	302.81
271.93	333.81
272.162	316.81
272.394	329.81
272.626	307.81
272.858	281.81
273.09	304.81
273.322	288.81
273.553	271.81
273.785	246.81
274.017	253.81
274.249	246.81
274.481	284.81
274.713	262.81
274.945	256.81
275.176	262.81
275.408	259.81
275.64	259.81
275.872	256.81
276.104	266.81
276.335	246.81
276.567	268.81
276.799	288.81
277.031	298.81
277.262	322.81
277.494	318.81
277.726	296.81
277.957	282.81
278.189	270.81
278.421	265.81
278.652	267.81
278.884	262.81
279.115	258.81
279.347	270.81
279.579	258.81
279.81	250.81
280.042	265.81
280.273	242.81
280.505	250.81
280.736	260.81
280.968	250.81
281.199	248.81
281.431	235.81
281.662	257.81
281.894	266.81
282.125	261.81
282.356	284.81
282.588	278.81
282.819	322.81
283.051	260.81
283.282	240.81
283.513	258.81
283.745	256.81
283.976	264.81
284.207	270.81
284.439	236.81
284.67	268.81
284.901	264.81
285.132	250.81
285.364	266.81
285.595	236.81
285.826	268.81
286.057	270.81
286.288	279.81
286.52	258.81
286.751	256.81
286.982	238.81
287.213	254.81
287.444	269.81
287.675	273.81
287.906	270.81
288.138	269.81
288.369	271.81
288.6	276.81
288.831	278.81
289.062	269.81
289.293	276.81
289.524	264.81
289.755	275.81
289.986	271.81
290.217	245.81
290.448	252.81
290.679	266.81
290.91	254.81
291.141	267.81
291.371	265.81
291.602	277.81
291.833	270.81
292.064	282.81
292.295	266.81
292.526	276.81
292.757	276.81
292.987	255.81
293.218	265.81
293.449	270.81
293.68	265.81
293.91	264.81
294.141	274.81
294.372	247.81
294.603	272.81
294.833	252.81
295.064	261.81
295.295	268.81
295.525	277.81
295.756	293.81
295.987	294.81
296.217	332.81
296.448	322.81
296.679	284.81
296.909	271.81
297.14	275.81
297.37	272.81
297.601	268.81
297.831	277.81
298.062	261.81
298.292	273.81
298.523	276.81
298.753	283.81
298.984	284.81
299.214	278.81
299.445	274.81
299.675	279.81
299.905	282.81
300.136	268.81
300.366	272.81
300.597	284.81
300.827	283.81
301.057	310.81
301.288	296.81
301.518	280.81
301.748	305.81
301.979	289.81
302.209	290.81
302.439	305.81
302.669	299.81
302.9	291.81
303.13	301.81
303.36	299.81
303.59	313.81
303.82	312.81
304.051	294.81
304.281	294.81
304.511	299.81
304.741	281.81
304.971	306.81
305.201	314.81
305.431	288.81
305.661	306.81
305.891	296.81
306.121	277.81
306.352	301.81
306.582	322.81
306.812	297.81
307.042	298.81
307.272	292.81
307.502	290.81
307.731	306.81
307.961	291.81
308.191	308.81
308.421	293.81
308.651	318.81
308.881	291.81
309.111	312.81
309.341	309.81
309.571	337.81
309.8	339.81
310.03	341.81
310.26	352.81
310.49	362.81
310.72	348.81
310.949	356.81
311.179	361.81
311.409	348.81
311.639	355.81
311.868	352.81
312.098	379.81
312.328	363.81
312.557	388.81
312.787	390.81
313.017	403.81
313.246	369.81
313.476	375.81
313.706	358.81
313.935	374.81
314.165	384.81
314.394	395.81
314.624	384.81
314.853	363.81
315.083	382.81
315.312	349.81
315.542	363.81
315.771	358.81
316.001	348.81
316.23	344.81
316.46	354.81
316.689	340.81
316.919	345.81
317.148	356.81
317.377	377.81
317.607	362.81
317.836	374.81
318.065	352.81
318.295	335.81
318.524	346.81
318.753	368.81
318.983	360.81
319.212	358.81
319.441	354.81
319.67	377.81
319.9	354.81
320.129	366.81
320.358	350.81
320.587	361.81
320.816	380.81
321.046	384.81
321.275	386.81
321.504	381.81
321.733	390.81
321.962	397.81
322.191	392.81
322.42	420.81
322.649	419.81
322.878	469.81
323.108	472.81
323.337	515.81
323.566	528.81
323.795	564.81
324.024	612.81
324.253	764.81
324.482	1069.81
324.71	1696.81
324.939	2420.81
325.168	2114.81
325.397	1136.81
325.626	745.81
325.855	590.81
326.084	542.81
326.313	506.81
326.542	532.81
326.77	590.81
326.999	686.81
327.228	973.81
327.457	1474.81
327.686	1833.81
327.914	1231.81
328.143	813.81
328.372	690.81
328.6	630.81
328.829	607.81
329.058	612.81
329.287	634.81
329.515	592.81
329.744	523.81
329.972	520.81
330.201	548.81
330.43	595.81
330.658	626.81
330.887	653.81
331.115	622.81
331.344	532.81
331.572	489.81
331.801	484.81
332.03	483.81
332.258	454.81
332.486	446.81
332.715	417.81
332.943	405.81
333.172	422.81
333.4	412.81
333.629	426.81
333.857	457.81
334.085	456.81
334.314	481.81
334.542	524.81
334.771	537.81
334.999	464.81
335.227	449.81
335.455	437.81
335.684	409.81
335.912	414.81
336.14	423.81
336.369	403.81
336.597	400.81
336.825	409.81
337.053	411.81
337.281	385.81
337.51	395.81
337.738	394.81
337.966	412.81
338.194	419.81
338.422	406.81
338.65	401.81
338.878	400.81
339.106	396.81
339.334	392.81
339.562	386.81
339.79	391.81
340.018	380.81
340.246	407.81
340.474	395.81
340.702	418.81
340.93	384.81
341.158	393.81
341.386	399.81
341.614	397.81
341.842	390.81
342.07	391.81
342.298	398.81
342.526	380.81
342.754	388.81
342.981	385.81
343.209	358.81
343.437	368.81
343.665	388.81
343.893	395.81
344.12	391.81
344.348	378.81
344.576	379.81
344.804	394.81
345.031	414.81
345.259	400.81
345.487	414.81
345.714	404.81
345.942	386.81
346.17	386.81
346.397	394.81
346.625	371.81
346.853	400.81
347.08	385.81
347.308	411.81
347.535	405.81
347.763	416.81
347.99	394.81
348.218	421.81
348.445	425.81
348.673	424.81
348.9	392.81
349.128	379.81
349.355	368.81
349.583	358.81
349.81	371.81
350.037	382.81
350.265	347.81
350.492	372.81
350.72	372.81
350.947	388.81
351.174	390.81
351.402	414.81
351.629	396.81
351.856	407.81
352.083	406.81
352.311	416.81
352.538	413.81
352.765	402.81
352.992	406.81
353.22	398.81
353.447	364.81
353.674	368.81
353.901	377.81
354.128	353.81
354.355	352.81
354.583	377.81
354.81	374.81
355.037	350.81
355.264	353.81
355.491	349.81
355.718	338.81
355.945	341.81
356.172	349.81
356.399	353.81
356.626	353.81
356.853	357.81
357.08	349.81
357.307	352.81
357.534	338.81
357.761	344.81
357.988	346.81
358.215	361.81
358.441	361.81
358.668	350.81
358.895	361.81
359.122	363.81
359.349	396.81
359.576	377.81
359.802	413.81
360.029	445.81
360.256	473.81
360.483	444.81
360.709	408.81
360.936	396.81
361.163	389.81
361.39	408.81
361.616	393.81
361.843	394.81
362.07	381.81
362.296	394.81
362.523	384.81
362.749	381.81
362.976	383.81
363.203	372.81
363.429	340.81
363.656	378.81
363.882	372.81
364.109	356.81
364.335	360.81
364.562	348.81
364.788	379.81
365.015	366.81
365.241	362.81
365.468	382.81
365.694	364.81
365.92	397.81
366.147	357.81
366.373	368.81
366.599	364.81
366.826	378.81
367.052	344.81
367.278	370.81
367.505	343.81
367.731	359.81
367.957	365.81
368.184	360.81
368.41	360.81
368.636	395.81
368.862	390.81
369.089	365.81
369.315	361.81
369.541	358.81
369.767	353.81
369.993	354.81
370.219	348.81
370.445	336.81
370.672	363.81
370.898	338.81
371.124	350.81
371.35	368.81
371.576	327.81
371.802	361.81
372.028	340.81
372.254	340.81
372.48	356.81
372.706	356.81
372.932	358.81
373.158	368.81
373.384	354.81
373.61	346.81
373.835	349.81
374.061	359.81
374.287	346.81
374.513	340.81
374.739	341.81
374.965	354.81
375.191	360.81
375.416	353.81
375.642	363.81
375.868	375.81
376.094	335.81
376.319	344.81
376.545	352.81
376.771	334.81
376.997	354.81
377.222	357.81
377.448	346.81
377.674	364.81
377.899	360.81
378.125	347.81
378.35	359.81
378.576	342.81
378.802	339.81
379.027	352.81
379.253	343.81
379.478	358.81
379.704	360.81
379.929	370.81
380.155	344.81
380.38	360.81
380.606	349.81
380.831	363.81
381.057	365.81
381.282	346.81
381.507	355.81
381.733	339.81
381.958	358.81
382.184	357.81
382.409	350.81
382.634	347.81
382.86	359.81
383.085	368.81
383.31	352.81
383.535	354.81
383.761	357.81
383.986	373.81
384.211	353.81
384.436	345.81
384.662	366.81
384.887	370.81
385.112	359.81
385.337	378.81
385.562	375.81
385.787	368.81
386.013	379.81
386.238	380.81
386.463	381.81
386.688	378.81
386.913	360.81
387.138	368.81
387.363	361.81
387.588	350.81
387.813	359.81
388.038	382.81
388.263	368.81
388.488	376.81
388.713	357.81
388.938	370.81
389.163	375.81
389.387	388.81
389.612	378.81
389.837	368.81
390.062	381.81
390.287	389.81
390.512	354.81
390.736	363.81
390.961	349.81
391.186	350.81
391.411	370.81
391.636	367.81
391.86	385.81
392.085	372.81
392.31	360.81
392.534	375.81
392.759	369.81
392.984	374.81
393.208	375.81
393.433	359.81
393.658	374.81
393.882	354.81
394.107	366.81
394.331	373.81
394.556	373.81
394.78	354.81
395.005	372.81
395.229	371.81
395.454	371.81
395.678	381.81
395.903	393.81
396.127	406.81
396.352	432.81
396.576	413.81
396.801	374.81
397.025	380.81
397.249	402.81
397.474	382.81
397.698	401.81
397.922	417.81
398.147	417.81
398.371	436.81
398.595	396.81
398.82	396.81
399.044	428.81
399.268	407.81
399.492	448.81
399.717	456.81
399.941	472.81
400.165	498.81
400.389	517.81
400.613	469.81
400.837	446.81
401.062	412.81
401.286	425.81
401.51	417.81
401.734	416.81
401.958	432.81
402.182	442.81
402.406	440.81
402.63	444.81
402.854	424.81
403.078	426.81
403.302	421.81
403.526	445.81
403.75	459.81
403.974	445.81
404.198	434.81
404.422	436.81
404.645	453.81
404.869	445.81
405.093	476.81
405.317	514.81
405.541	568.81
405.765	496.81
405.988	486.81
406.212	485.81
406.436	512.81
406.66	526.81
406.883	476.81
407.107	512.81
407.331	556.81
407.555	619.81
407.778	598.81
408.002	533.81
408.226	488.81
408.449	478.81
408.673	503.81
408.896	526.81
409.12	550.81
409.344	538.81
409.567	477.81
409.791	459.81
410.014	453.81
410.238	466.81
410.461	457.81
410.685	467.81
410.908	477.81
411.132	503.81
411.355	544.81
411.578	505.81
411.802	446.81
412.025	455.81
412.249	450.81
412.472	463.81
412.695	515.81
412.919	525.81
413.142	460.81
413.365	417.81
413.589	413.81
413.812	426.81
414.035	433.81
414.258	429.81
414.482	416.81
414.705	434.81
414.928	427.81
415.151	439.81
415.374	416.81
415.597	416.81
415.821	395.81
416.044	413.81
416.267	400.81
416.49	400.81
416.713	407.81
416.936	422.81
417.159	420.81
417.382	437.81
417.605	438.81
417.828	448.81
418.051	464.81
418.274	428.81
418.497	432.81
418.72	421.81
418.943	430.81
419.166	450.81
419.389	445.81
419.611	461.81
419.834	439.81
420.057	448.81
420.28	442.81
420.503	461.81
420.726	473.81
420.948	486.81
421.171	491.81
421.394	529.81
421.617	478.81
421.839	454.81
422.062	445.81
422.285	479.81
422.507	536.81
422.73	573.81
422.953	583.81
423.175	504.81
423.398	474.81
423.621	483.81
423.843	477.81
424.066	487.81
424.288	500.81
424.511	509.81
424.733	552.81
424.956	628.81
425.178	624.81
425.401	609.81
425.623	639.81
425.846	557.81
426.068	504.81
426.291	507.81
426.513	507.81
426.735	511.81
426.958	549.81
427.18	644.81
427.402	743.81
427.625	816.81
427.847	788.81
428.069	654.81
428.292	588.81
428.514	532.81
428.736	499.81
428.958	522.81
429.181	478.81
429.403	460.81
429.625	494.81
429.847	525.81
430.069	609.81
430.292	562.81
430.514	490.81
430.736	486.81
430.958	446.81
431.18	443.81
431.402	441.81
431.624	427.81
431.846	412.81
432.068	428.81
432.29	421.81
432.512	414.81
432.734	440.81
432.956	447.81
433.178	460.81
433.4	462.81
433.622	429.81
433.844	436.81
434.066	426.81
434.287	437.81
434.509	429.81
434.731	427.81
434.953	439.81
435.175	456.81
435.397	489.81
435.618	489.81
435.84	546.81
436.062	650.81
436.284	711.81
436.505	595.81
436.727	512.81
436.949	500.81
437.17	469.81
437.392	474.81
437.614	490.81
437.835	531.81
438.057	628.81
438.278	704.81
438.5	700.81
438.721	782.81
438.943	736.81
439.165	598.81
439.386	558.81
439.608	525.81
439.829	525.81
440.05	557.81
440.272	603.81
440.493	556.81
440.715	517.81
440.936	491.81
441.158	475.81
441.379	469.81
441.6	502.81
441.822	505.81
442.043	566.81
442.264	640.81
442.486	672.81
442.707	563.81
442.928	534.81
443.149	529.81
443.371	554.81
443.592	602.81
443.813	680.81
444.034	741.81
444.255	613.81
444.476	532.81
444.698	512.81
444.919	514.81
445.14	589.81
445.361	562.81
445.582	551.81
445.803	625.81
446.024	712.81
446.245	729.81
446.466	650.81
446.687	564.81
446.908	541.81
447.129	489.81
447.35	468.81
447.571	473.81
447.792	462.81
448.013	458.81
448.234	476.81
448.455	545.81
448.675	670.81
448.896	773.81
449.117	658.81
449.338	630.81
449.559	702.81
449.779	789.81
450	653.81
450.221	533.81
450.442	480.81
450.662	476.81
450.883	484.81
451.104	504.81
451.324	480.81
451.545	464.81
451.766	422.81
451.986	429.81
452.207	435.81
452.428	409.81
452.648	427.81
452.869	436.81
453.089	427.81
453.31	447.81
453.53	422.81
453.751	424.81
453.971	420.81
454.192	468.81
454.412	443.81
454.633	427.81
454.853	415.81
455.073	424.81
455.294	450.81
455.514	528.81
455.734	501.81
455.955	435.81
456.175	388.81
456.395	382.81
456.616	390.81
456.836	371.81
457.056	389.81
457.276	390.81
457.497	393.81
457.717	384.81
457.937	402.81
458.157	406.81
458.377	401.81
458.598	444.81
458.818	508.81
459.038	591.81
459.258	600.81
459.478	476.81
459.698	448.81
459.918	418.81
460.138	412.81
460.358	397.81
460.578	419.81
460.798	432.81
461.018	427.81
461.238	425.81
461.458	405.81
461.678	424.81
461.898	434.81
462.118	410.81
462.338	420.81
462.558	438.81
462.777	443.81
462.997	428.81
463.217	437.81
463.437	422.81
463.657	435.81
463.876	442.81
464.096	433.81
464.316	433.81
464.536	453.81
464.755	467.81
464.975	454.81
465.195	530.81
465.414	610.81
465.634	525.81
465.854	490.81
466.073	453.81
466.293	437.81
466.512	437.81
466.732	434.81
466.951	422.81
467.171	410.81
467.391	414.81
467.61	445.81
467.829	426.81
468.049	463.81
468.268	441.81
468.488	424.81
468.707	430.81
468.927	409.81
469.146	404.81
469.365	402.81
469.585	423.81
469.804	423.81
470.023	416.81
470.243	428.81
470.462	437.81
470.681	447.81
470.901	453.81
471.12	416.81
471.339	412.81
471.558	438.81
471.777	444.81
471.997	439.81
472.216	424.81
472.435	485.81
472.654	464.81
472.873	428.81
473.092	404.81
473.311	433.81
473.53	444.81
473.749	448.81
473.968	487.81
474.187	597.81
474.406	613.81
474.625	483.81
474.844	448.81
475.063	458.81
475.282	434.81
475.501	428.81
475.72	452.81
475.939	437.81
476.158	436.81
476.377	441.81
476.596	436.81
476.814	447.81
477.033	454.81
477.252	462.81
477.471	442.81
477.69	460.81
477.908	454.81
478.127	467.81
478.346	454.81
478.564	474.81
478.783	480.81
479.002	491.81
479.22	490.81
479.439	498.81
479.658	515.81
479.876	541.81
480.095	507.81
480.313	563.81
480.532	522.81
480.751	516.81
480.969	533.81
481.188	606.81
481.406	671.81
481.624	586.81
481.843	538.81
482.061	525.81
482.28	535.81
482.498	506.81
482.717	504.81
482.935	510.81
483.153	497.81
483.372	493.81
483.59	492.81
483.808	488.81
484.027	499.81
484.245	506.81
484.463	536.81
484.681	531.81
484.9	511.81
485.118	513.81
485.336	509.81
485.554	518.81
485.772	524.81
485.99	527.81
486.209	524.81
486.427	522.81
486.645	539.81
486.863	557.81
487.081	580.81
487.299	587.81
487.517	556.81
487.735	556.81
487.953	574.81
488.171	552.81
488.389	552.81
488.607	561.81
488.825	563.81
489.043	556.81
489.261	539.81
489.479	571.81
489.696	569.81
489.914	569.81
490.132	576.81
490.35	570.81
490.568	584.81
490.786	592.81
491.003	629.81
491.221	613.81
491.439	629.81
491.657	633.81
491.874	657.81
492.092	648.81
492.31	668.81
492.527	646.81
492.745	668.81
492.963	659.81
493.18	662.81
493.398	666.81
493.615	651.81
493.833	672.81
494.05	660.81
494.268	643.81
494.485	649.81
494.703	653.81
494.92	673.81
495.138	677.81
495.355	654.81
495.573	655.81
495.79	669.81
496.008	659.81
496.225	681.81
496.442	666.81
496.66	668.81
496.877	669.81
497.094	665.81
497.312	673.81
497.529	664.81
497.746	684.81
497.963	699.81
498.181	714.81
498.398	684.81
498.615	694.81
498.832	686.81
499.049	708.81
499.267	721.81
499.484	741.81
499.701	724.81
499.918	758.81
500.135	764.81
500.352	780.81
500.569	780.81
500.786	793.81
501.003	819.81
501.22	804.81
501.437	807.81
501.654	771.81
501.871	788.81
502.088	777.81
502.305	743.81
502.522	704.81
502.739	699.81
502.956	664.81
503.172	698.81
503.389	679.81
503.606	696.81
503.823	674.81
504.04	670.81
504.256	674.81
504.473	668.81
504.69	654.81
504.907	675.81
505.123	649.81
505.34	672.81
505.557	632.81
505.773	633.81
505.99	656.81
506.207	658.81
506.423	643.81
506.64	659.81
506.856	620.81
507.073	632.81
507.289	610.81
507.506	613.81
507.722	655.81
507.939	669.81
508.155	660.81
508.372	645.81
508.588	617.81
508.805	608.81
509.021	617.81
509.238	647.81
509.454	646.81
509.67	661.81
509.887	623.81
510.103	642.81
510.319	628.81
510.536	777.81
510.752	1347.81
510.968	1078.81
511.184	680.81
511.401	619.81
511.617	609.81
511.833	609.81
512.049	597.81
512.265	569.81
512.481	604.81
512.698	592.81
512.914	589.81
513.13	594.81
513.346	595.81
513.562	573.81
513.778	601.81
513.994	630.81
514.21	617.81
514.426	634.81
514.642	680.81
514.858	753.81
515.074	822.81
515.29	980.81
515.506	1525.81
515.721	1210.81
515.937	792.81
516.153	698.81
516.369	673.81
516.585	627.81
516.801	605.81
517.016	614.81
517.232	600.81
517.448	601.81
517.664	606.81
517.879	584.81
518.095	591.81
518.311	601.81
518.527	576.81
518.742	585.81
518.958	594.81
519.173	572.81
519.389	610.81
519.605	596.81
519.82	605.81
520.036	630.81
520.251	644.81
520.467	673.81
520.682	681.81
520.898	709.81
521.113	728.81
521.329	768.81
521.544	908.81
521.76	1185.81
521.975	2046.81
522.19	2015.81
522.406	1060.81
522.621	737.81
522.836	663.81
523.052	631.81
523.267	581.81
523.482	574.81
523.698	565.81
523.913	565.81
524.128	553.81
524.343	508.81
524.559	537.81
524.774	516.81
524.989	539.81
525.204	531.81
525.419	508.81
525.634	523.81
525.849	510.81
526.064	498.81
526.28	472.81
526.495	504.81
526.71	489.81
526.925	493.81
527.14	461.81
527.355	486.81
527.57	450.81
527.785	468.81
527.999	465.81
528.214	485.81
528.429	458.81
528.644	478.81
528.859	467.81
529.074	482.81
529.289	490.81
529.503	594.81
529.718	584.81
529.933	553.81
530.148	503.81
530.363	491.81
530.577	482.81
530.792	470.81
531.007	451.81
531.221	442.81
531.436	435.81
531.651	436.81
531.865	452.81
532.08	418.81
532.295	444.81
532.509	466.81
532.724	441.81
532.938	440.81
533.153	439.81
533.367	429.81
533.582	446.81
533.796	457.81
534.011	428.81
534.225	426.81
534.44	434.81
534.654	440.81
534.868	451.81
535.083	427.81
535.297	432.81
535.511	436.81
535.726	463.81
535.94	448.81
536.154	444.81
536.369	428.81
536.583	412.81
536.797	435.81
537.011	425.81
537.225	432.81
537.44	426.81
537.654	413.81
537.868	413.81
538.082	420.81
538.296	425.81
538.51	421.81
538.724	426.81
538.938	426.81
539.153	438.81
539.367	429.81
539.581	444.81
539.795	452.81
540.009	438.81
540.222	422.81
540.436	413.81
540.65	422.81
540.864	425.81
541.078	441.81
541.292	427.81
541.506	423.81
541.72	414.81
541.934	413.81
542.147	445.81
542.361	433.81
542.575	405.81
542.789	406.81
543.002	421.81
543.216	427.81
543.43	454.81
543.644	423.81
543.857	420.81
544.071	429.81
544.285	431.81
544.498	442.81
544.712	402.81
544.925	409.81
545.139	417.81
545.352	432.81
545.566	410.81
545.779	403.81
545.993	403.81
546.206	407.81
546.42	415.81
546.633	414.81
546.847	414.81
547.06	389.81
547.274	408.81
547.487	404.81
547.7	398.81
547.914	380.81
548.127	397.81
548.34	392.81
548.554	394.81
548.767	400.81
548.98	376.81
549.193	401.81
549.407	389.81
549.62	394.81
549.833	395.81
550.046	393.81
550.259	396.81
550.473	390.81
550.686	382.81
550.899	377.81
551.112	373.81
551.325	382.81
551.538	389.81
551.751	382.81
551.964	389.81
552.177	371.81
552.39	371.81
552.603	385.81
552.816	383.81
553.029	386.81
553.242	411.81
553.455	394.81
553.667	418.81
553.88	416.81
554.093	402.81
554.306	396.81
554.519	402.81
554.732	380.81
554.944	380.81
555.157	373.81
555.37	390.81
555.583	378.81
555.795	385.81
556.008	368.81
556.221	360.81
556.433	366.81
556.646	358.81
556.859	364.81
557.071	362.81
557.284	365.81
557.496	368.81
557.709	348.81
557.921	366.81
558.134	345.81
558.346	334.81
558.559	355.81
558.771	354.81
558.984	342.81
559.196	340.81
559.409	365.81
559.621	349.81
559.833	338.81
560.046	356.81
560.258	353.81
560.47	334.81
560.683	362.81
560.895	331.81
561.107	346.81
561.32	344.81
561.532	368.81
561.744	342.81
561.956	366.81
562.168	354.81
562.381	364.81
562.593	361.81
562.805	341.81
563.017	349.81
563.229	359.81
563.441	344.81
563.653	339.81
563.865	349.81
564.077	341.81
564.289	346.81
564.501	356.81
564.713	341.81
564.925	368.81
565.137	376.81
565.349	369.81
565.561	359.81
565.773	367.81
565.985	383.81
566.197	386.81
566.408	362.81
566.62	378.81
566.832	389.81
567.044	394.81
567.255	380.81
567.467	391.81
567.679	395.81
567.891	385.81
568.102	378.81
568.314	388.81
568.526	378.81
568.737	364.81
568.949	374.81
569.161	359.81
569.372	358.81
569.584	364.81
569.795	347.81
570.007	361.81
570.218	420.81
570.43	393.81
570.641	340.81
570.853	328.81
571.064	333.81
571.276	343.81
571.487	334.81
571.698	337.81
571.91	301.81
572.121	311.81
572.333	334.81
572.544	317.81
572.755	315.81
572.966	307.81
573.178	313.81
573.389	308.81
573.6	327.81
573.811	323.81
574.023	314.81
574.234	305.81
574.445	298.81
574.656	306.81
574.867	291.81
575.078	324.81
575.289	307.81
575.501	292.81
575.712	293.81
575.923	301.81
576.134	291.81
576.345	320.81
576.556	298.81
576.767	290.81
576.978	296.81
577.188	312.81
577.399	296.81
577.61	294.81
577.821	304.81
578.032	293.81
578.243	354.81
578.454	632.81
578.665	445.81
578.875	323.81
579.086	310.81
579.297	297.81
579.508	298.81
579.718	294.81
579.929	286.81
580.14	300.81
580.35	290.81
580.561	291.81
580.772	296.81
580.982	277.81
581.193	278.81
581.403	282.81
581.614	274.81
581.825	281.81
582.035	283.81
582.246	265.81
582.456	276.81
582.667	270.81
582.877	279.81
583.087	263.81
583.298	262.81
583.508	294.81
583.719	285.81
583.929	276.81
584.139	270.81
584.35	274.81
584.56	281.81
584.77	278.81
584.981	285.81
585.191	275.81
585.401	281.81
585.611	277.81
585.821	279.81
586.032	278.81
586.242	275.81
586.452	256.81
586.662	276.81
586.872	271.81
587.082	272.81
587.292	276.81
587.502	264.81
587.713	266.81
587.923	282.81
588.133	254.81
588.343	263.81
588.553	253.81
588.762	264.81
588.972	280.81
589.182	255.81
589.392	261.81
589.602	290.81
589.812	269.81
590.022	256.81
590.232	254.81
590.441	270.81
590.651	266.81
590.861	251.81
591.071	258.81
591.281	261.81
591.49	291.81
591.7	272.81
591.91	268.81
592.119	251.81
592.329	264.81
592.539	273.81
592.748	285.81
592.958	267.81
593.167	270.81
593.377	260.81
593.587	267.81
593.796	279.81
594.006	263.81
594.215	273.81
594.424	279.81
594.634	261.81
594.843	264.81
595.053	262.81
595.262	265.81
595.472	254.81
595.681	247.81
595.89	278.81
596.1	248.81
596.309	254.81
596.518	237.81
596.727	257.81
596.937	249.81
597.146	253.81
597.355	232.81
597.564	245.81
597.774	256.81
597.983	244.81
598.192	233.81
598.401	246.81
598.61	256.81
598.819	221.81
599.028	229.81
599.237	239.81
599.446	228.81
599.655	246.81
599.864	252.81
600.073	237.81
600.282	235.81
600.491	229.81
600.7	231.81
600.909	234.81
601.118	237.81
601.327	217.81
601.536	221.81
601.745	237.81
601.953	237.81
602.162	248.81
602.371	236.81
602.58	228.81
602.789	248.81
602.997	228.81
603.206	244.81
603.415	236.81
603.623	240.81
603.832	237.81
604.041	229.81
604.249	219.81
604.458	235.81
604.666	227.81
604.875	233.81
605.084	235.81
605.292	222.81
605.501	230.81
605.709	221.81
605.918	230.81
606.126	227.81
606.334	229.81
606.543	227.81
606.751	221.81
606.96	216.81
607.168	227.81
607.376	213.81
607.585	224.81
607.793	229.81
608.001	217.81
608.21	216.81
608.418	224.81
608.626	211.81
608.834	216.81
609.043	233.81
609.251	219.81
609.459	216.81
609.667	221.81
609.875	224.81
610.083	220.81
610.291	207.81
610.499	231.81
610.707	222.81
610.916	215.81
611.124	237.81
611.332	225.81
611.54	236.81
611.748	232.81
611.955	236.81
612.163	213.81
612.371	220.81
612.579	222.81
612.787	207.81
612.995	213.81
613.203	230.81
613.411	220.81
613.618	220.81
613.826	221.81
614.034	218.81
614.242	205.81
614.449	220.81
614.657	229.81
614.865	204.81
615.072	218.81
615.28	221.81
615.488	216.81
615.695	227.81
615.903	206.81
616.111	211.81
616.318	217.81
616.526	210.81
616.733	204.81
616.941	212.81
617.148	219.81
617.356	220.81
617.563	224.81
617.771	217.81
617.978	220.81
618.185	229.81
618.393	212.81
618.6	213.81
618.807	213.81
619.015	226.81
619.222	220.81
619.429	222.81
619.637	223.81
619.844	213.81
620.051	202.81
620.258	214.81
620.466	199.81
620.673	203.81
620.88	201.81
621.087	206.81
621.294	205.81
621.501	192.81
621.708	198.81
621.915	204.81
622.122	212.81
622.329	210.81
622.536	204.81
622.743	202.81
622.95	220.81
623.157	208.81
623.364	200.81
623.571	219.81
623.778	186.81
623.985	193.81
624.192	197.81
624.399	192.81
624.606	201.81
624.812	207.81
625.019	200.81
625.226	199.81
625.433	202.81
625.639	212.81
625.846	192.81
626.053	182.81
626.259	201.81
626.466	205.81
626.673	203.81
626.879	194.81
627.086	199.81
627.293	196.81
627.499	179.81
627.706	186.81
627.912	186.81
628.119	197.81
628.325	190.81
628.532	184.81
628.738	189.81
628.945	198.81
629.151	188.81
629.357	196.81
629.564	189.81
629.77	184.81
629.976	187.81
630.183	176.81
630.389	184.81
630.595	200.81
630.802	191.81
631.008	178.81
631.214	198.81
631.42	196.81
631.627	193.81
631.833	184.81
632.039	183.81
632.245	163.81
632.451	185.81
632.657	200.81
632.863	161.81
633.069	194.81
633.275	171.81
633.481	176.81
633.688	178.81
633.893	167.81
634.099	189.81
634.305	188.81
634.511	160.81
634.717	184.81
634.923	177.81
635.129	167.81
635.335	164.81
635.541	164.81
635.747	177.81
635.952	162.81
636.158	163.81
636.364	161.81
636.57	194.81
636.775	169.81
636.981	173.81
637.187	172.81
637.392	169.81
637.598	174.81
637.804	158.81
638.009	181.81
638.215	174.81
638.421	161.81
638.626	154.81
638.832	180.81
639.037	161.81
639.243	157.81
639.448	154.81
639.654	158.81
639.859	180.81
640.065	162.81
640.27	157.81
640.475	157.81
640.681	163.81
640.886	169.81
641.091	172.81
641.297	167.81
641.502	161.81
641.707	158.81
641.913	160.81
642.118	170.81
642.323	161.81
642.528	171.81
642.733	164.81
642.939	162.81
643.144	162.81
643.349	153.81
643.554	153.81
643.759	168.81
643.964	162.81
644.169	151.81
644.374	152.81
644.579	172.81
644.784	157.81
644.989	169.81
645.194	144.81
645.399	151.81
645.604	161.81
645.809	148.81
646.014	144.81
646.219	154.81
646.423	153.81
646.628	154.81
646.833	157.81
647.038	145.81
647.243	157.81
647.447	156.81
647.652	143.81
647.857	160.81
648.062	148.81
648.266	159.81
648.471	146.81
648.676	164.81
648.88	160.81
649.085	158.81
649.289	160.81
649.494	156.81
649.698	177.81
649.903	166.81
650.107	160.81
650.312	147.81
650.516	150.81
650.721	151.81
650.925	142.81
651.13	150.81
651.334	152.81
651.539	137.81
651.743	134.81
651.947	132.81
652.152	139.81
652.356	119.81
652.56	141.81
652.764	135.81
652.969	128.81
653.173	138.81
653.377	122.81
653.581	126.81
653.785	126.81
653.99	147.81
654.194	131.81
654.398	145.81
654.602	142.81
654.806	143.81
655.01	136.81
655.214	135.81
655.418	126.81
655.622	132.81
655.826	119.81
656.03	121.81
656.234	127.81
656.438	109.81
656.642	124.81
656.846	131.81
657.049	132.81
657.253	112.81
657.457	107.81
657.661	106.81
657.865	109.81
658.068	101.81
658.272	121.81
658.476	106.81
658.68	92.81
658.883	104.81
659.087	107.81
659.291	105.81
659.494	89.81
659.698	100.81
659.901	88.81
660.105	93.81
660.309	86.81
660.512	97.81
660.716	121.81
660.919	74.81
661.123	98.81
661.326	83.81
661.53	85.81
661.733	90.81
661.936	96.81
662.14	82.81
662.343	88.81
662.546	82.81
662.75	83.81
662.953	87.81
663.156	90.81
663.36	86.81
663.563	84.81
663.766	92.81
663.969	73.81
664.173	77.81
664.376	85.81
664.579	84.81
664.782	72.81
664.985	76.81
665.188	87.81
665.391	86.81
665.594	82.81
665.797	70.81
666	89.81
666.203	68.81
666.406	80.81
666.609	90.81
666.812	87.81
667.015	80.81
667.218	77.81
667.421	77.81
667.624	73.81
667.827	79.81
668.03	78.81
668.232	86.81
668.435	78.81
668.638	82.81
668.841	79.81
669.043	89.81
669.246	79.81
669.449	66.81
669.651	89.81
669.854	86.81
670.057	74.81
670.259	83.81
670.462	87.81
670.665	80.81
670.867	88.81
671.07	85.81
671.272	70.81
671.475	92.81
671.677	79.81
671.88	83.81
672.082	81.81
672.284	99.81
672.487	77.81
672.689	76.81
672.892	80.81
