Data from 1980.PennyLincolnUp.Lamp.En5.5.200Scan.071819.P1_HRD10591_16-38-57-958.txt Node
Date: Thu Jul 18 16:38:57 EDT 2019
User: cochatt
Spectrometer: HR+D1059
Trigger mode: 1
Integration Time (sec): 1.000000E-1
Scans to average: 1
Electric dark correction enabled: true
Nonlinearity correction enabled: false
Boxcar width: 0
XAxis mode: Wavelengths
Number of Pixels in Spectrum: 2048
>>>>>Begin Spectral Data<<<<<
223.165	-25.94
223.4	-25.94
223.635	-25.94
223.869	-29.94
224.104	-12.94
224.338	-26.94
224.573	-10.94
224.808	-16.94
225.042	1.06
225.277	-5.94
225.511	11.06
225.746	10.06
225.98	11.06
226.215	14.06
226.449	16.06
226.683	20.06
226.918	30.06
227.152	16.06
227.387	29.06
227.621	37.06
227.856	47.06
228.09	57.06
228.324	58.06
228.559	49.06
228.793	59.06
229.027	109.06
229.262	102.06
229.496	119.06
229.73	151.06
229.964	166.06
230.199	143.06
230.433	112.06
230.667	122.06
230.901	121.06
231.136	119.06
231.37	118.06
231.604	118.06
231.838	117.06
232.072	109.06
232.306	118.06
232.541	106.06
232.775	135.06
233.009	121.06
233.243	115.06
233.477	113.06
233.711	127.06
233.945	132.06
234.179	113.06
234.413	132.06
234.647	117.06
234.881	114.06
235.115	121.06
235.349	115.06
235.583	123.06
235.817	115.06
236.051	117.06
236.285	128.06
236.519	125.06
236.753	147.06
236.987	147.06
237.221	202.06
237.455	259.06
237.689	191.06
237.922	148.06
238.156	127.06
238.39	130.06
238.624	128.06
238.858	140.06
239.091	133.06
239.325	124.06
239.559	124.06
239.793	136.06
240.027	134.06
240.26	143.06
240.494	163.06
240.728	151.06
240.961	152.06
241.195	152.06
241.429	129.06
241.662	145.06
241.896	149.06
242.13	134.06
242.363	135.06
242.597	123.06
242.83	148.06
243.064	133.06
243.298	132.06
243.531	134.06
243.765	129.06
243.998	148.06
244.232	136.06
244.465	123.06
244.699	142.06
244.932	143.06
245.166	151.06
245.399	148.06
245.633	140.06
245.866	141.06
246.099	136.06
246.333	149.06
246.566	154.06
246.8	159.06
247.033	180.06
247.266	159.06
247.5	161.06
247.733	166.06
247.966	169.06
248.2	191.06
248.433	175.06
248.666	197.06
248.899	191.06
249.133	194.06
249.366	216.06
249.599	212.06
249.832	185.06
250.066	193.06
250.299	187.06
250.532	197.06
250.765	206.06
250.998	230.06
251.231	239.06
251.465	245.06
251.698	216.06
251.931	212.06
252.164	209.06
252.397	201.06
252.63	211.06
252.863	211.06
253.096	229.06
253.329	255.06
253.562	227.06
253.795	250.06
254.028	221.06
254.261	213.06
254.494	238.06
254.727	274.06
254.96	326.06
255.193	296.06
255.426	258.06
255.659	259.06
255.892	242.06
256.124	243.06
256.357	257.06
256.59	241.06
256.823	234.06
257.056	215.06
257.289	217.06
257.521	215.06
257.754	212.06
257.987	207.06
258.22	238.06
258.452	221.06
258.685	197.06
258.918	202.06
259.151	213.06
259.383	244.06
259.616	249.06
259.849	251.06
260.081	231.06
260.314	271.06
260.547	263.06
260.779	257.06
261.012	245.06
261.244	232.06
261.477	241.06
261.71	234.06
261.942	229.06
262.175	237.06
262.407	228.06
262.64	217.06
262.872	212.06
263.105	209.06
263.337	213.06
263.57	216.06
263.802	211.06
264.035	224.06
264.267	223.06
264.499	219.06
264.732	222.06
264.964	221.06
265.197	208.06
265.429	208.06
265.661	220.06
265.894	213.06
266.126	201.06
266.358	217.06
266.591	213.06
266.823	220.06
267.055	232.06
267.287	229.06
267.52	224.06
267.752	239.06
267.984	225.06
268.216	223.06
268.448	242.06
268.681	226.06
268.913	257.06
269.145	266.06
269.377	282.06
269.609	286.06
269.841	288.06
270.073	281.06
270.306	315.06
270.538	317.06
270.77	337.06
271.002	320.06
271.234	309.06
271.466	313.06
271.698	312.06
271.93	322.06
272.162	342.06
272.394	320.06
272.626	331.06
272.858	299.06
273.09	282.06
273.322	284.06
273.553	266.06
273.785	276.06
274.017	276.06
274.249	258.06
274.481	271.06
274.713	283.06
274.945	282.06
275.176	282.06
275.408	247.06
275.64	263.06
275.872	265.06
276.104	277.06
276.335	275.06
276.567	277.06
276.799	289.06
277.031	294.06
277.262	344.06
277.494	334.06
277.726	299.06
277.957	288.06
278.189	278.06
278.421	290.06
278.652	259.06
278.884	279.06
279.115	254.06
279.347	278.06
279.579	243.06
279.81	273.06
280.042	267.06
280.273	251.06
280.505	264.06
280.736	263.06
280.968	266.06
281.199	247.06
281.431	240.06
281.662	269.06
281.894	266.06
282.125	277.06
282.356	269.06
282.588	312.06
282.819	299.06
283.051	272.06
283.282	266.06
283.513	271.06
283.745	267.06
283.976	253.06
284.207	276.06
284.439	264.06
284.67	270.06
284.901	276.06
285.132	279.06
285.364	264.06
285.595	263.06
285.826	263.06
286.057	277.06
286.288	268.06
286.52	268.06
286.751	272.06
286.982	274.06
287.213	263.06
287.444	268.06
287.675	282.06
287.906	297.06
288.138	287.06
288.369	306.06
288.6	293.06
288.831	290.06
289.062	269.06
289.293	286.06
289.524	265.06
289.755	272.06
289.986	284.06
290.217	266.06
290.448	278.06
290.679	268.06
290.91	286.06
291.141	279.06
291.371	274.06
291.602	255.06
291.833	290.06
292.064	266.06
292.295	277.06
292.526	273.06
292.757	263.06
292.987	282.06
293.218	271.06
293.449	261.06
293.68	277.06
293.91	265.06
294.141	283.06
294.372	273.06
294.603	292.06
294.833	285.06
295.064	294.06
295.295	279.06
295.525	278.06
295.756	272.06
295.987	269.06
296.217	312.06
296.448	324.06
296.679	294.06
296.909	266.06
297.14	274.06
297.37	284.06
297.601	280.06
297.831	274.06
298.062	270.06
298.292	279.06
298.523	288.06
298.753	301.06
298.984	279.06
299.214	291.06
299.445	301.06
299.675	295.06
299.905	301.06
300.136	303.06
300.366	303.06
300.597	304.06
300.827	301.06
301.057	302.06
301.288	291.06
301.518	295.06
301.748	302.06
301.979	323.06
302.209	311.06
302.439	323.06
302.669	302.06
302.9	297.06
303.13	304.06
303.36	308.06
303.59	324.06
303.82	336.06
304.051	314.06
304.281	310.06
304.511	309.06
304.741	318.06
304.971	310.06
305.201	326.06
305.431	310.06
305.661	304.06
305.891	298.06
306.121	315.06
306.352	327.06
306.582	325.06
306.812	323.06
307.042	313.06
307.272	317.06
307.502	317.06
307.731	320.06
307.961	318.06
308.191	314.06
308.421	343.06
308.651	328.06
308.881	325.06
309.111	338.06
309.341	341.06
309.571	339.06
309.8	353.06
310.03	356.06
310.26	369.06
310.49	369.06
310.72	386.06
310.949	389.06
311.179	403.06
311.409	383.06
311.639	376.06
311.868	391.06
312.098	396.06
312.328	377.06
312.557	394.06
312.787	409.06
313.017	415.06
313.246	391.06
313.476	344.06
313.706	368.06
313.935	409.06
314.165	401.06
314.394	408.06
314.624	415.06
314.853	391.06
315.083	375.06
315.312	383.06
315.542	359.06
315.771	360.06
316.001	367.06
316.23	365.06
316.46	346.06
316.689	370.06
316.919	379.06
317.148	403.06
317.377	386.06
317.607	383.06
317.836	369.06
318.065	363.06
318.295	369.06
318.524	371.06
318.753	359.06
318.983	365.06
319.212	376.06
319.441	360.06
319.67	393.06
319.9	375.06
320.129	363.06
320.358	353.06
320.587	377.06
320.816	409.06
321.046	388.06
321.275	395.06
321.504	415.06
321.733	405.06
321.962	408.06
322.191	432.06
322.42	433.06
322.649	464.06
322.878	461.06
323.108	469.06
323.337	524.06
323.566	535.06
323.795	579.06
324.024	615.06
324.253	781.06
324.482	1128.06
324.71	1735.06
324.939	2457.06
325.168	2150.06
325.397	1141.06
325.626	761.06
325.855	624.06
326.084	575.06
326.313	523.06
326.542	533.06
326.77	594.06
326.999	699.06
327.228	977.06
327.457	1537.06
327.686	1894.06
327.914	1267.06
328.143	819.06
328.372	722.06
328.6	662.06
328.829	608.06
329.058	630.06
329.287	659.06
329.515	595.06
329.744	542.06
329.972	542.06
330.201	575.06
330.43	633.06
330.658	655.06
330.887	667.06
331.115	632.06
331.344	561.06
331.572	499.06
331.801	518.06
332.03	520.06
332.258	481.06
332.486	482.06
332.715	434.06
332.943	436.06
333.172	433.06
333.4	450.06
333.629	459.06
333.857	465.06
334.085	464.06
334.314	503.06
334.542	529.06
334.771	549.06
334.999	481.06
335.227	474.06
335.455	448.06
335.684	437.06
335.912	411.06
336.14	402.06
336.369	427.06
336.597	439.06
336.825	436.06
337.053	439.06
337.281	416.06
337.51	425.06
337.738	423.06
337.966	415.06
338.194	417.06
338.422	453.06
338.65	421.06
338.878	386.06
339.106	422.06
339.334	419.06
339.562	396.06
339.79	399.06
340.018	423.06
340.246	412.06
340.474	434.06
340.702	420.06
340.93	407.06
341.158	396.06
341.386	415.06
341.614	410.06
341.842	409.06
342.07	413.06
342.298	385.06
342.526	405.06
342.754	409.06
342.981	397.06
343.209	377.06
343.437	376.06
343.665	409.06
343.893	374.06
344.12	423.06
344.348	424.06
344.576	409.06
344.804	413.06
345.031	423.06
345.259	444.06
345.487	431.06
345.714	415.06
345.942	416.06
346.17	417.06
346.397	404.06
346.625	408.06
346.853	423.06
347.08	390.06
347.308	411.06
347.535	423.06
347.763	426.06
347.99	406.06
348.218	418.06
348.445	433.06
348.673	439.06
348.9	401.06
349.128	391.06
349.355	381.06
349.583	390.06
349.81	377.06
350.037	387.06
350.265	398.06
350.492	373.06
350.72	392.06
350.947	384.06
351.174	429.06
351.402	412.06
351.629	408.06
351.856	414.06
352.083	439.06
352.311	407.06
352.538	425.06
352.765	416.06
352.992	428.06
353.22	405.06
353.447	400.06
353.674	381.06
353.901	404.06
354.128	389.06
354.355	386.06
354.583	379.06
354.81	394.06
355.037	380.06
355.264	377.06
355.491	369.06
355.718	354.06
355.945	357.06
356.172	345.06
356.399	376.06
356.626	369.06
356.853	373.06
357.08	363.06
357.307	364.06
357.534	385.06
357.761	356.06
357.988	354.06
358.215	349.06
358.441	360.06
358.668	385.06
358.895	365.06
359.122	362.06
359.349	385.06
359.576	409.06
359.802	456.06
360.029	465.06
360.256	487.06
360.483	471.06
360.709	399.06
360.936	431.06
361.163	412.06
361.39	419.06
361.616	412.06
361.843	401.06
362.07	407.06
362.296	402.06
362.523	409.06
362.749	392.06
362.976	385.06
363.203	402.06
363.429	393.06
363.656	393.06
363.882	381.06
364.109	359.06
364.335	385.06
364.562	389.06
364.788	375.06
365.015	385.06
365.241	377.06
365.468	382.06
365.694	401.06
365.92	383.06
366.147	394.06
366.373	402.06
366.599	386.06
366.826	366.06
367.052	372.06
367.278	392.06
367.505	377.06
367.731	383.06
367.957	366.06
368.184	384.06
368.41	392.06
368.636	388.06
368.862	395.06
369.089	395.06
369.315	387.06
369.541	373.06
369.767	380.06
369.993	381.06
370.219	376.06
370.445	375.06
370.672	362.06
370.898	371.06
371.124	363.06
371.35	365.06
371.576	367.06
371.802	378.06
372.028	386.06
372.254	354.06
372.48	377.06
372.706	357.06
372.932	379.06
373.158	375.06
373.384	365.06
373.61	376.06
373.835	369.06
374.061	383.06
374.287	397.06
374.513	374.06
374.739	375.06
374.965	372.06
375.191	371.06
375.416	385.06
375.642	374.06
375.868	387.06
376.094	374.06
376.319	376.06
376.545	375.06
376.771	369.06
376.997	363.06
377.222	386.06
377.448	359.06
377.674	369.06
377.899	369.06
378.125	363.06
378.35	359.06
378.576	366.06
378.802	366.06
379.027	345.06
379.253	366.06
379.478	367.06
379.704	365.06
379.929	368.06
380.155	378.06
380.38	383.06
380.606	373.06
380.831	374.06
381.057	365.06
381.282	368.06
381.507	365.06
381.733	372.06
381.958	370.06
382.184	368.06
382.409	376.06
382.634	360.06
382.86	375.06
383.085	346.06
383.31	329.06
383.535	377.06
383.761	368.06
383.986	361.06
384.211	369.06
384.436	379.06
384.662	394.06
384.887	389.06
385.112	390.06
385.337	398.06
385.562	378.06
385.787	406.06
386.013	403.06
386.238	401.06
386.463	386.06
386.688	387.06
386.913	384.06
387.138	407.06
387.363	392.06
387.588	377.06
387.813	397.06
388.038	377.06
388.263	394.06
388.488	387.06
388.713	401.06
388.938	377.06
389.163	405.06
389.387	395.06
389.612	390.06
389.837	394.06
390.062	400.06
390.287	383.06
390.512	377.06
390.736	403.06
390.961	376.06
391.186	378.06
391.411	389.06
391.636	401.06
391.86	394.06
392.085	392.06
392.31	391.06
392.534	399.06
392.759	401.06
392.984	397.06
393.208	397.06
393.433	396.06
393.658	382.06
393.882	381.06
394.107	377.06
394.331	386.06
394.556	387.06
394.78	402.06
395.005	390.06
395.229	397.06
395.454	394.06
395.678	397.06
395.903	418.06
396.127	425.06
396.352	439.06
396.576	413.06
396.801	407.06
397.025	399.06
397.249	408.06
397.474	406.06
397.698	410.06
397.922	391.06
398.147	454.06
398.371	442.06
398.595	413.06
398.82	419.06
399.044	430.06
399.268	455.06
399.492	483.06
399.717	474.06
399.941	488.06
400.165	533.06
400.389	548.06
400.613	503.06
400.837	472.06
401.062	457.06
401.286	477.06
401.51	464.06
401.734	450.06
401.958	461.06
402.182	449.06
402.406	478.06
402.63	481.06
402.854	455.06
403.078	449.06
403.302	462.06
403.526	466.06
403.75	482.06
403.974	468.06
404.198	457.06
404.422	488.06
404.645	487.06
404.869	479.06
405.093	507.06
405.317	549.06
405.541	574.06
405.765	530.06
405.988	495.06
406.212	517.06
406.436	538.06
406.66	554.06
406.883	510.06
407.107	541.06
407.331	568.06
407.555	621.06
407.778	623.06
408.002	569.06
408.226	517.06
408.449	502.06
408.673	502.06
408.896	549.06
409.12	581.06
409.344	545.06
409.567	506.06
409.791	484.06
410.014	487.06
410.238	469.06
410.461	461.06
410.685	477.06
410.908	476.06
411.132	520.06
411.355	569.06
411.578	523.06
411.802	495.06
412.025	491.06
412.249	491.06
412.472	494.06
412.695	557.06
412.919	566.06
413.142	487.06
413.365	472.06
413.589	432.06
413.812	475.06
414.035	456.06
414.258	439.06
414.482	437.06
414.705	442.06
414.928	431.06
415.151	423.06
415.374	425.06
415.597	443.06
415.821	433.06
416.044	466.06
416.267	439.06
416.49	442.06
416.713	432.06
416.936	436.06
417.159	454.06
417.382	452.06
417.605	460.06
417.828	473.06
418.051	513.06
418.274	477.06
418.497	443.06
418.72	447.06
418.943	439.06
419.166	463.06
419.389	473.06
419.611	478.06
419.834	458.06
420.057	489.06
420.28	499.06
420.503	487.06
420.726	463.06
420.948	461.06
421.171	523.06
421.394	550.06
421.617	494.06
421.839	485.06
422.062	475.06
422.285	480.06
422.507	546.06
422.73	638.06
422.953	626.06
423.175	538.06
423.398	488.06
423.621	503.06
423.843	495.06
424.066	528.06
424.288	507.06
424.511	529.06
424.733	590.06
424.956	679.06
425.178	664.06
425.401	676.06
425.623	670.06
425.846	579.06
426.068	538.06
426.291	534.06
426.513	539.06
426.735	527.06
426.958	574.06
427.18	631.06
427.402	760.06
427.625	873.06
427.847	794.06
428.069	691.06
428.292	595.06
428.514	549.06
428.736	543.06
428.958	508.06
429.181	477.06
429.403	491.06
429.625	499.06
429.847	531.06
430.069	600.06
430.292	622.06
430.514	541.06
430.736	493.06
430.958	491.06
431.18	477.06
431.402	465.06
431.624	456.06
431.846	447.06
432.068	457.06
432.29	429.06
432.512	453.06
432.734	459.06
432.956	469.06
433.178	479.06
433.4	479.06
433.622	478.06
433.844	462.06
434.066	472.06
434.287	448.06
434.509	444.06
434.731	452.06
434.953	470.06
435.175	494.06
435.397	506.06
435.618	537.06
435.84	559.06
436.062	656.06
436.284	751.06
436.505	612.06
436.727	577.06
436.949	498.06
437.17	507.06
437.392	494.06
437.614	516.06
437.835	541.06
438.057	663.06
438.278	749.06
438.5	735.06
438.721	793.06
438.943	789.06
439.165	627.06
439.386	562.06
439.608	548.06
439.829	576.06
440.05	582.06
440.272	631.06
440.493	568.06
440.715	529.06
440.936	529.06
441.158	501.06
441.379	478.06
441.6	506.06
441.822	519.06
442.043	563.06
442.264	670.06
442.486	738.06
442.707	571.06
442.928	564.06
443.149	563.06
443.371	574.06
443.592	625.06
443.813	680.06
444.034	759.06
444.255	624.06
444.476	550.06
444.698	546.06
444.919	526.06
445.14	614.06
445.361	601.06
445.582	571.06
445.803	638.06
446.024	743.06
446.245	763.06
446.466	692.06
446.687	597.06
446.908	537.06
447.129	514.06
447.35	512.06
447.571	477.06
447.792	490.06
448.013	487.06
448.234	523.06
448.455	593.06
448.675	685.06
448.896	788.06
449.117	678.06
449.338	647.06
449.559	763.06
449.779	841.06
450	685.06
450.221	535.06
450.442	519.06
450.662	515.06
450.883	498.06
451.104	537.06
451.324	506.06
451.545	478.06
451.766	454.06
451.986	460.06
452.207	452.06
452.428	432.06
452.648	441.06
452.869	449.06
453.089	463.06
453.31	458.06
453.53	465.06
453.751	456.06
453.971	456.06
454.192	482.06
454.412	459.06
454.633	449.06
454.853	460.06
455.073	439.06
455.294	479.06
455.514	536.06
455.734	527.06
455.955	446.06
456.175	417.06
456.395	429.06
456.616	418.06
456.836	403.06
457.056	413.06
457.276	389.06
457.497	404.06
457.717	414.06
457.937	415.06
458.157	434.06
458.377	449.06
458.598	465.06
458.818	538.06
459.038	630.06
459.258	622.06
459.478	521.06
459.698	482.06
459.918	446.06
460.138	448.06
460.358	445.06
460.578	440.06
460.798	460.06
461.018	471.06
461.238	448.06
461.458	439.06
461.678	434.06
461.898	442.06
462.118	434.06
462.338	441.06
462.558	431.06
462.777	455.06
462.997	440.06
463.217	464.06
463.437	474.06
463.657	472.06
463.876	447.06
464.096	470.06
464.316	479.06
464.536	455.06
464.755	497.06
464.975	479.06
465.195	543.06
465.414	645.06
465.634	553.06
465.854	493.06
466.073	466.06
466.293	478.06
466.512	448.06
466.732	442.06
466.951	417.06
467.171	416.06
467.391	435.06
467.61	466.06
467.829	465.06
468.049	448.06
468.268	474.06
468.488	435.06
468.707	437.06
468.927	433.06
469.146	430.06
469.365	441.06
469.585	436.06
469.804	452.06
470.023	467.06
470.243	453.06
470.462	466.06
470.681	494.06
470.901	497.06
471.12	454.06
471.339	461.06
471.558	454.06
471.777	453.06
471.997	450.06
472.216	464.06
472.435	496.06
472.654	490.06
472.873	462.06
473.092	446.06
473.311	430.06
473.53	451.06
473.749	471.06
473.968	509.06
474.187	636.06
474.406	647.06
474.625	542.06
474.844	470.06
475.063	483.06
475.282	447.06
475.501	465.06
475.72	470.06
475.939	462.06
476.158	468.06
476.377	485.06
476.596	482.06
476.814	501.06
477.033	475.06
477.252	463.06
477.471	485.06
477.69	469.06
477.908	475.06
478.127	479.06
478.346	473.06
478.564	493.06
478.783	500.06
479.002	487.06
479.22	501.06
479.439	529.06
479.658	544.06
479.876	567.06
480.095	563.06
480.313	582.06
480.532	557.06
480.751	543.06
480.969	567.06
481.188	635.06
481.406	703.06
481.624	623.06
481.843	582.06
482.061	570.06
482.28	536.06
482.498	563.06
482.717	538.06
482.935	505.06
483.153	547.06
483.372	547.06
483.59	544.06
483.808	531.06
484.027	526.06
484.245	536.06
484.463	539.06
484.681	564.06
484.9	534.06
485.118	555.06
485.336	561.06
485.554	590.06
485.772	570.06
485.99	571.06
486.209	576.06
486.427	570.06
486.645	584.06
486.863	587.06
487.081	574.06
487.299	589.06
487.517	562.06
487.735	582.06
487.953	595.06
488.171	581.06
488.389	573.06
488.607	581.06
488.825	592.06
489.043	585.06
489.261	598.06
489.479	591.06
489.696	597.06
489.914	615.06
490.132	596.06
490.35	610.06
490.568	597.06
490.786	631.06
491.003	644.06
491.221	635.06
491.439	652.06
491.657	666.06
491.874	676.06
492.092	666.06
492.31	675.06
492.527	677.06
492.745	697.06
492.963	701.06
493.18	691.06
493.398	712.06
493.615	698.06
493.833	711.06
494.05	721.06
494.268	699.06
494.485	704.06
494.703	713.06
494.92	693.06
495.138	682.06
495.355	709.06
495.573	719.06
495.79	687.06
496.008	702.06
496.225	698.06
496.442	665.06
496.66	695.06
496.877	706.06
497.094	673.06
497.312	697.06
497.529	720.06
497.746	712.06
497.963	719.06
498.181	730.06
498.398	720.06
498.615	734.06
498.832	747.06
499.049	744.06
499.267	731.06
499.484	770.06
499.701	787.06
499.918	796.06
500.135	821.06
500.352	851.06
500.569	850.06
500.786	830.06
501.003	861.06
501.22	814.06
501.437	851.06
501.654	833.06
501.871	851.06
502.088	827.06
502.305	777.06
502.522	771.06
502.739	735.06
502.956	726.06
503.172	737.06
503.389	713.06
503.606	736.06
503.823	738.06
504.04	736.06
504.256	733.06
504.473	681.06
504.69	667.06
504.907	689.06
505.123	682.06
505.34	675.06
505.557	696.06
505.773	651.06
505.99	686.06
506.207	667.06
506.423	696.06
506.64	688.06
506.856	670.06
507.073	653.06
507.289	664.06
507.506	673.06
507.722	676.06
507.939	690.06
508.155	682.06
508.372	661.06
508.588	671.06
508.805	653.06
509.021	664.06
509.238	667.06
509.454	670.06
509.67	647.06
509.887	659.06
510.103	645.06
510.319	663.06
510.536	791.06
510.752	1369.06
510.968	1122.06
511.184	693.06
511.401	648.06
511.617	654.06
511.833	611.06
512.049	619.06
512.265	626.06
512.481	637.06
512.698	601.06
512.914	609.06
513.13	615.06
513.346	633.06
513.562	612.06
513.778	624.06
513.994	655.06
514.21	670.06
514.426	666.06
514.642	745.06
514.858	787.06
515.074	803.06
515.29	994.06
515.506	1521.06
515.721	1203.06
515.937	801.06
516.153	730.06
516.369	675.06
516.585	653.06
516.801	632.06
517.016	639.06
517.232	638.06
517.448	637.06
517.664	630.06
517.879	632.06
518.095	616.06
518.311	615.06
518.527	615.06
518.742	614.06
518.958	629.06
519.173	604.06
519.389	632.06
519.605	625.06
519.82	625.06
520.036	652.06
520.251	678.06
520.467	695.06
520.682	726.06
520.898	717.06
521.113	728.06
521.329	816.06
521.544	916.06
521.76	1215.06
521.975	2065.06
522.19	2047.06
522.406	1077.06
522.621	774.06
522.836	699.06
523.052	636.06
523.267	614.06
523.482	584.06
523.698	574.06
523.913	610.06
524.128	588.06
524.343	559.06
524.559	569.06
524.774	541.06
524.989	525.06
525.204	538.06
525.419	541.06
525.634	539.06
525.849	504.06
526.064	512.06
526.28	495.06
526.495	493.06
526.71	494.06
526.925	494.06
527.14	502.06
527.355	487.06
527.57	495.06
527.785	499.06
527.999	479.06
528.214	509.06
528.429	520.06
528.644	511.06
528.859	480.06
529.074	515.06
529.289	525.06
529.503	648.06
529.718	586.06
529.933	548.06
530.148	517.06
530.363	485.06
530.577	496.06
530.792	481.06
531.007	500.06
531.221	485.06
531.436	466.06
531.651	485.06
531.865	466.06
532.08	478.06
532.295	468.06
532.509	462.06
532.724	472.06
532.938	456.06
533.153	475.06
533.367	459.06
533.582	448.06
533.796	464.06
534.011	440.06
534.225	474.06
534.44	452.06
534.654	470.06
534.868	449.06
535.083	478.06
535.297	448.06
535.511	467.06
535.726	461.06
535.94	463.06
536.154	443.06
536.369	475.06
536.583	456.06
536.797	465.06
537.011	455.06
537.225	439.06
537.44	442.06
537.654	444.06
537.868	440.06
538.082	439.06
538.296	439.06
538.51	460.06
538.724	448.06
538.938	461.06
539.153	429.06
539.367	447.06
539.581	459.06
539.795	456.06
540.009	451.06
540.222	444.06
540.436	461.06
540.65	455.06
540.864	450.06
541.078	485.06
541.292	442.06
541.506	449.06
541.72	463.06
541.934	436.06
542.147	437.06
542.361	408.06
542.575	435.06
542.789	440.06
543.002	429.06
543.216	442.06
543.43	444.06
543.644	462.06
543.857	454.06
544.071	440.06
544.285	436.06
544.498	440.06
544.712	418.06
544.925	434.06
545.139	412.06
545.352	414.06
545.566	421.06
545.779	423.06
545.993	439.06
546.206	434.06
546.42	458.06
546.633	407.06
546.847	421.06
547.06	418.06
547.274	413.06
547.487	435.06
547.7	399.06
547.914	426.06
548.127	425.06
548.34	406.06
548.554	408.06
548.767	409.06
548.98	400.06
549.193	423.06
549.407	416.06
549.62	411.06
549.833	425.06
550.046	409.06
550.259	408.06
550.473	392.06
550.686	410.06
550.899	404.06
551.112	407.06
551.325	417.06
551.538	412.06
551.751	394.06
551.964	418.06
552.177	403.06
552.39	408.06
552.603	399.06
552.816	402.06
553.029	409.06
553.242	396.06
553.455	423.06
553.667	414.06
553.88	436.06
554.093	451.06
554.306	426.06
554.519	411.06
554.732	425.06
554.944	402.06
555.157	400.06
555.37	404.06
555.583	369.06
555.795	383.06
556.008	396.06
556.221	394.06
556.433	416.06
556.646	391.06
556.859	376.06
557.071	373.06
557.284	381.06
557.496	359.06
557.709	393.06
557.921	387.06
558.134	365.06
558.346	363.06
558.559	372.06
558.771	367.06
558.984	377.06
559.196	366.06
559.409	353.06
559.621	358.06
559.833	370.06
560.046	358.06
560.258	366.06
560.47	383.06
560.683	382.06
560.895	357.06
561.107	371.06
561.32	375.06
561.532	373.06
561.744	381.06
561.956	366.06
562.168	369.06
562.381	371.06
562.593	368.06
562.805	375.06
563.017	365.06
563.229	367.06
563.441	366.06
563.653	379.06
563.865	368.06
564.077	386.06
564.289	381.06
564.501	377.06
564.713	381.06
564.925	377.06
565.137	402.06
565.349	381.06
565.561	377.06
565.773	402.06
565.985	401.06
566.197	399.06
566.408	416.06
566.62	398.06
566.832	399.06
567.044	418.06
567.255	413.06
567.467	401.06
567.679	415.06
567.891	393.06
568.102	405.06
568.314	383.06
568.526	390.06
568.737	405.06
568.949	395.06
569.161	385.06
569.372	371.06
569.584	390.06
569.795	380.06
570.007	367.06
570.218	436.06
570.43	425.06
570.641	360.06
570.853	334.06
571.064	365.06
571.276	349.06
571.487	329.06
571.698	342.06
571.91	345.06
572.121	343.06
572.333	342.06
572.544	343.06
572.755	324.06
572.966	324.06
573.178	334.06
573.389	337.06
573.6	322.06
573.811	319.06
574.023	321.06
574.234	328.06
574.445	307.06
574.656	335.06
574.867	302.06
575.078	333.06
575.289	314.06
575.501	305.06
575.712	308.06
575.923	320.06
576.134	314.06
576.345	304.06
576.556	299.06
576.767	311.06
576.978	329.06
577.188	317.06
577.399	321.06
577.61	314.06
577.821	298.06
578.032	307.06
578.243	361.06
578.454	635.06
578.665	441.06
578.875	345.06
579.086	319.06
579.297	310.06
579.508	309.06
579.718	312.06
579.929	305.06
580.14	283.06
580.35	292.06
580.561	306.06
580.772	290.06
580.982	302.06
581.193	311.06
581.403	308.06
581.614	305.06
581.825	299.06
582.035	273.06
582.246	303.06
582.456	293.06
582.667	301.06
582.877	278.06
583.087	277.06
583.298	286.06
583.508	271.06
583.719	272.06
583.929	288.06
584.139	297.06
584.35	293.06
584.56	272.06
584.77	289.06
584.981	281.06
585.191	274.06
585.401	285.06
585.611	285.06
585.821	282.06
586.032	289.06
586.242	280.06
586.452	275.06
586.662	279.06
586.872	281.06
587.082	282.06
587.292	261.06
587.502	278.06
587.713	279.06
587.923	276.06
588.133	278.06
588.343	282.06
588.553	277.06
588.762	281.06
588.972	286.06
589.182	284.06
589.392	262.06
589.602	287.06
589.812	294.06
590.022	267.06
590.232	279.06
590.441	279.06
590.651	255.06
590.861	243.06
591.071	277.06
591.281	276.06
591.49	278.06
591.7	281.06
591.91	277.06
592.119	258.06
592.329	280.06
592.539	305.06
592.748	287.06
592.958	271.06
593.167	296.06
593.377	291.06
593.587	276.06
593.796	272.06
594.006	294.06
594.215	259.06
594.424	275.06
594.634	278.06
594.843	264.06
595.053	271.06
595.262	288.06
595.472	278.06
595.681	269.06
595.89	268.06
596.1	258.06
596.309	285.06
596.518	262.06
596.727	259.06
596.937	260.06
597.146	265.06
597.355	245.06
597.564	253.06
597.774	265.06
597.983	239.06
598.192	257.06
598.401	260.06
598.61	247.06
598.819	233.06
599.028	234.06
599.237	225.06
599.446	261.06
599.655	242.06
599.864	237.06
600.073	237.06
600.282	237.06
600.491	263.06
600.7	255.06
600.909	264.06
601.118	238.06
601.327	233.06
601.536	266.06
601.745	233.06
601.953	245.06
602.162	261.06
602.371	256.06
602.58	231.06
602.789	230.06
602.997	218.06
603.206	269.06
603.415	243.06
603.623	241.06
603.832	233.06
604.041	243.06
604.249	237.06
604.458	241.06
604.666	229.06
604.875	219.06
605.084	240.06
605.292	237.06
605.501	245.06
605.709	221.06
605.918	237.06
606.126	232.06
606.334	222.06
606.543	238.06
606.751	230.06
606.96	226.06
607.168	243.06
607.376	229.06
607.585	239.06
607.793	231.06
608.001	242.06
608.21	219.06
608.418	214.06
608.626	239.06
608.834	239.06
609.043	233.06
609.251	229.06
609.459	229.06
609.667	233.06
609.875	219.06
610.083	227.06
610.291	226.06
610.499	246.06
610.707	220.06
610.916	235.06
611.124	232.06
611.332	224.06
611.54	210.06
611.748	231.06
611.955	225.06
612.163	230.06
612.371	245.06
612.579	221.06
612.787	228.06
612.995	230.06
613.203	227.06
613.411	238.06
613.618	210.06
613.826	234.06
614.034	226.06
614.242	223.06
614.449	237.06
614.657	229.06
614.865	227.06
615.072	223.06
615.28	225.06
615.488	211.06
615.695	235.06
615.903	217.06
616.111	217.06
616.318	217.06
616.526	226.06
616.733	222.06
616.941	226.06
617.148	217.06
617.356	221.06
617.563	220.06
617.771	216.06
617.978	221.06
618.185	206.06
618.393	225.06
618.6	207.06
618.807	235.06
619.015	214.06
619.222	221.06
619.429	215.06
619.637	223.06
619.844	223.06
620.051	213.06
620.258	206.06
620.466	209.06
620.673	193.06
620.88	216.06
621.087	202.06
621.294	201.06
621.501	219.06
621.708	225.06
621.915	226.06
622.122	208.06
622.329	188.06
622.536	207.06
622.743	204.06
622.95	229.06
623.157	201.06
623.364	211.06
623.571	209.06
623.778	217.06
623.985	200.06
624.192	205.06
624.399	198.06
624.606	201.06
624.812	191.06
625.019	205.06
625.226	198.06
625.433	202.06
625.639	191.06
625.846	200.06
626.053	192.06
626.259	178.06
626.466	193.06
626.673	194.06
626.879	197.06
627.086	208.06
627.293	191.06
627.499	201.06
627.706	196.06
627.912	180.06
628.119	187.06
628.325	186.06
628.532	219.06
628.738	188.06
628.945	201.06
629.151	189.06
629.357	187.06
629.564	188.06
629.77	189.06
629.976	194.06
630.183	179.06
630.389	193.06
630.595	205.06
630.802	181.06
631.008	196.06
631.214	181.06
631.42	189.06
631.627	194.06
631.833	185.06
632.039	193.06
632.245	185.06
632.451	184.06
632.657	192.06
632.863	187.06
633.069	200.06
633.275	182.06
633.481	181.06
633.688	183.06
633.893	187.06
634.099	175.06
634.305	183.06
634.511	184.06
634.717	180.06
634.923	157.06
635.129	169.06
635.335	175.06
635.541	177.06
635.747	161.06
635.952	169.06
636.158	181.06
636.364	184.06
636.57	188.06
636.775	177.06
636.981	169.06
637.187	173.06
637.392	173.06
637.598	176.06
637.804	183.06
638.009	171.06
638.215	167.06
638.421	163.06
638.626	163.06
638.832	158.06
639.037	163.06
639.243	170.06
639.448	173.06
639.654	170.06
639.859	163.06
640.065	168.06
640.27	169.06
640.475	161.06
640.681	171.06
640.886	181.06
641.091	161.06
641.297	154.06
641.502	164.06
641.707	168.06
641.913	174.06
642.118	162.06
642.323	154.06
642.528	154.06
642.733	132.06
642.939	154.06
643.144	168.06
643.349	162.06
643.554	168.06
643.759	169.06
643.964	158.06
644.169	164.06
644.374	155.06
644.579	147.06
644.784	163.06
644.989	171.06
645.194	170.06
645.399	155.06
645.604	157.06
645.809	149.06
646.014	168.06
646.219	168.06
646.423	159.06
646.628	162.06
646.833	157.06
647.038	161.06
647.243	147.06
647.447	155.06
647.652	173.06
647.857	163.06
648.062	173.06
648.266	148.06
648.471	165.06
648.676	171.06
648.88	142.06
649.085	166.06
649.289	163.06
649.494	176.06
649.698	177.06
649.903	174.06
650.107	160.06
650.312	170.06
650.516	147.06
650.721	154.06
650.925	151.06
651.13	138.06
651.334	152.06
651.539	134.06
651.743	141.06
651.947	150.06
652.152	150.06
652.356	131.06
652.56	139.06
652.764	150.06
652.969	131.06
653.173	147.06
653.377	121.06
653.581	127.06
653.785	125.06
653.99	128.06
654.194	144.06
654.398	138.06
654.602	145.06
654.806	121.06
655.01	153.06
655.214	134.06
655.418	135.06
655.622	117.06
655.826	129.06
656.03	125.06
656.234	114.06
656.438	118.06
656.642	123.06
656.846	125.06
657.049	111.06
657.253	109.06
657.457	109.06
657.661	112.06
657.865	123.06
658.068	113.06
658.272	123.06
658.476	111.06
658.68	93.06
658.883	99.06
659.087	88.06
659.291	96.06
659.494	88.06
659.698	99.06
659.901	103.06
660.105	99.06
660.309	94.06
660.512	85.06
660.716	89.06
660.919	86.06
661.123	97.06
661.326	96.06
661.53	83.06
661.733	91.06
661.936	79.06
662.14	83.06
662.343	81.06
662.546	83.06
662.75	90.06
662.953	81.06
663.156	66.06
663.36	79.06
663.563	75.06
663.766	76.06
663.969	86.06
664.173	86.06
664.376	86.06
664.579	87.06
664.782	71.06
664.985	73.06
665.188	80.06
665.391	84.06
665.594	75.06
665.797	73.06
666	69.06
666.203	82.06
666.406	90.06
666.609	75.06
666.812	81.06
667.015	67.06
667.218	83.06
667.421	83.06
667.624	83.06
667.827	79.06
668.03	71.06
668.232	81.06
668.435	83.06
668.638	69.06
668.841	80.06
669.043	85.06
669.246	88.06
669.449	85.06
669.651	75.06
669.854	68.06
670.057	76.06
670.259	68.06
670.462	70.06
670.665	73.06
670.867	82.06
671.07	87.06
671.272	85.06
671.475	89.06
671.677	86.06
671.88	91.06
672.082	66.06
672.284	81.06
672.487	77.06
672.689	88.06
672.892	77.06
