Data from 1980.PennyLincolnUp.Lamp.En5.5.200Scan.071819.P1_HRD10591_16-37-37-957.txt Node
Date: Thu Jul 18 16:37:37 EDT 2019
User: cochatt
Spectrometer: HR+D1059
Trigger mode: 1
Integration Time (sec): 1.000000E-1
Scans to average: 1
Electric dark correction enabled: true
Nonlinearity correction enabled: false
Boxcar width: 0
XAxis mode: Wavelengths
Number of Pixels in Spectrum: 2048
>>>>>Begin Spectral Data<<<<<
223.165	-8.31
223.4	-8.31
223.635	-8.31
223.869	-31.31
224.104	-14.31
224.338	-5.31
224.573	-4.31
224.808	-10.31
225.042	-7.31
225.277	-6.31
225.511	9.69
225.746	-1.31
225.98	10.69
226.215	0.69
226.449	-12.31
226.683	16.69
226.918	26.69
227.152	36.69
227.387	40.69
227.621	44.69
227.856	49.69
228.09	51.69
228.324	56.69
228.559	57.69
228.793	69.69
229.027	95.69
229.262	115.69
229.496	118.69
229.73	145.69
229.964	169.69
230.199	139.69
230.433	138.69
230.667	129.69
230.901	118.69
231.136	114.69
231.37	111.69
231.604	123.69
231.838	109.69
232.072	115.69
232.306	113.69
232.541	111.69
232.775	126.69
233.009	118.69
233.243	105.69
233.477	118.69
233.711	98.69
233.945	113.69
234.179	139.69
234.413	113.69
234.647	123.69
234.881	107.69
235.115	125.69
235.349	139.69
235.583	134.69
235.817	116.69
236.051	150.69
236.285	129.69
236.519	122.69
236.753	129.69
236.987	150.69
237.221	194.69
237.455	254.69
237.689	193.69
237.922	155.69
238.156	139.69
238.39	152.69
238.624	134.69
238.858	141.69
239.091	147.69
239.325	127.69
239.559	133.69
239.793	123.69
240.027	131.69
240.26	145.69
240.494	179.69
240.728	156.69
240.961	155.69
241.195	136.69
241.429	134.69
241.662	149.69
241.896	143.69
242.13	126.69
242.363	138.69
242.597	148.69
242.83	142.69
243.064	147.69
243.298	141.69
243.531	149.69
243.765	143.69
243.998	151.69
244.232	153.69
244.465	154.69
244.699	157.69
244.932	143.69
245.166	155.69
245.399	141.69
245.633	145.69
245.866	159.69
246.099	148.69
246.333	136.69
246.566	147.69
246.8	149.69
247.033	164.69
247.266	164.69
247.5	162.69
247.733	177.69
247.966	171.69
248.2	180.69
248.433	177.69
248.666	180.69
248.899	187.69
249.133	198.69
249.366	213.69
249.599	193.69
249.832	193.69
250.066	168.69
250.299	190.69
250.532	195.69
250.765	201.69
250.998	220.69
251.231	217.69
251.465	235.69
251.698	212.69
251.931	194.69
252.164	187.69
252.397	196.69
252.63	209.69
252.863	218.69
253.096	231.69
253.329	253.69
253.562	247.69
253.795	226.69
254.028	220.69
254.261	244.69
254.494	235.69
254.727	270.69
254.96	296.69
255.193	284.69
255.426	273.69
255.659	264.69
255.892	253.69
256.124	248.69
256.357	252.69
256.59	224.69
256.823	213.69
257.056	226.69
257.289	221.69
257.521	227.69
257.754	220.69
257.987	207.69
258.22	209.69
258.452	220.69
258.685	206.69
258.918	226.69
259.151	212.69
259.383	211.69
259.616	238.69
259.849	243.69
260.081	232.69
260.314	237.69
260.547	264.69
260.779	266.69
261.012	247.69
261.244	221.69
261.477	248.69
261.71	241.69
261.942	241.69
262.175	246.69
262.407	242.69
262.64	227.69
262.872	227.69
263.105	202.69
263.337	220.69
263.57	210.69
263.802	207.69
264.035	206.69
264.267	212.69
264.499	211.69
264.732	216.69
264.964	229.69
265.197	221.69
265.429	219.69
265.661	222.69
265.894	206.69
266.126	221.69
266.358	201.69
266.591	219.69
266.823	216.69
267.055	236.69
267.287	245.69
267.52	225.69
267.752	228.69
267.984	227.69
268.216	230.69
268.448	236.69
268.681	241.69
268.913	229.69
269.145	264.69
269.377	263.69
269.609	273.69
269.841	271.69
270.073	267.69
270.306	298.69
270.538	315.69
270.77	325.69
271.002	306.69
271.234	302.69
271.466	297.69
271.698	329.69
271.93	340.69
272.162	328.69
272.394	333.69
272.626	301.69
272.858	284.69
273.09	291.69
273.322	264.69
273.553	285.69
273.785	259.69
274.017	259.69
274.249	262.69
274.481	269.69
274.713	267.69
274.945	256.69
275.176	276.69
275.408	262.69
275.64	242.69
275.872	262.69
276.104	268.69
276.335	263.69
276.567	276.69
276.799	295.69
277.031	315.69
277.262	313.69
277.494	312.69
277.726	294.69
277.957	269.69
278.189	282.69
278.421	296.69
278.652	268.69
278.884	259.69
279.115	257.69
279.347	271.69
279.579	257.69
279.81	253.69
280.042	249.69
280.273	256.69
280.505	267.69
280.736	271.69
280.968	272.69
281.199	264.69
281.431	245.69
281.662	244.69
281.894	260.69
282.125	263.69
282.356	289.69
282.588	295.69
282.819	286.69
283.051	262.69
283.282	246.69
283.513	261.69
283.745	262.69
283.976	264.69
284.207	279.69
284.439	273.69
284.67	278.69
284.901	268.69
285.132	261.69
285.364	267.69
285.595	267.69
285.826	268.69
286.057	257.69
286.288	256.69
286.52	259.69
286.751	259.69
286.982	268.69
287.213	277.69
287.444	286.69
287.675	282.69
287.906	286.69
288.138	280.69
288.369	273.69
288.6	286.69
288.831	280.69
289.062	273.69
289.293	278.69
289.524	268.69
289.755	277.69
289.986	280.69
290.217	279.69
290.448	281.69
290.679	271.69
290.91	258.69
291.141	266.69
291.371	262.69
291.602	267.69
291.833	285.69
292.064	270.69
292.295	277.69
292.526	261.69
292.757	254.69
292.987	278.69
293.218	261.69
293.449	287.69
293.68	268.69
293.91	276.69
294.141	279.69
294.372	279.69
294.603	263.69
294.833	280.69
295.064	271.69
295.295	266.69
295.525	257.69
295.756	293.69
295.987	301.69
296.217	314.69
296.448	313.69
296.679	285.69
296.909	274.69
297.14	283.69
297.37	282.69
297.601	297.69
297.831	260.69
298.062	270.69
298.292	269.69
298.523	254.69
298.753	280.69
298.984	275.69
299.214	306.69
299.445	285.69
299.675	281.69
299.905	292.69
300.136	277.69
300.366	279.69
300.597	303.69
300.827	286.69
301.057	278.69
301.288	300.69
301.518	314.69
301.748	311.69
301.979	303.69
302.209	313.69
302.439	297.69
302.669	307.69
302.9	292.69
303.13	290.69
303.36	305.69
303.59	307.69
303.82	312.69
304.051	329.69
304.281	309.69
304.511	307.69
304.741	293.69
304.971	305.69
305.201	301.69
305.431	314.69
305.661	289.69
305.891	301.69
306.121	322.69
306.352	300.69
306.582	302.69
306.812	302.69
307.042	314.69
307.272	313.69
307.502	325.69
307.731	311.69
307.961	306.69
308.191	302.69
308.421	302.69
308.651	316.69
308.881	309.69
309.111	320.69
309.341	351.69
309.571	327.69
309.8	341.69
310.03	358.69
310.26	366.69
310.49	357.69
310.72	387.69
310.949	399.69
311.179	401.69
311.409	379.69
311.639	357.69
311.868	373.69
312.098	374.69
312.328	359.69
312.557	373.69
312.787	403.69
313.017	412.69
313.246	369.69
313.476	365.69
313.706	369.69
313.935	375.69
314.165	385.69
314.394	385.69
314.624	387.69
314.853	373.69
315.083	385.69
315.312	365.69
315.542	350.69
315.771	350.69
316.001	377.69
316.23	365.69
316.46	369.69
316.689	369.69
316.919	342.69
317.148	380.69
317.377	353.69
317.607	385.69
317.836	368.69
318.065	360.69
318.295	353.69
318.524	346.69
318.753	348.69
318.983	361.69
319.212	357.69
319.441	384.69
319.67	371.69
319.9	366.69
320.129	354.69
320.358	366.69
320.587	366.69
320.816	374.69
321.046	403.69
321.275	399.69
321.504	381.69
321.733	386.69
321.962	389.69
322.191	391.69
322.42	415.69
322.649	437.69
322.878	468.69
323.108	463.69
323.337	487.69
323.566	518.69
323.795	567.69
324.024	643.69
324.253	740.69
324.482	1065.69
324.71	1665.69
324.939	2297.69
325.168	2112.69
325.397	1081.69
325.626	717.69
325.855	607.69
326.084	521.69
326.313	517.69
326.542	484.69
326.77	562.69
326.999	683.69
327.228	945.69
327.457	1443.69
327.686	1801.69
327.914	1204.69
328.143	769.69
328.372	682.69
328.6	631.69
328.829	585.69
329.058	637.69
329.287	617.69
329.515	565.69
329.744	508.69
329.972	503.69
330.201	542.69
330.43	600.69
330.658	615.69
330.887	671.69
331.115	617.69
331.344	521.69
331.572	489.69
331.801	489.69
332.03	470.69
332.258	467.69
332.486	433.69
332.715	430.69
332.943	432.69
333.172	457.69
333.4	418.69
333.629	418.69
333.857	461.69
334.085	459.69
334.314	494.69
334.542	488.69
334.771	525.69
334.999	500.69
335.227	445.69
335.455	435.69
335.684	431.69
335.912	426.69
336.14	405.69
336.369	403.69
336.597	427.69
336.825	421.69
337.053	408.69
337.281	411.69
337.51	405.69
337.738	423.69
337.966	404.69
338.194	429.69
338.422	394.69
338.65	406.69
338.878	415.69
339.106	392.69
339.334	403.69
339.562	395.69
339.79	402.69
340.018	406.69
340.246	399.69
340.474	409.69
340.702	403.69
340.93	393.69
341.158	389.69
341.386	421.69
341.614	407.69
341.842	407.69
342.07	416.69
342.298	396.69
342.526	387.69
342.754	404.69
342.981	395.69
343.209	389.69
343.437	390.69
343.665	387.69
343.893	403.69
344.12	401.69
344.348	405.69
344.576	400.69
344.804	413.69
345.031	406.69
345.259	414.69
345.487	388.69
345.714	414.69
345.942	418.69
346.17	409.69
346.397	391.69
346.625	409.69
346.853	412.69
347.08	391.69
347.308	412.69
347.535	406.69
347.763	414.69
347.99	425.69
348.218	399.69
348.445	424.69
348.673	414.69
348.9	427.69
349.128	386.69
349.355	374.69
349.583	380.69
349.81	365.69
350.037	377.69
350.265	371.69
350.492	375.69
350.72	394.69
350.947	423.69
351.174	389.69
351.402	419.69
351.629	410.69
351.856	415.69
352.083	388.69
352.311	413.69
352.538	436.69
352.765	408.69
352.992	417.69
353.22	402.69
353.447	424.69
353.674	411.69
353.901	390.69
354.128	373.69
354.355	353.69
354.583	366.69
354.81	377.69
355.037	369.69
355.264	360.69
355.491	371.69
355.718	360.69
355.945	371.69
356.172	357.69
356.399	357.69
356.626	351.69
356.853	361.69
357.08	389.69
357.307	377.69
357.534	352.69
357.761	363.69
357.988	375.69
358.215	369.69
358.441	364.69
358.668	349.69
358.895	358.69
359.122	373.69
359.349	373.69
359.576	399.69
359.802	434.69
360.029	454.69
360.256	461.69
360.483	446.69
360.709	397.69
360.936	406.69
361.163	402.69
361.39	400.69
361.616	420.69
361.843	397.69
362.07	399.69
362.296	406.69
362.523	399.69
362.749	396.69
362.976	385.69
363.203	393.69
363.429	379.69
363.656	369.69
363.882	384.69
364.109	363.69
364.335	379.69
364.562	387.69
364.788	380.69
365.015	388.69
365.241	375.69
365.468	397.69
365.694	375.69
365.92	386.69
366.147	377.69
366.373	374.69
366.599	385.69
366.826	355.69
367.052	374.69
367.278	361.69
367.505	361.69
367.731	366.69
367.957	379.69
368.184	370.69
368.41	377.69
368.636	377.69
368.862	386.69
369.089	391.69
369.315	369.69
369.541	358.69
369.767	369.69
369.993	375.69
370.219	360.69
370.445	379.69
370.672	378.69
370.898	372.69
371.124	358.69
371.35	365.69
371.576	364.69
371.802	360.69
372.028	348.69
372.254	353.69
372.48	369.69
372.706	349.69
372.932	360.69
373.158	355.69
373.384	366.69
373.61	363.69
373.835	366.69
374.061	355.69
374.287	366.69
374.513	360.69
374.739	365.69
374.965	383.69
375.191	374.69
375.416	380.69
375.642	352.69
375.868	354.69
376.094	377.69
376.319	363.69
376.545	373.69
376.771	375.69
376.997	355.69
377.222	373.69
377.448	372.69
377.674	364.69
377.899	364.69
378.125	369.69
378.35	363.69
378.576	369.69
378.802	362.69
379.027	352.69
379.253	353.69
379.478	347.69
379.704	373.69
379.929	377.69
380.155	365.69
380.38	358.69
380.606	363.69
380.831	375.69
381.057	376.69
381.282	381.69
381.507	362.69
381.733	354.69
381.958	354.69
382.184	344.69
382.409	386.69
382.634	371.69
382.86	379.69
383.085	380.69
383.31	360.69
383.535	371.69
383.761	365.69
383.986	376.69
384.211	385.69
384.436	361.69
384.662	378.69
384.887	376.69
385.112	362.69
385.337	401.69
385.562	376.69
385.787	381.69
386.013	394.69
386.238	390.69
386.463	381.69
386.688	384.69
386.913	373.69
387.138	398.69
387.363	375.69
387.588	380.69
387.813	381.69
388.038	388.69
388.263	375.69
388.488	381.69
388.713	387.69
388.938	399.69
389.163	388.69
389.387	403.69
389.612	413.69
389.837	378.69
390.062	381.69
390.287	393.69
390.512	387.69
390.736	369.69
390.961	394.69
391.186	375.69
391.411	389.69
391.636	402.69
391.86	371.69
392.085	385.69
392.31	396.69
392.534	381.69
392.759	385.69
392.984	401.69
393.208	404.69
393.433	390.69
393.658	381.69
393.882	378.69
394.107	389.69
394.331	378.69
394.556	372.69
394.78	382.69
395.005	389.69
395.229	383.69
395.454	402.69
395.678	398.69
395.903	422.69
396.127	427.69
396.352	430.69
396.576	394.69
396.801	403.69
397.025	404.69
397.249	400.69
397.474	395.69
397.698	404.69
397.922	414.69
398.147	442.69
398.371	441.69
398.595	437.69
398.82	420.69
399.044	433.69
399.268	444.69
399.492	439.69
399.717	465.69
399.941	518.69
400.165	529.69
400.389	527.69
400.613	526.69
400.837	474.69
401.062	456.69
401.286	437.69
401.51	433.69
401.734	443.69
401.958	434.69
402.182	435.69
402.406	457.69
402.63	452.69
402.854	451.69
403.078	441.69
403.302	453.69
403.526	463.69
403.75	457.69
403.974	442.69
404.198	441.69
404.422	461.69
404.645	455.69
404.869	487.69
405.093	487.69
405.317	535.69
405.541	561.69
405.765	509.69
405.988	487.69
406.212	492.69
406.436	542.69
406.66	531.69
406.883	511.69
407.107	537.69
407.331	553.69
407.555	616.69
407.778	608.69
408.002	541.69
408.226	526.69
408.449	517.69
408.673	531.69
408.896	537.69
409.12	595.69
409.344	546.69
409.567	493.69
409.791	485.69
410.014	467.69
410.238	462.69
410.461	463.69
410.685	470.69
410.908	479.69
411.132	531.69
411.355	568.69
411.578	514.69
411.802	457.69
412.025	462.69
412.249	477.69
412.472	506.69
412.695	538.69
412.919	523.69
413.142	489.69
413.365	450.69
413.589	456.69
413.812	439.69
414.035	446.69
414.258	424.69
414.482	448.69
414.705	427.69
414.928	431.69
415.151	448.69
415.374	444.69
415.597	432.69
415.821	426.69
416.044	437.69
416.267	437.69
416.49	426.69
416.713	428.69
416.936	426.69
417.159	432.69
417.382	429.69
417.605	454.69
417.828	457.69
418.051	459.69
418.274	451.69
418.497	450.69
418.72	447.69
418.943	425.69
419.166	452.69
419.389	462.69
419.611	457.69
419.834	448.69
420.057	439.69
420.28	479.69
420.503	471.69
420.726	449.69
420.948	478.69
421.171	529.69
421.394	547.69
421.617	506.69
421.839	461.69
422.062	492.69
422.285	478.69
422.507	517.69
422.73	620.69
422.953	590.69
423.175	527.69
423.398	503.69
423.621	494.69
423.843	511.69
424.066	521.69
424.288	501.69
424.511	537.69
424.733	583.69
424.956	683.69
425.178	645.69
425.401	649.69
425.623	636.69
425.846	521.69
426.068	509.69
426.291	519.69
426.513	507.69
426.735	513.69
426.958	541.69
427.18	660.69
427.402	775.69
427.625	866.69
427.847	750.69
428.069	649.69
428.292	588.69
428.514	524.69
428.736	493.69
428.958	496.69
429.181	493.69
429.403	474.69
429.625	492.69
429.847	527.69
430.069	570.69
430.292	577.69
430.514	511.69
430.736	472.69
430.958	465.69
431.18	431.69
431.402	456.69
431.624	431.69
431.846	441.69
432.068	422.69
432.29	454.69
432.512	450.69
432.734	469.69
432.956	479.69
433.178	460.69
433.4	466.69
433.622	455.69
433.844	435.69
434.066	457.69
434.287	441.69
434.509	457.69
434.731	435.69
434.953	458.69
435.175	489.69
435.397	498.69
435.618	530.69
435.84	573.69
436.062	656.69
436.284	718.69
436.505	598.69
436.727	553.69
436.949	517.69
437.17	494.69
437.392	459.69
437.614	475.69
437.835	543.69
438.057	664.69
438.278	741.69
438.5	737.69
438.721	823.69
438.943	764.69
439.165	629.69
439.386	571.69
439.608	547.69
439.829	543.69
440.05	573.69
440.272	618.69
440.493	545.69
440.715	542.69
440.936	520.69
441.158	491.69
441.379	463.69
441.6	497.69
441.822	515.69
442.043	573.69
442.264	641.69
442.486	685.69
442.707	588.69
442.928	558.69
443.149	556.69
443.371	566.69
443.592	622.69
443.813	671.69
444.034	760.69
444.255	628.69
444.476	535.69
444.698	500.69
444.919	500.69
445.14	642.69
445.361	586.69
445.582	569.69
445.803	636.69
446.024	746.69
446.245	774.69
446.466	673.69
446.687	571.69
446.908	517.69
447.129	509.69
447.35	488.69
447.571	470.69
447.792	490.69
448.013	472.69
448.234	499.69
448.455	580.69
448.675	682.69
448.896	780.69
449.117	677.69
449.338	604.69
449.559	743.69
449.779	847.69
450	662.69
450.221	563.69
450.442	537.69
450.662	486.69
450.883	480.69
451.104	504.69
451.324	487.69
451.545	475.69
451.766	452.69
451.986	448.69
452.207	424.69
452.428	423.69
452.648	437.69
452.869	421.69
453.089	439.69
453.31	445.69
453.53	453.69
453.751	431.69
453.971	458.69
454.192	462.69
454.412	449.69
454.633	435.69
454.853	433.69
455.073	414.69
455.294	453.69
455.514	528.69
455.734	517.69
455.955	458.69
456.175	421.69
456.395	395.69
456.616	400.69
456.836	402.69
457.056	399.69
457.276	407.69
457.497	396.69
457.717	414.69
457.937	413.69
458.157	413.69
458.377	428.69
458.598	416.69
458.818	509.69
459.038	599.69
459.258	613.69
459.478	511.69
459.698	449.69
459.918	446.69
460.138	428.69
460.358	439.69
460.578	439.69
460.798	453.69
461.018	454.69
461.238	433.69
461.458	428.69
461.678	399.69
461.898	435.69
462.118	426.69
462.338	435.69
462.558	440.69
462.777	436.69
462.997	452.69
463.217	445.69
463.437	465.69
463.657	450.69
463.876	444.69
464.096	457.69
464.316	453.69
464.536	472.69
464.755	464.69
464.975	478.69
465.195	506.69
465.414	599.69
465.634	540.69
465.854	479.69
466.073	458.69
466.293	444.69
466.512	437.69
466.732	423.69
466.951	439.69
467.171	429.69
467.391	456.69
467.61	445.69
467.829	451.69
468.049	439.69
468.268	446.69
468.488	439.69
468.707	436.69
468.927	411.69
469.146	450.69
469.365	409.69
469.585	430.69
469.804	454.69
470.023	447.69
470.243	449.69
470.462	452.69
470.681	465.69
470.901	452.69
471.12	449.69
471.339	439.69
471.558	441.69
471.777	446.69
471.997	443.69
472.216	446.69
472.435	499.69
472.654	488.69
472.873	465.69
473.092	451.69
473.311	451.69
473.53	453.69
473.749	451.69
473.968	502.69
474.187	620.69
474.406	645.69
474.625	515.69
474.844	462.69
475.063	443.69
475.282	449.69
475.501	458.69
475.72	479.69
475.939	461.69
476.158	461.69
476.377	444.69
476.596	455.69
476.814	465.69
477.033	469.69
477.252	481.69
477.471	482.69
477.69	482.69
477.908	462.69
478.127	488.69
478.346	485.69
478.564	488.69
478.783	481.69
479.002	491.69
479.22	485.69
479.439	530.69
479.658	551.69
479.876	549.69
480.095	546.69
480.313	555.69
480.532	554.69
480.751	547.69
480.969	575.69
481.188	626.69
481.406	659.69
481.624	620.69
481.843	567.69
482.061	523.69
482.28	526.69
482.498	506.69
482.717	526.69
482.935	502.69
483.153	526.69
483.372	522.69
483.59	538.69
483.808	535.69
484.027	519.69
484.245	540.69
484.463	533.69
484.681	537.69
484.9	534.69
485.118	550.69
485.336	541.69
485.554	557.69
485.772	541.69
485.99	535.69
486.209	562.69
486.427	567.69
486.645	558.69
486.863	598.69
487.081	567.69
487.299	563.69
487.517	551.69
487.735	554.69
487.953	582.69
488.171	581.69
488.389	579.69
488.607	570.69
488.825	551.69
489.043	561.69
489.261	587.69
489.479	589.69
489.696	579.69
489.914	584.69
490.132	614.69
490.35	606.69
490.568	590.69
490.786	611.69
491.003	621.69
491.221	630.69
491.439	651.69
491.657	626.69
491.874	664.69
492.092	647.69
492.31	665.69
492.527	659.69
492.745	652.69
492.963	679.69
493.18	645.69
493.398	683.69
493.615	659.69
493.833	689.69
494.05	693.69
494.268	690.69
494.485	697.69
494.703	670.69
494.92	661.69
495.138	699.69
495.355	678.69
495.573	697.69
495.79	664.69
496.008	699.69
496.225	691.69
496.442	685.69
496.66	693.69
496.877	675.69
497.094	675.69
497.312	675.69
497.529	675.69
497.746	683.69
497.963	710.69
498.181	685.69
498.398	743.69
498.615	733.69
498.832	752.69
499.049	716.69
499.267	748.69
499.484	756.69
499.701	777.69
499.918	769.69
500.135	820.69
500.352	823.69
500.569	827.69
500.786	848.69
501.003	860.69
501.22	843.69
501.437	808.69
501.654	822.69
501.871	819.69
502.088	798.69
502.305	748.69
502.522	765.69
502.739	705.69
502.956	729.69
503.172	714.69
503.389	718.69
503.606	718.69
503.823	687.69
504.04	701.69
504.256	667.69
504.473	667.69
504.69	686.69
504.907	660.69
505.123	665.69
505.34	658.69
505.557	655.69
505.773	643.69
505.99	663.69
506.207	663.69
506.423	612.69
506.64	659.69
506.856	651.69
507.073	668.69
507.289	657.69
507.506	641.69
507.722	654.69
507.939	681.69
508.155	677.69
508.372	631.69
508.588	631.69
508.805	647.69
509.021	620.69
509.238	649.69
509.454	669.69
509.67	667.69
509.887	636.69
510.103	631.69
510.319	646.69
510.536	757.69
510.752	1337.69
510.968	1055.69
511.184	676.69
511.401	625.69
511.617	635.69
511.833	615.69
512.049	617.69
512.265	621.69
512.481	610.69
512.698	616.69
512.914	595.69
513.13	608.69
513.346	603.69
513.562	604.69
513.778	610.69
513.994	620.69
514.21	659.69
514.426	659.69
514.642	714.69
514.858	744.69
515.074	804.69
515.29	983.69
515.506	1499.69
515.721	1199.69
515.937	773.69
516.153	703.69
516.369	654.69
516.585	648.69
516.801	617.69
517.016	607.69
517.232	597.69
517.448	609.69
517.664	612.69
517.879	625.69
518.095	604.69
518.311	609.69
518.527	588.69
518.742	610.69
518.958	595.69
519.173	600.69
519.389	585.69
519.605	604.69
519.82	637.69
520.036	618.69
520.251	653.69
520.467	700.69
520.682	691.69
520.898	695.69
521.113	716.69
521.329	812.69
521.544	894.69
521.76	1187.69
521.975	2013.69
522.19	1977.69
522.406	1021.69
522.621	730.69
522.836	650.69
523.052	628.69
523.267	607.69
523.482	587.69
523.698	570.69
523.913	562.69
524.128	585.69
524.343	557.69
524.559	530.69
524.774	515.69
524.989	511.69
525.204	557.69
525.419	548.69
525.634	522.69
525.849	520.69
526.064	520.69
526.28	509.69
526.495	511.69
526.71	493.69
526.925	501.69
527.14	509.69
527.355	500.69
527.57	492.69
527.785	484.69
527.999	483.69
528.214	467.69
528.429	495.69
528.644	498.69
528.859	487.69
529.074	474.69
529.289	504.69
529.503	608.69
529.718	592.69
529.933	524.69
530.148	510.69
530.363	508.69
530.577	480.69
530.792	471.69
531.007	491.69
531.221	446.69
531.436	446.69
531.651	481.69
531.865	450.69
532.08	449.69
532.295	454.69
532.509	463.69
532.724	445.69
532.938	462.69
533.153	467.69
533.367	468.69
533.582	489.69
533.796	459.69
534.011	460.69
534.225	457.69
534.44	442.69
534.654	470.69
534.868	451.69
535.083	425.69
535.297	459.69
535.511	459.69
535.726	456.69
535.94	478.69
536.154	456.69
536.369	458.69
536.583	461.69
536.797	439.69
537.011	424.69
537.225	426.69
537.44	428.69
537.654	434.69
537.868	435.69
538.082	435.69
538.296	443.69
538.51	447.69
538.724	431.69
538.938	447.69
539.153	451.69
539.367	459.69
539.581	461.69
539.795	449.69
540.009	433.69
540.222	447.69
540.436	453.69
540.65	440.69
540.864	457.69
541.078	485.69
541.292	449.69
541.506	463.69
541.72	437.69
541.934	420.69
542.147	441.69
542.361	440.69
542.575	442.69
542.789	438.69
543.002	446.69
543.216	440.69
543.43	444.69
543.644	440.69
543.857	442.69
544.071	445.69
544.285	444.69
544.498	421.69
544.712	422.69
544.925	414.69
545.139	433.69
545.352	409.69
545.566	427.69
545.779	428.69
545.993	411.69
546.206	418.69
546.42	413.69
546.633	433.69
546.847	429.69
547.06	412.69
547.274	398.69
547.487	390.69
547.7	405.69
547.914	413.69
548.127	415.69
548.34	398.69
548.554	409.69
548.767	415.69
548.98	417.69
549.193	417.69
549.407	418.69
549.62	403.69
549.833	416.69
550.046	405.69
550.259	397.69
550.473	402.69
550.686	414.69
550.899	394.69
551.112	409.69
551.325	406.69
551.538	426.69
551.751	396.69
551.964	419.69
552.177	391.69
552.39	410.69
552.603	407.69
552.816	427.69
553.029	413.69
553.242	388.69
553.455	396.69
553.667	412.69
553.88	440.69
554.093	442.69
554.306	426.69
554.519	409.69
554.732	422.69
554.944	380.69
555.157	387.69
555.37	406.69
555.583	397.69
555.795	394.69
556.008	378.69
556.221	389.69
556.433	376.69
556.646	362.69
556.859	377.69
557.071	379.69
557.284	381.69
557.496	373.69
557.709	389.69
557.921	347.69
558.134	372.69
558.346	383.69
558.559	381.69
558.771	384.69
558.984	372.69
559.196	375.69
559.409	372.69
559.621	372.69
559.833	356.69
560.046	363.69
560.258	366.69
560.47	360.69
560.683	362.69
560.895	359.69
561.107	374.69
561.32	375.69
561.532	356.69
561.744	337.69
561.956	362.69
562.168	374.69
562.381	377.69
562.593	378.69
562.805	358.69
563.017	369.69
563.229	365.69
563.441	341.69
563.653	352.69
563.865	366.69
564.077	361.69
564.289	377.69
564.501	364.69
564.713	372.69
564.925	371.69
565.137	371.69
565.349	389.69
565.561	405.69
565.773	367.69
565.985	391.69
566.197	399.69
566.408	390.69
566.62	408.69
566.832	403.69
567.044	408.69
567.255	411.69
567.467	411.69
567.679	421.69
567.891	418.69
568.102	424.69
568.314	410.69
568.526	405.69
568.737	401.69
568.949	413.69
569.161	383.69
569.372	360.69
569.584	355.69
569.795	390.69
570.007	377.69
570.218	416.69
570.43	410.69
570.641	339.69
570.853	345.69
571.064	374.69
571.276	344.69
571.487	341.69
571.698	330.69
571.91	341.69
572.121	353.69
572.333	346.69
572.544	319.69
572.755	340.69
572.966	321.69
573.178	328.69
573.389	329.69
573.6	323.69
573.811	333.69
574.023	323.69
574.234	331.69
574.445	329.69
574.656	334.69
574.867	298.69
575.078	322.69
575.289	333.69
575.501	324.69
575.712	318.69
575.923	319.69
576.134	318.69
576.345	303.69
576.556	320.69
576.767	306.69
576.978	316.69
577.188	333.69
577.399	314.69
577.61	316.69
577.821	298.69
578.032	313.69
578.243	369.69
578.454	627.69
578.665	475.69
578.875	310.69
579.086	302.69
579.297	331.69
579.508	300.69
579.718	301.69
579.929	295.69
580.14	306.69
580.35	289.69
580.561	309.69
580.772	302.69
580.982	296.69
581.193	289.69
581.403	291.69
581.614	291.69
581.825	276.69
582.035	290.69
582.246	277.69
582.456	297.69
582.667	286.69
582.877	286.69
583.087	300.69
583.298	268.69
583.508	278.69
583.719	278.69
583.929	287.69
584.139	298.69
584.35	275.69
584.56	297.69
584.77	283.69
584.981	308.69
585.191	285.69
585.401	278.69
585.611	275.69
585.821	277.69
586.032	291.69
586.242	310.69
586.452	272.69
586.662	286.69
586.872	297.69
587.082	264.69
587.292	278.69
587.502	275.69
587.713	274.69
587.923	298.69
588.133	297.69
588.343	282.69
588.553	272.69
588.762	273.69
588.972	279.69
589.182	244.69
589.392	268.69
589.602	259.69
589.812	279.69
590.022	269.69
590.232	258.69
590.441	272.69
590.651	269.69
590.861	257.69
591.071	281.69
591.281	277.69
591.49	275.69
591.7	285.69
591.91	276.69
592.119	261.69
592.329	278.69
592.539	265.69
592.748	276.69
592.958	269.69
593.167	285.69
593.377	274.69
593.587	280.69
593.796	295.69
594.006	287.69
594.215	291.69
594.424	264.69
594.634	279.69
594.843	281.69
595.053	271.69
595.262	279.69
595.472	279.69
595.681	262.69
595.89	268.69
596.1	285.69
596.309	259.69
596.518	268.69
596.727	268.69
596.937	249.69
597.146	267.69
597.355	262.69
597.564	261.69
597.774	268.69
597.983	257.69
598.192	268.69
598.401	257.69
598.61	251.69
598.819	245.69
599.028	255.69
599.237	245.69
599.446	253.69
599.655	230.69
599.864	252.69
600.073	254.69
600.282	252.69
600.491	233.69
600.7	249.69
600.909	241.69
601.118	229.69
601.327	263.69
601.536	240.69
601.745	243.69
601.953	250.69
602.162	243.69
602.371	228.69
602.58	234.69
602.789	257.69
602.997	241.69
603.206	229.69
603.415	238.69
603.623	223.69
603.832	233.69
604.041	232.69
604.249	247.69
604.458	240.69
604.666	226.69
604.875	223.69
605.084	234.69
605.292	226.69
605.501	240.69
605.709	235.69
605.918	239.69
606.126	234.69
606.334	228.69
606.543	225.69
606.751	221.69
606.96	239.69
607.168	226.69
607.376	237.69
607.585	229.69
607.793	241.69
608.001	248.69
608.21	215.69
608.418	233.69
608.626	225.69
608.834	233.69
609.043	229.69
609.251	219.69
609.459	229.69
609.667	231.69
609.875	225.69
610.083	235.69
610.291	236.69
610.499	235.69
610.707	241.69
610.916	244.69
611.124	221.69
611.332	253.69
611.54	238.69
611.748	233.69
611.955	214.69
612.163	231.69
612.371	232.69
612.579	234.69
612.787	224.69
612.995	233.69
613.203	235.69
613.411	221.69
613.618	219.69
613.826	216.69
614.034	230.69
614.242	217.69
614.449	221.69
614.657	225.69
614.865	252.69
615.072	233.69
615.28	210.69
615.488	221.69
615.695	231.69
615.903	219.69
616.111	220.69
616.318	221.69
616.526	227.69
616.733	229.69
616.941	226.69
617.148	213.69
617.356	220.69
617.563	231.69
617.771	211.69
617.978	215.69
618.185	224.69
618.393	216.69
618.6	226.69
618.807	224.69
619.015	213.69
619.222	224.69
619.429	213.69
619.637	219.69
619.844	196.69
620.051	211.69
620.258	215.69
620.466	215.69
620.673	213.69
620.88	207.69
621.087	218.69
621.294	206.69
621.501	195.69
621.708	217.69
621.915	217.69
622.122	216.69
622.329	206.69
622.536	219.69
622.743	224.69
622.95	206.69
623.157	210.69
623.364	211.69
623.571	196.69
623.778	204.69
623.985	203.69
624.192	212.69
624.399	211.69
624.606	206.69
624.812	209.69
625.019	197.69
625.226	199.69
625.433	192.69
625.639	207.69
625.846	181.69
626.053	191.69
626.259	196.69
626.466	201.69
626.673	198.69
626.879	187.69
627.086	186.69
627.293	194.69
627.499	207.69
627.706	197.69
627.912	201.69
628.119	185.69
628.325	195.69
628.532	167.69
628.738	214.69
628.945	197.69
629.151	198.69
629.357	190.69
629.564	182.69
629.77	207.69
629.976	189.69
630.183	183.69
630.389	204.69
630.595	193.69
630.802	197.69
631.008	173.69
631.214	187.69
631.42	192.69
631.627	182.69
631.833	177.69
632.039	162.69
632.245	181.69
632.451	177.69
632.657	181.69
632.863	192.69
633.069	166.69
633.275	166.69
633.481	194.69
633.688	191.69
633.893	183.69
634.099	178.69
634.305	180.69
634.511	167.69
634.717	149.69
634.923	173.69
635.129	186.69
635.335	193.69
635.541	181.69
635.747	190.69
635.952	181.69
636.158	157.69
636.364	177.69
636.57	170.69
636.775	187.69
636.981	182.69
637.187	189.69
637.392	179.69
637.598	167.69
637.804	167.69
638.009	181.69
638.215	174.69
638.421	161.69
638.626	159.69
638.832	169.69
639.037	167.69
639.243	181.69
639.448	180.69
639.654	154.69
639.859	165.69
640.065	171.69
640.27	185.69
640.475	165.69
640.681	161.69
640.886	161.69
641.091	182.69
641.297	164.69
641.502	171.69
641.707	163.69
641.913	154.69
642.118	158.69
642.323	163.69
642.528	172.69
642.733	167.69
642.939	165.69
643.144	150.69
643.349	165.69
643.554	171.69
643.759	154.69
643.964	161.69
644.169	154.69
644.374	152.69
644.579	151.69
644.784	174.69
644.989	163.69
645.194	163.69
645.399	170.69
645.604	146.69
645.809	154.69
646.014	165.69
646.219	161.69
646.423	158.69
646.628	150.69
646.833	158.69
647.038	150.69
647.243	167.69
647.447	174.69
647.652	155.69
647.857	153.69
648.062	165.69
648.266	160.69
648.471	149.69
648.676	153.69
648.88	150.69
649.085	157.69
649.289	158.69
649.494	174.69
649.698	184.69
649.903	180.69
650.107	163.69
650.312	162.69
650.516	144.69
650.721	147.69
650.925	151.69
651.13	152.69
651.334	142.69
651.539	137.69
651.743	144.69
651.947	151.69
652.152	141.69
652.356	141.69
652.56	146.69
652.764	142.69
652.969	140.69
653.173	141.69
653.377	143.69
653.581	139.69
653.785	133.69
653.99	137.69
654.194	128.69
654.398	137.69
654.602	126.69
654.806	130.69
655.01	141.69
655.214	165.69
655.418	136.69
655.622	122.69
655.826	125.69
656.03	128.69
656.234	124.69
656.438	131.69
656.642	131.69
656.846	125.69
657.049	127.69
657.253	137.69
657.457	129.69
657.661	122.69
657.865	105.69
658.068	104.69
658.272	111.69
658.476	104.69
658.68	89.69
658.883	95.69
659.087	118.69
659.291	105.69
659.494	89.69
659.698	94.69
659.901	93.69
660.105	101.69
660.309	92.69
660.512	93.69
660.716	104.69
660.919	100.69
661.123	85.69
661.326	79.69
661.53	92.69
661.733	79.69
661.936	88.69
662.14	73.69
662.343	97.69
662.546	88.69
662.75	93.69
662.953	89.69
663.156	74.69
663.36	81.69
663.563	84.69
663.766	90.69
663.969	82.69
664.173	79.69
664.376	76.69
664.579	80.69
664.782	85.69
664.985	82.69
665.188	97.69
665.391	74.69
665.594	97.69
665.797	84.69
666	92.69
666.203	82.69
666.406	74.69
666.609	82.69
666.812	91.69
667.015	85.69
667.218	85.69
667.421	83.69
667.624	72.69
667.827	76.69
668.03	81.69
668.232	85.69
668.435	86.69
668.638	86.69
668.841	79.69
669.043	73.69
669.246	71.69
669.449	93.69
669.651	84.69
669.854	100.69
670.057	86.69
670.259	79.69
670.462	73.69
670.665	87.69
670.867	66.69
671.07	79.69
671.272	80.69
671.475	85.69
671.677	87.69
671.88	84.69
672.082	84.69
672.284	89.69
672.487	92.69
672.689	78.69
672.892	77.69
