Data from 1980.PennyLincolnUp.Lamp.En5.5.200Scan.071819.P1_HRD10591_16-38-14-957.txt Node
Date: Thu Jul 18 16:38:14 EDT 2019
User: cochatt
Spectrometer: HR+D1059
Trigger mode: 1
Integration Time (sec): 1.000000E-1
Scans to average: 1
Electric dark correction enabled: true
Nonlinearity correction enabled: false
Boxcar width: 0
XAxis mode: Wavelengths
Number of Pixels in Spectrum: 2048
>>>>>Begin Spectral Data<<<<<
223.165	-8.31
223.4	-8.31
223.635	-8.31
223.869	-22.31
224.104	-18.31
224.338	-15.31
224.573	-12.31
224.808	-11.31
225.042	-12.31
225.277	-11.31
225.511	-6.31
225.746	-1.31
225.98	-2.31
226.215	10.69
226.449	11.69
226.683	25.69
226.918	34.69
227.152	38.69
227.387	45.69
227.621	57.69
227.856	50.69
228.09	51.69
228.324	32.69
228.559	54.69
228.793	72.69
229.027	96.69
229.262	104.69
229.496	124.69
229.73	142.69
229.964	171.69
230.199	155.69
230.433	126.69
230.667	123.69
230.901	127.69
231.136	98.69
231.37	120.69
231.604	121.69
231.838	112.69
232.072	117.69
232.306	103.69
232.541	120.69
232.775	124.69
233.009	131.69
233.243	110.69
233.477	113.69
233.711	114.69
233.945	126.69
234.179	109.69
234.413	114.69
234.647	118.69
234.881	112.69
235.115	117.69
235.349	128.69
235.583	130.69
235.817	129.69
236.051	143.69
236.285	128.69
236.519	121.69
236.753	134.69
236.987	171.69
237.221	192.69
237.455	266.69
237.689	211.69
237.922	150.69
238.156	143.69
238.39	139.69
238.624	132.69
238.858	121.69
239.091	114.69
239.325	125.69
239.559	124.69
239.793	137.69
240.027	138.69
240.26	154.69
240.494	151.69
240.728	157.69
240.961	142.69
241.195	152.69
241.429	134.69
241.662	123.69
241.896	130.69
242.13	132.69
242.363	153.69
242.597	130.69
242.83	152.69
243.064	144.69
243.298	126.69
243.531	147.69
243.765	153.69
243.998	132.69
244.232	142.69
244.465	139.69
244.699	159.69
244.932	151.69
245.166	167.69
245.399	156.69
245.633	147.69
245.866	150.69
246.099	136.69
246.333	148.69
246.566	162.69
246.8	142.69
247.033	144.69
247.266	166.69
247.5	171.69
247.733	174.69
247.966	175.69
248.2	175.69
248.433	174.69
248.666	182.69
248.899	189.69
249.133	198.69
249.366	214.69
249.599	195.69
249.832	211.69
250.066	199.69
250.299	188.69
250.532	190.69
250.765	205.69
250.998	221.69
251.231	248.69
251.465	227.69
251.698	219.69
251.931	216.69
252.164	196.69
252.397	208.69
252.63	210.69
252.863	212.69
253.096	225.69
253.329	249.69
253.562	231.69
253.795	219.69
254.028	222.69
254.261	220.69
254.494	242.69
254.727	258.69
254.96	291.69
255.193	288.69
255.426	247.69
255.659	262.69
255.892	255.69
256.124	255.69
256.357	242.69
256.59	244.69
256.823	227.69
257.056	218.69
257.289	239.69
257.521	221.69
257.754	214.69
257.987	223.69
258.22	222.69
258.452	219.69
258.685	204.69
258.918	218.69
259.151	214.69
259.383	223.69
259.616	244.69
259.849	242.69
260.081	255.69
260.314	280.69
260.547	283.69
260.779	272.69
261.012	248.69
261.244	247.69
261.477	219.69
261.71	223.69
261.942	249.69
262.175	248.69
262.407	244.69
262.64	213.69
262.872	228.69
263.105	211.69
263.337	212.69
263.57	203.69
263.802	208.69
264.035	222.69
264.267	200.69
264.499	192.69
264.732	207.69
264.964	194.69
265.197	218.69
265.429	215.69
265.661	203.69
265.894	221.69
266.126	217.69
266.358	188.69
266.591	236.69
266.823	212.69
267.055	223.69
267.287	236.69
267.52	228.69
267.752	227.69
267.984	222.69
268.216	224.69
268.448	227.69
268.681	221.69
268.913	270.69
269.145	262.69
269.377	268.69
269.609	279.69
269.841	273.69
270.073	273.69
270.306	291.69
270.538	318.69
270.77	320.69
271.002	319.69
271.234	291.69
271.466	314.69
271.698	313.69
271.93	331.69
272.162	333.69
272.394	329.69
272.626	315.69
272.858	297.69
273.09	296.69
273.322	279.69
273.553	278.69
273.785	278.69
274.017	267.69
274.249	264.69
274.481	281.69
274.713	262.69
274.945	277.69
275.176	269.69
275.408	261.69
275.64	270.69
275.872	277.69
276.104	268.69
276.335	278.69
276.567	286.69
276.799	296.69
277.031	313.69
277.262	313.69
277.494	329.69
277.726	299.69
277.957	287.69
278.189	282.69
278.421	292.69
278.652	263.69
278.884	266.69
279.115	262.69
279.347	266.69
279.579	262.69
279.81	225.69
280.042	263.69
280.273	258.69
280.505	268.69
280.736	265.69
280.968	260.69
281.199	269.69
281.431	252.69
281.662	258.69
281.894	279.69
282.125	283.69
282.356	282.69
282.588	312.69
282.819	323.69
283.051	275.69
283.282	272.69
283.513	267.69
283.745	272.69
283.976	267.69
284.207	254.69
284.439	266.69
284.67	280.69
284.901	273.69
285.132	262.69
285.364	264.69
285.595	268.69
285.826	258.69
286.057	271.69
286.288	272.69
286.52	261.69
286.751	255.69
286.982	253.69
287.213	267.69
287.444	266.69
287.675	269.69
287.906	291.69
288.138	285.69
288.369	286.69
288.6	300.69
288.831	278.69
289.062	271.69
289.293	284.69
289.524	271.69
289.755	260.69
289.986	283.69
290.217	291.69
290.448	282.69
290.679	269.69
290.91	272.69
291.141	268.69
291.371	266.69
291.602	264.69
291.833	265.69
292.064	271.69
292.295	274.69
292.526	290.69
292.757	281.69
292.987	259.69
293.218	271.69
293.449	270.69
293.68	277.69
293.91	288.69
294.141	275.69
294.372	261.69
294.603	283.69
294.833	299.69
295.064	270.69
295.295	282.69
295.525	272.69
295.756	287.69
295.987	290.69
296.217	309.69
296.448	337.69
296.679	304.69
296.909	285.69
297.14	295.69
297.37	282.69
297.601	285.69
297.831	281.69
298.062	289.69
298.292	265.69
298.523	285.69
298.753	278.69
298.984	284.69
299.214	276.69
299.445	282.69
299.675	295.69
299.905	305.69
300.136	296.69
300.366	283.69
300.597	285.69
300.827	296.69
301.057	306.69
301.288	298.69
301.518	318.69
301.748	288.69
301.979	291.69
302.209	309.69
302.439	314.69
302.669	301.69
302.9	302.69
303.13	311.69
303.36	313.69
303.59	308.69
303.82	349.69
304.051	330.69
304.281	306.69
304.511	304.69
304.741	309.69
304.971	287.69
305.201	284.69
305.431	304.69
305.661	299.69
305.891	307.69
306.121	311.69
306.352	318.69
306.582	325.69
306.812	296.69
307.042	322.69
307.272	327.69
307.502	306.69
307.731	351.69
307.961	305.69
308.191	311.69
308.421	326.69
308.651	320.69
308.881	325.69
309.111	318.69
309.341	325.69
309.571	347.69
309.8	351.69
310.03	348.69
310.26	357.69
310.49	374.69
310.72	373.69
310.949	398.69
311.179	389.69
311.409	379.69
311.639	351.69
311.868	359.69
312.098	369.69
312.328	386.69
312.557	404.69
312.787	404.69
313.017	411.69
313.246	394.69
313.476	374.69
313.706	367.69
313.935	370.69
314.165	392.69
314.394	390.69
314.624	406.69
314.853	386.69
315.083	365.69
315.312	368.69
315.542	378.69
315.771	350.69
316.001	339.69
316.23	338.69
316.46	357.69
316.689	348.69
316.919	362.69
317.148	372.69
317.377	380.69
317.607	394.69
317.836	386.69
318.065	376.69
318.295	356.69
318.524	348.69
318.753	339.69
318.983	363.69
319.212	372.69
319.441	382.69
319.67	371.69
319.9	350.69
320.129	342.69
320.358	371.69
320.587	381.69
320.816	365.69
321.046	382.69
321.275	387.69
321.504	406.69
321.733	400.69
321.962	404.69
322.191	415.69
322.42	425.69
322.649	433.69
322.878	459.69
323.108	474.69
323.337	500.69
323.566	540.69
323.795	572.69
324.024	596.69
324.253	748.69
324.482	1109.69
324.71	1716.69
324.939	2458.69
325.168	2108.69
325.397	1141.69
325.626	723.69
325.855	597.69
326.084	557.69
326.313	523.69
326.542	563.69
326.77	587.69
326.999	668.69
327.228	973.69
327.457	1488.69
327.686	1807.69
327.914	1270.69
328.143	814.69
328.372	700.69
328.6	654.69
328.829	597.69
329.058	608.69
329.287	645.69
329.515	602.69
329.744	552.69
329.972	536.69
330.201	574.69
330.43	614.69
330.658	665.69
330.887	687.69
331.115	661.69
331.344	574.69
331.572	518.69
331.801	483.69
332.03	490.69
332.258	469.69
332.486	455.69
332.715	452.69
332.943	427.69
333.172	434.69
333.4	420.69
333.629	439.69
333.857	471.69
334.085	462.69
334.314	484.69
334.542	532.69
334.771	533.69
334.999	496.69
335.227	451.69
335.455	447.69
335.684	424.69
335.912	423.69
336.14	421.69
336.369	396.69
336.597	415.69
336.825	419.69
337.053	416.69
337.281	408.69
337.51	428.69
337.738	414.69
337.966	390.69
338.194	424.69
338.422	404.69
338.65	419.69
338.878	411.69
339.106	395.69
339.334	416.69
339.562	399.69
339.79	404.69
340.018	396.69
340.246	401.69
340.474	408.69
340.702	415.69
340.93	404.69
341.158	395.69
341.386	422.69
341.614	421.69
341.842	419.69
342.07	391.69
342.298	399.69
342.526	382.69
342.754	384.69
342.981	389.69
343.209	383.69
343.437	387.69
343.665	392.69
343.893	375.69
344.12	392.69
344.348	411.69
344.576	408.69
344.804	409.69
345.031	446.69
345.259	444.69
345.487	433.69
345.714	410.69
345.942	398.69
346.17	391.69
346.397	400.69
346.625	396.69
346.853	366.69
347.08	398.69
347.308	419.69
347.535	399.69
347.763	425.69
347.99	416.69
348.218	419.69
348.445	439.69
348.673	425.69
348.9	399.69
349.128	397.69
349.355	394.69
349.583	372.69
349.81	382.69
350.037	380.69
350.265	382.69
350.492	384.69
350.72	390.69
350.947	390.69
351.174	410.69
351.402	378.69
351.629	409.69
351.856	412.69
352.083	409.69
352.311	422.69
352.538	440.69
352.765	423.69
352.992	401.69
353.22	395.69
353.447	412.69
353.674	404.69
353.901	365.69
354.128	369.69
354.355	381.69
354.583	384.69
354.81	367.69
355.037	354.69
355.264	355.69
355.491	366.69
355.718	349.69
355.945	357.69
356.172	351.69
356.399	357.69
356.626	346.69
356.853	346.69
357.08	371.69
357.307	359.69
357.534	362.69
357.761	364.69
357.988	351.69
358.215	372.69
358.441	367.69
358.668	363.69
358.895	371.69
359.122	378.69
359.349	390.69
359.576	408.69
359.802	418.69
360.029	457.69
360.256	468.69
360.483	431.69
360.709	403.69
360.936	420.69
361.163	400.69
361.39	396.69
361.616	407.69
361.843	378.69
362.07	405.69
362.296	419.69
362.523	394.69
362.749	392.69
362.976	399.69
363.203	390.69
363.429	382.69
363.656	365.69
363.882	386.69
364.109	357.69
364.335	376.69
364.562	384.69
364.788	373.69
365.015	381.69
365.241	376.69
365.468	388.69
365.694	367.69
365.92	384.69
366.147	355.69
366.373	386.69
366.599	374.69
366.826	365.69
367.052	372.69
367.278	360.69
367.505	370.69
367.731	358.69
367.957	370.69
368.184	382.69
368.41	379.69
368.636	377.69
368.862	404.69
369.089	380.69
369.315	378.69
369.541	366.69
369.767	374.69
369.993	366.69
370.219	370.69
370.445	360.69
370.672	367.69
370.898	365.69
371.124	347.69
371.35	360.69
371.576	338.69
371.802	357.69
372.028	349.69
372.254	355.69
372.48	349.69
372.706	367.69
372.932	377.69
373.158	361.69
373.384	370.69
373.61	366.69
373.835	382.69
374.061	364.69
374.287	353.69
374.513	367.69
374.739	345.69
374.965	376.69
375.191	387.69
375.416	373.69
375.642	381.69
375.868	356.69
376.094	372.69
376.319	373.69
376.545	361.69
376.771	365.69
376.997	356.69
377.222	358.69
377.448	357.69
377.674	367.69
377.899	357.69
378.125	367.69
378.35	355.69
378.576	362.69
378.802	352.69
379.027	346.69
379.253	355.69
379.478	354.69
379.704	350.69
379.929	357.69
380.155	344.69
380.38	348.69
380.606	371.69
380.831	349.69
381.057	380.69
381.282	363.69
381.507	357.69
381.733	353.69
381.958	373.69
382.184	360.69
382.409	368.69
382.634	377.69
382.86	358.69
383.085	367.69
383.31	362.69
383.535	354.69
383.761	355.69
383.986	367.69
384.211	370.69
384.436	391.69
384.662	392.69
384.887	375.69
385.112	394.69
385.337	374.69
385.562	374.69
385.787	399.69
386.013	409.69
386.238	390.69
386.463	390.69
386.688	376.69
386.913	394.69
387.138	384.69
387.363	359.69
387.588	380.69
387.813	381.69
388.038	376.69
388.263	415.69
388.488	390.69
388.713	390.69
388.938	389.69
389.163	386.69
389.387	382.69
389.612	382.69
389.837	381.69
390.062	381.69
390.287	361.69
390.512	373.69
390.736	386.69
390.961	386.69
391.186	372.69
391.411	372.69
391.636	385.69
391.86	400.69
392.085	378.69
392.31	366.69
392.534	384.69
392.759	377.69
392.984	366.69
393.208	374.69
393.433	390.69
393.658	370.69
393.882	375.69
394.107	381.69
394.331	383.69
394.556	374.69
394.78	364.69
395.005	384.69
395.229	361.69
395.454	392.69
395.678	404.69
395.903	409.69
396.127	438.69
396.352	448.69
396.576	407.69
396.801	380.69
397.025	384.69
397.249	393.69
397.474	387.69
397.698	400.69
397.922	432.69
398.147	428.69
398.371	444.69
398.595	415.69
398.82	434.69
399.044	451.69
399.268	431.69
399.492	455.69
399.717	479.69
399.941	512.69
400.165	511.69
400.389	539.69
400.613	478.69
400.837	477.69
401.062	455.69
401.286	426.69
401.51	440.69
401.734	449.69
401.958	427.69
402.182	449.69
402.406	454.69
402.63	446.69
402.854	459.69
403.078	444.69
403.302	451.69
403.526	445.69
403.75	445.69
403.974	460.69
404.198	441.69
404.422	458.69
404.645	458.69
404.869	462.69
405.093	486.69
405.317	536.69
405.541	557.69
405.765	532.69
405.988	479.69
406.212	494.69
406.436	515.69
406.66	522.69
406.883	511.69
407.107	507.69
407.331	585.69
407.555	622.69
407.778	608.69
408.002	536.69
408.226	508.69
408.449	528.69
408.673	511.69
408.896	550.69
409.12	574.69
409.344	544.69
409.567	491.69
409.791	474.69
410.014	465.69
410.238	440.69
410.461	458.69
410.685	468.69
410.908	481.69
411.132	512.69
411.355	550.69
411.578	519.69
411.802	462.69
412.025	456.69
412.249	472.69
412.472	483.69
412.695	519.69
412.919	526.69
413.142	472.69
413.365	462.69
413.589	418.69
413.812	467.69
414.035	444.69
414.258	428.69
414.482	421.69
414.705	421.69
414.928	406.69
415.151	422.69
415.374	432.69
415.597	435.69
415.821	422.69
416.044	425.69
416.267	439.69
416.49	429.69
416.713	439.69
416.936	428.69
417.159	423.69
417.382	452.69
417.605	443.69
417.828	462.69
418.051	464.69
418.274	461.69
418.497	434.69
418.72	440.69
418.943	426.69
419.166	434.69
419.389	456.69
419.611	446.69
419.834	439.69
420.057	472.69
420.28	476.69
420.503	439.69
420.726	468.69
420.948	458.69
421.171	516.69
421.394	538.69
421.617	510.69
421.839	474.69
422.062	476.69
422.285	491.69
422.507	537.69
422.73	617.69
422.953	564.69
423.175	509.69
423.398	511.69
423.621	479.69
423.843	514.69
424.066	489.69
424.288	506.69
424.511	502.69
424.733	577.69
424.956	676.69
425.178	666.69
425.401	617.69
425.623	664.69
425.846	560.69
426.068	530.69
426.291	518.69
426.513	515.69
426.735	550.69
426.958	554.69
427.18	666.69
427.402	774.69
427.625	862.69
427.847	807.69
428.069	677.69
428.292	569.69
428.514	523.69
428.736	503.69
428.958	491.69
429.181	496.69
429.403	490.69
429.625	484.69
429.847	537.69
430.069	597.69
430.292	583.69
430.514	501.69
430.736	458.69
430.958	472.69
431.18	446.69
431.402	457.69
431.624	412.69
431.846	451.69
432.068	429.69
432.29	457.69
432.512	448.69
432.734	442.69
432.956	442.69
433.178	474.69
433.4	488.69
433.622	441.69
433.844	445.69
434.066	452.69
434.287	443.69
434.509	446.69
434.731	451.69
434.953	458.69
435.175	464.69
435.397	519.69
435.618	539.69
435.84	575.69
436.062	639.69
436.284	704.69
436.505	611.69
436.727	541.69
436.949	502.69
437.17	479.69
437.392	473.69
437.614	463.69
437.835	527.69
438.057	641.69
438.278	736.69
438.5	730.69
438.721	792.69
438.943	783.69
439.165	619.69
439.386	545.69
439.608	535.69
439.829	531.69
440.05	581.69
440.272	613.69
440.493	598.69
440.715	517.69
440.936	487.69
441.158	480.69
441.379	492.69
441.6	485.69
441.822	509.69
442.043	596.69
442.264	639.69
442.486	710.69
442.707	582.69
442.928	552.69
443.149	553.69
443.371	573.69
443.592	607.69
443.813	686.69
444.034	727.69
444.255	640.69
444.476	532.69
444.698	514.69
444.919	520.69
445.14	583.69
445.361	576.69
445.582	564.69
445.803	640.69
446.024	730.69
446.245	759.69
446.466	675.69
446.687	568.69
446.908	518.69
447.129	510.69
447.35	505.69
447.571	472.69
447.792	460.69
448.013	495.69
448.234	538.69
448.455	559.69
448.675	670.69
448.896	778.69
449.117	660.69
449.338	611.69
449.559	718.69
449.779	804.69
450	682.69
450.221	542.69
450.442	518.69
450.662	477.69
450.883	485.69
451.104	500.69
451.324	500.69
451.545	477.69
451.766	452.69
451.986	431.69
452.207	428.69
452.428	431.69
452.648	425.69
452.869	443.69
453.089	461.69
453.31	439.69
453.53	448.69
453.751	442.69
453.971	429.69
454.192	475.69
454.412	458.69
454.633	442.69
454.853	429.69
455.073	426.69
455.294	456.69
455.514	535.69
455.734	512.69
455.955	443.69
456.175	429.69
456.395	398.69
456.616	396.69
456.836	407.69
457.056	410.69
457.276	400.69
457.497	416.69
457.717	425.69
457.937	420.69
458.157	429.69
458.377	405.69
458.598	426.69
458.818	540.69
459.038	610.69
459.258	610.69
459.478	519.69
459.698	469.69
459.918	430.69
460.138	419.69
460.358	433.69
460.578	440.69
460.798	448.69
461.018	438.69
461.238	442.69
461.458	448.69
461.678	415.69
461.898	416.69
462.118	446.69
462.338	428.69
462.558	427.69
462.777	428.69
462.997	443.69
463.217	452.69
463.437	464.69
463.657	438.69
463.876	452.69
464.096	456.69
464.316	462.69
464.536	467.69
464.755	457.69
464.975	485.69
465.195	527.69
465.414	644.69
465.634	566.69
465.854	500.69
466.073	469.69
466.293	454.69
466.512	437.69
466.732	421.69
466.951	427.69
467.171	419.69
467.391	443.69
467.61	428.69
467.829	459.69
468.049	450.69
468.268	462.69
468.488	430.69
468.707	436.69
468.927	427.69
469.146	414.69
469.365	401.69
469.585	415.69
469.804	432.69
470.023	463.69
470.243	441.69
470.462	454.69
470.681	470.69
470.901	467.69
471.12	449.69
471.339	417.69
471.558	442.69
471.777	434.69
471.997	431.69
472.216	444.69
472.435	485.69
472.654	498.69
472.873	442.69
473.092	438.69
473.311	443.69
473.53	451.69
473.749	456.69
473.968	498.69
474.187	609.69
474.406	646.69
474.625	532.69
474.844	473.69
475.063	458.69
475.282	447.69
475.501	452.69
475.72	440.69
475.939	453.69
476.158	458.69
476.377	445.69
476.596	439.69
476.814	478.69
477.033	459.69
477.252	465.69
477.471	450.69
477.69	473.69
477.908	454.69
478.127	463.69
478.346	461.69
478.564	482.69
478.783	484.69
479.002	485.69
479.22	502.69
479.439	505.69
479.658	541.69
479.876	540.69
480.095	526.69
480.313	555.69
480.532	548.69
480.751	543.69
480.969	543.69
481.188	619.69
481.406	686.69
481.624	590.69
481.843	549.69
482.061	522.69
482.28	558.69
482.498	549.69
482.717	528.69
482.935	522.69
483.153	519.69
483.372	531.69
483.59	523.69
483.808	516.69
484.027	522.69
484.245	518.69
484.463	529.69
484.681	537.69
484.9	533.69
485.118	509.69
485.336	536.69
485.554	548.69
485.772	530.69
485.99	530.69
486.209	554.69
486.427	547.69
486.645	543.69
486.863	575.69
487.081	558.69
487.299	564.69
487.517	574.69
487.735	574.69
487.953	576.69
488.171	563.69
488.389	584.69
488.607	590.69
488.825	562.69
489.043	547.69
489.261	598.69
489.479	590.69
489.696	576.69
489.914	570.69
490.132	581.69
490.35	586.69
490.568	593.69
490.786	630.69
491.003	633.69
491.221	607.69
491.439	644.69
491.657	654.69
491.874	644.69
492.092	670.69
492.31	685.69
492.527	671.69
492.745	692.69
492.963	674.69
493.18	671.69
493.398	685.69
493.615	675.69
493.833	671.69
494.05	684.69
494.268	693.69
494.485	668.69
494.703	673.69
494.92	678.69
495.138	676.69
495.355	687.69
495.573	666.69
495.79	673.69
496.008	676.69
496.225	667.69
496.442	678.69
496.66	670.69
496.877	674.69
497.094	686.69
497.312	683.69
497.529	684.69
497.746	690.69
497.963	701.69
498.181	708.69
498.398	722.69
498.615	714.69
498.832	717.69
499.049	763.69
499.267	723.69
499.484	737.69
499.701	764.69
499.918	786.69
500.135	790.69
500.352	840.69
500.569	816.69
500.786	815.69
501.003	836.69
501.22	830.69
501.437	833.69
501.654	820.69
501.871	842.69
502.088	794.69
502.305	754.69
502.522	733.69
502.739	712.69
502.956	691.69
503.172	718.69
503.389	688.69
503.606	727.69
503.823	718.69
504.04	686.69
504.256	694.69
504.473	690.69
504.69	663.69
504.907	678.69
505.123	676.69
505.34	672.69
505.557	645.69
505.773	669.69
505.99	642.69
506.207	661.69
506.423	674.69
506.64	642.69
506.856	643.69
507.073	653.69
507.289	657.69
507.506	641.69
507.722	656.69
507.939	671.69
508.155	667.69
508.372	628.69
508.588	612.69
508.805	632.69
509.021	641.69
509.238	660.69
509.454	640.69
509.67	646.69
509.887	614.69
510.103	636.69
510.319	655.69
510.536	799.69
510.752	1350.69
510.968	1099.69
511.184	676.69
511.401	640.69
511.617	632.69
511.833	603.69
512.049	625.69
512.265	612.69
512.481	612.69
512.698	584.69
512.914	617.69
513.13	600.69
513.346	611.69
513.562	622.69
513.778	637.69
513.994	630.69
514.21	635.69
514.426	661.69
514.642	728.69
514.858	726.69
515.074	808.69
515.29	1008.69
515.506	1536.69
515.721	1222.69
515.937	784.69
516.153	692.69
516.369	666.69
516.585	646.69
516.801	629.69
517.016	634.69
517.232	612.69
517.448	638.69
517.664	625.69
517.879	611.69
518.095	622.69
518.311	600.69
518.527	607.69
518.742	607.69
518.958	592.69
519.173	578.69
519.389	598.69
519.605	620.69
519.82	636.69
520.036	600.69
520.251	640.69
520.467	704.69
520.682	696.69
520.898	690.69
521.113	735.69
521.329	794.69
521.544	928.69
521.76	1182.69
521.975	2084.69
522.19	2042.69
522.406	1069.69
522.621	768.69
522.836	688.69
523.052	637.69
523.267	605.69
523.482	582.69
523.698	571.69
523.913	588.69
524.128	554.69
524.343	556.69
524.559	532.69
524.774	532.69
524.989	515.69
525.204	540.69
525.419	544.69
525.634	526.69
525.849	498.69
526.064	510.69
526.28	490.69
526.495	494.69
526.71	497.69
526.925	491.69
527.14	488.69
527.355	487.69
527.57	484.69
527.785	485.69
527.999	481.69
528.214	477.69
528.429	465.69
528.644	479.69
528.859	470.69
529.074	485.69
529.289	521.69
529.503	624.69
529.718	595.69
529.933	546.69
530.148	493.69
530.363	494.69
530.577	475.69
530.792	480.69
531.007	463.69
531.221	485.69
531.436	467.69
531.651	458.69
531.865	441.69
532.08	444.69
532.295	461.69
532.509	435.69
532.724	462.69
532.938	474.69
533.153	467.69
533.367	426.69
533.582	451.69
533.796	470.69
534.011	452.69
534.225	439.69
534.44	425.69
534.654	464.69
534.868	440.69
535.083	427.69
535.297	428.69
535.511	454.69
535.726	466.69
535.94	471.69
536.154	477.69
536.369	435.69
536.583	460.69
536.797	453.69
537.011	425.69
537.225	454.69
537.44	442.69
537.654	425.69
537.868	429.69
538.082	443.69
538.296	450.69
538.51	443.69
538.724	462.69
538.938	440.69
539.153	450.69
539.367	454.69
539.581	448.69
539.795	454.69
540.009	454.69
540.222	446.69
540.436	458.69
540.65	438.69
540.864	445.69
541.078	453.69
541.292	453.69
541.506	459.69
541.72	420.69
541.934	434.69
542.147	441.69
542.361	427.69
542.575	413.69
542.789	417.69
543.002	435.69
543.216	437.69
543.43	445.69
543.644	438.69
543.857	422.69
544.071	438.69
544.285	445.69
544.498	418.69
544.712	411.69
544.925	420.69
545.139	420.69
545.352	406.69
545.566	408.69
545.779	425.69
545.993	427.69
546.206	418.69
546.42	420.69
546.633	446.69
546.847	402.69
547.06	404.69
547.274	412.69
547.487	391.69
547.7	393.69
547.914	392.69
548.127	418.69
548.34	393.69
548.554	405.69
548.767	412.69
548.98	405.69
549.193	396.69
549.407	399.69
549.62	423.69
549.833	411.69
550.046	391.69
550.259	395.69
550.473	388.69
550.686	381.69
550.899	398.69
551.112	397.69
551.325	399.69
551.538	407.69
551.751	383.69
551.964	378.69
552.177	397.69
552.39	381.69
552.603	418.69
552.816	396.69
553.029	419.69
553.242	424.69
553.455	396.69
553.667	411.69
553.88	444.69
554.093	422.69
554.306	425.69
554.519	421.69
554.732	413.69
554.944	410.69
555.157	390.69
555.37	388.69
555.583	400.69
555.795	390.69
556.008	369.69
556.221	386.69
556.433	383.69
556.646	388.69
556.859	377.69
557.071	378.69
557.284	367.69
557.496	367.69
557.709	379.69
557.921	364.69
558.134	358.69
558.346	358.69
558.559	360.69
558.771	342.69
558.984	359.69
559.196	363.69
559.409	356.69
559.621	355.69
559.833	357.69
560.046	371.69
560.258	350.69
560.47	374.69
560.683	344.69
560.895	355.69
561.107	375.69
561.32	348.69
561.532	346.69
561.744	362.69
561.956	350.69
562.168	361.69
562.381	337.69
562.593	361.69
562.805	367.69
563.017	382.69
563.229	364.69
563.441	372.69
563.653	362.69
563.865	363.69
564.077	380.69
564.289	382.69
564.501	364.69
564.713	382.69
564.925	369.69
565.137	382.69
565.349	387.69
565.561	374.69
565.773	363.69
565.985	382.69
566.197	384.69
566.408	384.69
566.62	384.69
566.832	410.69
567.044	389.69
567.255	410.69
567.467	402.69
567.679	405.69
567.891	395.69
568.102	390.69
568.314	397.69
568.526	399.69
568.737	384.69
568.949	386.69
569.161	382.69
569.372	368.69
569.584	371.69
569.795	351.69
570.007	348.69
570.218	425.69
570.43	394.69
570.641	344.69
570.853	362.69
571.064	358.69
571.276	345.69
571.487	345.69
571.698	338.69
571.91	322.69
572.121	340.69
572.333	341.69
572.544	331.69
572.755	326.69
572.966	333.69
573.178	322.69
573.389	330.69
573.6	328.69
573.811	316.69
574.023	320.69
574.234	309.69
574.445	328.69
574.656	322.69
574.867	321.69
575.078	311.69
575.289	316.69
575.501	299.69
575.712	311.69
575.923	324.69
576.134	303.69
576.345	306.69
576.556	311.69
576.767	307.69
576.978	299.69
577.188	309.69
577.399	314.69
577.61	305.69
577.821	311.69
578.032	312.69
578.243	359.69
578.454	651.69
578.665	448.69
578.875	327.69
579.086	318.69
579.297	284.69
579.508	310.69
579.718	301.69
579.929	313.69
580.14	294.69
580.35	292.69
580.561	287.69
580.772	297.69
580.982	266.69
581.193	281.69
581.403	289.69
581.614	306.69
581.825	297.69
582.035	294.69
582.246	297.69
582.456	292.69
582.667	295.69
582.877	287.69
583.087	288.69
583.298	281.69
583.508	280.69
583.719	293.69
583.929	301.69
584.139	287.69
584.35	284.69
584.56	282.69
584.77	296.69
584.981	293.69
585.191	283.69
585.401	280.69
585.611	281.69
585.821	265.69
586.032	279.69
586.242	274.69
586.452	270.69
586.662	289.69
586.872	272.69
587.082	285.69
587.292	289.69
587.502	265.69
587.713	263.69
587.923	263.69
588.133	274.69
588.343	280.69
588.553	286.69
588.762	267.69
588.972	268.69
589.182	281.69
589.392	283.69
589.602	294.69
589.812	271.69
590.022	264.69
590.232	281.69
590.441	262.69
590.651	262.69
590.861	279.69
591.071	276.69
591.281	284.69
591.49	281.69
591.7	270.69
591.91	275.69
592.119	260.69
592.329	258.69
592.539	292.69
592.748	277.69
592.958	292.69
593.167	280.69
593.377	282.69
593.587	303.69
593.796	292.69
594.006	269.69
594.215	283.69
594.424	253.69
594.634	268.69
594.843	274.69
595.053	289.69
595.262	272.69
595.472	271.69
595.681	260.69
595.89	249.69
596.1	268.69
596.309	262.69
596.518	281.69
596.727	258.69
596.937	274.69
597.146	247.69
597.355	254.69
597.564	261.69
597.774	242.69
597.983	251.69
598.192	276.69
598.401	239.69
598.61	235.69
598.819	241.69
599.028	251.69
599.237	251.69
599.446	251.69
599.655	260.69
599.864	253.69
600.073	235.69
600.282	247.69
600.491	254.69
600.7	235.69
600.909	247.69
601.118	247.69
601.327	248.69
601.536	236.69
601.745	249.69
601.953	240.69
602.162	234.69
602.371	245.69
602.58	235.69
602.789	247.69
602.997	246.69
603.206	226.69
603.415	245.69
603.623	227.69
603.832	235.69
604.041	212.69
604.249	252.69
604.458	228.69
604.666	239.69
604.875	215.69
605.084	206.69
605.292	229.69
605.501	234.69
605.709	245.69
605.918	225.69
606.126	217.69
606.334	223.69
606.543	238.69
606.751	235.69
606.96	240.69
607.168	234.69
607.376	206.69
607.585	243.69
607.793	234.69
608.001	232.69
608.21	228.69
608.418	235.69
608.626	234.69
608.834	227.69
609.043	226.69
609.251	221.69
609.459	222.69
609.667	236.69
609.875	221.69
610.083	226.69
610.291	231.69
610.499	215.69
610.707	224.69
610.916	219.69
611.124	245.69
611.332	232.69
611.54	216.69
611.748	235.69
611.955	199.69
612.163	226.69
612.371	235.69
612.579	225.69
612.787	227.69
612.995	219.69
613.203	224.69
613.411	235.69
613.618	224.69
613.826	234.69
614.034	223.69
614.242	210.69
614.449	222.69
614.657	222.69
614.865	227.69
615.072	223.69
615.28	218.69
615.488	226.69
615.695	225.69
615.903	216.69
616.111	223.69
616.318	235.69
616.526	209.69
616.733	228.69
616.941	207.69
617.148	234.69
617.356	206.69
617.563	223.69
617.771	246.69
617.978	228.69
618.185	218.69
618.393	222.69
618.6	201.69
618.807	220.69
619.015	227.69
619.222	217.69
619.429	206.69
619.637	228.69
619.844	212.69
620.051	211.69
620.258	217.69
620.466	208.69
620.673	218.69
620.88	211.69
621.087	198.69
621.294	222.69
621.501	207.69
621.708	212.69
621.915	202.69
622.122	212.69
622.329	211.69
622.536	226.69
622.743	200.69
622.95	220.69
623.157	209.69
623.364	203.69
623.571	212.69
623.778	198.69
623.985	216.69
624.192	214.69
624.399	207.69
624.606	199.69
624.812	208.69
625.019	207.69
625.226	202.69
625.433	211.69
625.639	214.69
625.846	199.69
626.053	199.69
626.259	191.69
626.466	188.69
626.673	203.69
626.879	182.69
627.086	190.69
627.293	193.69
627.499	208.69
627.706	178.69
627.912	200.69
628.119	194.69
628.325	188.69
628.532	182.69
628.738	190.69
628.945	175.69
629.151	204.69
629.357	196.69
629.564	193.69
629.77	186.69
629.976	187.69
630.183	178.69
630.389	171.69
630.595	199.69
630.802	185.69
631.008	178.69
631.214	188.69
631.42	202.69
631.627	185.69
631.833	191.69
632.039	168.69
632.245	169.69
632.451	184.69
632.657	167.69
632.863	186.69
633.069	192.69
633.275	194.69
633.481	167.69
633.688	174.69
633.893	174.69
634.099	198.69
634.305	179.69
634.511	173.69
634.717	168.69
634.923	175.69
635.129	164.69
635.335	166.69
635.541	164.69
635.747	174.69
635.952	171.69
636.158	174.69
636.364	172.69
636.57	177.69
636.775	188.69
636.981	169.69
637.187	170.69
637.392	182.69
637.598	173.69
637.804	183.69
638.009	173.69
638.215	170.69
638.421	160.69
638.626	172.69
638.832	166.69
639.037	179.69
639.243	182.69
639.448	163.69
639.654	180.69
639.859	151.69
640.065	164.69
640.27	176.69
640.475	160.69
640.681	171.69
640.886	163.69
641.091	187.69
641.297	162.69
641.502	163.69
641.707	163.69
641.913	165.69
642.118	170.69
642.323	137.69
642.528	153.69
642.733	161.69
642.939	174.69
643.144	168.69
643.349	159.69
643.554	149.69
643.759	163.69
643.964	167.69
644.169	173.69
644.374	154.69
644.579	154.69
644.784	158.69
644.989	160.69
645.194	165.69
645.399	161.69
645.604	161.69
645.809	151.69
646.014	152.69
646.219	169.69
646.423	170.69
646.628	157.69
646.833	150.69
647.038	151.69
647.243	176.69
647.447	162.69
647.652	167.69
647.857	152.69
648.062	160.69
648.266	156.69
648.471	159.69
648.676	169.69
648.88	163.69
649.085	171.69
649.289	164.69
649.494	164.69
649.698	189.69
649.903	176.69
650.107	180.69
650.312	176.69
650.516	150.69
650.721	157.69
650.925	154.69
651.13	152.69
651.334	151.69
651.539	149.69
651.743	141.69
651.947	148.69
652.152	128.69
652.356	136.69
652.56	129.69
652.764	138.69
652.969	132.69
653.173	156.69
653.377	142.69
653.581	134.69
653.785	124.69
653.99	134.69
654.194	130.69
654.398	119.69
654.602	147.69
654.806	132.69
655.01	144.69
655.214	135.69
655.418	134.69
655.622	142.69
655.826	121.69
656.03	139.69
656.234	128.69
656.438	136.69
656.642	120.69
656.846	117.69
657.049	132.69
657.253	138.69
657.457	134.69
657.661	118.69
657.865	121.69
658.068	120.69
658.272	117.69
658.476	99.69
658.68	111.69
658.883	106.69
659.087	106.69
659.291	106.69
659.494	99.69
659.698	114.69
659.901	75.69
660.105	104.69
660.309	86.69
660.512	100.69
660.716	98.69
660.919	107.69
661.123	94.69
661.326	101.69
661.53	89.69
661.733	98.69
661.936	92.69
662.14	83.69
662.343	95.69
662.546	84.69
662.75	87.69
662.953	92.69
663.156	92.69
663.36	83.69
663.563	79.69
663.766	92.69
663.969	85.69
664.173	88.69
664.376	106.69
664.579	75.69
664.782	72.69
664.985	80.69
665.188	91.69
665.391	80.69
665.594	77.69
665.797	91.69
666	99.69
666.203	90.69
666.406	86.69
666.609	99.69
666.812	76.69
667.015	80.69
667.218	84.69
667.421	83.69
667.624	87.69
667.827	92.69
668.03	86.69
668.232	86.69
668.435	97.69
668.638	102.69
668.841	102.69
669.043	71.69
669.246	90.69
669.449	80.69
669.651	87.69
669.854	88.69
670.057	82.69
670.259	83.69
670.462	89.69
670.665	102.69
670.867	94.69
671.07	95.69
671.272	88.69
671.475	92.69
671.677	79.69
671.88	95.69
672.082	77.69
672.284	71.69
672.487	89.69
672.689	86.69
672.892	84.69
