Data from 1980.PennyLincolnUp.Lamp.En5.5.200Scan.071819.P1_HRD10591_16-39-02-957.txt Node
Date: Thu Jul 18 16:39:02 EDT 2019
User: cochatt
Spectrometer: HR+D1059
Trigger mode: 1
Integration Time (sec): 1.000000E-1
Scans to average: 1
Electric dark correction enabled: true
Nonlinearity correction enabled: false
Boxcar width: 0
XAxis mode: Wavelengths
Number of Pixels in Spectrum: 2048
>>>>>Begin Spectral Data<<<<<
223.165	-10.62
223.4	-10.62
223.635	-10.62
223.869	-19.62
224.104	-25.62
224.338	-14.62
224.573	-13.62
224.808	-6.62
225.042	-6.62
225.277	-10.62
225.511	-7.62
225.746	14.38
225.98	2.38
226.215	7.38
226.449	19.38
226.683	16.38
226.918	21.38
227.152	34.38
227.387	21.38
227.621	33.38
227.856	25.38
228.09	31.38
228.324	49.38
228.559	57.38
228.793	81.38
229.027	96.38
229.262	94.38
229.496	122.38
229.73	132.38
229.964	166.38
230.199	146.38
230.433	124.38
230.667	132.38
230.901	124.38
231.136	114.38
231.37	110.38
231.604	104.38
231.838	103.38
232.072	113.38
232.306	129.38
232.541	117.38
232.775	118.38
233.009	125.38
233.243	122.38
233.477	109.38
233.711	123.38
233.945	121.38
234.179	117.38
234.413	119.38
234.647	125.38
234.881	117.38
235.115	121.38
235.349	129.38
235.583	127.38
235.817	112.38
236.051	109.38
236.285	131.38
236.519	137.38
236.753	150.38
236.987	151.38
237.221	203.38
237.455	261.38
237.689	196.38
237.922	157.38
238.156	131.38
238.39	137.38
238.624	137.38
238.858	136.38
239.091	136.38
239.325	133.38
239.559	137.38
239.793	126.38
240.027	141.38
240.26	144.38
240.494	169.38
240.728	170.38
240.961	162.38
241.195	149.38
241.429	144.38
241.662	149.38
241.896	135.38
242.13	138.38
242.363	141.38
242.597	139.38
242.83	135.38
243.064	150.38
243.298	135.38
243.531	140.38
243.765	149.38
243.998	136.38
244.232	141.38
244.465	145.38
244.699	161.38
244.932	134.38
245.166	137.38
245.399	137.38
245.633	142.38
245.866	133.38
246.099	158.38
246.333	153.38
246.566	155.38
246.8	153.38
247.033	150.38
247.266	156.38
247.5	170.38
247.733	166.38
247.966	195.38
248.2	186.38
248.433	171.38
248.666	185.38
248.899	191.38
249.133	214.38
249.366	219.38
249.599	206.38
249.832	172.38
250.066	201.38
250.299	198.38
250.532	202.38
250.765	216.38
250.998	221.38
251.231	246.38
251.465	237.38
251.698	210.38
251.931	216.38
252.164	203.38
252.397	228.38
252.63	225.38
252.863	199.38
253.096	229.38
253.329	229.38
253.562	241.38
253.795	245.38
254.028	245.38
254.261	228.38
254.494	230.38
254.727	289.38
254.96	297.38
255.193	298.38
255.426	260.38
255.659	253.38
255.892	263.38
256.124	260.38
256.357	253.38
256.59	242.38
256.823	231.38
257.056	222.38
257.289	220.38
257.521	206.38
257.754	232.38
257.987	207.38
258.22	230.38
258.452	212.38
258.685	221.38
258.918	212.38
259.151	210.38
259.383	216.38
259.616	217.38
259.849	231.38
260.081	264.38
260.314	261.38
260.547	266.38
260.779	250.38
261.012	249.38
261.244	226.38
261.477	236.38
261.71	219.38
261.942	242.38
262.175	243.38
262.407	231.38
262.64	217.38
262.872	229.38
263.105	220.38
263.337	215.38
263.57	222.38
263.802	199.38
264.035	203.38
264.267	213.38
264.499	207.38
264.732	212.38
264.964	207.38
265.197	212.38
265.429	212.38
265.661	213.38
265.894	221.38
266.126	210.38
266.358	220.38
266.591	200.38
266.823	210.38
267.055	241.38
267.287	228.38
267.52	219.38
267.752	225.38
267.984	234.38
268.216	221.38
268.448	233.38
268.681	236.38
268.913	260.38
269.145	254.38
269.377	278.38
269.609	285.38
269.841	272.38
270.073	289.38
270.306	305.38
270.538	328.38
270.77	329.38
271.002	331.38
271.234	319.38
271.466	324.38
271.698	327.38
271.93	332.38
272.162	342.38
272.394	342.38
272.626	322.38
272.858	289.38
273.09	285.38
273.322	267.38
273.553	267.38
273.785	276.38
274.017	281.38
274.249	265.38
274.481	257.38
274.713	286.38
274.945	292.38
275.176	281.38
275.408	277.38
275.64	257.38
275.872	261.38
276.104	290.38
276.335	267.38
276.567	265.38
276.799	288.38
277.031	305.38
277.262	314.38
277.494	325.38
277.726	300.38
277.957	295.38
278.189	293.38
278.421	282.38
278.652	274.38
278.884	266.38
279.115	254.38
279.347	273.38
279.579	261.38
279.81	261.38
280.042	252.38
280.273	266.38
280.505	261.38
280.736	243.38
280.968	248.38
281.199	254.38
281.431	271.38
281.662	261.38
281.894	280.38
282.125	267.38
282.356	270.38
282.588	317.38
282.819	301.38
283.051	286.38
283.282	257.38
283.513	261.38
283.745	257.38
283.976	253.38
284.207	265.38
284.439	271.38
284.67	269.38
284.901	284.38
285.132	291.38
285.364	250.38
285.595	258.38
285.826	261.38
286.057	263.38
286.288	255.38
286.52	269.38
286.751	280.38
286.982	272.38
287.213	261.38
287.444	281.38
287.675	291.38
287.906	280.38
288.138	295.38
288.369	287.38
288.6	309.38
288.831	280.38
289.062	272.38
289.293	281.38
289.524	281.38
289.755	263.38
289.986	285.38
290.217	266.38
290.448	273.38
290.679	284.38
290.91	273.38
291.141	276.38
291.371	263.38
291.602	262.38
291.833	268.38
292.064	286.38
292.295	292.38
292.526	288.38
292.757	289.38
292.987	278.38
293.218	268.38
293.449	296.38
293.68	288.38
293.91	277.38
294.141	285.38
294.372	287.38
294.603	289.38
294.833	270.38
295.064	284.38
295.295	291.38
295.525	285.38
295.756	278.38
295.987	305.38
296.217	322.38
296.448	327.38
296.679	310.38
296.909	274.38
297.14	273.38
297.37	287.38
297.601	285.38
297.831	264.38
298.062	285.38
298.292	281.38
298.523	286.38
298.753	290.38
298.984	300.38
299.214	298.38
299.445	298.38
299.675	296.38
299.905	295.38
300.136	283.38
300.366	281.38
300.597	284.38
300.827	302.38
301.057	313.38
301.288	325.38
301.518	310.38
301.748	317.38
301.979	296.38
302.209	302.38
302.439	313.38
302.669	311.38
302.9	281.38
303.13	326.38
303.36	302.38
303.59	318.38
303.82	321.38
304.051	325.38
304.281	312.38
304.511	301.38
304.741	283.38
304.971	286.38
305.201	281.38
305.431	282.38
305.661	296.38
305.891	297.38
306.121	305.38
306.352	322.38
306.582	315.38
306.812	297.38
307.042	294.38
307.272	301.38
307.502	318.38
307.731	318.38
307.961	309.38
308.191	309.38
308.421	315.38
308.651	315.38
308.881	327.38
309.111	319.38
309.341	329.38
309.571	359.38
309.8	353.38
310.03	363.38
310.26	382.38
310.49	360.38
310.72	381.38
310.949	393.38
311.179	411.38
311.409	366.38
311.639	370.38
311.868	363.38
312.098	377.38
312.328	382.38
312.557	377.38
312.787	425.38
313.017	405.38
313.246	394.38
313.476	381.38
313.706	380.38
313.935	370.38
314.165	389.38
314.394	391.38
314.624	366.38
314.853	382.38
315.083	369.38
315.312	373.38
315.542	360.38
315.771	355.38
316.001	347.38
316.23	367.38
316.46	363.38
316.689	354.38
316.919	362.38
317.148	384.38
317.377	393.38
317.607	387.38
317.836	378.38
318.065	348.38
318.295	381.38
318.524	364.38
318.753	363.38
318.983	374.38
319.212	369.38
319.441	381.38
319.67	377.38
319.9	360.38
320.129	381.38
320.358	367.38
320.587	385.38
320.816	382.38
321.046	390.38
321.275	414.38
321.504	401.38
321.733	404.38
321.962	420.38
322.191	423.38
322.42	434.38
322.649	450.38
322.878	454.38
323.108	470.38
323.337	514.38
323.566	523.38
323.795	584.38
324.024	625.38
324.253	771.38
324.482	1143.38
324.71	1752.38
324.939	2505.38
325.168	2212.38
325.397	1171.38
325.626	749.38
325.855	612.38
326.084	565.38
326.313	541.38
326.542	545.38
326.77	618.38
326.999	713.38
327.228	992.38
327.457	1551.38
327.686	1916.38
327.914	1324.38
328.143	847.38
328.372	734.38
328.6	649.38
328.829	593.38
329.058	637.38
329.287	653.38
329.515	595.38
329.744	554.38
329.972	543.38
330.201	580.38
330.43	620.38
330.658	654.38
330.887	673.38
331.115	663.38
331.344	557.38
331.572	535.38
331.801	512.38
332.03	523.38
332.258	472.38
332.486	431.38
332.715	446.38
332.943	439.38
333.172	420.38
333.4	436.38
333.629	467.38
333.857	470.38
334.085	479.38
334.314	504.38
334.542	554.38
334.771	563.38
334.999	523.38
335.227	493.38
335.455	451.38
335.684	423.38
335.912	420.38
336.14	422.38
336.369	421.38
336.597	444.38
336.825	432.38
337.053	421.38
337.281	415.38
337.51	422.38
337.738	419.38
337.966	428.38
338.194	427.38
338.422	422.38
338.65	410.38
338.878	416.38
339.106	393.38
339.334	411.38
339.562	397.38
339.79	391.38
340.018	405.38
340.246	431.38
340.474	414.38
340.702	397.38
340.93	434.38
341.158	413.38
341.386	411.38
341.614	419.38
341.842	417.38
342.07	404.38
342.298	430.38
342.526	395.38
342.754	413.38
342.981	377.38
343.209	393.38
343.437	404.38
343.665	391.38
343.893	411.38
344.12	404.38
344.348	393.38
344.576	417.38
344.804	421.38
345.031	426.38
345.259	433.38
345.487	406.38
345.714	413.38
345.942	394.38
346.17	389.38
346.397	394.38
346.625	387.38
346.853	415.38
347.08	401.38
347.308	404.38
347.535	429.38
347.763	429.38
347.99	421.38
348.218	442.38
348.445	419.38
348.673	417.38
348.9	412.38
349.128	387.38
349.355	399.38
349.583	391.38
349.81	397.38
350.037	392.38
350.265	381.38
350.492	388.38
350.72	376.38
350.947	389.38
351.174	407.38
351.402	420.38
351.629	414.38
351.856	410.38
352.083	435.38
352.311	419.38
352.538	434.38
352.765	418.38
352.992	409.38
353.22	418.38
353.447	401.38
353.674	410.38
353.901	386.38
354.128	393.38
354.355	372.38
354.583	361.38
354.81	380.38
355.037	383.38
355.264	362.38
355.491	363.38
355.718	373.38
355.945	365.38
356.172	369.38
356.399	378.38
356.626	358.38
356.853	377.38
357.08	364.38
357.307	351.38
357.534	338.38
357.761	385.38
357.988	365.38
358.215	349.38
358.441	366.38
358.668	347.38
358.895	363.38
359.122	366.38
359.349	404.38
359.576	412.38
359.802	437.38
360.029	466.38
360.256	481.38
360.483	459.38
360.709	423.38
360.936	412.38
361.163	380.38
361.39	416.38
361.616	411.38
361.843	398.38
362.07	395.38
362.296	402.38
362.523	388.38
362.749	396.38
362.976	392.38
363.203	387.38
363.429	378.38
363.656	379.38
363.882	382.38
364.109	358.38
364.335	377.38
364.562	387.38
364.788	375.38
365.015	376.38
365.241	393.38
365.468	397.38
365.694	403.38
365.92	394.38
366.147	380.38
366.373	356.38
366.599	391.38
366.826	373.38
367.052	368.38
367.278	369.38
367.505	367.38
367.731	366.38
367.957	394.38
368.184	389.38
368.41	372.38
368.636	398.38
368.862	375.38
369.089	374.38
369.315	360.38
369.541	363.38
369.767	371.38
369.993	365.38
370.219	363.38
370.445	369.38
370.672	365.38
370.898	366.38
371.124	355.38
371.35	357.38
371.576	366.38
371.802	357.38
372.028	357.38
372.254	367.38
372.48	374.38
372.706	347.38
372.932	357.38
373.158	352.38
373.384	354.38
373.61	369.38
373.835	355.38
374.061	346.38
374.287	373.38
374.513	369.38
374.739	357.38
374.965	366.38
375.191	359.38
375.416	367.38
375.642	370.38
375.868	372.38
376.094	371.38
376.319	359.38
376.545	366.38
376.771	346.38
376.997	346.38
377.222	345.38
377.448	350.38
377.674	349.38
377.899	338.38
378.125	359.38
378.35	353.38
378.576	356.38
378.802	346.38
379.027	358.38
379.253	364.38
379.478	361.38
379.704	391.38
379.929	380.38
380.155	356.38
380.38	345.38
380.606	389.38
380.831	377.38
381.057	373.38
381.282	355.38
381.507	361.38
381.733	354.38
381.958	365.38
382.184	363.38
382.409	348.38
382.634	360.38
382.86	369.38
383.085	371.38
383.31	365.38
383.535	363.38
383.761	354.38
383.986	374.38
384.211	373.38
384.436	387.38
384.662	369.38
384.887	385.38
385.112	373.38
385.337	369.38
385.562	386.38
385.787	383.38
386.013	375.38
386.238	378.38
386.463	376.38
386.688	379.38
386.913	366.38
387.138	380.38
387.363	380.38
387.588	382.38
387.813	389.38
388.038	391.38
388.263	398.38
388.488	391.38
388.713	391.38
388.938	390.38
389.163	384.38
389.387	401.38
389.612	395.38
389.837	381.38
390.062	377.38
390.287	376.38
390.512	381.38
390.736	364.38
390.961	373.38
391.186	385.38
391.411	383.38
391.636	366.38
391.86	400.38
392.085	392.38
392.31	391.38
392.534	398.38
392.759	385.38
392.984	383.38
393.208	400.38
393.433	391.38
393.658	393.38
393.882	375.38
394.107	397.38
394.331	391.38
394.556	385.38
394.78	385.38
395.005	399.38
395.229	386.38
395.454	393.38
395.678	396.38
395.903	438.38
396.127	443.38
396.352	423.38
396.576	419.38
396.801	408.38
397.025	392.38
397.249	418.38
397.474	409.38
397.698	417.38
397.922	410.38
398.147	454.38
398.371	453.38
398.595	418.38
398.82	407.38
399.044	426.38
399.268	450.38
399.492	440.38
399.717	474.38
399.941	502.38
400.165	515.38
400.389	531.38
400.613	483.38
400.837	432.38
401.062	457.38
401.286	438.38
401.51	426.38
401.734	433.38
401.958	446.38
402.182	462.38
402.406	453.38
402.63	456.38
402.854	452.38
403.078	449.38
403.302	435.38
403.526	448.38
403.75	440.38
403.974	454.38
404.198	440.38
404.422	444.38
404.645	476.38
404.869	474.38
405.093	469.38
405.317	539.38
405.541	587.38
405.765	509.38
405.988	494.38
406.212	519.38
406.436	554.38
406.66	554.38
406.883	493.38
407.107	533.38
407.331	518.38
407.555	634.38
407.778	605.38
408.002	592.38
408.226	523.38
408.449	513.38
408.673	534.38
408.896	559.38
409.12	590.38
409.344	555.38
409.567	483.38
409.791	467.38
410.014	486.38
410.238	478.38
410.461	463.38
410.685	474.38
410.908	482.38
411.132	542.38
411.355	549.38
411.578	523.38
411.802	492.38
412.025	458.38
412.249	470.38
412.472	495.38
412.695	543.38
412.919	509.38
413.142	472.38
413.365	451.38
413.589	446.38
413.812	430.38
414.035	445.38
414.258	432.38
414.482	449.38
414.705	434.38
414.928	420.38
415.151	435.38
415.374	409.38
415.597	437.38
415.821	405.38
416.044	441.38
416.267	447.38
416.49	430.38
416.713	411.38
416.936	439.38
417.159	453.38
417.382	453.38
417.605	441.38
417.828	464.38
418.051	461.38
418.274	453.38
418.497	459.38
418.72	450.38
418.943	435.38
419.166	455.38
419.389	468.38
419.611	467.38
419.834	462.38
420.057	456.38
420.28	477.38
420.503	484.38
420.726	464.38
420.948	470.38
421.171	521.38
421.394	553.38
421.617	481.38
421.839	463.38
422.062	453.38
422.285	494.38
422.507	551.38
422.73	617.38
422.953	587.38
423.175	518.38
423.398	467.38
423.621	525.38
423.843	502.38
424.066	506.38
424.288	514.38
424.511	524.38
424.733	599.38
424.956	673.38
425.178	648.38
425.401	638.38
425.623	659.38
425.846	597.38
426.068	501.38
426.291	530.38
426.513	517.38
426.735	531.38
426.958	553.38
427.18	665.38
427.402	792.38
427.625	872.38
427.847	771.38
428.069	661.38
428.292	590.38
428.514	517.38
428.736	521.38
428.958	494.38
429.181	486.38
429.403	480.38
429.625	494.38
429.847	515.38
430.069	593.38
430.292	606.38
430.514	499.38
430.736	493.38
430.958	469.38
431.18	478.38
431.402	472.38
431.624	446.38
431.846	439.38
432.068	449.38
432.29	457.38
432.512	450.38
432.734	454.38
432.956	453.38
433.178	462.38
433.4	450.38
433.622	453.38
433.844	465.38
434.066	458.38
434.287	461.38
434.509	456.38
434.731	462.38
434.953	445.38
435.175	477.38
435.397	526.38
435.618	537.38
435.84	553.38
436.062	650.38
436.284	739.38
436.505	647.38
436.727	564.38
436.949	510.38
437.17	481.38
437.392	486.38
437.614	509.38
437.835	566.38
438.057	663.38
438.278	755.38
438.5	745.38
438.721	797.38
438.943	779.38
439.165	623.38
439.386	558.38
439.608	558.38
439.829	531.38
440.05	584.38
440.272	629.38
440.493	590.38
440.715	551.38
440.936	508.38
441.158	496.38
441.379	477.38
441.6	486.38
441.822	504.38
442.043	595.38
442.264	650.38
442.486	705.38
442.707	594.38
442.928	535.38
443.149	545.38
443.371	575.38
443.592	602.38
443.813	709.38
444.034	748.38
444.255	638.38
444.476	531.38
444.698	538.38
444.919	528.38
445.14	603.38
445.361	559.38
445.582	580.38
445.803	651.38
446.024	745.38
446.245	755.38
446.466	696.38
446.687	597.38
446.908	536.38
447.129	513.38
447.35	497.38
447.571	501.38
447.792	499.38
448.013	500.38
448.234	509.38
448.455	567.38
448.675	672.38
448.896	778.38
449.117	654.38
449.338	652.38
449.559	721.38
449.779	826.38
450	671.38
450.221	559.38
450.442	526.38
450.662	503.38
450.883	500.38
451.104	505.38
451.324	523.38
451.545	483.38
451.766	452.38
451.986	449.38
452.207	440.38
452.428	433.38
452.648	438.38
452.869	434.38
453.089	455.38
453.31	462.38
453.53	429.38
453.751	428.38
453.971	440.38
454.192	485.38
454.412	441.38
454.633	438.38
454.853	438.38
455.073	455.38
455.294	473.38
455.514	559.38
455.734	529.38
455.955	463.38
456.175	428.38
456.395	427.38
456.616	403.38
456.836	387.38
457.056	413.38
457.276	385.38
457.497	418.38
457.717	425.38
457.937	412.38
458.157	422.38
458.377	416.38
458.598	459.38
458.818	501.38
459.038	626.38
459.258	609.38
459.478	527.38
459.698	466.38
459.918	446.38
460.138	433.38
460.358	456.38
460.578	426.38
460.798	445.38
461.018	455.38
461.238	438.38
461.458	435.38
461.678	418.38
461.898	429.38
462.118	436.38
462.338	437.38
462.558	433.38
462.777	437.38
462.997	442.38
463.217	464.38
463.437	447.38
463.657	432.38
463.876	455.38
464.096	461.38
464.316	475.38
464.536	477.38
464.755	486.38
464.975	453.38
465.195	541.38
465.414	638.38
465.634	550.38
465.854	508.38
466.073	498.38
466.293	446.38
466.512	436.38
466.732	437.38
466.951	438.38
467.171	434.38
467.391	441.38
467.61	452.38
467.829	455.38
468.049	446.38
468.268	451.38
468.488	459.38
468.707	434.38
468.927	426.38
469.146	440.38
469.365	416.38
469.585	417.38
469.804	436.38
470.023	454.38
470.243	442.38
470.462	464.38
470.681	468.38
470.901	453.38
471.12	466.38
471.339	441.38
471.558	442.38
471.777	452.38
471.997	441.38
472.216	463.38
472.435	494.38
472.654	489.38
472.873	447.38
473.092	460.38
473.311	466.38
473.53	461.38
473.749	467.38
473.968	525.38
474.187	619.38
474.406	653.38
474.625	526.38
474.844	462.38
475.063	469.38
475.282	458.38
475.501	435.38
475.72	482.38
475.939	459.38
476.158	435.38
476.377	450.38
476.596	462.38
476.814	470.38
477.033	489.38
477.252	454.38
477.471	478.38
477.69	497.38
477.908	461.38
478.127	479.38
478.346	479.38
478.564	485.38
478.783	491.38
479.002	485.38
479.22	491.38
479.439	520.38
479.658	529.38
479.876	537.38
480.095	553.38
480.313	587.38
480.532	562.38
480.751	555.38
480.969	552.38
481.188	650.38
481.406	709.38
481.624	619.38
481.843	574.38
482.061	567.38
482.28	563.38
482.498	531.38
482.717	539.38
482.935	516.38
483.153	515.38
483.372	535.38
483.59	547.38
483.808	543.38
484.027	503.38
484.245	533.38
484.463	537.38
484.681	551.38
484.9	551.38
485.118	535.38
485.336	533.38
485.554	520.38
485.772	534.38
485.99	535.38
486.209	553.38
486.427	559.38
486.645	561.38
486.863	584.38
487.081	593.38
487.299	611.38
487.517	605.38
487.735	582.38
487.953	593.38
488.171	596.38
488.389	573.38
488.607	575.38
488.825	549.38
489.043	573.38
489.261	583.38
489.479	573.38
489.696	587.38
489.914	590.38
490.132	578.38
490.35	620.38
490.568	575.38
490.786	637.38
491.003	658.38
491.221	629.38
491.439	658.38
491.657	638.38
491.874	626.38
492.092	696.38
492.31	650.38
492.527	676.38
492.745	685.38
492.963	675.38
493.18	657.38
493.398	700.38
493.615	688.38
493.833	682.38
494.05	694.38
494.268	679.38
494.485	670.38
494.703	692.38
494.92	671.38
495.138	661.38
495.355	709.38
495.573	681.38
495.79	712.38
496.008	709.38
496.225	703.38
496.442	670.38
496.66	669.38
496.877	681.38
497.094	693.38
497.312	700.38
497.529	707.38
497.746	715.38
497.963	709.38
498.181	735.38
498.398	731.38
498.615	732.38
498.832	748.38
499.049	720.38
499.267	737.38
499.484	758.38
499.701	761.38
499.918	790.38
500.135	784.38
500.352	792.38
500.569	824.38
500.786	827.38
501.003	846.38
501.22	807.38
501.437	804.38
501.654	824.38
501.871	817.38
502.088	799.38
502.305	759.38
502.522	741.38
502.739	716.38
502.956	710.38
503.172	733.38
503.389	707.38
503.606	725.38
503.823	717.38
504.04	705.38
504.256	698.38
504.473	679.38
504.69	677.38
504.907	687.38
505.123	651.38
505.34	654.38
505.557	641.38
505.773	671.38
505.99	664.38
506.207	663.38
506.423	651.38
506.64	631.38
506.856	668.38
507.073	637.38
507.289	654.38
507.506	649.38
507.722	649.38
507.939	693.38
508.155	653.38
508.372	639.38
508.588	631.38
508.805	667.38
509.021	651.38
509.238	654.38
509.454	665.38
509.67	663.38
509.887	660.38
510.103	650.38
510.319	670.38
510.536	807.38
510.752	1337.38
510.968	1098.38
511.184	686.38
511.401	644.38
511.617	635.38
511.833	633.38
512.049	613.38
512.265	628.38
512.481	627.38
512.698	589.38
512.914	622.38
513.13	629.38
513.346	609.38
513.562	606.38
513.778	634.38
513.994	637.38
514.21	639.38
514.426	685.38
514.642	754.38
514.858	755.38
515.074	801.38
515.29	1038.38
515.506	1551.38
515.721	1259.38
515.937	786.38
516.153	713.38
516.369	661.38
516.585	641.38
516.801	639.38
517.016	610.38
517.232	626.38
517.448	606.38
517.664	612.38
517.879	616.38
518.095	602.38
518.311	606.38
518.527	607.38
518.742	595.38
518.958	595.38
519.173	609.38
519.389	583.38
519.605	605.38
519.82	610.38
520.036	637.38
520.251	639.38
520.467	692.38
520.682	689.38
520.898	715.38
521.113	733.38
521.329	783.38
521.544	939.38
521.76	1253.38
521.975	2090.38
522.19	2051.38
522.406	1062.38
522.621	761.38
522.836	669.38
523.052	628.38
523.267	610.38
523.482	592.38
523.698	589.38
523.913	579.38
524.128	596.38
524.343	558.38
524.559	555.38
524.774	555.38
524.989	543.38
525.204	544.38
525.419	536.38
525.634	524.38
525.849	525.38
526.064	485.38
526.28	502.38
526.495	488.38
526.71	478.38
526.925	513.38
527.14	492.38
527.355	505.38
527.57	486.38
527.785	485.38
527.999	482.38
528.214	487.38
528.429	478.38
528.644	483.38
528.859	483.38
529.074	491.38
529.289	516.38
529.503	632.38
529.718	619.38
529.933	543.38
530.148	515.38
530.363	501.38
530.577	484.38
530.792	473.38
531.007	483.38
531.221	455.38
531.436	458.38
531.651	467.38
531.865	457.38
532.08	465.38
532.295	454.38
532.509	485.38
532.724	447.38
532.938	440.38
533.153	458.38
533.367	444.38
533.582	455.38
533.796	472.38
534.011	443.38
534.225	456.38
534.44	440.38
534.654	435.38
534.868	456.38
535.083	460.38
535.297	453.38
535.511	458.38
535.726	462.38
535.94	447.38
536.154	449.38
536.369	453.38
536.583	437.38
536.797	451.38
537.011	444.38
537.225	449.38
537.44	429.38
537.654	442.38
537.868	427.38
538.082	438.38
538.296	435.38
538.51	455.38
538.724	465.38
538.938	446.38
539.153	440.38
539.367	464.38
539.581	466.38
539.795	443.38
540.009	446.38
540.222	426.38
540.436	426.38
540.65	448.38
540.864	454.38
541.078	458.38
541.292	444.38
541.506	447.38
541.72	462.38
541.934	421.38
542.147	441.38
542.361	446.38
542.575	445.38
542.789	418.38
543.002	415.38
543.216	439.38
543.43	445.38
543.644	467.38
543.857	449.38
544.071	430.38
544.285	446.38
544.498	429.38
544.712	425.38
544.925	430.38
545.139	412.38
545.352	404.38
545.566	434.38
545.779	432.38
545.993	453.38
546.206	433.38
546.42	442.38
546.633	438.38
546.847	422.38
547.06	419.38
547.274	403.38
547.487	405.38
547.7	396.38
547.914	411.38
548.127	412.38
548.34	413.38
548.554	430.38
548.767	413.38
548.98	398.38
549.193	400.38
549.407	386.38
549.62	403.38
549.833	414.38
550.046	418.38
550.259	424.38
550.473	397.38
550.686	407.38
550.899	378.38
551.112	393.38
551.325	391.38
551.538	387.38
551.751	392.38
551.964	406.38
552.177	405.38
552.39	395.38
552.603	394.38
552.816	404.38
553.029	413.38
553.242	421.38
553.455	419.38
553.667	421.38
553.88	407.38
554.093	416.38
554.306	430.38
554.519	403.38
554.732	407.38
554.944	404.38
555.157	381.38
555.37	383.38
555.583	370.38
555.795	403.38
556.008	375.38
556.221	381.38
556.433	362.38
556.646	373.38
556.859	373.38
557.071	375.38
557.284	373.38
557.496	370.38
557.709	372.38
557.921	375.38
558.134	370.38
558.346	373.38
558.559	369.38
558.771	374.38
558.984	359.38
559.196	361.38
559.409	375.38
559.621	361.38
559.833	335.38
560.046	347.38
560.258	354.38
560.47	363.38
560.683	373.38
560.895	357.38
561.107	371.38
561.32	349.38
561.532	350.38
561.744	358.38
561.956	351.38
562.168	379.38
562.381	378.38
562.593	361.38
562.805	360.38
563.017	372.38
563.229	377.38
563.441	389.38
563.653	378.38
563.865	371.38
564.077	357.38
564.289	367.38
564.501	371.38
564.713	372.38
564.925	379.38
565.137	389.38
565.349	381.38
565.561	387.38
565.773	383.38
565.985	382.38
566.197	389.38
566.408	391.38
566.62	406.38
566.832	417.38
567.044	413.38
567.255	405.38
567.467	398.38
567.679	397.38
567.891	412.38
568.102	401.38
568.314	391.38
568.526	394.38
568.737	378.38
568.949	363.38
569.161	375.38
569.372	350.38
569.584	361.38
569.795	363.38
570.007	357.38
570.218	429.38
570.43	397.38
570.641	353.38
570.853	365.38
571.064	348.38
571.276	345.38
571.487	338.38
571.698	327.38
571.91	336.38
572.121	325.38
572.333	331.38
572.544	316.38
572.755	349.38
572.966	326.38
573.178	331.38
573.389	329.38
573.6	316.38
573.811	323.38
574.023	332.38
574.234	299.38
574.445	305.38
574.656	313.38
574.867	318.38
575.078	311.38
575.289	315.38
575.501	325.38
575.712	302.38
575.923	313.38
576.134	291.38
576.345	291.38
576.556	312.38
576.767	315.38
576.978	313.38
577.188	321.38
577.399	326.38
577.61	302.38
577.821	291.38
578.032	330.38
578.243	359.38
578.454	645.38
578.665	465.38
578.875	322.38
579.086	312.38
579.297	303.38
579.508	292.38
579.718	300.38
579.929	303.38
580.14	292.38
580.35	309.38
580.561	294.38
580.772	286.38
580.982	292.38
581.193	294.38
581.403	294.38
581.614	301.38
581.825	307.38
582.035	283.38
582.246	273.38
582.456	286.38
582.667	298.38
582.877	285.38
583.087	275.38
583.298	286.38
583.508	293.38
583.719	307.38
583.929	269.38
584.139	283.38
584.35	281.38
584.56	297.38
584.77	281.38
584.981	274.38
585.191	284.38
585.401	288.38
585.611	296.38
585.821	278.38
586.032	277.38
586.242	275.38
586.452	269.38
586.662	283.38
586.872	275.38
587.082	265.38
587.292	283.38
587.502	295.38
587.713	282.38
587.923	280.38
588.133	281.38
588.343	279.38
588.553	285.38
588.762	268.38
588.972	285.38
589.182	268.38
589.392	277.38
589.602	278.38
589.812	265.38
590.022	278.38
590.232	269.38
590.441	282.38
590.651	284.38
590.861	275.38
591.071	259.38
591.281	280.38
591.49	259.38
591.7	279.38
591.91	277.38
592.119	276.38
592.329	298.38
592.539	258.38
592.748	283.38
592.958	277.38
593.167	283.38
593.377	269.38
593.587	286.38
593.796	279.38
594.006	274.38
594.215	286.38
594.424	266.38
594.634	292.38
594.843	284.38
595.053	286.38
595.262	278.38
595.472	257.38
595.681	275.38
595.89	262.38
596.1	273.38
596.309	274.38
596.518	257.38
596.727	253.38
596.937	269.38
597.146	251.38
597.355	261.38
597.564	246.38
597.774	250.38
597.983	258.38
598.192	257.38
598.401	257.38
598.61	239.38
598.819	250.38
599.028	257.38
599.237	240.38
599.446	243.38
599.655	259.38
599.864	248.38
600.073	235.38
600.282	253.38
600.491	247.38
600.7	238.38
600.909	242.38
601.118	241.38
601.327	242.38
601.536	237.38
601.745	232.38
601.953	246.38
602.162	243.38
602.371	246.38
602.58	241.38
602.789	232.38
602.997	231.38
603.206	243.38
603.415	243.38
603.623	230.38
603.832	230.38
604.041	231.38
604.249	230.38
604.458	222.38
604.666	229.38
604.875	223.38
605.084	214.38
605.292	225.38
605.501	237.38
605.709	247.38
605.918	241.38
606.126	255.38
606.334	234.38
606.543	238.38
606.751	227.38
606.96	236.38
607.168	242.38
607.376	215.38
607.585	227.38
607.793	242.38
608.001	226.38
608.21	234.38
608.418	220.38
608.626	226.38
608.834	224.38
609.043	224.38
609.251	237.38
609.459	226.38
609.667	231.38
609.875	216.38
610.083	227.38
610.291	223.38
610.499	223.38
610.707	228.38
610.916	216.38
611.124	232.38
611.332	233.38
611.54	227.38
611.748	243.38
611.955	226.38
612.163	222.38
612.371	228.38
612.579	215.38
612.787	227.38
612.995	227.38
613.203	239.38
613.411	223.38
613.618	241.38
613.826	215.38
614.034	229.38
614.242	230.38
614.449	211.38
614.657	220.38
614.865	207.38
615.072	218.38
615.28	221.38
615.488	221.38
615.695	235.38
615.903	221.38
616.111	218.38
616.318	226.38
616.526	225.38
616.733	229.38
616.941	217.38
617.148	231.38
617.356	206.38
617.563	220.38
617.771	232.38
617.978	223.38
618.185	199.38
618.393	198.38
618.6	199.38
618.807	221.38
619.015	221.38
619.222	215.38
619.429	212.38
619.637	218.38
619.844	220.38
620.051	223.38
620.258	204.38
620.466	219.38
620.673	206.38
620.88	217.38
621.087	201.38
621.294	212.38
621.501	201.38
621.708	193.38
621.915	229.38
622.122	213.38
622.329	204.38
622.536	211.38
622.743	202.38
622.95	215.38
623.157	213.38
623.364	211.38
623.571	183.38
623.778	215.38
623.985	201.38
624.192	191.38
624.399	213.38
624.606	195.38
624.812	201.38
625.019	219.38
625.226	201.38
625.433	194.38
625.639	221.38
625.846	197.38
626.053	192.38
626.259	206.38
626.466	205.38
626.673	200.38
626.879	190.38
627.086	205.38
627.293	204.38
627.499	212.38
627.706	191.38
627.912	189.38
628.119	197.38
628.325	197.38
628.532	192.38
628.738	190.38
628.945	187.38
629.151	194.38
629.357	184.38
629.564	201.38
629.77	200.38
629.976	190.38
630.183	191.38
630.389	190.38
630.595	189.38
630.802	175.38
631.008	181.38
631.214	182.38
631.42	189.38
631.627	186.38
631.833	169.38
632.039	176.38
632.245	180.38
632.451	166.38
632.657	187.38
632.863	190.38
633.069	175.38
633.275	179.38
633.481	181.38
633.688	194.38
633.893	193.38
634.099	182.38
634.305	181.38
634.511	181.38
634.717	165.38
634.923	182.38
635.129	170.38
635.335	168.38
635.541	183.38
635.747	163.38
635.952	173.38
636.158	159.38
636.364	180.38
636.57	181.38
636.775	180.38
636.981	174.38
637.187	180.38
637.392	174.38
637.598	171.38
637.804	164.38
638.009	173.38
638.215	177.38
638.421	159.38
638.626	178.38
638.832	161.38
639.037	159.38
639.243	164.38
639.448	169.38
639.654	157.38
639.859	179.38
640.065	175.38
640.27	173.38
640.475	165.38
640.681	167.38
640.886	172.38
641.091	177.38
641.297	188.38
641.502	168.38
641.707	164.38
641.913	179.38
642.118	162.38
642.323	157.38
642.528	161.38
642.733	157.38
642.939	167.38
643.144	162.38
643.349	158.38
643.554	159.38
643.759	163.38
643.964	163.38
644.169	158.38
644.374	141.38
644.579	171.38
644.784	173.38
644.989	157.38
645.194	155.38
645.399	178.38
645.604	162.38
645.809	177.38
646.014	171.38
646.219	155.38
646.423	170.38
646.628	159.38
646.833	159.38
647.038	173.38
647.243	161.38
647.447	172.38
647.652	170.38
647.857	160.38
648.062	155.38
648.266	169.38
648.471	161.38
648.676	174.38
648.88	154.38
649.085	158.38
649.289	142.38
649.494	161.38
649.698	191.38
649.903	167.38
650.107	149.38
650.312	167.38
650.516	141.38
650.721	143.38
650.925	140.38
651.13	138.38
651.334	151.38
651.539	154.38
651.743	145.38
651.947	135.38
652.152	141.38
652.356	134.38
652.56	141.38
652.764	130.38
652.969	127.38
653.173	131.38
653.377	143.38
653.581	150.38
653.785	133.38
653.99	125.38
654.194	139.38
654.398	141.38
654.602	129.38
654.806	133.38
655.01	130.38
655.214	137.38
655.418	143.38
655.622	129.38
655.826	136.38
656.03	132.38
656.234	131.38
656.438	123.38
656.642	114.38
656.846	125.38
657.049	124.38
657.253	123.38
657.457	113.38
657.661	113.38
657.865	117.38
658.068	121.38
658.272	99.38
658.476	113.38
658.68	109.38
658.883	75.38
659.087	125.38
659.291	102.38
659.494	93.38
659.698	97.38
659.901	108.38
660.105	89.38
660.309	89.38
660.512	79.38
660.716	95.38
660.919	78.38
661.123	94.38
661.326	91.38
661.53	93.38
661.733	85.38
661.936	72.38
662.14	85.38
662.343	89.38
662.546	87.38
662.75	83.38
662.953	83.38
663.156	103.38
663.36	75.38
663.563	83.38
663.766	84.38
663.969	86.38
664.173	78.38
664.376	94.38
664.579	75.38
664.782	71.38
664.985	92.38
665.188	80.38
665.391	86.38
665.594	78.38
665.797	78.38
666	83.38
666.203	85.38
666.406	96.38
666.609	85.38
666.812	73.38
667.015	69.38
667.218	89.38
667.421	88.38
667.624	77.38
667.827	68.38
668.03	69.38
668.232	82.38
668.435	99.38
668.638	83.38
668.841	78.38
669.043	81.38
669.246	88.38
669.449	74.38
669.651	77.38
669.854	85.38
670.057	89.38
670.259	84.38
670.462	83.38
670.665	86.38
670.867	79.38
671.07	85.38
671.272	89.38
671.475	93.38
671.677	85.38
671.88	85.38
672.082	70.38
672.284	88.38
672.487	86.38
672.689	71.38
672.892	81.38
