Data from 1980.PennyLincolnUp.Lamp.En5.5.200Scan.071819.P1_HRD10591_16-38-03-957.txt Node
Date: Thu Jul 18 16:38:03 EDT 2019
User: cochatt
Spectrometer: HR+D1059
Trigger mode: 1
Integration Time (sec): 1.000000E-1
Scans to average: 1
Electric dark correction enabled: true
Nonlinearity correction enabled: false
Boxcar width: 0
XAxis mode: Wavelengths
Number of Pixels in Spectrum: 2048
>>>>>Begin Spectral Data<<<<<
223.165	-8.12
223.4	-8.12
223.635	-8.12
223.869	-12.12
224.104	-16.12
224.338	-15.12
224.573	-20.12
224.808	-16.12
225.042	0.88
225.277	8.88
225.511	-1.12
225.746	6.88
225.98	7.88
226.215	-0.12
226.449	10.88
226.683	14.88
226.918	15.88
227.152	22.88
227.387	30.88
227.621	23.88
227.856	38.88
228.09	46.88
228.324	50.88
228.559	47.88
228.793	63.88
229.027	99.88
229.262	116.88
229.496	124.88
229.73	138.88
229.964	165.88
230.199	135.88
230.433	117.88
230.667	126.88
230.901	121.88
231.136	99.88
231.37	119.88
231.604	102.88
231.838	113.88
232.072	115.88
232.306	114.88
232.541	113.88
232.775	127.88
233.009	113.88
233.243	119.88
233.477	110.88
233.711	113.88
233.945	116.88
234.179	109.88
234.413	111.88
234.647	109.88
234.881	113.88
235.115	121.88
235.349	120.88
235.583	109.88
235.817	123.88
236.051	130.88
236.285	124.88
236.519	130.88
236.753	141.88
236.987	154.88
237.221	201.88
237.455	241.88
237.689	197.88
237.922	148.88
238.156	141.88
238.39	134.88
238.624	139.88
238.858	118.88
239.091	115.88
239.325	131.88
239.559	142.88
239.793	129.88
240.027	133.88
240.26	153.88
240.494	141.88
240.728	153.88
240.961	151.88
241.195	159.88
241.429	132.88
241.662	139.88
241.896	134.88
242.13	139.88
242.363	144.88
242.597	139.88
242.83	147.88
243.064	132.88
243.298	134.88
243.531	153.88
243.765	125.88
243.998	129.88
244.232	157.88
244.465	129.88
244.699	139.88
244.932	154.88
245.166	131.88
245.399	147.88
245.633	130.88
245.866	145.88
246.099	152.88
246.333	145.88
246.566	149.88
246.8	145.88
247.033	149.88
247.266	161.88
247.5	166.88
247.733	162.88
247.966	164.88
248.2	181.88
248.433	151.88
248.666	193.88
248.899	194.88
249.133	194.88
249.366	226.88
249.599	213.88
249.832	194.88
250.066	175.88
250.299	189.88
250.532	199.88
250.765	220.88
250.998	234.88
251.231	242.88
251.465	219.88
251.698	203.88
251.931	203.88
252.164	222.88
252.397	196.88
252.63	208.88
252.863	230.88
253.096	231.88
253.329	238.88
253.562	246.88
253.795	245.88
254.028	233.88
254.261	208.88
254.494	244.88
254.727	273.88
254.96	319.88
255.193	292.88
255.426	261.88
255.659	239.88
255.892	253.88
256.124	243.88
256.357	266.88
256.59	227.88
256.823	243.88
257.056	214.88
257.289	213.88
257.521	217.88
257.754	226.88
257.987	218.88
258.22	211.88
258.452	209.88
258.685	213.88
258.918	216.88
259.151	228.88
259.383	221.88
259.616	213.88
259.849	217.88
260.081	240.88
260.314	254.88
260.547	273.88
260.779	261.88
261.012	239.88
261.244	236.88
261.477	239.88
261.71	222.88
261.942	214.88
262.175	267.88
262.407	257.88
262.64	231.88
262.872	222.88
263.105	240.88
263.337	201.88
263.57	224.88
263.802	222.88
264.035	223.88
264.267	222.88
264.499	207.88
264.732	226.88
264.964	185.88
265.197	209.88
265.429	209.88
265.661	214.88
265.894	193.88
266.126	220.88
266.358	211.88
266.591	202.88
266.823	230.88
267.055	237.88
267.287	231.88
267.52	232.88
267.752	228.88
267.984	245.88
268.216	228.88
268.448	231.88
268.681	254.88
268.913	272.88
269.145	250.88
269.377	269.88
269.609	287.88
269.841	264.88
270.073	280.88
270.306	302.88
270.538	330.88
270.77	345.88
271.002	330.88
271.234	302.88
271.466	318.88
271.698	337.88
271.93	346.88
272.162	345.88
272.394	343.88
272.626	329.88
272.858	304.88
273.09	300.88
273.322	286.88
273.553	280.88
273.785	282.88
274.017	287.88
274.249	262.88
274.481	282.88
274.713	268.88
274.945	266.88
275.176	267.88
275.408	283.88
275.64	281.88
275.872	265.88
276.104	270.88
276.335	268.88
276.567	283.88
276.799	295.88
277.031	314.88
277.262	324.88
277.494	347.88
277.726	327.88
277.957	311.88
278.189	288.88
278.421	287.88
278.652	275.88
278.884	253.88
279.115	270.88
279.347	271.88
279.579	280.88
279.81	287.88
280.042	265.88
280.273	266.88
280.505	264.88
280.736	255.88
280.968	271.88
281.199	266.88
281.431	259.88
281.662	277.88
281.894	253.88
282.125	257.88
282.356	276.88
282.588	307.88
282.819	319.88
283.051	278.88
283.282	276.88
283.513	281.88
283.745	278.88
283.976	278.88
284.207	278.88
284.439	272.88
284.67	279.88
284.901	274.88
285.132	271.88
285.364	287.88
285.595	285.88
285.826	296.88
286.057	282.88
286.288	271.88
286.52	273.88
286.751	265.88
286.982	260.88
287.213	255.88
287.444	261.88
287.675	300.88
287.906	295.88
288.138	307.88
288.369	294.88
288.6	295.88
288.831	273.88
289.062	296.88
289.293	298.88
289.524	289.88
289.755	262.88
289.986	271.88
290.217	273.88
290.448	288.88
290.679	265.88
290.91	268.88
291.141	270.88
291.371	282.88
291.602	265.88
291.833	281.88
292.064	273.88
292.295	283.88
292.526	289.88
292.757	290.88
292.987	279.88
293.218	277.88
293.449	284.88
293.68	280.88
293.91	276.88
294.141	297.88
294.372	278.88
294.603	288.88
294.833	288.88
295.064	289.88
295.295	287.88
295.525	289.88
295.756	302.88
295.987	294.88
296.217	343.88
296.448	327.88
296.679	308.88
296.909	282.88
297.14	274.88
297.37	296.88
297.601	297.88
297.831	305.88
298.062	286.88
298.292	303.88
298.523	294.88
298.753	301.88
298.984	279.88
299.214	315.88
299.445	296.88
299.675	292.88
299.905	312.88
300.136	291.88
300.366	287.88
300.597	288.88
300.827	314.88
301.057	287.88
301.288	312.88
301.518	335.88
301.748	341.88
301.979	321.88
302.209	319.88
302.439	324.88
302.669	293.88
302.9	306.88
303.13	297.88
303.36	314.88
303.59	323.88
303.82	331.88
304.051	328.88
304.281	318.88
304.511	310.88
304.741	315.88
304.971	314.88
305.201	306.88
305.431	326.88
305.661	309.88
305.891	305.88
306.121	298.88
306.352	327.88
306.582	323.88
306.812	308.88
307.042	313.88
307.272	321.88
307.502	311.88
307.731	324.88
307.961	301.88
308.191	323.88
308.421	317.88
308.651	338.88
308.881	341.88
309.111	349.88
309.341	337.88
309.571	341.88
309.8	344.88
310.03	373.88
310.26	395.88
310.49	381.88
310.72	421.88
310.949	398.88
311.179	413.88
311.409	382.88
311.639	369.88
311.868	387.88
312.098	372.88
312.328	378.88
312.557	405.88
312.787	415.88
313.017	423.88
313.246	399.88
313.476	379.88
313.706	397.88
313.935	389.88
314.165	380.88
314.394	414.88
314.624	395.88
314.853	376.88
315.083	371.88
315.312	370.88
315.542	359.88
315.771	367.88
316.001	359.88
316.23	349.88
316.46	385.88
316.689	365.88
316.919	375.88
317.148	390.88
317.377	385.88
317.607	388.88
317.836	370.88
318.065	381.88
318.295	373.88
318.524	381.88
318.753	362.88
318.983	373.88
319.212	382.88
319.441	378.88
319.67	400.88
319.9	389.88
320.129	364.88
320.358	370.88
320.587	372.88
320.816	386.88
321.046	417.88
321.275	401.88
321.504	391.88
321.733	414.88
321.962	410.88
322.191	419.88
322.42	455.88
322.649	462.88
322.878	470.88
323.108	497.88
323.337	512.88
323.566	560.88
323.795	575.88
324.024	649.88
324.253	799.88
324.482	1184.88
324.71	1797.88
324.939	2561.88
325.168	2261.88
325.397	1177.88
325.626	788.88
325.855	619.88
326.084	565.88
326.313	589.88
326.542	584.88
326.77	618.88
326.999	735.88
327.228	1018.88
327.457	1617.88
327.686	1937.88
327.914	1344.88
328.143	869.88
328.372	752.88
328.6	678.88
328.829	633.88
329.058	669.88
329.287	689.88
329.515	631.88
329.744	562.88
329.972	547.88
330.201	587.88
330.43	628.88
330.658	675.88
330.887	699.88
331.115	662.88
331.344	557.88
331.572	538.88
331.801	529.88
332.03	501.88
332.258	503.88
332.486	465.88
332.715	453.88
332.943	443.88
333.172	448.88
333.4	444.88
333.629	459.88
333.857	496.88
334.085	486.88
334.314	531.88
334.542	538.88
334.771	551.88
334.999	502.88
335.227	483.88
335.455	463.88
335.684	445.88
335.912	425.88
336.14	429.88
336.369	425.88
336.597	449.88
336.825	458.88
337.053	424.88
337.281	404.88
337.51	432.88
337.738	434.88
337.966	431.88
338.194	426.88
338.422	452.88
338.65	424.88
338.878	421.88
339.106	438.88
339.334	427.88
339.562	427.88
339.79	401.88
340.018	427.88
340.246	410.88
340.474	445.88
340.702	414.88
340.93	416.88
341.158	420.88
341.386	406.88
341.614	419.88
341.842	426.88
342.07	418.88
342.298	409.88
342.526	411.88
342.754	406.88
342.981	394.88
343.209	391.88
343.437	389.88
343.665	404.88
343.893	394.88
344.12	424.88
344.348	430.88
344.576	414.88
344.804	446.88
345.031	427.88
345.259	453.88
345.487	436.88
345.714	427.88
345.942	431.88
346.17	406.88
346.397	379.88
346.625	414.88
346.853	412.88
347.08	414.88
347.308	424.88
347.535	411.88
347.763	441.88
347.99	434.88
348.218	447.88
348.445	421.88
348.673	431.88
348.9	415.88
349.128	427.88
349.355	389.88
349.583	396.88
349.81	382.88
350.037	399.88
350.265	389.88
350.492	381.88
350.72	409.88
350.947	404.88
351.174	411.88
351.402	419.88
351.629	417.88
351.856	421.88
352.083	445.88
352.311	427.88
352.538	440.88
352.765	459.88
352.992	437.88
353.22	427.88
353.447	411.88
353.674	413.88
353.901	395.88
354.128	377.88
354.355	380.88
354.583	398.88
354.81	381.88
355.037	378.88
355.264	364.88
355.491	369.88
355.718	368.88
355.945	366.88
356.172	372.88
356.399	372.88
356.626	386.88
356.853	380.88
357.08	370.88
357.307	346.88
357.534	350.88
357.761	386.88
357.988	372.88
358.215	375.88
358.441	353.88
358.668	360.88
358.895	371.88
359.122	399.88
359.349	397.88
359.576	410.88
359.802	454.88
360.029	469.88
360.256	499.88
360.483	458.88
360.709	442.88
360.936	408.88
361.163	417.88
361.39	414.88
361.616	407.88
361.843	407.88
362.07	414.88
362.296	413.88
362.523	422.88
362.749	420.88
362.976	411.88
363.203	406.88
363.429	387.88
363.656	422.88
363.882	400.88
364.109	398.88
364.335	406.88
364.562	402.88
364.788	405.88
365.015	391.88
365.241	384.88
365.468	384.88
365.694	395.88
365.92	389.88
366.147	414.88
366.373	385.88
366.599	405.88
366.826	366.88
367.052	385.88
367.278	385.88
367.505	395.88
367.731	376.88
367.957	375.88
368.184	376.88
368.41	391.88
368.636	385.88
368.862	400.88
369.089	395.88
369.315	385.88
369.541	381.88
369.767	381.88
369.993	379.88
370.219	389.88
370.445	388.88
370.672	378.88
370.898	365.88
371.124	378.88
371.35	361.88
371.576	380.88
371.802	369.88
372.028	371.88
372.254	365.88
372.48	375.88
372.706	372.88
372.932	376.88
373.158	380.88
373.384	391.88
373.61	362.88
373.835	359.88
374.061	373.88
374.287	385.88
374.513	387.88
374.739	372.88
374.965	374.88
375.191	381.88
375.416	361.88
375.642	383.88
375.868	376.88
376.094	373.88
376.319	380.88
376.545	373.88
376.771	371.88
376.997	389.88
377.222	356.88
377.448	333.88
377.674	352.88
377.899	339.88
378.125	360.88
378.35	346.88
378.576	359.88
378.802	356.88
379.027	368.88
379.253	386.88
379.478	352.88
379.704	370.88
379.929	378.88
380.155	373.88
380.38	360.88
380.606	359.88
380.831	388.88
381.057	367.88
381.282	374.88
381.507	370.88
381.733	388.88
381.958	357.88
382.184	372.88
382.409	373.88
382.634	371.88
382.86	385.88
383.085	387.88
383.31	373.88
383.535	386.88
383.761	387.88
383.986	368.88
384.211	365.88
384.436	404.88
384.662	381.88
384.887	386.88
385.112	389.88
385.337	401.88
385.562	397.88
385.787	390.88
386.013	406.88
386.238	405.88
386.463	403.88
386.688	388.88
386.913	376.88
387.138	383.88
387.363	375.88
387.588	406.88
387.813	377.88
388.038	386.88
388.263	403.88
388.488	397.88
388.713	383.88
388.938	400.88
389.163	397.88
389.387	402.88
389.612	375.88
389.837	369.88
390.062	396.88
390.287	401.88
390.512	381.88
390.736	397.88
390.961	395.88
391.186	393.88
391.411	398.88
391.636	410.88
391.86	399.88
392.085	424.88
392.31	412.88
392.534	367.88
392.759	402.88
392.984	384.88
393.208	384.88
393.433	394.88
393.658	384.88
393.882	379.88
394.107	383.88
394.331	376.88
394.556	387.88
394.78	393.88
395.005	389.88
395.229	375.88
395.454	400.88
395.678	390.88
395.903	424.88
396.127	434.88
396.352	459.88
396.576	425.88
396.801	419.88
397.025	419.88
397.249	414.88
397.474	429.88
397.698	392.88
397.922	454.88
398.147	441.88
398.371	454.88
398.595	456.88
398.82	427.88
399.044	446.88
399.268	453.88
399.492	475.88
399.717	487.88
399.941	522.88
400.165	561.88
400.389	568.88
400.613	512.88
400.837	484.88
401.062	473.88
401.286	462.88
401.51	469.88
401.734	465.88
401.958	458.88
402.182	463.88
402.406	465.88
402.63	465.88
402.854	448.88
403.078	466.88
403.302	483.88
403.526	480.88
403.75	474.88
403.974	465.88
404.198	467.88
404.422	477.88
404.645	482.88
404.869	496.88
405.093	518.88
405.317	553.88
405.541	616.88
405.765	537.88
405.988	521.88
406.212	521.88
406.436	534.88
406.66	533.88
406.883	521.88
407.107	534.88
407.331	575.88
407.555	671.88
407.778	627.88
408.002	577.88
408.226	530.88
408.449	500.88
408.673	531.88
408.896	552.88
409.12	564.88
409.344	579.88
409.567	490.88
409.791	489.88
410.014	462.88
410.238	477.88
410.461	492.88
410.685	495.88
410.908	493.88
411.132	522.88
411.355	561.88
411.578	557.88
411.802	491.88
412.025	487.88
412.249	495.88
412.472	499.88
412.695	550.88
412.919	537.88
413.142	506.88
413.365	456.88
413.589	456.88
413.812	445.88
414.035	453.88
414.258	448.88
414.482	439.88
414.705	446.88
414.928	430.88
415.151	439.88
415.374	442.88
415.597	456.88
415.821	421.88
416.044	426.88
416.267	457.88
416.49	452.88
416.713	450.88
416.936	451.88
417.159	429.88
417.382	458.88
417.605	453.88
417.828	473.88
418.051	481.88
418.274	468.88
418.497	453.88
418.72	452.88
418.943	463.88
419.166	470.88
419.389	479.88
419.611	475.88
419.834	484.88
420.057	476.88
420.28	478.88
420.503	479.88
420.726	481.88
420.948	510.88
421.171	545.88
421.394	592.88
421.617	511.88
421.839	479.88
422.062	485.88
422.285	498.88
422.507	570.88
422.73	616.88
422.953	609.88
423.175	533.88
423.398	485.88
423.621	509.88
423.843	529.88
424.066	519.88
424.288	542.88
424.511	568.88
424.733	612.88
424.956	673.88
425.178	666.88
425.401	641.88
425.623	697.88
425.846	586.88
426.068	519.88
426.291	536.88
426.513	520.88
426.735	561.88
426.958	594.88
427.18	680.88
427.402	794.88
427.625	898.88
427.847	803.88
428.069	687.88
428.292	631.88
428.514	534.88
428.736	549.88
428.958	522.88
429.181	517.88
429.403	511.88
429.625	497.88
429.847	542.88
430.069	601.88
430.292	628.88
430.514	527.88
430.736	498.88
430.958	497.88
431.18	466.88
431.402	453.88
431.624	447.88
431.846	465.88
432.068	471.88
432.29	450.88
432.512	457.88
432.734	475.88
432.956	457.88
433.178	483.88
433.4	493.88
433.622	455.88
433.844	465.88
434.066	461.88
434.287	437.88
434.509	448.88
434.731	470.88
434.953	487.88
435.175	496.88
435.397	509.88
435.618	527.88
435.84	565.88
436.062	697.88
436.284	741.88
436.505	622.88
436.727	567.88
436.949	517.88
437.17	500.88
437.392	489.88
437.614	530.88
437.835	573.88
438.057	671.88
438.278	769.88
438.5	755.88
438.721	842.88
438.943	790.88
439.165	653.88
439.386	576.88
439.608	559.88
439.829	573.88
440.05	604.88
440.272	636.88
440.493	614.88
440.715	544.88
440.936	519.88
441.158	491.88
441.379	485.88
441.6	524.88
441.822	526.88
442.043	579.88
442.264	664.88
442.486	733.88
442.707	603.88
442.928	579.88
443.149	545.88
443.371	603.88
443.592	633.88
443.813	700.88
444.034	787.88
444.255	634.88
444.476	563.88
444.698	537.88
444.919	545.88
445.14	642.88
445.361	605.88
445.582	593.88
445.803	651.88
446.024	773.88
446.245	784.88
446.466	731.88
446.687	622.88
446.908	561.88
447.129	500.88
447.35	497.88
447.571	523.88
447.792	491.88
448.013	493.88
448.234	549.88
448.455	617.88
448.675	701.88
448.896	813.88
449.117	701.88
449.338	649.88
449.559	757.88
449.779	843.88
450	673.88
450.221	588.88
450.442	523.88
450.662	515.88
450.883	514.88
451.104	526.88
451.324	531.88
451.545	495.88
451.766	485.88
451.986	453.88
452.207	445.88
452.428	443.88
452.648	433.88
452.869	484.88
453.089	458.88
453.31	491.88
453.53	463.88
453.751	439.88
453.971	478.88
454.192	477.88
454.412	457.88
454.633	459.88
454.853	454.88
455.073	426.88
455.294	473.88
455.514	558.88
455.734	532.88
455.955	453.88
456.175	419.88
456.395	430.88
456.616	405.88
456.836	428.88
457.056	409.88
457.276	402.88
457.497	414.88
457.717	410.88
457.937	409.88
458.157	429.88
458.377	418.88
458.598	457.88
458.818	521.88
459.038	630.88
459.258	663.88
459.478	520.88
459.698	481.88
459.918	475.88
460.138	437.88
460.358	448.88
460.578	469.88
460.798	455.88
461.018	459.88
461.238	464.88
461.458	450.88
461.678	453.88
461.898	431.88
462.118	432.88
462.338	441.88
462.558	448.88
462.777	462.88
462.997	462.88
463.217	466.88
463.437	444.88
463.657	455.88
463.876	456.88
464.096	491.88
464.316	464.88
464.536	495.88
464.755	498.88
464.975	507.88
465.195	528.88
465.414	646.88
465.634	579.88
465.854	522.88
466.073	466.88
466.293	452.88
466.512	459.88
466.732	447.88
466.951	464.88
467.171	440.88
467.391	454.88
467.61	462.88
467.829	458.88
468.049	433.88
468.268	451.88
468.488	440.88
468.707	416.88
468.927	437.88
469.146	435.88
469.365	433.88
469.585	433.88
469.804	447.88
470.023	493.88
470.243	452.88
470.462	473.88
470.681	483.88
470.901	505.88
471.12	475.88
471.339	435.88
471.558	456.88
471.777	451.88
471.997	448.88
472.216	467.88
472.435	508.88
472.654	482.88
472.873	466.88
473.092	465.88
473.311	456.88
473.53	474.88
473.749	458.88
473.968	510.88
474.187	610.88
474.406	657.88
474.625	534.88
474.844	479.88
475.063	481.88
475.282	455.88
475.501	464.88
475.72	475.88
475.939	480.88
476.158	476.88
476.377	462.88
476.596	454.88
476.814	465.88
477.033	467.88
477.252	492.88
477.471	513.88
477.69	499.88
477.908	492.88
478.127	482.88
478.346	493.88
478.564	497.88
478.783	470.88
479.002	498.88
479.22	519.88
479.439	532.88
479.658	546.88
479.876	553.88
480.095	584.88
480.313	579.88
480.532	582.88
480.751	549.88
480.969	577.88
481.188	637.88
481.406	672.88
481.624	601.88
481.843	599.88
482.061	582.88
482.28	523.88
482.498	545.88
482.717	552.88
482.935	557.88
483.153	554.88
483.372	529.88
483.59	546.88
483.808	531.88
484.027	524.88
484.245	542.88
484.463	529.88
484.681	554.88
484.9	559.88
485.118	562.88
485.336	556.88
485.554	557.88
485.772	580.88
485.99	568.88
486.209	565.88
486.427	549.88
486.645	595.88
486.863	600.88
487.081	586.88
487.299	617.88
487.517	578.88
487.735	573.88
487.953	582.88
488.171	584.88
488.389	571.88
488.607	589.88
488.825	575.88
489.043	591.88
489.261	606.88
489.479	595.88
489.696	619.88
489.914	606.88
490.132	626.88
490.35	605.88
490.568	597.88
490.786	632.88
491.003	637.88
491.221	645.88
491.439	669.88
491.657	656.88
491.874	664.88
492.092	691.88
492.31	694.88
492.527	703.88
492.745	694.88
492.963	702.88
493.18	710.88
493.398	708.88
493.615	713.88
493.833	695.88
494.05	729.88
494.268	712.88
494.485	708.88
494.703	715.88
494.92	689.88
495.138	705.88
495.355	710.88
495.573	693.88
495.79	709.88
496.008	705.88
496.225	707.88
496.442	695.88
496.66	704.88
496.877	712.88
497.094	682.88
497.312	706.88
497.529	714.88
497.746	712.88
497.963	717.88
498.181	738.88
498.398	775.88
498.615	761.88
498.832	771.88
499.049	734.88
499.267	790.88
499.484	788.88
499.701	794.88
499.918	829.88
500.135	823.88
500.352	841.88
500.569	848.88
500.786	834.88
501.003	860.88
501.22	854.88
501.437	884.88
501.654	841.88
501.871	851.88
502.088	836.88
502.305	822.88
502.522	744.88
502.739	755.88
502.956	742.88
503.172	727.88
503.389	716.88
503.606	749.88
503.823	728.88
504.04	707.88
504.256	712.88
504.473	698.88
504.69	697.88
504.907	721.88
505.123	706.88
505.34	678.88
505.557	686.88
505.773	682.88
505.99	681.88
506.207	694.88
506.423	702.88
506.64	687.88
506.856	659.88
507.073	670.88
507.289	665.88
507.506	659.88
507.722	680.88
507.939	696.88
508.155	682.88
508.372	662.88
508.588	662.88
508.805	697.88
509.021	650.88
509.238	653.88
509.454	685.88
509.67	657.88
509.887	670.88
510.103	664.88
510.319	691.88
510.536	799.88
510.752	1391.88
510.968	1133.88
511.184	710.88
511.401	668.88
511.617	657.88
511.833	627.88
512.049	625.88
512.265	659.88
512.481	647.88
512.698	647.88
512.914	629.88
513.13	613.88
513.346	634.88
513.562	616.88
513.778	637.88
513.994	656.88
514.21	680.88
514.426	685.88
514.642	770.88
514.858	796.88
515.074	860.88
515.29	1058.88
515.506	1617.88
515.721	1281.88
515.937	801.88
516.153	712.88
516.369	693.88
516.585	650.88
516.801	654.88
517.016	650.88
517.232	658.88
517.448	626.88
517.664	656.88
517.879	648.88
518.095	616.88
518.311	609.88
518.527	610.88
518.742	622.88
518.958	614.88
519.173	628.88
519.389	614.88
519.605	633.88
519.82	634.88
520.036	665.88
520.251	674.88
520.467	697.88
520.682	708.88
520.898	728.88
521.113	768.88
521.329	837.88
521.544	973.88
521.76	1261.88
521.975	2162.88
522.19	2082.88
522.406	1107.88
522.621	795.88
522.836	685.88
523.052	651.88
523.267	631.88
523.482	608.88
523.698	577.88
523.913	597.88
524.128	598.88
524.343	543.88
524.559	555.88
524.774	563.88
524.989	558.88
525.204	574.88
525.419	563.88
525.634	519.88
525.849	518.88
526.064	536.88
526.28	504.88
526.495	514.88
526.71	499.88
526.925	480.88
527.14	481.88
527.355	508.88
527.57	495.88
527.785	493.88
527.999	507.88
528.214	506.88
528.429	510.88
528.644	505.88
528.859	491.88
529.074	512.88
529.289	533.88
529.503	635.88
529.718	615.88
529.933	555.88
530.148	538.88
530.363	504.88
530.577	493.88
530.792	497.88
531.007	473.88
531.221	489.88
531.436	470.88
531.651	487.88
531.865	462.88
532.08	479.88
532.295	457.88
532.509	465.88
532.724	468.88
532.938	485.88
533.153	452.88
533.367	456.88
533.582	455.88
533.796	459.88
534.011	455.88
534.225	468.88
534.44	452.88
534.654	458.88
534.868	458.88
535.083	459.88
535.297	452.88
535.511	462.88
535.726	484.88
535.94	465.88
536.154	469.88
536.369	469.88
536.583	450.88
536.797	457.88
537.011	443.88
537.225	462.88
537.44	448.88
537.654	430.88
537.868	461.88
538.082	452.88
538.296	463.88
538.51	457.88
538.724	447.88
538.938	454.88
539.153	450.88
539.367	498.88
539.581	477.88
539.795	462.88
540.009	435.88
540.222	448.88
540.436	447.88
540.65	452.88
540.864	458.88
541.078	449.88
541.292	476.88
541.506	445.88
541.72	451.88
541.934	467.88
542.147	438.88
542.361	440.88
542.575	437.88
542.789	435.88
543.002	419.88
543.216	434.88
543.43	454.88
543.644	452.88
543.857	451.88
544.071	432.88
544.285	445.88
544.498	443.88
544.712	448.88
544.925	447.88
545.139	447.88
545.352	445.88
545.566	429.88
545.779	429.88
545.993	437.88
546.206	425.88
546.42	429.88
546.633	439.88
546.847	404.88
547.06	417.88
547.274	403.88
547.487	410.88
547.7	422.88
547.914	421.88
548.127	413.88
548.34	402.88
548.554	407.88
548.767	407.88
548.98	410.88
549.193	399.88
549.407	415.88
549.62	413.88
549.833	429.88
550.046	403.88
550.259	417.88
550.473	409.88
550.686	397.88
550.899	390.88
551.112	421.88
551.325	401.88
551.538	419.88
551.751	409.88
551.964	412.88
552.177	413.88
552.39	394.88
552.603	406.88
552.816	420.88
553.029	397.88
553.242	404.88
553.455	418.88
553.667	426.88
553.88	436.88
554.093	436.88
554.306	423.88
554.519	406.88
554.732	422.88
554.944	400.88
555.157	393.88
555.37	420.88
555.583	392.88
555.795	413.88
556.008	401.88
556.221	387.88
556.433	376.88
556.646	395.88
556.859	413.88
557.071	386.88
557.284	360.88
557.496	365.88
557.709	381.88
557.921	402.88
558.134	389.88
558.346	359.88
558.559	365.88
558.771	375.88
558.984	369.88
559.196	393.88
559.409	379.88
559.621	363.88
559.833	371.88
560.046	375.88
560.258	375.88
560.47	387.88
560.683	362.88
560.895	369.88
561.107	364.88
561.32	367.88
561.532	384.88
561.744	361.88
561.956	365.88
562.168	359.88
562.381	378.88
562.593	368.88
562.805	377.88
563.017	377.88
563.229	374.88
563.441	360.88
563.653	387.88
563.865	360.88
564.077	373.88
564.289	379.88
564.501	379.88
564.713	388.88
564.925	403.88
565.137	406.88
565.349	398.88
565.561	396.88
565.773	393.88
565.985	392.88
566.197	400.88
566.408	386.88
566.62	426.88
566.832	403.88
567.044	419.88
567.255	429.88
567.467	429.88
567.679	430.88
567.891	434.88
568.102	422.88
568.314	421.88
568.526	408.88
568.737	410.88
568.949	385.88
569.161	379.88
569.372	376.88
569.584	390.88
569.795	351.88
570.007	376.88
570.218	451.88
570.43	419.88
570.641	369.88
570.853	345.88
571.064	333.88
571.276	336.88
571.487	356.88
571.698	363.88
571.91	337.88
572.121	339.88
572.333	336.88
572.544	351.88
572.755	342.88
572.966	324.88
573.178	328.88
573.389	323.88
573.6	317.88
573.811	319.88
574.023	310.88
574.234	324.88
574.445	309.88
574.656	329.88
574.867	317.88
575.078	320.88
575.289	329.88
575.501	319.88
575.712	333.88
575.923	304.88
576.134	301.88
576.345	321.88
576.556	326.88
576.767	302.88
576.978	327.88
577.188	301.88
577.399	316.88
577.61	303.88
577.821	317.88
578.032	312.88
578.243	378.88
578.454	659.88
578.665	467.88
578.875	325.88
579.086	312.88
579.297	306.88
579.508	299.88
579.718	293.88
579.929	317.88
580.14	290.88
580.35	299.88
580.561	305.88
580.772	282.88
580.982	312.88
581.193	301.88
581.403	298.88
581.614	289.88
581.825	279.88
582.035	298.88
582.246	296.88
582.456	292.88
582.667	306.88
582.877	310.88
583.087	309.88
583.298	292.88
583.508	288.88
583.719	289.88
583.929	303.88
584.139	287.88
584.35	282.88
584.56	274.88
584.77	277.88
584.981	273.88
585.191	294.88
585.401	302.88
585.611	303.88
585.821	275.88
586.032	300.88
586.242	285.88
586.452	281.88
586.662	286.88
586.872	292.88
587.082	293.88
587.292	294.88
587.502	264.88
587.713	279.88
587.923	283.88
588.133	293.88
588.343	290.88
588.553	287.88
588.762	277.88
588.972	290.88
589.182	279.88
589.392	271.88
589.602	282.88
589.812	278.88
590.022	282.88
590.232	266.88
590.441	274.88
590.651	282.88
590.861	267.88
591.071	285.88
591.281	267.88
591.49	290.88
591.7	285.88
591.91	289.88
592.119	281.88
592.329	289.88
592.539	291.88
592.748	275.88
592.958	263.88
593.167	273.88
593.377	284.88
593.587	280.88
593.796	284.88
594.006	269.88
594.215	281.88
594.424	284.88
594.634	285.88
594.843	261.88
595.053	281.88
595.262	274.88
595.472	281.88
595.681	273.88
595.89	277.88
596.1	269.88
596.309	258.88
596.518	263.88
596.727	266.88
596.937	276.88
597.146	262.88
597.355	252.88
597.564	262.88
597.774	247.88
597.983	233.88
598.192	276.88
598.401	262.88
598.61	265.88
598.819	261.88
599.028	257.88
599.237	261.88
599.446	256.88
599.655	247.88
599.864	244.88
600.073	271.88
600.282	248.88
600.491	238.88
600.7	256.88
600.909	258.88
601.118	234.88
601.327	246.88
601.536	247.88
601.745	253.88
601.953	239.88
602.162	240.88
602.371	250.88
602.58	244.88
602.789	226.88
602.997	237.88
603.206	224.88
603.415	226.88
603.623	237.88
603.832	233.88
604.041	243.88
604.249	224.88
604.458	226.88
604.666	235.88
604.875	222.88
605.084	245.88
605.292	253.88
605.501	238.88
605.709	240.88
605.918	225.88
606.126	240.88
606.334	254.88
606.543	226.88
606.751	222.88
606.96	218.88
607.168	220.88
607.376	221.88
607.585	233.88
607.793	238.88
608.001	241.88
608.21	242.88
608.418	225.88
608.626	228.88
608.834	230.88
609.043	209.88
609.251	226.88
609.459	228.88
609.667	233.88
609.875	233.88
610.083	227.88
610.291	242.88
610.499	220.88
610.707	225.88
610.916	216.88
611.124	241.88
611.332	241.88
611.54	235.88
611.748	241.88
611.955	245.88
612.163	234.88
612.371	225.88
612.579	224.88
612.787	224.88
612.995	219.88
613.203	245.88
613.411	228.88
613.618	216.88
613.826	233.88
614.034	218.88
614.242	229.88
614.449	229.88
614.657	221.88
614.865	221.88
615.072	220.88
615.28	227.88
615.488	191.88
615.695	233.88
615.903	232.88
616.111	246.88
616.318	217.88
616.526	245.88
616.733	224.88
616.941	212.88
617.148	219.88
617.356	238.88
617.563	233.88
617.771	219.88
617.978	221.88
618.185	216.88
618.393	219.88
618.6	226.88
618.807	226.88
619.015	207.88
619.222	213.88
619.429	209.88
619.637	225.88
619.844	197.88
620.051	217.88
620.258	220.88
620.466	235.88
620.673	219.88
620.88	214.88
621.087	214.88
621.294	210.88
621.501	215.88
621.708	210.88
621.915	220.88
622.122	215.88
622.329	201.88
622.536	206.88
622.743	212.88
622.95	203.88
623.157	201.88
623.364	209.88
623.571	210.88
623.778	213.88
623.985	202.88
624.192	198.88
624.399	207.88
624.606	195.88
624.812	186.88
625.019	180.88
625.226	189.88
625.433	203.88
625.639	206.88
625.846	208.88
626.053	191.88
626.259	189.88
626.466	217.88
626.673	185.88
626.879	181.88
627.086	199.88
627.293	201.88
627.499	192.88
627.706	207.88
627.912	195.88
628.119	194.88
628.325	186.88
628.532	199.88
628.738	196.88
628.945	192.88
629.151	186.88
629.357	176.88
629.564	182.88
629.77	184.88
629.976	203.88
630.183	183.88
630.389	183.88
630.595	186.88
630.802	177.88
631.008	198.88
631.214	185.88
631.42	195.88
631.627	211.88
631.833	170.88
632.039	192.88
632.245	173.88
632.451	187.88
632.657	200.88
632.863	184.88
633.069	160.88
633.275	176.88
633.481	178.88
633.688	172.88
633.893	186.88
634.099	169.88
634.305	183.88
634.511	182.88
634.717	183.88
634.923	160.88
635.129	177.88
635.335	169.88
635.541	171.88
635.747	167.88
635.952	169.88
636.158	157.88
636.364	193.88
636.57	186.88
636.775	179.88
636.981	175.88
637.187	190.88
637.392	171.88
637.598	187.88
637.804	183.88
638.009	169.88
638.215	166.88
638.421	166.88
638.626	151.88
638.832	173.88
639.037	177.88
639.243	187.88
639.448	165.88
639.654	173.88
639.859	160.88
640.065	173.88
640.27	171.88
640.475	176.88
640.681	157.88
640.886	175.88
641.091	164.88
641.297	171.88
641.502	169.88
641.707	165.88
641.913	166.88
642.118	183.88
642.323	172.88
642.528	157.88
642.733	180.88
642.939	153.88
643.144	164.88
643.349	171.88
643.554	162.88
643.759	169.88
643.964	155.88
644.169	166.88
644.374	151.88
644.579	150.88
644.784	149.88
644.989	149.88
645.194	155.88
645.399	159.88
645.604	149.88
645.809	162.88
646.014	147.88
646.219	173.88
646.423	169.88
646.628	172.88
646.833	179.88
647.038	157.88
647.243	146.88
647.447	175.88
647.652	168.88
647.857	149.88
648.062	170.88
648.266	162.88
648.471	161.88
648.676	168.88
648.88	169.88
649.085	154.88
649.289	149.88
649.494	164.88
649.698	199.88
649.903	172.88
650.107	169.88
650.312	167.88
650.516	153.88
650.721	146.88
650.925	151.88
651.13	131.88
651.334	144.88
651.539	136.88
651.743	157.88
651.947	150.88
652.152	138.88
652.356	132.88
652.56	137.88
652.764	143.88
652.969	137.88
653.173	137.88
653.377	127.88
653.581	134.88
653.785	122.88
653.99	131.88
654.194	122.88
654.398	121.88
654.602	150.88
654.806	128.88
655.01	135.88
655.214	135.88
655.418	122.88
655.622	111.88
655.826	121.88
656.03	114.88
656.234	124.88
656.438	123.88
656.642	127.88
656.846	129.88
657.049	107.88
657.253	121.88
657.457	123.88
657.661	114.88
657.865	120.88
658.068	109.88
658.272	102.88
658.476	109.88
658.68	104.88
658.883	94.88
659.087	89.88
659.291	102.88
659.494	99.88
659.698	92.88
659.901	97.88
660.105	106.88
660.309	82.88
660.512	98.88
660.716	85.88
660.919	77.88
661.123	96.88
661.326	72.88
661.53	96.88
661.733	91.88
661.936	86.88
662.14	85.88
662.343	75.88
662.546	79.88
662.75	88.88
662.953	87.88
663.156	82.88
663.36	68.88
663.563	92.88
663.766	78.88
663.969	88.88
664.173	79.88
664.376	91.88
664.579	72.88
664.782	71.88
664.985	90.88
665.188	80.88
665.391	78.88
665.594	74.88
665.797	93.88
666	79.88
666.203	79.88
666.406	82.88
666.609	85.88
666.812	74.88
667.015	74.88
667.218	68.88
667.421	77.88
667.624	75.88
667.827	82.88
668.03	86.88
668.232	84.88
668.435	72.88
668.638	86.88
668.841	81.88
669.043	65.88
669.246	79.88
669.449	70.88
669.651	81.88
669.854	72.88
670.057	85.88
670.259	79.88
670.462	73.88
670.665	73.88
670.867	78.88
671.07	82.88
671.272	73.88
671.475	58.88
671.677	75.88
671.88	67.88
672.082	79.88
672.284	71.88
672.487	75.88
672.689	83.88
672.892	83.88
