Data from 1980.PennyLincolnUp.Lamp.En5.5.200Scan.071819.P1_HRD10591_16-38-54-958.txt Node
Date: Thu Jul 18 16:38:54 EDT 2019
User: cochatt
Spectrometer: HR+D1059
Trigger mode: 1
Integration Time (sec): 1.000000E-1
Scans to average: 1
Electric dark correction enabled: true
Nonlinearity correction enabled: false
Boxcar width: 0
XAxis mode: Wavelengths
Number of Pixels in Spectrum: 2048
>>>>>Begin Spectral Data<<<<<
223.165	-12.31
223.4	-12.31
223.635	-12.31
223.869	-30.31
224.104	-13.31
224.338	-15.31
224.573	-9.31
224.808	-8.31
225.042	-5.31
225.277	-21.31
225.511	-0.31
225.746	11.69
225.98	3.69
226.215	14.69
226.449	21.69
226.683	4.69
226.918	22.69
227.152	36.69
227.387	18.69
227.621	31.69
227.856	42.69
228.09	53.69
228.324	53.69
228.559	58.69
228.793	73.69
229.027	102.69
229.262	99.69
229.496	125.69
229.73	147.69
229.964	161.69
230.199	136.69
230.433	126.69
230.667	97.69
230.901	121.69
231.136	115.69
231.37	122.69
231.604	126.69
231.838	119.69
232.072	121.69
232.306	120.69
232.541	117.69
232.775	134.69
233.009	126.69
233.243	115.69
233.477	108.69
233.711	117.69
233.945	123.69
234.179	113.69
234.413	117.69
234.647	103.69
234.881	121.69
235.115	122.69
235.349	118.69
235.583	135.69
235.817	119.69
236.051	118.69
236.285	130.69
236.519	130.69
236.753	136.69
236.987	155.69
237.221	200.69
237.455	247.69
237.689	215.69
237.922	146.69
238.156	143.69
238.39	151.69
238.624	119.69
238.858	124.69
239.091	124.69
239.325	132.69
239.559	117.69
239.793	133.69
240.027	138.69
240.26	139.69
240.494	167.69
240.728	163.69
240.961	153.69
241.195	148.69
241.429	137.69
241.662	123.69
241.896	144.69
242.13	149.69
242.363	137.69
242.597	152.69
242.83	133.69
243.064	133.69
243.298	146.69
243.531	135.69
243.765	150.69
243.998	135.69
244.232	154.69
244.465	149.69
244.699	157.69
244.932	142.69
245.166	155.69
245.399	137.69
245.633	153.69
245.866	155.69
246.099	140.69
246.333	156.69
246.566	151.69
246.8	157.69
247.033	155.69
247.266	174.69
247.5	170.69
247.733	185.69
247.966	179.69
248.2	171.69
248.433	181.69
248.666	168.69
248.899	201.69
249.133	221.69
249.366	208.69
249.599	198.69
249.832	190.69
250.066	195.69
250.299	183.69
250.532	195.69
250.765	217.69
250.998	231.69
251.231	247.69
251.465	238.69
251.698	233.69
251.931	220.69
252.164	181.69
252.397	211.69
252.63	220.69
252.863	225.69
253.096	241.69
253.329	243.69
253.562	235.69
253.795	237.69
254.028	222.69
254.261	229.69
254.494	244.69
254.727	263.69
254.96	295.69
255.193	298.69
255.426	263.69
255.659	242.69
255.892	252.69
256.124	259.69
256.357	235.69
256.59	221.69
256.823	223.69
257.056	230.69
257.289	236.69
257.521	213.69
257.754	234.69
257.987	218.69
258.22	218.69
258.452	219.69
258.685	226.69
258.918	221.69
259.151	228.69
259.383	220.69
259.616	232.69
259.849	241.69
260.081	263.69
260.314	270.69
260.547	284.69
260.779	259.69
261.012	250.69
261.244	234.69
261.477	213.69
261.71	218.69
261.942	224.69
262.175	244.69
262.407	259.69
262.64	219.69
262.872	226.69
263.105	214.69
263.337	208.69
263.57	212.69
263.802	230.69
264.035	203.69
264.267	205.69
264.499	213.69
264.732	220.69
264.964	224.69
265.197	222.69
265.429	197.69
265.661	221.69
265.894	211.69
266.126	208.69
266.358	208.69
266.591	208.69
266.823	220.69
267.055	213.69
267.287	231.69
267.52	245.69
267.752	234.69
267.984	236.69
268.216	247.69
268.448	228.69
268.681	235.69
268.913	253.69
269.145	262.69
269.377	287.69
269.609	286.69
269.841	263.69
270.073	285.69
270.306	297.69
270.538	330.69
270.77	331.69
271.002	298.69
271.234	318.69
271.466	317.69
271.698	309.69
271.93	336.69
272.162	341.69
272.394	343.69
272.626	316.69
272.858	309.69
273.09	301.69
273.322	284.69
273.553	271.69
273.785	269.69
274.017	277.69
274.249	285.69
274.481	255.69
274.713	280.69
274.945	258.69
275.176	267.69
275.408	276.69
275.64	266.69
275.872	264.69
276.104	270.69
276.335	271.69
276.567	275.69
276.799	294.69
277.031	320.69
277.262	323.69
277.494	322.69
277.726	322.69
277.957	278.69
278.189	295.69
278.421	273.69
278.652	267.69
278.884	261.69
279.115	279.69
279.347	257.69
279.579	269.69
279.81	242.69
280.042	241.69
280.273	263.69
280.505	240.69
280.736	248.69
280.968	267.69
281.199	263.69
281.431	251.69
281.662	270.69
281.894	271.69
282.125	252.69
282.356	299.69
282.588	308.69
282.819	292.69
283.051	275.69
283.282	264.69
283.513	277.69
283.745	286.69
283.976	284.69
284.207	245.69
284.439	262.69
284.67	271.69
284.901	258.69
285.132	275.69
285.364	268.69
285.595	274.69
285.826	259.69
286.057	264.69
286.288	263.69
286.52	260.69
286.751	270.69
286.982	279.69
287.213	270.69
287.444	261.69
287.675	273.69
287.906	275.69
288.138	303.69
288.369	322.69
288.6	305.69
288.831	300.69
289.062	281.69
289.293	285.69
289.524	288.69
289.755	267.69
289.986	281.69
290.217	266.69
290.448	271.69
290.679	278.69
290.91	278.69
291.141	291.69
291.371	274.69
291.602	265.69
291.833	277.69
292.064	275.69
292.295	305.69
292.526	280.69
292.757	287.69
292.987	273.69
293.218	272.69
293.449	274.69
293.68	293.69
293.91	293.69
294.141	282.69
294.372	269.69
294.603	266.69
294.833	281.69
295.064	283.69
295.295	280.69
295.525	276.69
295.756	277.69
295.987	278.69
296.217	313.69
296.448	327.69
296.679	295.69
296.909	274.69
297.14	287.69
297.37	294.69
297.601	276.69
297.831	282.69
298.062	262.69
298.292	282.69
298.523	277.69
298.753	298.69
298.984	303.69
299.214	287.69
299.445	297.69
299.675	307.69
299.905	294.69
300.136	292.69
300.366	290.69
300.597	295.69
300.827	294.69
301.057	290.69
301.288	309.69
301.518	322.69
301.748	318.69
301.979	292.69
302.209	315.69
302.439	299.69
302.669	306.69
302.9	319.69
303.13	316.69
303.36	296.69
303.59	317.69
303.82	329.69
304.051	323.69
304.281	325.69
304.511	307.69
304.741	320.69
304.971	305.69
305.201	295.69
305.431	319.69
305.661	310.69
305.891	296.69
306.121	331.69
306.352	340.69
306.582	345.69
306.812	312.69
307.042	293.69
307.272	295.69
307.502	315.69
307.731	333.69
307.961	324.69
308.191	322.69
308.421	330.69
308.651	315.69
308.881	334.69
309.111	314.69
309.341	346.69
309.571	336.69
309.8	365.69
310.03	355.69
310.26	375.69
310.49	362.69
310.72	373.69
310.949	407.69
311.179	422.69
311.409	397.69
311.639	378.69
311.868	363.69
312.098	370.69
312.328	386.69
312.557	398.69
312.787	441.69
313.017	418.69
313.246	369.69
313.476	373.69
313.706	375.69
313.935	380.69
314.165	391.69
314.394	409.69
314.624	399.69
314.853	377.69
315.083	373.69
315.312	372.69
315.542	369.69
315.771	358.69
316.001	358.69
316.23	353.69
316.46	355.69
316.689	379.69
316.919	391.69
317.148	394.69
317.377	416.69
317.607	374.69
317.836	348.69
318.065	369.69
318.295	369.69
318.524	372.69
318.753	370.69
318.983	380.69
319.212	353.69
319.441	357.69
319.67	390.69
319.9	364.69
320.129	359.69
320.358	382.69
320.587	364.69
320.816	381.69
321.046	399.69
321.275	408.69
321.504	387.69
321.733	405.69
321.962	429.69
322.191	422.69
322.42	447.69
322.649	454.69
322.878	467.69
323.108	486.69
323.337	513.69
323.566	525.69
323.795	568.69
324.024	639.69
324.253	794.69
324.482	1134.69
324.71	1775.69
324.939	2549.69
325.168	2215.69
325.397	1159.69
325.626	782.69
325.855	623.69
326.084	555.69
326.313	534.69
326.542	553.69
326.77	581.69
326.999	694.69
327.228	1011.69
327.457	1528.69
327.686	1892.69
327.914	1317.69
328.143	843.69
328.372	721.69
328.6	666.69
328.829	620.69
329.058	627.69
329.287	675.69
329.515	604.69
329.744	549.69
329.972	566.69
330.201	567.69
330.43	612.69
330.658	659.69
330.887	699.69
331.115	663.69
331.344	585.69
331.572	521.69
331.801	490.69
332.03	478.69
332.258	490.69
332.486	444.69
332.715	451.69
332.943	427.69
333.172	447.69
333.4	452.69
333.629	453.69
333.857	473.69
334.085	486.69
334.314	505.69
334.542	527.69
334.771	550.69
334.999	509.69
335.227	459.69
335.455	453.69
335.684	416.69
335.912	430.69
336.14	410.69
336.369	425.69
336.597	434.69
336.825	421.69
337.053	421.69
337.281	407.69
337.51	432.69
337.738	395.69
337.966	411.69
338.194	426.69
338.422	434.69
338.65	429.69
338.878	404.69
339.106	417.69
339.334	399.69
339.562	400.69
339.79	413.69
340.018	397.69
340.246	413.69
340.474	427.69
340.702	396.69
340.93	409.69
341.158	396.69
341.386	406.69
341.614	395.69
341.842	414.69
342.07	415.69
342.298	404.69
342.526	399.69
342.754	415.69
342.981	420.69
343.209	369.69
343.437	397.69
343.665	416.69
343.893	372.69
344.12	407.69
344.348	388.69
344.576	389.69
344.804	414.69
345.031	423.69
345.259	439.69
345.487	437.69
345.714	419.69
345.942	411.69
346.17	412.69
346.397	374.69
346.625	402.69
346.853	395.69
347.08	406.69
347.308	411.69
347.535	417.69
347.763	441.69
347.99	412.69
348.218	429.69
348.445	396.69
348.673	419.69
348.9	409.69
349.128	405.69
349.355	389.69
349.583	393.69
349.81	373.69
350.037	370.69
350.265	373.69
350.492	376.69
350.72	402.69
350.947	402.69
351.174	394.69
351.402	410.69
351.629	413.69
351.856	409.69
352.083	421.69
352.311	445.69
352.538	435.69
352.765	426.69
352.992	417.69
353.22	420.69
353.447	400.69
353.674	388.69
353.901	374.69
354.128	391.69
354.355	366.69
354.583	369.69
354.81	356.69
355.037	349.69
355.264	374.69
355.491	353.69
355.718	374.69
355.945	357.69
356.172	363.69
356.399	382.69
356.626	400.69
356.853	353.69
357.08	353.69
357.307	371.69
357.534	380.69
357.761	360.69
357.988	367.69
358.215	382.69
358.441	359.69
358.668	365.69
358.895	362.69
359.122	363.69
359.349	386.69
359.576	412.69
359.802	437.69
360.029	453.69
360.256	472.69
360.483	436.69
360.709	418.69
360.936	423.69
361.163	419.69
361.39	422.69
361.616	421.69
361.843	410.69
362.07	405.69
362.296	414.69
362.523	381.69
362.749	410.69
362.976	377.69
363.203	379.69
363.429	369.69
363.656	387.69
363.882	377.69
364.109	375.69
364.335	374.69
364.562	383.69
364.788	397.69
365.015	368.69
365.241	378.69
365.468	381.69
365.694	395.69
365.92	407.69
366.147	361.69
366.373	383.69
366.599	385.69
366.826	373.69
367.052	368.69
367.278	374.69
367.505	375.69
367.731	385.69
367.957	363.69
368.184	383.69
368.41	376.69
368.636	389.69
368.862	379.69
369.089	361.69
369.315	381.69
369.541	376.69
369.767	361.69
369.993	389.69
370.219	379.69
370.445	355.69
370.672	349.69
370.898	378.69
371.124	353.69
371.35	357.69
371.576	354.69
371.802	345.69
372.028	358.69
372.254	340.69
372.48	351.69
372.706	350.69
372.932	364.69
373.158	346.69
373.384	375.69
373.61	358.69
373.835	375.69
374.061	352.69
374.287	368.69
374.513	372.69
374.739	364.69
374.965	355.69
375.191	356.69
375.416	377.69
375.642	363.69
375.868	377.69
376.094	366.69
376.319	379.69
376.545	369.69
376.771	365.69
376.997	358.69
377.222	358.69
377.448	344.69
377.674	362.69
377.899	358.69
378.125	362.69
378.35	350.69
378.576	374.69
378.802	350.69
379.027	366.69
379.253	364.69
379.478	359.69
379.704	352.69
379.929	364.69
380.155	346.69
380.38	368.69
380.606	379.69
380.831	375.69
381.057	360.69
381.282	369.69
381.507	366.69
381.733	364.69
381.958	383.69
382.184	382.69
382.409	379.69
382.634	378.69
382.86	375.69
383.085	367.69
383.31	369.69
383.535	386.69
383.761	369.69
383.986	358.69
384.211	391.69
384.436	363.69
384.662	377.69
384.887	381.69
385.112	356.69
385.337	373.69
385.562	390.69
385.787	389.69
386.013	388.69
386.238	409.69
386.463	381.69
386.688	377.69
386.913	380.69
387.138	384.69
387.363	379.69
387.588	391.69
387.813	380.69
388.038	376.69
388.263	371.69
388.488	402.69
388.713	392.69
388.938	375.69
389.163	384.69
389.387	380.69
389.612	377.69
389.837	400.69
390.062	391.69
390.287	375.69
390.512	377.69
390.736	373.69
390.961	382.69
391.186	387.69
391.411	381.69
391.636	393.69
391.86	397.69
392.085	378.69
392.31	381.69
392.534	374.69
392.759	396.69
392.984	381.69
393.208	386.69
393.433	387.69
393.658	388.69
393.882	374.69
394.107	376.69
394.331	371.69
394.556	382.69
394.78	390.69
395.005	384.69
395.229	398.69
395.454	412.69
395.678	403.69
395.903	409.69
396.127	424.69
396.352	423.69
396.576	399.69
396.801	408.69
397.025	390.69
397.249	397.69
397.474	406.69
397.698	416.69
397.922	421.69
398.147	422.69
398.371	438.69
398.595	397.69
398.82	407.69
399.044	419.69
399.268	439.69
399.492	469.69
399.717	468.69
399.941	509.69
400.165	525.69
400.389	551.69
400.613	501.69
400.837	456.69
401.062	449.69
401.286	452.69
401.51	431.69
401.734	435.69
401.958	441.69
402.182	434.69
402.406	464.69
402.63	468.69
402.854	441.69
403.078	440.69
403.302	470.69
403.526	463.69
403.75	468.69
403.974	460.69
404.198	451.69
404.422	445.69
404.645	471.69
404.869	474.69
405.093	508.69
405.317	525.69
405.541	585.69
405.765	526.69
405.988	500.69
406.212	513.69
406.436	534.69
406.66	547.69
406.883	523.69
407.107	548.69
407.331	588.69
407.555	628.69
407.778	651.69
408.002	578.69
408.226	518.69
408.449	514.69
408.673	523.69
408.896	521.69
409.12	586.69
409.344	547.69
409.567	484.69
409.791	494.69
410.014	475.69
410.238	497.69
410.461	458.69
410.685	471.69
410.908	489.69
411.132	522.69
411.355	535.69
411.578	518.69
411.802	472.69
412.025	461.69
412.249	457.69
412.472	508.69
412.695	537.69
412.919	552.69
413.142	488.69
413.365	458.69
413.589	438.69
413.812	452.69
414.035	430.69
414.258	429.69
414.482	439.69
414.705	419.69
414.928	456.69
415.151	429.69
415.374	423.69
415.597	407.69
415.821	418.69
416.044	420.69
416.267	443.69
416.49	417.69
416.713	427.69
416.936	445.69
417.159	419.69
417.382	433.69
417.605	444.69
417.828	449.69
418.051	488.69
418.274	460.69
418.497	446.69
418.72	442.69
418.943	446.69
419.166	437.69
419.389	453.69
419.611	466.69
419.834	462.69
420.057	462.69
420.28	476.69
420.503	473.69
420.726	472.69
420.948	467.69
421.171	511.69
421.394	572.69
421.617	474.69
421.839	479.69
422.062	475.69
422.285	484.69
422.507	535.69
422.73	622.69
422.953	581.69
423.175	527.69
423.398	503.69
423.621	492.69
423.843	508.69
424.066	510.69
424.288	506.69
424.511	545.69
424.733	572.69
424.956	680.69
425.178	659.69
425.401	649.69
425.623	645.69
425.846	569.69
426.068	526.69
426.291	507.69
426.513	530.69
426.735	533.69
426.958	575.69
427.18	638.69
427.402	774.69
427.625	855.69
427.847	779.69
428.069	677.69
428.292	601.69
428.514	520.69
428.736	533.69
428.958	512.69
429.181	489.69
429.403	483.69
429.625	473.69
429.847	534.69
430.069	594.69
430.292	602.69
430.514	507.69
430.736	489.69
430.958	451.69
431.18	479.69
431.402	449.69
431.624	445.69
431.846	422.69
432.068	429.69
432.29	433.69
432.512	453.69
432.734	456.69
432.956	458.69
433.178	460.69
433.4	471.69
433.622	476.69
433.844	434.69
434.066	449.69
434.287	420.69
434.509	440.69
434.731	455.69
434.953	474.69
435.175	488.69
435.397	507.69
435.618	516.69
435.84	561.69
436.062	666.69
436.284	731.69
436.505	606.69
436.727	550.69
436.949	510.69
437.17	480.69
437.392	470.69
437.614	503.69
437.835	532.69
438.057	632.69
438.278	756.69
438.5	750.69
438.721	797.69
438.943	758.69
439.165	614.69
439.386	552.69
439.608	541.69
439.829	535.69
440.05	561.69
440.272	611.69
440.493	590.69
440.715	543.69
440.936	518.69
441.158	477.69
441.379	498.69
441.6	493.69
441.822	534.69
442.043	558.69
442.264	641.69
442.486	678.69
442.707	616.69
442.928	542.69
443.149	559.69
443.371	568.69
443.592	616.69
443.813	700.69
444.034	737.69
444.255	625.69
444.476	553.69
444.698	520.69
444.919	510.69
445.14	598.69
445.361	563.69
445.582	568.69
445.803	654.69
446.024	751.69
446.245	754.69
446.466	677.69
446.687	609.69
446.908	547.69
447.129	499.69
447.35	501.69
447.571	486.69
447.792	497.69
448.013	515.69
448.234	527.69
448.455	580.69
448.675	661.69
448.896	782.69
449.117	677.69
449.338	627.69
449.559	754.69
449.779	827.69
450	672.69
450.221	560.69
450.442	503.69
450.662	485.69
450.883	515.69
451.104	521.69
451.324	509.69
451.545	474.69
451.766	469.69
451.986	435.69
452.207	452.69
452.428	453.69
452.648	427.69
452.869	445.69
453.089	453.69
453.31	468.69
453.53	456.69
453.751	418.69
453.971	450.69
454.192	484.69
454.412	463.69
454.633	450.69
454.853	433.69
455.073	435.69
455.294	463.69
455.514	539.69
455.734	547.69
455.955	436.69
456.175	413.69
456.395	396.69
456.616	411.69
456.836	396.69
457.056	393.69
457.276	405.69
457.497	395.69
457.717	409.69
457.937	406.69
458.157	417.69
458.377	430.69
458.598	441.69
458.818	522.69
459.038	615.69
459.258	629.69
459.478	534.69
459.698	476.69
459.918	460.69
460.138	417.69
460.358	456.69
460.578	440.69
460.798	438.69
461.018	434.69
461.238	428.69
461.458	457.69
461.678	425.69
461.898	415.69
462.118	400.69
462.338	446.69
462.558	425.69
462.777	429.69
462.997	443.69
463.217	450.69
463.437	470.69
463.657	442.69
463.876	451.69
464.096	448.69
464.316	454.69
464.536	461.69
464.755	461.69
464.975	485.69
465.195	537.69
465.414	627.69
465.634	567.69
465.854	503.69
466.073	465.69
466.293	467.69
466.512	426.69
466.732	422.69
466.951	418.69
467.171	429.69
467.391	437.69
467.61	461.69
467.829	474.69
468.049	464.69
468.268	448.69
468.488	434.69
468.707	415.69
468.927	424.69
469.146	409.69
469.365	423.69
469.585	412.69
469.804	413.69
470.023	444.69
470.243	436.69
470.462	452.69
470.681	489.69
470.901	474.69
471.12	455.69
471.339	441.69
471.558	436.69
471.777	447.69
471.997	433.69
472.216	474.69
472.435	506.69
472.654	478.69
472.873	459.69
473.092	448.69
473.311	451.69
473.53	450.69
473.749	483.69
473.968	490.69
474.187	618.69
474.406	647.69
474.625	513.69
474.844	474.69
475.063	471.69
475.282	461.69
475.501	462.69
475.72	460.69
475.939	464.69
476.158	468.69
476.377	458.69
476.596	454.69
476.814	462.69
477.033	470.69
477.252	463.69
477.471	483.69
477.69	474.69
477.908	458.69
478.127	481.69
478.346	478.69
478.564	463.69
478.783	480.69
479.002	503.69
479.22	493.69
479.439	508.69
479.658	537.69
479.876	543.69
480.095	558.69
480.313	574.69
480.532	550.69
480.751	563.69
480.969	576.69
481.188	654.69
481.406	685.69
481.624	591.69
481.843	581.69
482.061	541.69
482.28	547.69
482.498	538.69
482.717	515.69
482.935	540.69
483.153	550.69
483.372	538.69
483.59	507.69
483.808	558.69
484.027	541.69
484.245	538.69
484.463	525.69
484.681	563.69
484.9	552.69
485.118	547.69
485.336	521.69
485.554	521.69
485.772	527.69
485.99	531.69
486.209	555.69
486.427	540.69
486.645	541.69
486.863	594.69
487.081	570.69
487.299	571.69
487.517	585.69
487.735	564.69
487.953	559.69
488.171	555.69
488.389	580.69
488.607	580.69
488.825	566.69
489.043	576.69
489.261	563.69
489.479	586.69
489.696	574.69
489.914	610.69
490.132	605.69
490.35	603.69
490.568	604.69
490.786	622.69
491.003	622.69
491.221	644.69
491.439	626.69
491.657	650.69
491.874	660.69
492.092	658.69
492.31	674.69
492.527	677.69
492.745	665.69
492.963	685.69
493.18	677.69
493.398	693.69
493.615	658.69
493.833	706.69
494.05	687.69
494.268	693.69
494.485	677.69
494.703	683.69
494.92	706.69
495.138	685.69
495.355	675.69
495.573	682.69
495.79	662.69
496.008	673.69
496.225	686.69
496.442	713.69
496.66	687.69
496.877	665.69
497.094	671.69
497.312	678.69
497.529	666.69
497.746	712.69
497.963	719.69
498.181	713.69
498.398	728.69
498.615	759.69
498.832	745.69
499.049	748.69
499.267	737.69
499.484	746.69
499.701	781.69
499.918	777.69
500.135	797.69
500.352	807.69
500.569	844.69
500.786	838.69
501.003	809.69
501.22	828.69
501.437	801.69
501.654	801.69
501.871	838.69
502.088	783.69
502.305	750.69
502.522	738.69
502.739	732.69
502.956	722.69
503.172	710.69
503.389	701.69
503.606	718.69
503.823	695.69
504.04	671.69
504.256	673.69
504.473	699.69
504.69	677.69
504.907	686.69
505.123	664.69
505.34	674.69
505.557	664.69
505.773	635.69
505.99	679.69
506.207	670.69
506.423	665.69
506.64	675.69
506.856	638.69
507.073	648.69
507.289	673.69
507.506	663.69
507.722	665.69
507.939	690.69
508.155	654.69
508.372	675.69
508.588	647.69
508.805	635.69
509.021	623.69
509.238	667.69
509.454	664.69
509.67	648.69
509.887	649.69
510.103	650.69
510.319	679.69
510.536	757.69
510.752	1390.69
510.968	1115.69
511.184	699.69
511.401	647.69
511.617	623.69
511.833	617.69
512.049	634.69
512.265	615.69
512.481	630.69
512.698	615.69
512.914	594.69
513.13	605.69
513.346	624.69
513.562	591.69
513.778	616.69
513.994	608.69
514.21	633.69
514.426	687.69
514.642	731.69
514.858	795.69
515.074	820.69
515.29	1037.69
515.506	1537.69
515.721	1267.69
515.937	806.69
516.153	730.69
516.369	691.69
516.585	637.69
516.801	627.69
517.016	627.69
517.232	636.69
517.448	615.69
517.664	607.69
517.879	597.69
518.095	609.69
518.311	595.69
518.527	623.69
518.742	591.69
518.958	616.69
519.173	592.69
519.389	604.69
519.605	619.69
519.82	654.69
520.036	655.69
520.251	649.69
520.467	714.69
520.682	697.69
520.898	725.69
521.113	755.69
521.329	823.69
521.544	956.69
521.76	1209.69
521.975	2123.69
522.19	2035.69
522.406	1083.69
522.621	777.69
522.836	683.69
523.052	651.69
523.267	610.69
523.482	606.69
523.698	570.69
523.913	585.69
524.128	581.69
524.343	537.69
524.559	547.69
524.774	523.69
524.989	549.69
525.204	520.69
525.419	533.69
525.634	539.69
525.849	535.69
526.064	517.69
526.28	497.69
526.495	485.69
526.71	473.69
526.925	487.69
527.14	497.69
527.355	480.69
527.57	478.69
527.785	490.69
527.999	487.69
528.214	476.69
528.429	498.69
528.644	503.69
528.859	512.69
529.074	484.69
529.289	525.69
529.503	625.69
529.718	622.69
529.933	540.69
530.148	502.69
530.363	515.69
530.577	496.69
530.792	493.69
531.007	477.69
531.221	477.69
531.436	477.69
531.651	468.69
531.865	474.69
532.08	486.69
532.295	466.69
532.509	443.69
532.724	461.69
532.938	462.69
533.153	440.69
533.367	446.69
533.582	447.69
533.796	452.69
534.011	449.69
534.225	443.69
534.44	449.69
534.654	438.69
534.868	453.69
535.083	455.69
535.297	459.69
535.511	443.69
535.726	476.69
535.94	491.69
536.154	463.69
536.369	428.69
536.583	450.69
536.797	446.69
537.011	444.69
537.225	431.69
537.44	443.69
537.654	442.69
537.868	453.69
538.082	424.69
538.296	443.69
538.51	430.69
538.724	443.69
538.938	429.69
539.153	442.69
539.367	460.69
539.581	457.69
539.795	434.69
540.009	436.69
540.222	439.69
540.436	433.69
540.65	445.69
540.864	430.69
541.078	441.69
541.292	467.69
541.506	447.69
541.72	438.69
541.934	452.69
542.147	440.69
542.361	438.69
542.575	446.69
542.789	425.69
543.002	435.69
543.216	446.69
543.43	430.69
543.644	454.69
543.857	444.69
544.071	454.69
544.285	443.69
544.498	416.69
544.712	450.69
544.925	445.69
545.139	418.69
545.352	431.69
545.566	437.69
545.779	420.69
545.993	433.69
546.206	413.69
546.42	414.69
546.633	408.69
546.847	426.69
547.06	434.69
547.274	388.69
547.487	401.69
547.7	393.69
547.914	408.69
548.127	411.69
548.34	420.69
548.554	429.69
548.767	408.69
548.98	413.69
549.193	406.69
549.407	404.69
549.62	383.69
549.833	427.69
550.046	420.69
550.259	399.69
550.473	411.69
550.686	390.69
550.899	397.69
551.112	399.69
551.325	397.69
551.538	408.69
551.751	383.69
551.964	389.69
552.177	426.69
552.39	414.69
552.603	409.69
552.816	403.69
553.029	398.69
553.242	403.69
553.455	405.69
553.667	419.69
553.88	429.69
554.093	421.69
554.306	406.69
554.519	418.69
554.732	391.69
554.944	408.69
555.157	393.69
555.37	382.69
555.583	385.69
555.795	385.69
556.008	359.69
556.221	389.69
556.433	367.69
556.646	369.69
556.859	349.69
557.071	377.69
557.284	380.69
557.496	373.69
557.709	385.69
557.921	378.69
558.134	385.69
558.346	360.69
558.559	373.69
558.771	372.69
558.984	357.69
559.196	376.69
559.409	357.69
559.621	369.69
559.833	366.69
560.046	356.69
560.258	357.69
560.47	356.69
560.683	362.69
560.895	361.69
561.107	342.69
561.32	348.69
561.532	369.69
561.744	357.69
561.956	361.69
562.168	348.69
562.381	362.69
562.593	354.69
562.805	373.69
563.017	355.69
563.229	360.69
563.441	369.69
563.653	366.69
563.865	364.69
564.077	385.69
564.289	341.69
564.501	382.69
564.713	371.69
564.925	367.69
565.137	389.69
565.349	394.69
565.561	387.69
565.773	376.69
565.985	380.69
566.197	389.69
566.408	388.69
566.62	406.69
566.832	383.69
567.044	405.69
567.255	421.69
567.467	417.69
567.679	409.69
567.891	393.69
568.102	406.69
568.314	407.69
568.526	391.69
568.737	374.69
568.949	385.69
569.161	363.69
569.372	356.69
569.584	369.69
569.795	353.69
570.007	367.69
570.218	411.69
570.43	401.69
570.641	372.69
570.853	359.69
571.064	354.69
571.276	337.69
571.487	343.69
571.698	337.69
571.91	327.69
572.121	341.69
572.333	324.69
572.544	329.69
572.755	313.69
572.966	338.69
573.178	320.69
573.389	317.69
573.6	324.69
573.811	329.69
574.023	290.69
574.234	318.69
574.445	325.69
574.656	327.69
574.867	322.69
575.078	305.69
575.289	305.69
575.501	302.69
575.712	293.69
575.923	317.69
576.134	325.69
576.345	298.69
576.556	323.69
576.767	306.69
576.978	313.69
577.188	308.69
577.399	283.69
577.61	319.69
577.821	303.69
578.032	305.69
578.243	359.69
578.454	652.69
578.665	466.69
578.875	336.69
579.086	316.69
579.297	300.69
579.508	297.69
579.718	291.69
579.929	277.69
580.14	277.69
580.35	289.69
580.561	298.69
580.772	297.69
580.982	306.69
581.193	296.69
581.403	280.69
581.614	283.69
581.825	286.69
582.035	309.69
582.246	301.69
582.456	297.69
582.667	272.69
582.877	270.69
583.087	289.69
583.298	295.69
583.508	321.69
583.719	285.69
583.929	287.69
584.139	281.69
584.35	275.69
584.56	281.69
584.77	281.69
584.981	281.69
585.191	288.69
585.401	290.69
585.611	293.69
585.821	289.69
586.032	299.69
586.242	277.69
586.452	266.69
586.662	285.69
586.872	275.69
587.082	270.69
587.292	285.69
587.502	281.69
587.713	269.69
587.923	291.69
588.133	272.69
588.343	261.69
588.553	275.69
588.762	294.69
588.972	281.69
589.182	270.69
589.392	270.69
589.602	271.69
589.812	267.69
590.022	287.69
590.232	275.69
590.441	280.69
590.651	291.69
590.861	273.69
591.071	264.69
591.281	284.69
591.49	268.69
591.7	276.69
591.91	272.69
592.119	278.69
592.329	288.69
592.539	298.69
592.748	262.69
592.958	293.69
593.167	272.69
593.377	265.69
593.587	266.69
593.796	285.69
594.006	286.69
594.215	285.69
594.424	276.69
594.634	264.69
594.843	267.69
595.053	288.69
595.262	282.69
595.472	283.69
595.681	253.69
595.89	271.69
596.1	262.69
596.309	267.69
596.518	247.69
596.727	264.69
596.937	265.69
597.146	249.69
597.355	250.69
597.564	251.69
597.774	276.69
597.983	252.69
598.192	250.69
598.401	263.69
598.61	253.69
598.819	258.69
599.028	261.69
599.237	244.69
599.446	266.69
599.655	236.69
599.864	257.69
600.073	233.69
600.282	273.69
600.491	260.69
600.7	221.69
600.909	234.69
601.118	246.69
601.327	233.69
601.536	230.69
601.745	230.69
601.953	236.69
602.162	222.69
602.371	246.69
602.58	235.69
602.789	231.69
602.997	227.69
603.206	244.69
603.415	241.69
603.623	227.69
603.832	255.69
604.041	234.69
604.249	241.69
604.458	231.69
604.666	235.69
604.875	242.69
605.084	227.69
605.292	235.69
605.501	226.69
605.709	242.69
605.918	229.69
606.126	221.69
606.334	232.69
606.543	223.69
606.751	246.69
606.96	235.69
607.168	226.69
607.376	235.69
607.585	231.69
607.793	226.69
608.001	218.69
608.21	229.69
608.418	239.69
608.626	235.69
608.834	237.69
609.043	215.69
609.251	232.69
609.459	230.69
609.667	222.69
609.875	233.69
610.083	211.69
610.291	226.69
610.499	216.69
610.707	238.69
610.916	225.69
611.124	242.69
611.332	224.69
611.54	234.69
611.748	252.69
611.955	225.69
612.163	236.69
612.371	234.69
612.579	214.69
612.787	226.69
612.995	242.69
613.203	226.69
613.411	234.69
613.618	245.69
613.826	224.69
614.034	215.69
614.242	230.69
614.449	221.69
614.657	229.69
614.865	213.69
615.072	218.69
615.28	218.69
615.488	204.69
615.695	215.69
615.903	219.69
616.111	229.69
616.318	260.69
616.526	226.69
616.733	205.69
616.941	216.69
617.148	220.69
617.356	217.69
617.563	218.69
617.771	223.69
617.978	213.69
618.185	221.69
618.393	205.69
618.6	218.69
618.807	209.69
619.015	202.69
619.222	227.69
619.429	221.69
619.637	214.69
619.844	229.69
620.051	218.69
620.258	213.69
620.466	221.69
620.673	219.69
620.88	201.69
621.087	196.69
621.294	213.69
621.501	211.69
621.708	217.69
621.915	218.69
622.122	213.69
622.329	209.69
622.536	217.69
622.743	192.69
622.95	207.69
623.157	196.69
623.364	206.69
623.571	214.69
623.778	211.69
623.985	211.69
624.192	196.69
624.399	190.69
624.606	209.69
624.812	195.69
625.019	217.69
625.226	196.69
625.433	214.69
625.639	197.69
625.846	212.69
626.053	200.69
626.259	203.69
626.466	195.69
626.673	185.69
626.879	205.69
627.086	193.69
627.293	196.69
627.499	201.69
627.706	219.69
627.912	183.69
628.119	212.69
628.325	197.69
628.532	204.69
628.738	198.69
628.945	185.69
629.151	201.69
629.357	197.69
629.564	185.69
629.77	194.69
629.976	191.69
630.183	183.69
630.389	179.69
630.595	189.69
630.802	191.69
631.008	183.69
631.214	190.69
631.42	187.69
631.627	189.69
631.833	188.69
632.039	181.69
632.245	171.69
632.451	181.69
632.657	177.69
632.863	170.69
633.069	168.69
633.275	190.69
633.481	180.69
633.688	196.69
633.893	188.69
634.099	168.69
634.305	175.69
634.511	188.69
634.717	184.69
634.923	178.69
635.129	172.69
635.335	177.69
635.541	186.69
635.747	163.69
635.952	168.69
636.158	166.69
636.364	170.69
636.57	178.69
636.775	181.69
636.981	173.69
637.187	171.69
637.392	169.69
637.598	155.69
637.804	188.69
638.009	165.69
638.215	189.69
638.421	172.69
638.626	167.69
638.832	173.69
639.037	134.69
639.243	163.69
639.448	169.69
639.654	158.69
639.859	158.69
640.065	150.69
640.27	163.69
640.475	165.69
640.681	158.69
640.886	166.69
641.091	165.69
641.297	158.69
641.502	161.69
641.707	158.69
641.913	185.69
642.118	165.69
642.323	162.69
642.528	162.69
642.733	163.69
642.939	169.69
643.144	166.69
643.349	165.69
643.554	161.69
643.759	161.69
643.964	147.69
644.169	165.69
644.374	156.69
644.579	165.69
644.784	171.69
644.989	165.69
645.194	152.69
645.399	149.69
645.604	149.69
645.809	146.69
646.014	171.69
646.219	149.69
646.423	162.69
646.628	165.69
646.833	135.69
647.038	178.69
647.243	181.69
647.447	150.69
647.652	169.69
647.857	163.69
648.062	152.69
648.266	168.69
648.471	172.69
648.676	157.69
648.88	154.69
649.085	145.69
649.289	171.69
649.494	164.69
649.698	192.69
649.903	188.69
650.107	179.69
650.312	169.69
650.516	157.69
650.721	151.69
650.925	155.69
651.13	141.69
651.334	142.69
651.539	155.69
651.743	157.69
651.947	144.69
652.152	147.69
652.356	146.69
652.56	138.69
652.764	131.69
652.969	113.69
653.173	144.69
653.377	130.69
653.581	141.69
653.785	131.69
653.99	135.69
654.194	131.69
654.398	137.69
654.602	122.69
654.806	134.69
655.01	131.69
655.214	126.69
655.418	137.69
655.622	150.69
655.826	126.69
656.03	146.69
656.234	123.69
656.438	124.69
656.642	133.69
656.846	129.69
657.049	117.69
657.253	125.69
657.457	116.69
657.661	100.69
657.865	124.69
658.068	109.69
658.272	117.69
658.476	104.69
658.68	103.69
658.883	101.69
659.087	101.69
659.291	102.69
659.494	90.69
659.698	95.69
659.901	89.69
660.105	95.69
660.309	91.69
660.512	97.69
660.716	91.69
660.919	93.69
661.123	83.69
661.326	92.69
661.53	100.69
661.733	93.69
661.936	107.69
662.14	102.69
662.343	96.69
662.546	86.69
662.75	83.69
662.953	73.69
663.156	74.69
663.36	91.69
663.563	83.69
663.766	89.69
663.969	86.69
664.173	86.69
664.376	88.69
664.579	83.69
664.782	92.69
664.985	89.69
665.188	106.69
665.391	80.69
665.594	81.69
665.797	96.69
666	76.69
666.203	80.69
666.406	87.69
666.609	76.69
666.812	79.69
667.015	79.69
667.218	87.69
667.421	83.69
667.624	89.69
667.827	81.69
668.03	86.69
668.232	86.69
668.435	78.69
668.638	93.69
668.841	71.69
669.043	72.69
669.246	80.69
669.449	84.69
669.651	75.69
669.854	79.69
670.057	68.69
670.259	74.69
670.462	79.69
670.665	79.69
670.867	78.69
671.07	91.69
671.272	77.69
671.475	87.69
671.677	87.69
671.88	86.69
672.082	90.69
672.284	79.69
672.487	88.69
672.689	81.69
672.892	87.69
