Data from 1981.PennyLincolnUp.Lamp.En5.5.200Scan.071819.P1_HRD10591_16-42-28-960.txt Node
Date: Thu Jul 18 16:42:28 EDT 2019
User: cochatt
Spectrometer: HR+D1059
Trigger mode: 1
Integration Time (sec): 1.000000E-1
Scans to average: 1
Electric dark correction enabled: true
Nonlinearity correction enabled: false
Boxcar width: 0
XAxis mode: Wavelengths
Number of Pixels in Spectrum: 2048
>>>>>Begin Spectral Data<<<<<
223.165	-19.31
223.4	-19.31
223.635	-19.31
223.869	-7.31
224.104	-18.31
224.338	-20.31
224.573	-20.31
224.808	-23.31
225.042	-3.31
225.277	-0.31
225.511	0.69
225.746	6.69
225.98	8.69
226.215	16.69
226.449	14.69
226.683	2.69
226.918	28.69
227.152	33.69
227.387	42.69
227.621	51.69
227.856	51.69
228.09	44.69
228.324	39.69
228.559	62.69
228.793	72.69
229.027	106.69
229.262	116.69
229.496	121.69
229.73	126.69
229.964	151.69
230.199	135.69
230.433	119.69
230.667	112.69
230.901	125.69
231.136	113.69
231.37	118.69
231.604	108.69
231.838	123.69
232.072	107.69
232.306	115.69
232.541	118.69
232.775	115.69
233.009	122.69
233.243	92.69
233.477	119.69
233.711	143.69
233.945	127.69
234.179	136.69
234.413	117.69
234.647	109.69
234.881	131.69
235.115	137.69
235.349	129.69
235.583	119.69
235.817	131.69
236.051	129.69
236.285	118.69
236.519	111.69
236.753	138.69
236.987	149.69
237.221	191.69
237.455	255.69
237.689	196.69
237.922	157.69
238.156	128.69
238.39	123.69
238.624	127.69
238.858	128.69
239.091	137.69
239.325	132.69
239.559	118.69
239.793	147.69
240.027	147.69
240.26	153.69
240.494	149.69
240.728	148.69
240.961	146.69
241.195	156.69
241.429	136.69
241.662	133.69
241.896	149.69
242.13	143.69
242.363	132.69
242.597	149.69
242.83	139.69
243.064	133.69
243.298	127.69
243.531	140.69
243.765	146.69
243.998	142.69
244.232	136.69
244.465	147.69
244.699	157.69
244.932	149.69
245.166	142.69
245.399	136.69
245.633	152.69
245.866	157.69
246.099	159.69
246.333	160.69
246.566	163.69
246.8	171.69
247.033	167.69
247.266	172.69
247.5	169.69
247.733	163.69
247.966	190.69
248.2	169.69
248.433	179.69
248.666	194.69
248.899	188.69
249.133	193.69
249.366	204.69
249.599	215.69
249.832	208.69
250.066	202.69
250.299	189.69
250.532	192.69
250.765	228.69
250.998	236.69
251.231	236.69
251.465	227.69
251.698	219.69
251.931	223.69
252.164	204.69
252.397	216.69
252.63	203.69
252.863	223.69
253.096	242.69
253.329	246.69
253.562	227.69
253.795	224.69
254.028	253.69
254.261	212.69
254.494	244.69
254.727	272.69
254.96	300.69
255.193	305.69
255.426	266.69
255.659	263.69
255.892	257.69
256.124	251.69
256.357	252.69
256.59	244.69
256.823	244.69
257.056	231.69
257.289	224.69
257.521	234.69
257.754	221.69
257.987	217.69
258.22	232.69
258.452	225.69
258.685	236.69
258.918	226.69
259.151	228.69
259.383	226.69
259.616	217.69
259.849	252.69
260.081	259.69
260.314	269.69
260.547	273.69
260.779	275.69
261.012	263.69
261.244	263.69
261.477	236.69
261.71	234.69
261.942	245.69
262.175	258.69
262.407	242.69
262.64	242.69
262.872	216.69
263.105	228.69
263.337	229.69
263.57	236.69
263.802	237.69
264.035	218.69
264.267	195.69
264.499	225.69
264.732	233.69
264.964	231.69
265.197	213.69
265.429	225.69
265.661	221.69
265.894	225.69
266.126	212.69
266.358	215.69
266.591	229.69
266.823	232.69
267.055	261.69
267.287	232.69
267.52	222.69
267.752	226.69
267.984	232.69
268.216	257.69
268.448	230.69
268.681	271.69
268.913	268.69
269.145	288.69
269.377	276.69
269.609	279.69
269.841	303.69
270.073	310.69
270.306	307.69
270.538	325.69
270.77	344.69
271.002	316.69
271.234	334.69
271.466	320.69
271.698	348.69
271.93	360.69
272.162	347.69
272.394	335.69
272.626	333.69
272.858	312.69
273.09	298.69
273.322	296.69
273.553	273.69
273.785	281.69
274.017	277.69
274.249	278.69
274.481	294.69
274.713	286.69
274.945	303.69
275.176	304.69
275.408	299.69
275.64	277.69
275.872	301.69
276.104	292.69
276.335	292.69
276.567	281.69
276.799	312.69
277.031	313.69
277.262	350.69
277.494	335.69
277.726	316.69
277.957	301.69
278.189	307.69
278.421	317.69
278.652	304.69
278.884	291.69
279.115	293.69
279.347	289.69
279.579	284.69
279.81	274.69
280.042	288.69
280.273	278.69
280.505	280.69
280.736	278.69
280.968	287.69
281.199	270.69
281.431	259.69
281.662	280.69
281.894	285.69
282.125	279.69
282.356	304.69
282.588	333.69
282.819	331.69
283.051	305.69
283.282	291.69
283.513	293.69
283.745	273.69
283.976	288.69
284.207	296.69
284.439	304.69
284.67	280.69
284.901	292.69
285.132	276.69
285.364	284.69
285.595	290.69
285.826	276.69
286.057	296.69
286.288	284.69
286.52	271.69
286.751	279.69
286.982	295.69
287.213	289.69
287.444	284.69
287.675	298.69
287.906	311.69
288.138	329.69
288.369	317.69
288.6	324.69
288.831	303.69
289.062	298.69
289.293	312.69
289.524	291.69
289.755	305.69
289.986	302.69
290.217	278.69
290.448	299.69
290.679	285.69
290.91	293.69
291.141	298.69
291.371	292.69
291.602	301.69
291.833	279.69
292.064	292.69
292.295	301.69
292.526	304.69
292.757	291.69
292.987	301.69
293.218	298.69
293.449	300.69
293.68	296.69
293.91	297.69
294.141	303.69
294.372	289.69
294.603	286.69
294.833	293.69
295.064	309.69
295.295	310.69
295.525	291.69
295.756	313.69
295.987	309.69
296.217	335.69
296.448	338.69
296.679	321.69
296.909	288.69
297.14	309.69
297.37	304.69
297.601	298.69
297.831	297.69
298.062	297.69
298.292	295.69
298.523	318.69
298.753	295.69
298.984	307.69
299.214	310.69
299.445	293.69
299.675	329.69
299.905	324.69
300.136	320.69
300.366	299.69
300.597	316.69
300.827	325.69
301.057	340.69
301.288	333.69
301.518	331.69
301.748	333.69
301.979	318.69
302.209	335.69
302.439	345.69
302.669	324.69
302.9	345.69
303.13	329.69
303.36	335.69
303.59	353.69
303.82	359.69
304.051	349.69
304.281	347.69
304.511	335.69
304.741	332.69
304.971	347.69
305.201	333.69
305.431	335.69
305.661	348.69
305.891	343.69
306.121	348.69
306.352	339.69
306.582	341.69
306.812	334.69
307.042	352.69
307.272	359.69
307.502	341.69
307.731	345.69
307.961	333.69
308.191	350.69
308.421	355.69
308.651	326.69
308.881	360.69
309.111	355.69
309.341	357.69
309.571	389.69
309.8	372.69
310.03	386.69
310.26	392.69
310.49	376.69
310.72	391.69
310.949	430.69
311.179	436.69
311.409	399.69
311.639	401.69
311.868	398.69
312.098	417.69
312.328	419.69
312.557	433.69
312.787	430.69
313.017	428.69
313.246	396.69
313.476	399.69
313.706	419.69
313.935	395.69
314.165	418.69
314.394	415.69
314.624	417.69
314.853	412.69
315.083	402.69
315.312	408.69
315.542	377.69
315.771	383.69
316.001	400.69
316.23	410.69
316.46	393.69
316.689	376.69
316.919	385.69
317.148	411.69
317.377	407.69
317.607	419.69
317.836	399.69
318.065	389.69
318.295	383.69
318.524	387.69
318.753	396.69
318.983	390.69
319.212	401.69
319.441	396.69
319.67	407.69
319.9	396.69
320.129	401.69
320.358	415.69
320.587	386.69
320.816	415.69
321.046	408.69
321.275	439.69
321.504	440.69
321.733	441.69
321.962	421.69
322.191	432.69
322.42	472.69
322.649	474.69
322.878	502.69
323.108	508.69
323.337	539.69
323.566	561.69
323.795	611.69
324.024	663.69
324.253	849.69
324.482	1249.69
324.71	1883.69
324.939	2563.69
325.168	2130.69
325.397	1131.69
325.626	757.69
325.855	622.69
326.084	576.69
326.313	571.69
326.542	551.69
326.77	644.69
326.999	785.69
327.228	1042.69
327.457	1605.69
327.686	1883.69
327.914	1268.69
328.143	823.69
328.372	713.69
328.6	673.69
328.829	624.69
329.058	669.69
329.287	656.69
329.515	618.69
329.744	559.69
329.972	559.69
330.201	596.69
330.43	622.69
330.658	657.69
330.887	674.69
331.115	666.69
331.344	578.69
331.572	515.69
331.801	543.69
332.03	521.69
332.258	505.69
332.486	476.69
332.715	495.69
332.943	458.69
333.172	478.69
333.4	473.69
333.629	475.69
333.857	496.69
334.085	511.69
334.314	511.69
334.542	548.69
334.771	539.69
334.999	508.69
335.227	496.69
335.455	468.69
335.684	465.69
335.912	459.69
336.14	447.69
336.369	451.69
336.597	469.69
336.825	462.69
337.053	433.69
337.281	451.69
337.51	453.69
337.738	457.69
337.966	456.69
338.194	458.69
338.422	457.69
338.65	418.69
338.878	440.69
339.106	423.69
339.334	428.69
339.562	440.69
339.79	435.69
340.018	453.69
340.246	432.69
340.474	433.69
340.702	432.69
340.93	414.69
341.158	417.69
341.386	438.69
341.614	424.69
341.842	427.69
342.07	409.69
342.298	427.69
342.526	427.69
342.754	404.69
342.981	411.69
343.209	421.69
343.437	432.69
343.665	410.69
343.893	439.69
344.12	431.69
344.348	435.69
344.576	431.69
344.804	429.69
345.031	448.69
345.259	443.69
345.487	427.69
345.714	428.69
345.942	426.69
346.17	416.69
346.397	442.69
346.625	446.69
346.853	431.69
347.08	425.69
347.308	424.69
347.535	445.69
347.763	423.69
347.99	431.69
348.218	421.69
348.445	445.69
348.673	446.69
348.9	410.69
349.128	415.69
349.355	405.69
349.583	419.69
349.81	409.69
350.037	422.69
350.265	414.69
350.492	405.69
350.72	384.69
350.947	425.69
351.174	409.69
351.402	429.69
351.629	417.69
351.856	428.69
352.083	446.69
352.311	429.69
352.538	436.69
352.765	426.69
352.992	425.69
353.22	425.69
353.447	426.69
353.674	403.69
353.901	392.69
354.128	410.69
354.355	377.69
354.583	395.69
354.81	391.69
355.037	391.69
355.264	364.69
355.491	387.69
355.718	376.69
355.945	355.69
356.172	380.69
356.399	373.69
356.626	374.69
356.853	384.69
357.08	371.69
357.307	366.69
357.534	373.69
357.761	363.69
357.988	379.69
358.215	361.69
358.441	373.69
358.668	371.69
358.895	393.69
359.122	385.69
359.349	383.69
359.576	426.69
359.802	439.69
360.029	461.69
360.256	495.69
360.483	471.69
360.709	427.69
360.936	422.69
361.163	420.69
361.39	403.69
361.616	398.69
361.843	397.69
362.07	422.69
362.296	400.69
362.523	374.69
362.749	397.69
362.976	420.69
363.203	365.69
363.429	384.69
363.656	378.69
363.882	373.69
364.109	395.69
364.335	388.69
364.562	407.69
364.788	382.69
365.015	369.69
365.241	378.69
365.468	388.69
365.694	385.69
365.92	396.69
366.147	377.69
366.373	357.69
366.599	379.69
366.826	378.69
367.052	375.69
367.278	381.69
367.505	379.69
367.731	392.69
367.957	407.69
368.184	374.69
368.41	378.69
368.636	380.69
368.862	379.69
369.089	380.69
369.315	384.69
369.541	382.69
369.767	388.69
369.993	364.69
370.219	368.69
370.445	359.69
370.672	387.69
370.898	383.69
371.124	380.69
371.35	365.69
371.576	355.69
371.802	364.69
372.028	375.69
372.254	375.69
372.48	369.69
372.706	374.69
372.932	356.69
373.158	359.69
373.384	378.69
373.61	376.69
373.835	364.69
374.061	373.69
374.287	375.69
374.513	382.69
374.739	367.69
374.965	361.69
375.191	378.69
375.416	373.69
375.642	381.69
375.868	373.69
376.094	372.69
376.319	353.69
376.545	368.69
376.771	358.69
376.997	369.69
377.222	384.69
377.448	362.69
377.674	362.69
377.899	352.69
378.125	347.69
378.35	364.69
378.576	347.69
378.802	355.69
379.027	348.69
379.253	375.69
379.478	371.69
379.704	339.69
379.929	342.69
380.155	350.69
380.38	350.69
380.606	340.69
380.831	350.69
381.057	365.69
381.282	355.69
381.507	384.69
381.733	358.69
381.958	367.69
382.184	344.69
382.409	356.69
382.634	360.69
382.86	377.69
383.085	374.69
383.31	355.69
383.535	369.69
383.761	350.69
383.986	354.69
384.211	363.69
384.436	363.69
384.662	372.69
384.887	364.69
385.112	345.69
385.337	371.69
385.562	377.69
385.787	360.69
386.013	389.69
386.238	387.69
386.463	384.69
386.688	392.69
386.913	365.69
387.138	391.69
387.363	361.69
387.588	386.69
387.813	375.69
388.038	381.69
388.263	373.69
388.488	368.69
388.713	391.69
388.938	370.69
389.163	360.69
389.387	383.69
389.612	363.69
389.837	383.69
390.062	379.69
390.287	383.69
390.512	366.69
390.736	391.69
390.961	387.69
391.186	391.69
391.411	400.69
391.636	357.69
391.86	373.69
392.085	374.69
392.31	382.69
392.534	388.69
392.759	393.69
392.984	367.69
393.208	355.69
393.433	373.69
393.658	362.69
393.882	386.69
394.107	371.69
394.331	382.69
394.556	386.69
394.78	376.69
395.005	380.69
395.229	376.69
395.454	379.69
395.678	393.69
395.903	399.69
396.127	421.69
396.352	408.69
396.576	379.69
396.801	379.69
397.025	375.69
397.249	364.69
397.474	399.69
397.698	381.69
397.922	407.69
398.147	419.69
398.371	416.69
398.595	401.69
398.82	407.69
399.044	408.69
399.268	413.69
399.492	431.69
399.717	453.69
399.941	470.69
400.165	509.69
400.389	523.69
400.613	468.69
400.837	451.69
401.062	430.69
401.286	431.69
401.51	415.69
401.734	423.69
401.958	428.69
402.182	427.69
402.406	407.69
402.63	408.69
402.854	418.69
403.078	425.69
403.302	425.69
403.526	439.69
403.75	428.69
403.974	412.69
404.198	414.69
404.422	412.69
404.645	440.69
404.869	418.69
405.093	468.69
405.317	496.69
405.541	526.69
405.765	486.69
405.988	470.69
406.212	456.69
406.436	476.69
406.66	491.69
406.883	473.69
407.107	504.69
407.331	525.69
407.555	567.69
407.778	600.69
408.002	529.69
408.226	508.69
408.449	483.69
408.673	458.69
408.896	489.69
409.12	540.69
409.344	521.69
409.567	455.69
409.791	444.69
410.014	436.69
410.238	419.69
410.461	435.69
410.685	432.69
410.908	457.69
411.132	487.69
411.355	495.69
411.578	508.69
411.802	457.69
412.025	429.69
412.249	421.69
412.472	469.69
412.695	533.69
412.919	475.69
413.142	452.69
413.365	423.69
413.589	415.69
413.812	424.69
414.035	413.69
414.258	411.69
414.482	408.69
414.705	415.69
414.928	384.69
415.151	406.69
415.374	387.69
415.597	393.69
415.821	405.69
416.044	419.69
416.267	416.69
416.49	406.69
416.713	408.69
416.936	411.69
417.159	400.69
417.382	399.69
417.605	401.69
417.828	429.69
418.051	424.69
418.274	439.69
418.497	425.69
418.72	405.69
418.943	412.69
419.166	415.69
419.389	423.69
419.611	423.69
419.834	408.69
420.057	444.69
420.28	437.69
420.503	441.69
420.726	428.69
420.948	440.69
421.171	483.69
421.394	520.69
421.617	455.69
421.839	441.69
422.062	426.69
422.285	437.69
422.507	507.69
422.73	552.69
422.953	529.69
423.175	494.69
423.398	465.69
423.621	459.69
423.843	456.69
424.066	465.69
424.288	470.69
424.511	488.69
424.733	567.69
424.956	594.69
425.178	580.69
425.401	580.69
425.623	604.69
425.846	532.69
426.068	496.69
426.291	479.69
426.513	493.69
426.735	494.69
426.958	526.69
427.18	601.69
427.402	723.69
427.625	785.69
427.847	720.69
428.069	618.69
428.292	538.69
428.514	494.69
428.736	464.69
428.958	480.69
429.181	448.69
429.403	437.69
429.625	460.69
429.847	484.69
430.069	588.69
430.292	559.69
430.514	458.69
430.736	425.69
430.958	423.69
431.18	412.69
431.402	414.69
431.624	407.69
431.846	398.69
432.068	408.69
432.29	400.69
432.512	401.69
432.734	418.69
432.956	414.69
433.178	418.69
433.4	428.69
433.622	424.69
433.844	398.69
434.066	409.69
434.287	413.69
434.509	404.69
434.731	413.69
434.953	423.69
435.175	429.69
435.397	447.69
435.618	499.69
435.84	505.69
436.062	602.69
436.284	671.69
436.505	566.69
436.727	521.69
436.949	479.69
437.17	441.69
437.392	433.69
437.614	466.69
437.835	503.69
438.057	603.69
438.278	644.69
438.5	699.69
438.721	729.69
438.943	686.69
439.165	571.69
439.386	523.69
439.608	507.69
439.829	495.69
440.05	521.69
440.272	582.69
440.493	547.69
440.715	457.69
440.936	449.69
441.158	432.69
441.379	441.69
441.6	476.69
441.822	471.69
442.043	520.69
442.264	578.69
442.486	616.69
442.707	541.69
442.928	529.69
443.149	507.69
443.371	539.69
443.592	590.69
443.813	651.69
444.034	682.69
444.255	574.69
444.476	507.69
444.698	471.69
444.919	471.69
445.14	584.69
445.361	549.69
445.582	523.69
445.803	599.69
446.024	676.69
446.245	701.69
446.466	623.69
446.687	536.69
446.908	493.69
447.129	458.69
447.35	442.69
447.571	429.69
447.792	443.69
448.013	448.69
448.234	481.69
448.455	533.69
448.675	631.69
448.896	739.69
449.117	638.69
449.338	591.69
449.559	679.69
449.779	751.69
450	613.69
450.221	482.69
450.442	462.69
450.662	427.69
450.883	456.69
451.104	455.69
451.324	458.69
451.545	444.69
451.766	423.69
451.986	402.69
452.207	409.69
452.428	401.69
452.648	396.69
452.869	397.69
453.089	399.69
453.31	417.69
453.53	413.69
453.751	381.69
453.971	412.69
454.192	407.69
454.412	435.69
454.633	399.69
454.853	408.69
455.073	393.69
455.294	442.69
455.514	492.69
455.734	478.69
455.955	390.69
456.175	386.69
456.395	373.69
456.616	351.69
456.836	379.69
457.056	366.69
457.276	366.69
457.497	368.69
457.717	372.69
457.937	381.69
458.157	401.69
458.377	386.69
458.598	397.69
458.818	473.69
459.038	531.69
459.258	579.69
459.478	478.69
459.698	431.69
459.918	413.69
460.138	395.69
460.358	395.69
460.578	402.69
460.798	397.69
461.018	385.69
461.238	390.69
461.458	400.69
461.678	383.69
461.898	399.69
462.118	396.69
462.338	387.69
462.558	419.69
462.777	408.69
462.997	399.69
463.217	411.69
463.437	435.69
463.657	431.69
463.876	435.69
464.096	408.69
464.316	424.69
464.536	419.69
464.755	429.69
464.975	433.69
465.195	488.69
465.414	557.69
465.634	492.69
465.854	447.69
466.073	416.69
466.293	405.69
466.512	391.69
466.732	392.69
466.951	384.69
467.171	395.69
467.391	397.69
467.61	395.69
467.829	432.69
468.049	393.69
468.268	425.69
468.488	393.69
468.707	393.69
468.927	374.69
469.146	371.69
469.365	381.69
469.585	378.69
469.804	396.69
470.023	395.69
470.243	398.69
470.462	411.69
470.681	421.69
470.901	412.69
471.12	384.69
471.339	394.69
471.558	414.69
471.777	407.69
471.997	382.69
472.216	412.69
472.435	447.69
472.654	431.69
472.873	415.69
473.092	397.69
473.311	416.69
473.53	401.69
473.749	401.69
473.968	473.69
474.187	548.69
474.406	593.69
474.625	466.69
474.844	415.69
475.063	419.69
475.282	418.69
475.501	409.69
475.72	423.69
475.939	410.69
476.158	414.69
476.377	419.69
476.596	403.69
476.814	422.69
477.033	429.69
477.252	429.69
477.471	427.69
477.69	422.69
477.908	425.69
478.127	444.69
478.346	424.69
478.564	431.69
478.783	425.69
479.002	439.69
479.22	456.69
479.439	474.69
479.658	482.69
479.876	492.69
480.095	487.69
480.313	505.69
480.532	493.69
480.751	485.69
480.969	477.69
481.188	556.69
481.406	572.69
481.624	504.69
481.843	482.69
482.061	485.69
482.28	492.69
482.498	479.69
482.717	479.69
482.935	465.69
483.153	471.69
483.372	467.69
483.59	454.69
483.808	480.69
484.027	468.69
484.245	473.69
484.463	487.69
484.681	479.69
484.9	473.69
485.118	477.69
485.336	494.69
485.554	489.69
485.772	484.69
485.99	475.69
486.209	472.69
486.427	495.69
486.645	508.69
486.863	510.69
487.081	503.69
487.299	522.69
487.517	509.69
487.735	503.69
487.953	512.69
488.171	495.69
488.389	510.69
488.607	503.69
488.825	530.69
489.043	532.69
489.261	515.69
489.479	494.69
489.696	511.69
489.914	499.69
490.132	533.69
490.35	536.69
490.568	518.69
490.786	547.69
491.003	541.69
491.221	557.69
491.439	573.69
491.657	565.69
491.874	611.69
492.092	597.69
492.31	609.69
492.527	600.69
492.745	616.69
492.963	600.69
493.18	612.69
493.398	591.69
493.615	604.69
493.833	607.69
494.05	610.69
494.268	598.69
494.485	598.69
494.703	607.69
494.92	595.69
495.138	593.69
495.355	602.69
495.573	600.69
495.79	586.69
496.008	618.69
496.225	603.69
496.442	584.69
496.66	605.69
496.877	601.69
497.094	604.69
497.312	604.69
497.529	594.69
497.746	610.69
497.963	637.69
498.181	627.69
498.398	634.69
498.615	645.69
498.832	665.69
499.049	676.69
499.267	704.69
499.484	686.69
499.701	706.69
499.918	710.69
500.135	707.69
500.352	725.69
500.569	737.69
500.786	744.69
501.003	716.69
501.22	739.69
501.437	748.69
501.654	711.69
501.871	712.69
502.088	708.69
502.305	689.69
502.522	655.69
502.739	619.69
502.956	619.69
503.172	650.69
503.389	645.69
503.606	639.69
503.823	629.69
504.04	622.69
504.256	607.69
504.473	624.69
504.69	585.69
504.907	584.69
505.123	576.69
505.34	593.69
505.557	579.69
505.773	604.69
505.99	596.69
506.207	603.69
506.423	600.69
506.64	563.69
506.856	563.69
507.073	572.69
507.289	573.69
507.506	591.69
507.722	593.69
507.939	595.69
508.155	588.69
508.372	574.69
508.588	557.69
508.805	579.69
509.021	581.69
509.238	592.69
509.454	592.69
509.67	571.69
509.887	567.69
510.103	608.69
510.319	594.69
510.536	692.69
510.752	1169.69
510.968	899.69
511.184	600.69
511.401	556.69
511.617	568.69
511.833	550.69
512.049	557.69
512.265	555.69
512.481	550.69
512.698	542.69
512.914	534.69
513.13	525.69
513.346	551.69
513.562	561.69
513.778	534.69
513.994	580.69
514.21	572.69
514.426	594.69
514.642	638.69
514.858	665.69
515.074	725.69
515.29	852.69
515.506	1293.69
515.721	1029.69
515.937	687.69
516.153	601.69
516.369	579.69
516.585	580.69
516.801	558.69
517.016	557.69
517.232	542.69
517.448	532.69
517.664	536.69
517.879	555.69
518.095	535.69
518.311	519.69
518.527	542.69
518.742	561.69
518.958	554.69
519.173	521.69
519.389	531.69
519.605	532.69
519.82	538.69
520.036	549.69
520.251	583.69
520.467	620.69
520.682	620.69
520.898	619.69
521.113	642.69
521.329	707.69
521.544	785.69
521.76	1060.69
521.975	1752.69
522.19	1665.69
522.406	894.69
522.621	658.69
522.836	589.69
523.052	560.69
523.267	517.69
523.482	520.69
523.698	514.69
523.913	513.69
524.128	528.69
524.343	507.69
524.559	455.69
524.774	471.69
524.989	468.69
525.204	469.69
525.419	465.69
525.634	451.69
525.849	455.69
526.064	438.69
526.28	455.69
526.495	439.69
526.71	433.69
526.925	439.69
527.14	431.69
527.355	425.69
527.57	441.69
527.785	445.69
527.999	439.69
528.214	430.69
528.429	425.69
528.644	433.69
528.859	434.69
529.074	443.69
529.289	465.69
529.503	544.69
529.718	538.69
529.933	475.69
530.148	459.69
530.363	453.69
530.577	424.69
530.792	439.69
531.007	421.69
531.221	425.69
531.436	424.69
531.651	424.69
531.865	421.69
532.08	400.69
532.295	402.69
532.509	417.69
532.724	416.69
532.938	413.69
533.153	422.69
533.367	395.69
533.582	404.69
533.796	428.69
534.011	433.69
534.225	406.69
534.44	395.69
534.654	412.69
534.868	391.69
535.083	405.69
535.297	431.69
535.511	402.69
535.726	405.69
535.94	424.69
536.154	414.69
536.369	401.69
536.583	393.69
536.797	379.69
537.011	390.69
537.225	411.69
537.44	402.69
537.654	382.69
537.868	396.69
538.082	394.69
538.296	367.69
538.51	383.69
538.724	383.69
538.938	395.69
539.153	423.69
539.367	420.69
539.581	412.69
539.795	378.69
540.009	406.69
540.222	404.69
540.436	419.69
540.65	403.69
540.864	390.69
541.078	403.69
541.292	388.69
541.506	395.69
541.72	353.69
541.934	398.69
542.147	399.69
542.361	396.69
542.575	395.69
542.789	397.69
543.002	402.69
543.216	395.69
543.43	403.69
543.644	387.69
543.857	386.69
544.071	416.69
544.285	394.69
544.498	390.69
544.712	398.69
544.925	389.69
545.139	372.69
545.352	385.69
545.566	376.69
545.779	379.69
545.993	381.69
546.206	381.69
546.42	375.69
546.633	382.69
546.847	362.69
547.06	364.69
547.274	351.69
547.487	344.69
547.7	372.69
547.914	359.69
548.127	358.69
548.34	356.69
548.554	362.69
548.767	370.69
548.98	352.69
549.193	362.69
549.407	356.69
549.62	337.69
549.833	346.69
550.046	360.69
550.259	364.69
550.473	355.69
550.686	357.69
550.899	373.69
551.112	376.69
551.325	351.69
551.538	343.69
551.751	360.69
551.964	341.69
552.177	350.69
552.39	355.69
552.603	333.69
552.816	325.69
553.029	337.69
553.242	368.69
553.455	372.69
553.667	379.69
553.88	377.69
554.093	351.69
554.306	381.69
554.519	360.69
554.732	350.69
554.944	348.69
555.157	344.69
555.37	351.69
555.583	372.69
555.795	347.69
556.008	355.69
556.221	331.69
556.433	354.69
556.646	348.69
556.859	348.69
557.071	343.69
557.284	333.69
557.496	318.69
557.709	341.69
557.921	332.69
558.134	329.69
558.346	325.69
558.559	344.69
558.771	335.69
558.984	303.69
559.196	310.69
559.409	324.69
559.621	331.69
559.833	316.69
560.046	313.69
560.258	324.69
560.47	313.69
560.683	337.69
560.895	330.69
561.107	305.69
561.32	303.69
561.532	304.69
561.744	322.69
561.956	326.69
562.168	318.69
562.381	343.69
562.593	322.69
562.805	305.69
563.017	321.69
563.229	311.69
563.441	316.69
563.653	344.69
563.865	305.69
564.077	346.69
564.289	326.69
564.501	333.69
564.713	327.69
564.925	319.69
565.137	363.69
565.349	348.69
565.561	335.69
565.773	347.69
565.985	335.69
566.197	350.69
566.408	350.69
566.62	356.69
566.832	343.69
567.044	349.69
567.255	366.69
567.467	371.69
567.679	357.69
567.891	370.69
568.102	372.69
568.314	361.69
568.526	345.69
568.737	338.69
568.949	340.69
569.161	328.69
569.372	326.69
569.584	335.69
569.795	326.69
570.007	337.69
570.218	392.69
570.43	360.69
570.641	316.69
570.853	321.69
571.064	320.69
571.276	311.69
571.487	297.69
571.698	296.69
571.91	316.69
572.121	325.69
572.333	311.69
572.544	294.69
572.755	292.69
572.966	299.69
573.178	301.69
573.389	297.69
573.6	300.69
573.811	288.69
574.023	291.69
574.234	285.69
574.445	277.69
574.656	277.69
574.867	271.69
575.078	282.69
575.289	281.69
575.501	274.69
575.712	270.69
575.923	285.69
576.134	275.69
576.345	294.69
576.556	270.69
576.767	279.69
576.978	292.69
577.188	267.69
577.399	277.69
577.61	259.69
577.821	304.69
578.032	280.69
578.243	329.69
578.454	528.69
578.665	409.69
578.875	284.69
579.086	279.69
579.297	267.69
579.508	262.69
579.718	264.69
579.929	252.69
580.14	269.69
580.35	253.69
580.561	263.69
580.772	261.69
580.982	249.69
581.193	252.69
581.403	281.69
581.614	274.69
581.825	280.69
582.035	260.69
582.246	268.69
582.456	264.69
582.667	270.69
582.877	270.69
583.087	251.69
583.298	253.69
583.508	272.69
583.719	269.69
583.929	256.69
584.139	262.69
584.35	259.69
584.56	275.69
584.77	272.69
584.981	249.69
585.191	260.69
585.401	259.69
585.611	248.69
585.821	255.69
586.032	263.69
586.242	236.69
586.452	245.69
586.662	264.69
586.872	231.69
587.082	251.69
587.292	251.69
587.502	236.69
587.713	247.69
587.923	248.69
588.133	261.69
588.343	256.69
588.553	266.69
588.762	230.69
588.972	256.69
589.182	237.69
589.392	247.69
589.602	246.69
589.812	241.69
590.022	259.69
590.232	235.69
590.441	240.69
590.651	241.69
590.861	258.69
591.071	247.69
591.281	254.69
591.49	253.69
591.7	237.69
591.91	239.69
592.119	222.69
592.329	265.69
592.539	268.69
592.748	245.69
592.958	249.69
593.167	259.69
593.377	259.69
593.587	280.69
593.796	254.69
594.006	230.69
594.215	236.69
594.424	240.69
594.634	260.69
594.843	261.69
595.053	263.69
595.262	237.69
595.472	227.69
595.681	240.69
595.89	238.69
596.1	240.69
596.309	234.69
596.518	229.69
596.727	236.69
596.937	237.69
597.146	231.69
597.355	240.69
597.564	245.69
597.774	248.69
597.983	245.69
598.192	234.69
598.401	231.69
598.61	220.69
598.819	217.69
599.028	216.69
599.237	232.69
599.446	248.69
599.655	233.69
599.864	234.69
600.073	205.69
600.282	216.69
600.491	221.69
600.7	227.69
600.909	219.69
601.118	223.69
601.327	221.69
601.536	229.69
601.745	210.69
601.953	211.69
602.162	230.69
602.371	229.69
602.58	221.69
602.789	210.69
602.997	218.69
603.206	227.69
603.415	221.69
603.623	211.69
603.832	211.69
604.041	214.69
604.249	217.69
604.458	216.69
604.666	200.69
604.875	214.69
605.084	220.69
605.292	213.69
605.501	212.69
605.709	212.69
605.918	218.69
606.126	212.69
606.334	206.69
606.543	195.69
606.751	222.69
606.96	196.69
607.168	207.69
607.376	207.69
607.585	220.69
607.793	219.69
608.001	203.69
608.21	220.69
608.418	201.69
608.626	199.69
608.834	216.69
609.043	223.69
609.251	208.69
609.459	220.69
609.667	212.69
609.875	206.69
610.083	199.69
610.291	190.69
610.499	217.69
610.707	225.69
610.916	204.69
611.124	214.69
611.332	208.69
611.54	206.69
611.748	201.69
611.955	213.69
612.163	205.69
612.371	215.69
612.579	196.69
612.787	209.69
612.995	201.69
613.203	206.69
613.411	209.69
613.618	191.69
613.826	203.69
614.034	203.69
614.242	194.69
614.449	195.69
614.657	183.69
614.865	188.69
615.072	203.69
615.28	175.69
615.488	228.69
615.695	211.69
615.903	206.69
616.111	199.69
616.318	208.69
616.526	198.69
616.733	198.69
616.941	194.69
617.148	200.69
617.356	206.69
617.563	213.69
617.771	206.69
617.978	198.69
618.185	207.69
618.393	186.69
618.6	185.69
618.807	209.69
619.015	200.69
619.222	195.69
619.429	187.69
619.637	199.69
619.844	194.69
620.051	198.69
620.258	194.69
620.466	194.69
620.673	197.69
620.88	174.69
621.087	196.69
621.294	201.69
621.501	195.69
621.708	185.69
621.915	190.69
622.122	208.69
622.329	208.69
622.536	192.69
622.743	180.69
622.95	182.69
623.157	184.69
623.364	204.69
623.571	193.69
623.778	199.69
623.985	183.69
624.192	186.69
624.399	189.69
624.606	195.69
624.812	176.69
625.019	185.69
625.226	190.69
625.433	187.69
625.639	165.69
625.846	179.69
626.053	189.69
626.259	169.69
626.466	192.69
626.673	183.69
626.879	176.69
627.086	173.69
627.293	193.69
627.499	180.69
627.706	187.69
627.912	196.69
628.119	187.69
628.325	179.69
628.532	195.69
628.738	178.69
628.945	173.69
629.151	189.69
629.357	193.69
629.564	171.69
629.77	181.69
629.976	172.69
630.183	189.69
630.389	171.69
630.595	185.69
630.802	169.69
631.008	161.69
631.214	165.69
631.42	181.69
631.627	163.69
631.833	184.69
632.039	165.69
632.245	167.69
632.451	176.69
632.657	171.69
632.863	165.69
633.069	179.69
633.275	167.69
633.481	166.69
633.688	166.69
633.893	175.69
634.099	161.69
634.305	153.69
634.511	142.69
634.717	173.69
634.923	166.69
635.129	151.69
635.335	153.69
635.541	174.69
635.747	161.69
635.952	166.69
636.158	150.69
636.364	175.69
636.57	168.69
636.775	180.69
636.981	154.69
637.187	161.69
637.392	164.69
637.598	165.69
637.804	170.69
638.009	175.69
638.215	160.69
638.421	145.69
638.626	134.69
638.832	167.69
639.037	167.69
639.243	168.69
639.448	173.69
639.654	159.69
639.859	157.69
640.065	165.69
640.27	155.69
640.475	152.69
640.681	152.69
640.886	165.69
641.091	150.69
641.297	155.69
641.502	157.69
641.707	141.69
641.913	161.69
642.118	149.69
642.323	150.69
642.528	169.69
642.733	141.69
642.939	152.69
643.144	151.69
643.349	157.69
643.554	159.69
643.759	150.69
643.964	137.69
644.169	158.69
644.374	144.69
644.579	143.69
644.784	154.69
644.989	158.69
645.194	141.69
645.399	156.69
645.604	172.69
645.809	143.69
646.014	143.69
646.219	150.69
646.423	145.69
646.628	158.69
646.833	155.69
647.038	161.69
647.243	155.69
647.447	156.69
647.652	169.69
647.857	146.69
648.062	151.69
648.266	183.69
648.471	154.69
648.676	163.69
648.88	148.69
649.085	148.69
649.289	152.69
649.494	159.69
649.698	181.69
649.903	184.69
650.107	146.69
650.312	152.69
650.516	146.69
650.721	151.69
650.925	140.69
651.13	147.69
651.334	133.69
651.539	145.69
651.743	132.69
651.947	144.69
652.152	152.69
652.356	145.69
652.56	152.69
652.764	139.69
652.969	121.69
653.173	142.69
653.377	127.69
653.581	129.69
653.785	130.69
653.99	125.69
654.194	117.69
654.398	139.69
654.602	129.69
654.806	129.69
655.01	123.69
655.214	123.69
655.418	125.69
655.622	129.69
655.826	121.69
656.03	135.69
656.234	127.69
656.438	127.69
656.642	136.69
656.846	114.69
657.049	123.69
657.253	131.69
657.457	109.69
657.661	125.69
657.865	109.69
658.068	117.69
658.272	98.69
658.476	117.69
658.68	101.69
658.883	104.69
659.087	113.69
659.291	88.69
659.494	104.69
659.698	97.69
659.901	97.69
660.105	96.69
660.309	107.69
660.512	80.69
660.716	103.69
660.919	89.69
661.123	99.69
661.326	94.69
661.53	83.69
661.733	93.69
661.936	91.69
662.14	86.69
662.343	95.69
662.546	94.69
662.75	79.69
662.953	83.69
663.156	80.69
663.36	88.69
663.563	87.69
663.766	93.69
663.969	87.69
664.173	93.69
664.376	81.69
664.579	91.69
664.782	92.69
664.985	83.69
665.188	63.69
665.391	85.69
665.594	87.69
665.797	89.69
666	95.69
666.203	78.69
666.406	74.69
666.609	82.69
666.812	97.69
667.015	67.69
667.218	78.69
667.421	78.69
667.624	104.69
667.827	79.69
668.03	79.69
668.232	86.69
668.435	96.69
668.638	80.69
668.841	82.69
669.043	88.69
669.246	78.69
669.449	80.69
669.651	94.69
669.854	89.69
670.057	74.69
670.259	71.69
670.462	95.69
670.665	71.69
670.867	81.69
671.07	84.69
671.272	92.69
671.475	91.69
671.677	86.69
671.88	84.69
672.082	76.69
672.284	97.69
672.487	88.69
672.689	73.69
672.892	82.69
