Data from 1981.PennyLincolnUp.Lamp.En5.5.200Scan.071819.P1_HRD10591_16-41-09-958.txt Node
Date: Thu Jul 18 16:41:09 EDT 2019
User: cochatt
Spectrometer: HR+D1059
Trigger mode: 1
Integration Time (sec): 1.000000E-1
Scans to average: 1
Electric dark correction enabled: true
Nonlinearity correction enabled: false
Boxcar width: 0
XAxis mode: Wavelengths
Number of Pixels in Spectrum: 2048
>>>>>Begin Spectral Data<<<<<
223.165	-29.31
223.4	-29.31
223.635	-29.31
223.869	-10.31
224.104	-15.31
224.338	-6.31
224.573	-6.31
224.808	4.69
225.042	-23.31
225.277	-4.31
225.511	-14.31
225.746	0.69
225.98	11.69
226.215	10.69
226.449	15.69
226.683	24.69
226.918	18.69
227.152	22.69
227.387	30.69
227.621	60.69
227.856	48.69
228.09	42.69
228.324	47.69
228.559	47.69
228.793	77.69
229.027	85.69
229.262	101.69
229.496	111.69
229.73	126.69
229.964	163.69
230.199	129.69
230.433	111.69
230.667	123.69
230.901	115.69
231.136	104.69
231.37	115.69
231.604	106.69
231.838	123.69
232.072	108.69
232.306	103.69
232.541	99.69
232.775	101.69
233.009	101.69
233.243	115.69
233.477	108.69
233.711	115.69
233.945	135.69
234.179	133.69
234.413	111.69
234.647	110.69
234.881	122.69
235.115	130.69
235.349	134.69
235.583	118.69
235.817	131.69
236.051	132.69
236.285	133.69
236.519	112.69
236.753	127.69
236.987	136.69
237.221	181.69
237.455	221.69
237.689	179.69
237.922	130.69
238.156	119.69
238.39	123.69
238.624	124.69
238.858	141.69
239.091	123.69
239.325	110.69
239.559	140.69
239.793	137.69
240.027	128.69
240.26	142.69
240.494	166.69
240.728	144.69
240.961	169.69
241.195	140.69
241.429	150.69
241.662	143.69
241.896	121.69
242.13	118.69
242.363	128.69
242.597	146.69
242.83	119.69
243.064	123.69
243.298	125.69
243.531	133.69
243.765	129.69
243.998	141.69
244.232	131.69
244.465	152.69
244.699	140.69
244.932	148.69
245.166	149.69
245.399	152.69
245.633	153.69
245.866	144.69
246.099	131.69
246.333	136.69
246.566	159.69
246.8	157.69
247.033	163.69
247.266	152.69
247.5	158.69
247.733	185.69
247.966	169.69
248.2	172.69
248.433	167.69
248.666	178.69
248.899	192.69
249.133	193.69
249.366	221.69
249.599	198.69
249.832	193.69
250.066	190.69
250.299	191.69
250.532	183.69
250.765	205.69
250.998	215.69
251.231	216.69
251.465	199.69
251.698	215.69
251.931	196.69
252.164	208.69
252.397	205.69
252.63	199.69
252.863	211.69
253.096	219.69
253.329	231.69
253.562	224.69
253.795	222.69
254.028	227.69
254.261	238.69
254.494	231.69
254.727	251.69
254.96	287.69
255.193	261.69
255.426	267.69
255.659	232.69
255.892	239.69
256.124	240.69
256.357	232.69
256.59	214.69
256.823	224.69
257.056	227.69
257.289	215.69
257.521	207.69
257.754	220.69
257.987	216.69
258.22	224.69
258.452	206.69
258.685	219.69
258.918	226.69
259.151	230.69
259.383	224.69
259.616	207.69
259.849	218.69
260.081	231.69
260.314	257.69
260.547	250.69
260.779	239.69
261.012	252.69
261.244	236.69
261.477	237.69
261.71	243.69
261.942	221.69
262.175	249.69
262.407	224.69
262.64	211.69
262.872	224.69
263.105	226.69
263.337	217.69
263.57	217.69
263.802	212.69
264.035	223.69
264.267	210.69
264.499	213.69
264.732	207.69
264.964	205.69
265.197	205.69
265.429	210.69
265.661	213.69
265.894	227.69
266.126	206.69
266.358	217.69
266.591	216.69
266.823	209.69
267.055	230.69
267.287	211.69
267.52	218.69
267.752	240.69
267.984	214.69
268.216	209.69
268.448	249.69
268.681	237.69
268.913	230.69
269.145	248.69
269.377	264.69
269.609	271.69
269.841	260.69
270.073	269.69
270.306	288.69
270.538	316.69
270.77	309.69
271.002	291.69
271.234	295.69
271.466	334.69
271.698	313.69
271.93	331.69
272.162	328.69
272.394	320.69
272.626	288.69
272.858	302.69
273.09	269.69
273.322	249.69
273.553	264.69
273.785	286.69
274.017	274.69
274.249	269.69
274.481	262.69
274.713	265.69
274.945	285.69
275.176	285.69
275.408	275.69
275.64	267.69
275.872	239.69
276.104	257.69
276.335	267.69
276.567	267.69
276.799	276.69
277.031	284.69
277.262	312.69
277.494	324.69
277.726	308.69
277.957	273.69
278.189	286.69
278.421	277.69
278.652	275.69
278.884	264.69
279.115	267.69
279.347	267.69
279.579	279.69
279.81	294.69
280.042	269.69
280.273	257.69
280.505	264.69
280.736	244.69
280.968	277.69
281.199	248.69
281.431	261.69
281.662	271.69
281.894	246.69
282.125	278.69
282.356	279.69
282.588	297.69
282.819	312.69
283.051	259.69
283.282	255.69
283.513	264.69
283.745	280.69
283.976	285.69
284.207	277.69
284.439	285.69
284.67	272.69
284.901	256.69
285.132	279.69
285.364	271.69
285.595	272.69
285.826	270.69
286.057	279.69
286.288	276.69
286.52	270.69
286.751	280.69
286.982	287.69
287.213	261.69
287.444	285.69
287.675	287.69
287.906	289.69
288.138	295.69
288.369	295.69
288.6	282.69
288.831	280.69
289.062	295.69
289.293	294.69
289.524	285.69
289.755	288.69
289.986	289.69
290.217	271.69
290.448	272.69
290.679	282.69
290.91	283.69
291.141	287.69
291.371	280.69
291.602	279.69
291.833	287.69
292.064	286.69
292.295	271.69
292.526	274.69
292.757	273.69
292.987	268.69
293.218	279.69
293.449	292.69
293.68	280.69
293.91	283.69
294.141	274.69
294.372	262.69
294.603	278.69
294.833	285.69
295.064	274.69
295.295	297.69
295.525	277.69
295.756	272.69
295.987	309.69
296.217	319.69
296.448	319.69
296.679	295.69
296.909	309.69
297.14	279.69
297.37	292.69
297.601	276.69
297.831	295.69
298.062	283.69
298.292	294.69
298.523	294.69
298.753	298.69
298.984	289.69
299.214	285.69
299.445	302.69
299.675	285.69
299.905	315.69
300.136	307.69
300.366	292.69
300.597	305.69
300.827	324.69
301.057	317.69
301.288	329.69
301.518	289.69
301.748	302.69
301.979	318.69
302.209	307.69
302.439	312.69
302.669	325.69
302.9	324.69
303.13	313.69
303.36	313.69
303.59	299.69
303.82	311.69
304.051	311.69
304.281	317.69
304.511	328.69
304.741	338.69
304.971	295.69
305.201	320.69
305.431	311.69
305.661	316.69
305.891	316.69
306.121	333.69
306.352	320.69
306.582	330.69
306.812	333.69
307.042	309.69
307.272	344.69
307.502	319.69
307.731	328.69
307.961	330.69
308.191	332.69
308.421	314.69
308.651	337.69
308.881	334.69
309.111	338.69
309.341	325.69
309.571	338.69
309.8	364.69
310.03	347.69
310.26	354.69
310.49	374.69
310.72	371.69
310.949	393.69
311.179	407.69
311.409	377.69
311.639	372.69
311.868	369.69
312.098	368.69
312.328	375.69
312.557	383.69
312.787	428.69
313.017	400.69
313.246	388.69
313.476	366.69
313.706	372.69
313.935	379.69
314.165	391.69
314.394	390.69
314.624	407.69
314.853	380.69
315.083	364.69
315.312	350.69
315.542	364.69
315.771	354.69
316.001	359.69
316.23	371.69
316.46	364.69
316.689	364.69
316.919	368.69
317.148	380.69
317.377	367.69
317.607	355.69
317.836	366.69
318.065	386.69
318.295	362.69
318.524	377.69
318.753	375.69
318.983	373.69
319.212	380.69
319.441	381.69
319.67	382.69
319.9	363.69
320.129	362.69
320.358	383.69
320.587	405.69
320.816	394.69
321.046	424.69
321.275	411.69
321.504	380.69
321.733	407.69
321.962	403.69
322.191	406.69
322.42	436.69
322.649	460.69
322.878	458.69
323.108	457.69
323.337	485.69
323.566	517.69
323.795	556.69
324.024	599.69
324.253	695.69
324.482	1019.69
324.71	1555.69
324.939	2137.69
325.168	1870.69
325.397	987.69
325.626	668.69
325.855	572.69
326.084	511.69
326.313	517.69
326.542	514.69
326.77	574.69
326.999	669.69
327.228	909.69
327.457	1387.69
327.686	1585.69
327.914	1086.69
328.143	733.69
328.372	619.69
328.6	604.69
328.829	566.69
329.058	582.69
329.287	580.69
329.515	543.69
329.744	509.69
329.972	498.69
330.201	515.69
330.43	575.69
330.658	566.69
330.887	586.69
331.115	574.69
331.344	522.69
331.572	485.69
331.801	478.69
332.03	483.69
332.258	464.69
332.486	425.69
332.715	437.69
332.943	443.69
333.172	430.69
333.4	426.69
333.629	451.69
333.857	439.69
334.085	468.69
334.314	454.69
334.542	475.69
334.771	462.69
334.999	469.69
335.227	434.69
335.455	435.69
335.684	409.69
335.912	412.69
336.14	403.69
336.369	413.69
336.597	415.69
336.825	420.69
337.053	419.69
337.281	414.69
337.51	405.69
337.738	395.69
337.966	415.69
338.194	428.69
338.422	410.69
338.65	416.69
338.878	388.69
339.106	393.69
339.334	417.69
339.562	387.69
339.79	403.69
340.018	388.69
340.246	407.69
340.474	408.69
340.702	418.69
340.93	421.69
341.158	414.69
341.386	401.69
341.614	419.69
341.842	409.69
342.07	395.69
342.298	390.69
342.526	395.69
342.754	400.69
342.981	385.69
343.209	361.69
343.437	403.69
343.665	397.69
343.893	383.69
344.12	404.69
344.348	401.69
344.576	399.69
344.804	409.69
345.031	412.69
345.259	431.69
345.487	418.69
345.714	400.69
345.942	393.69
346.17	389.69
346.397	403.69
346.625	392.69
346.853	389.69
347.08	379.69
347.308	406.69
347.535	396.69
347.763	400.69
347.99	390.69
348.218	400.69
348.445	397.69
348.673	396.69
348.9	387.69
349.128	368.69
349.355	359.69
349.583	357.69
349.81	379.69
350.037	388.69
350.265	388.69
350.492	372.69
350.72	368.69
350.947	393.69
351.174	383.69
351.402	384.69
351.629	408.69
351.856	386.69
352.083	406.69
352.311	418.69
352.538	406.69
352.765	415.69
352.992	402.69
353.22	383.69
353.447	364.69
353.674	370.69
353.901	377.69
354.128	378.69
354.355	367.69
354.583	378.69
354.81	367.69
355.037	366.69
355.264	344.69
355.491	351.69
355.718	365.69
355.945	367.69
356.172	353.69
356.399	348.69
356.626	346.69
356.853	355.69
357.08	353.69
357.307	364.69
357.534	353.69
357.761	355.69
357.988	351.69
358.215	347.69
358.441	340.69
358.668	346.69
358.895	359.69
359.122	396.69
359.349	378.69
359.576	378.69
359.802	396.69
360.029	436.69
360.256	437.69
360.483	407.69
360.709	381.69
360.936	397.69
361.163	382.69
361.39	379.69
361.616	391.69
361.843	389.69
362.07	376.69
362.296	414.69
362.523	381.69
362.749	385.69
362.976	360.69
363.203	363.69
363.429	358.69
363.656	352.69
363.882	365.69
364.109	367.69
364.335	350.69
364.562	349.69
364.788	357.69
365.015	388.69
365.241	365.69
365.468	366.69
365.694	341.69
365.92	377.69
366.147	349.69
366.373	357.69
366.599	342.69
366.826	357.69
367.052	358.69
367.278	343.69
367.505	376.69
367.731	375.69
367.957	352.69
368.184	365.69
368.41	383.69
368.636	371.69
368.862	368.69
369.089	367.69
369.315	355.69
369.541	359.69
369.767	372.69
369.993	358.69
370.219	369.69
370.445	360.69
370.672	355.69
370.898	356.69
371.124	350.69
371.35	356.69
371.576	347.69
371.802	350.69
372.028	339.69
372.254	359.69
372.48	345.69
372.706	346.69
372.932	371.69
373.158	350.69
373.384	354.69
373.61	353.69
373.835	355.69
374.061	335.69
374.287	373.69
374.513	359.69
374.739	354.69
374.965	351.69
375.191	357.69
375.416	362.69
375.642	350.69
375.868	353.69
376.094	329.69
376.319	332.69
376.545	353.69
376.771	352.69
376.997	337.69
377.222	352.69
377.448	356.69
377.674	343.69
377.899	344.69
378.125	337.69
378.35	332.69
378.576	350.69
378.802	330.69
379.027	344.69
379.253	350.69
379.478	342.69
379.704	340.69
379.929	361.69
380.155	342.69
380.38	361.69
380.606	343.69
380.831	342.69
381.057	342.69
381.282	344.69
381.507	336.69
381.733	346.69
381.958	342.69
382.184	347.69
382.409	325.69
382.634	340.69
382.86	323.69
383.085	341.69
383.31	342.69
383.535	338.69
383.761	337.69
383.986	346.69
384.211	352.69
384.436	346.69
384.662	356.69
384.887	355.69
385.112	338.69
385.337	357.69
385.562	353.69
385.787	353.69
386.013	379.69
386.238	372.69
386.463	358.69
386.688	352.69
386.913	363.69
387.138	363.69
387.363	359.69
387.588	351.69
387.813	379.69
388.038	359.69
388.263	373.69
388.488	351.69
388.713	375.69
388.938	366.69
389.163	356.69
389.387	362.69
389.612	348.69
389.837	347.69
390.062	372.69
390.287	354.69
390.512	367.69
390.736	348.69
390.961	349.69
391.186	375.69
391.411	359.69
391.636	344.69
391.86	360.69
392.085	345.69
392.31	368.69
392.534	357.69
392.759	352.69
392.984	371.69
393.208	358.69
393.433	359.69
393.658	350.69
393.882	371.69
394.107	355.69
394.331	357.69
394.556	377.69
394.78	373.69
395.005	369.69
395.229	370.69
395.454	383.69
395.678	370.69
395.903	376.69
396.127	396.69
396.352	400.69
396.576	364.69
396.801	377.69
397.025	366.69
397.249	382.69
397.474	375.69
397.698	380.69
397.922	382.69
398.147	401.69
398.371	379.69
398.595	402.69
398.82	394.69
399.044	386.69
399.268	408.69
399.492	427.69
399.717	431.69
399.941	459.69
400.165	479.69
400.389	476.69
400.613	446.69
400.837	402.69
401.062	406.69
401.286	410.69
401.51	414.69
401.734	385.69
401.958	391.69
402.182	387.69
402.406	422.69
402.63	387.69
402.854	400.69
403.078	395.69
403.302	385.69
403.526	396.69
403.75	418.69
403.974	399.69
404.198	390.69
404.422	425.69
404.645	413.69
404.869	414.69
405.093	449.69
405.317	458.69
405.541	494.69
405.765	432.69
405.988	448.69
406.212	434.69
406.436	471.69
406.66	471.69
406.883	465.69
407.107	471.69
407.331	500.69
407.555	553.69
407.778	557.69
408.002	510.69
408.226	472.69
408.449	471.69
408.673	450.69
408.896	481.69
409.12	523.69
409.344	496.69
409.567	438.69
409.791	413.69
410.014	409.69
410.238	414.69
410.461	412.69
410.685	424.69
410.908	423.69
411.132	458.69
411.355	471.69
411.578	483.69
411.802	424.69
412.025	445.69
412.249	437.69
412.472	423.69
412.695	464.69
412.919	442.69
413.142	422.69
413.365	413.69
413.589	387.69
413.812	388.69
414.035	380.69
414.258	389.69
414.482	382.69
414.705	394.69
414.928	375.69
415.151	388.69
415.374	389.69
415.597	392.69
415.821	400.69
416.044	387.69
416.267	394.69
416.49	370.69
416.713	382.69
416.936	393.69
417.159	385.69
417.382	381.69
417.605	417.69
417.828	387.69
418.051	398.69
418.274	399.69
418.497	400.69
418.72	419.69
418.943	368.69
419.166	379.69
419.389	399.69
419.611	398.69
419.834	409.69
420.057	415.69
420.28	407.69
420.503	417.69
420.726	423.69
420.948	421.69
421.171	451.69
421.394	473.69
421.617	425.69
421.839	410.69
422.062	405.69
422.285	424.69
422.507	455.69
422.73	519.69
422.953	519.69
423.175	438.69
423.398	443.69
423.621	422.69
423.843	457.69
424.066	446.69
424.288	448.69
424.511	464.69
424.733	513.69
424.956	577.69
425.178	551.69
425.401	542.69
425.623	554.69
425.846	476.69
426.068	449.69
426.291	451.69
426.513	449.69
426.735	468.69
426.958	469.69
427.18	561.69
427.402	661.69
427.625	732.69
427.847	650.69
428.069	583.69
428.292	498.69
428.514	469.69
428.736	437.69
428.958	437.69
429.181	420.69
429.403	416.69
429.625	435.69
429.847	461.69
430.069	507.69
430.292	509.69
430.514	448.69
430.736	423.69
430.958	414.69
431.18	410.69
431.402	384.69
431.624	378.69
431.846	381.69
432.068	378.69
432.29	387.69
432.512	408.69
432.734	400.69
432.956	381.69
433.178	404.69
433.4	400.69
433.622	393.69
433.844	384.69
434.066	382.69
434.287	391.69
434.509	389.69
434.731	387.69
434.953	397.69
435.175	409.69
435.397	430.69
435.618	447.69
435.84	496.69
436.062	581.69
436.284	613.69
436.505	503.69
436.727	481.69
436.949	453.69
437.17	419.69
437.392	426.69
437.614	432.69
437.835	461.69
438.057	576.69
438.278	627.69
438.5	639.69
438.721	663.69
438.943	646.69
439.165	511.69
439.386	465.69
439.608	461.69
439.829	486.69
440.05	475.69
440.272	552.69
440.493	486.69
440.715	457.69
440.936	436.69
441.158	441.69
441.379	410.69
441.6	443.69
441.822	443.69
442.043	493.69
442.264	556.69
442.486	573.69
442.707	513.69
442.928	485.69
443.149	467.69
443.371	484.69
443.592	532.69
443.813	590.69
444.034	627.69
444.255	528.69
444.476	484.69
444.698	464.69
444.919	444.69
445.14	533.69
445.361	492.69
445.582	476.69
445.803	547.69
446.024	656.69
446.245	653.69
446.466	570.69
446.687	490.69
446.908	445.69
447.129	439.69
447.35	396.69
447.571	433.69
447.792	423.69
448.013	435.69
448.234	437.69
448.455	488.69
448.675	585.69
448.896	639.69
449.117	576.69
449.338	530.69
449.559	606.69
449.779	682.69
450	557.69
450.221	477.69
450.442	437.69
450.662	425.69
450.883	437.69
451.104	430.69
451.324	438.69
451.545	390.69
451.766	396.69
451.986	388.69
452.207	392.69
452.428	374.69
452.648	399.69
452.869	378.69
453.089	387.69
453.31	391.69
453.53	394.69
453.751	397.69
453.971	392.69
454.192	400.69
454.412	381.69
454.633	359.69
454.853	359.69
455.073	377.69
455.294	400.69
455.514	473.69
455.734	423.69
455.955	368.69
456.175	355.69
456.395	366.69
456.616	377.69
456.836	353.69
457.056	346.69
457.276	347.69
457.497	337.69
457.717	361.69
457.937	345.69
458.157	378.69
458.377	375.69
458.598	387.69
458.818	449.69
459.038	511.69
459.258	528.69
459.478	428.69
459.698	413.69
459.918	408.69
460.138	383.69
460.358	393.69
460.578	386.69
460.798	389.69
461.018	382.69
461.238	388.69
461.458	388.69
461.678	377.69
461.898	372.69
462.118	380.69
462.338	386.69
462.558	383.69
462.777	398.69
462.997	421.69
463.217	410.69
463.437	396.69
463.657	390.69
463.876	399.69
464.096	386.69
464.316	393.69
464.536	391.69
464.755	394.69
464.975	396.69
465.195	481.69
465.414	529.69
465.634	474.69
465.854	427.69
466.073	421.69
466.293	398.69
466.512	379.69
466.732	380.69
466.951	377.69
467.171	389.69
467.391	359.69
467.61	379.69
467.829	373.69
468.049	405.69
468.268	368.69
468.488	379.69
468.707	365.69
468.927	350.69
469.146	358.69
469.365	372.69
469.585	376.69
469.804	346.69
470.023	381.69
470.243	376.69
470.462	386.69
470.681	386.69
470.901	367.69
471.12	381.69
471.339	384.69
471.558	365.69
471.777	368.69
471.997	371.69
472.216	371.69
472.435	399.69
472.654	409.69
472.873	369.69
473.092	387.69
473.311	386.69
473.53	379.69
473.749	379.69
473.968	433.69
474.187	541.69
474.406	547.69
474.625	453.69
474.844	385.69
475.063	387.69
475.282	393.69
475.501	385.69
475.72	405.69
475.939	400.69
476.158	383.69
476.377	391.69
476.596	385.69
476.814	396.69
477.033	399.69
477.252	389.69
477.471	406.69
477.69	397.69
477.908	393.69
478.127	395.69
478.346	407.69
478.564	399.69
478.783	424.69
479.002	435.69
479.22	445.69
479.439	426.69
479.658	465.69
479.876	460.69
480.095	459.69
480.313	466.69
480.532	483.69
480.751	455.69
480.969	472.69
481.188	475.69
481.406	534.69
481.624	480.69
481.843	473.69
482.061	466.69
482.28	431.69
482.498	441.69
482.717	432.69
482.935	439.69
483.153	454.69
483.372	438.69
483.59	457.69
483.808	438.69
484.027	427.69
484.245	456.69
484.463	438.69
484.681	461.69
484.9	459.69
485.118	449.69
485.336	431.69
485.554	467.69
485.772	465.69
485.99	470.69
486.209	486.69
486.427	463.69
486.645	477.69
486.863	488.69
487.081	468.69
487.299	483.69
487.517	505.69
487.735	474.69
487.953	479.69
488.171	481.69
488.389	486.69
488.607	469.69
488.825	490.69
489.043	499.69
489.261	508.69
489.479	503.69
489.696	489.69
489.914	490.69
490.132	492.69
490.35	495.69
490.568	477.69
490.786	491.69
491.003	512.69
491.221	535.69
491.439	528.69
491.657	525.69
491.874	556.69
492.092	509.69
492.31	552.69
492.527	558.69
492.745	553.69
492.963	542.69
493.18	533.69
493.398	560.69
493.615	567.69
493.833	548.69
494.05	553.69
494.268	573.69
494.485	557.69
494.703	556.69
494.92	550.69
495.138	535.69
495.355	574.69
495.573	584.69
495.79	573.69
496.008	583.69
496.225	574.69
496.442	559.69
496.66	557.69
496.877	563.69
497.094	556.69
497.312	575.69
497.529	592.69
497.746	589.69
497.963	601.69
498.181	624.69
498.398	594.69
498.615	642.69
498.832	620.69
499.049	612.69
499.267	645.69
499.484	628.69
499.701	654.69
499.918	660.69
500.135	701.69
500.352	718.69
500.569	716.69
500.786	691.69
501.003	703.69
501.22	700.69
501.437	676.69
501.654	681.69
501.871	676.69
502.088	669.69
502.305	646.69
502.522	645.69
502.739	605.69
502.956	602.69
503.172	592.69
503.389	587.69
503.606	594.69
503.823	605.69
504.04	597.69
504.256	572.69
504.473	591.69
504.69	580.69
504.907	582.69
505.123	589.69
505.34	582.69
505.557	568.69
505.773	560.69
505.99	546.69
506.207	550.69
506.423	573.69
506.64	544.69
506.856	528.69
507.073	538.69
507.289	552.69
507.506	551.69
507.722	555.69
507.939	587.69
508.155	530.69
508.372	547.69
508.588	531.69
508.805	522.69
509.021	543.69
509.238	542.69
509.454	569.69
509.67	512.69
509.887	549.69
510.103	543.69
510.319	559.69
510.536	646.69
510.752	1053.69
510.968	835.69
511.184	572.69
511.401	539.69
511.617	518.69
511.833	501.69
512.049	512.69
512.265	500.69
512.481	511.69
512.698	487.69
512.914	480.69
513.13	521.69
513.346	496.69
513.562	487.69
513.778	508.69
513.994	490.69
514.21	521.69
514.426	553.69
514.642	583.69
514.858	630.69
515.074	656.69
515.29	780.69
515.506	1158.69
515.721	931.69
515.937	639.69
516.153	582.69
516.369	560.69
516.585	538.69
516.801	536.69
517.016	524.69
517.232	509.69
517.448	527.69
517.664	511.69
517.879	514.69
518.095	499.69
518.311	509.69
518.527	511.69
518.742	516.69
518.958	511.69
519.173	489.69
519.389	506.69
519.605	499.69
519.82	497.69
520.036	508.69
520.251	536.69
520.467	559.69
520.682	581.69
520.898	572.69
521.113	582.69
521.329	636.69
521.544	731.69
521.76	939.69
521.975	1529.69
522.19	1445.69
522.406	813.69
522.621	597.69
522.836	551.69
523.052	514.69
523.267	501.69
523.482	472.69
523.698	479.69
523.913	470.69
524.128	472.69
524.343	455.69
524.559	462.69
524.774	441.69
524.989	425.69
525.204	432.69
525.419	427.69
525.634	441.69
525.849	426.69
526.064	419.69
526.28	411.69
526.495	415.69
526.71	422.69
526.925	408.69
527.14	405.69
527.355	413.69
527.57	415.69
527.785	418.69
527.999	403.69
528.214	416.69
528.429	414.69
528.644	417.69
528.859	401.69
529.074	435.69
529.289	439.69
529.503	508.69
529.718	490.69
529.933	442.69
530.148	427.69
530.363	419.69
530.577	419.69
530.792	394.69
531.007	395.69
531.221	387.69
531.436	390.69
531.651	387.69
531.865	401.69
532.08	400.69
532.295	390.69
532.509	402.69
532.724	383.69
532.938	404.69
533.153	373.69
533.367	400.69
533.582	395.69
533.796	381.69
534.011	388.69
534.225	364.69
534.44	376.69
534.654	391.69
534.868	380.69
535.083	387.69
535.297	384.69
535.511	381.69
535.726	393.69
535.94	403.69
536.154	406.69
536.369	379.69
536.583	381.69
536.797	383.69
537.011	368.69
537.225	385.69
537.44	371.69
537.654	383.69
537.868	400.69
538.082	378.69
538.296	385.69
538.51	371.69
538.724	371.69
538.938	371.69
539.153	391.69
539.367	390.69
539.581	392.69
539.795	364.69
540.009	369.69
540.222	371.69
540.436	365.69
540.65	387.69
540.864	363.69
541.078	387.69
541.292	394.69
541.506	375.69
541.72	350.69
541.934	375.69
542.147	381.69
542.361	378.69
542.575	374.69
542.789	373.69
543.002	366.69
543.216	385.69
543.43	383.69
543.644	368.69
543.857	368.69
544.071	365.69
544.285	373.69
544.498	371.69
544.712	360.69
544.925	381.69
545.139	382.69
545.352	373.69
545.566	364.69
545.779	360.69
545.993	360.69
546.206	381.69
546.42	363.69
546.633	356.69
546.847	366.69
547.06	358.69
547.274	363.69
547.487	364.69
547.7	365.69
547.914	353.69
548.127	344.69
548.34	368.69
548.554	346.69
548.767	358.69
548.98	340.69
549.193	359.69
549.407	340.69
549.62	358.69
549.833	349.69
550.046	333.69
550.259	342.69
550.473	337.69
550.686	341.69
550.899	348.69
551.112	345.69
551.325	360.69
551.538	325.69
551.751	338.69
551.964	351.69
552.177	339.69
552.39	355.69
552.603	352.69
552.816	349.69
553.029	354.69
553.242	332.69
553.455	360.69
553.667	374.69
553.88	359.69
554.093	371.69
554.306	360.69
554.519	349.69
554.732	346.69
554.944	331.69
555.157	324.69
555.37	341.69
555.583	348.69
555.795	353.69
556.008	316.69
556.221	331.69
556.433	299.69
556.646	332.69
556.859	316.69
557.071	307.69
557.284	307.69
557.496	305.69
557.709	308.69
557.921	317.69
558.134	321.69
558.346	298.69
558.559	306.69
558.771	311.69
558.984	295.69
559.196	285.69
559.409	315.69
559.621	305.69
559.833	308.69
560.046	315.69
560.258	313.69
560.47	326.69
560.683	308.69
560.895	305.69
561.107	305.69
561.32	318.69
561.532	310.69
561.744	316.69
561.956	312.69
562.168	323.69
562.381	310.69
562.593	317.69
562.805	304.69
563.017	326.69
563.229	310.69
563.441	320.69
563.653	327.69
563.865	303.69
564.077	317.69
564.289	311.69
564.501	321.69
564.713	319.69
564.925	320.69
565.137	348.69
565.349	318.69
565.561	313.69
565.773	313.69
565.985	336.69
566.197	326.69
566.408	348.69
566.62	352.69
566.832	346.69
567.044	365.69
567.255	349.69
567.467	348.69
567.679	359.69
567.891	347.69
568.102	371.69
568.314	372.69
568.526	356.69
568.737	347.69
568.949	345.69
569.161	328.69
569.372	321.69
569.584	305.69
569.795	321.69
570.007	324.69
570.218	365.69
570.43	352.69
570.641	308.69
570.853	297.69
571.064	322.69
571.276	292.69
571.487	285.69
571.698	292.69
571.91	313.69
572.121	285.69
572.333	279.69
572.544	262.69
572.755	272.69
572.966	298.69
573.178	288.69
573.389	273.69
573.6	286.69
573.811	298.69
574.023	271.69
574.234	257.69
574.445	282.69
574.656	277.69
574.867	271.69
575.078	268.69
575.289	272.69
575.501	291.69
575.712	283.69
575.923	286.69
576.134	273.69
576.345	273.69
576.556	285.69
576.767	251.69
576.978	258.69
577.188	266.69
577.399	262.69
577.61	264.69
577.821	257.69
578.032	262.69
578.243	307.69
578.454	504.69
578.665	364.69
578.875	263.69
579.086	258.69
579.297	243.69
579.508	263.69
579.718	279.69
579.929	256.69
580.14	266.69
580.35	256.69
580.561	256.69
580.772	240.69
580.982	251.69
581.193	251.69
581.403	233.69
581.614	245.69
581.825	245.69
582.035	259.69
582.246	231.69
582.456	240.69
582.667	257.69
582.877	244.69
583.087	256.69
583.298	252.69
583.508	253.69
583.719	233.69
583.929	235.69
584.139	258.69
584.35	259.69
584.56	248.69
584.77	241.69
584.981	247.69
585.191	263.69
585.401	233.69
585.611	248.69
585.821	232.69
586.032	232.69
586.242	248.69
586.452	238.69
586.662	243.69
586.872	257.69
587.082	229.69
587.292	234.69
587.502	240.69
587.713	250.69
587.923	231.69
588.133	245.69
588.343	247.69
588.553	230.69
588.762	251.69
588.972	260.69
589.182	298.69
589.392	284.69
589.602	240.69
589.812	262.69
590.022	243.69
590.232	236.69
590.441	238.69
590.651	247.69
590.861	253.69
591.071	223.69
591.281	240.69
591.49	252.69
591.7	240.69
591.91	217.69
592.119	233.69
592.329	245.69
592.539	235.69
592.748	235.69
592.958	247.69
593.167	239.69
593.377	235.69
593.587	250.69
593.796	248.69
594.006	235.69
594.215	239.69
594.424	244.69
594.634	262.69
594.843	235.69
595.053	241.69
595.262	235.69
595.472	238.69
595.681	231.69
595.89	234.69
596.1	230.69
596.309	221.69
596.518	236.69
596.727	220.69
596.937	224.69
597.146	229.69
597.355	227.69
597.564	235.69
597.774	224.69
597.983	199.69
598.192	217.69
598.401	240.69
598.61	214.69
598.819	228.69
599.028	239.69
599.237	224.69
599.446	202.69
599.655	224.69
599.864	220.69
600.073	212.69
600.282	209.69
600.491	233.69
600.7	224.69
600.909	212.69
601.118	217.69
601.327	215.69
601.536	223.69
601.745	220.69
601.953	237.69
602.162	212.69
602.371	208.69
602.58	202.69
602.789	213.69
602.997	203.69
603.206	209.69
603.415	222.69
603.623	194.69
603.832	201.69
604.041	214.69
604.249	206.69
604.458	208.69
604.666	207.69
604.875	203.69
605.084	206.69
605.292	196.69
605.501	213.69
605.709	198.69
605.918	220.69
606.126	198.69
606.334	194.69
606.543	215.69
606.751	204.69
606.96	190.69
607.168	208.69
607.376	193.69
607.585	209.69
607.793	216.69
608.001	210.69
608.21	193.69
608.418	220.69
608.626	192.69
608.834	204.69
609.043	197.69
609.251	210.69
609.459	206.69
609.667	199.69
609.875	194.69
610.083	195.69
610.291	200.69
610.499	214.69
610.707	198.69
610.916	200.69
611.124	193.69
611.332	212.69
611.54	197.69
611.748	218.69
611.955	206.69
612.163	179.69
612.371	197.69
612.579	197.69
612.787	206.69
612.995	204.69
613.203	199.69
613.411	208.69
613.618	187.69
613.826	204.69
614.034	208.69
614.242	187.69
614.449	208.69
614.657	199.69
614.865	197.69
615.072	200.69
615.28	198.69
615.488	203.69
615.695	193.69
615.903	189.69
616.111	199.69
616.318	225.69
616.526	183.69
616.733	206.69
616.941	191.69
617.148	197.69
617.356	204.69
617.563	202.69
617.771	203.69
617.978	179.69
618.185	214.69
618.393	177.69
618.6	206.69
618.807	212.69
619.015	203.69
619.222	186.69
619.429	196.69
619.637	188.69
619.844	189.69
620.051	192.69
620.258	185.69
620.466	199.69
620.673	174.69
620.88	177.69
621.087	190.69
621.294	181.69
621.501	203.69
621.708	184.69
621.915	190.69
622.122	187.69
622.329	174.69
622.536	177.69
622.743	181.69
622.95	195.69
623.157	168.69
623.364	197.69
623.571	198.69
623.778	188.69
623.985	183.69
624.192	187.69
624.399	199.69
624.606	194.69
624.812	181.69
625.019	183.69
625.226	172.69
625.433	191.69
625.639	196.69
625.846	177.69
626.053	183.69
626.259	164.69
626.466	174.69
626.673	178.69
626.879	168.69
627.086	174.69
627.293	175.69
627.499	184.69
627.706	170.69
627.912	179.69
628.119	195.69
628.325	185.69
628.532	174.69
628.738	180.69
628.945	177.69
629.151	170.69
629.357	181.69
629.564	175.69
629.77	176.69
629.976	184.69
630.183	174.69
630.389	168.69
630.595	159.69
630.802	181.69
631.008	159.69
631.214	171.69
631.42	185.69
631.627	176.69
631.833	169.69
632.039	163.69
632.245	187.69
632.451	151.69
632.657	153.69
632.863	178.69
633.069	160.69
633.275	173.69
633.481	168.69
633.688	173.69
633.893	180.69
634.099	174.69
634.305	161.69
634.511	153.69
634.717	163.69
634.923	166.69
635.129	149.69
635.335	176.69
635.541	149.69
635.747	154.69
635.952	162.69
636.158	166.69
636.364	173.69
636.57	155.69
636.775	169.69
636.981	156.69
637.187	138.69
637.392	167.69
637.598	168.69
637.804	152.69
638.009	150.69
638.215	159.69
638.421	159.69
638.626	149.69
638.832	157.69
639.037	155.69
639.243	152.69
639.448	145.69
639.654	138.69
639.859	151.69
640.065	157.69
640.27	149.69
640.475	156.69
640.681	152.69
640.886	158.69
641.091	157.69
641.297	154.69
641.502	133.69
641.707	134.69
641.913	151.69
642.118	155.69
642.323	140.69
642.528	155.69
642.733	153.69
642.939	145.69
643.144	145.69
643.349	142.69
643.554	140.69
643.759	151.69
643.964	155.69
644.169	153.69
644.374	135.69
644.579	153.69
644.784	147.69
644.989	147.69
645.194	148.69
645.399	160.69
645.604	152.69
645.809	157.69
646.014	159.69
646.219	154.69
646.423	148.69
646.628	156.69
646.833	156.69
647.038	143.69
647.243	168.69
647.447	149.69
647.652	145.69
647.857	141.69
648.062	145.69
648.266	141.69
648.471	152.69
648.676	150.69
648.88	150.69
649.085	145.69
649.289	146.69
649.494	151.69
649.698	161.69
649.903	156.69
650.107	141.69
650.312	147.69
650.516	149.69
650.721	140.69
650.925	142.69
651.13	139.69
651.334	128.69
651.539	135.69
651.743	124.69
651.947	138.69
652.152	146.69
652.356	136.69
652.56	133.69
652.764	127.69
652.969	139.69
653.173	128.69
653.377	129.69
653.581	126.69
653.785	136.69
653.99	134.69
654.194	140.69
654.398	132.69
654.602	128.69
654.806	130.69
655.01	139.69
655.214	147.69
655.418	119.69
655.622	123.69
655.826	118.69
656.03	129.69
656.234	134.69
656.438	140.69
656.642	133.69
656.846	129.69
657.049	111.69
657.253	130.69
657.457	117.69
657.661	108.69
657.865	126.69
658.068	119.69
658.272	108.69
658.476	105.69
658.68	106.69
658.883	111.69
659.087	99.69
659.291	103.69
659.494	91.69
659.698	97.69
659.901	108.69
660.105	99.69
660.309	96.69
660.512	96.69
660.716	89.69
660.919	107.69
661.123	109.69
661.326	90.69
661.53	86.69
661.733	93.69
661.936	83.69
662.14	84.69
662.343	99.69
662.546	91.69
662.75	84.69
662.953	102.69
663.156	91.69
663.36	90.69
663.563	83.69
663.766	83.69
663.969	76.69
664.173	81.69
664.376	73.69
664.579	68.69
664.782	89.69
664.985	84.69
665.188	90.69
665.391	78.69
665.594	92.69
665.797	86.69
666	82.69
666.203	85.69
666.406	95.69
666.609	98.69
666.812	93.69
667.015	83.69
667.218	97.69
667.421	77.69
667.624	74.69
667.827	89.69
668.03	87.69
668.232	80.69
668.435	96.69
668.638	98.69
668.841	87.69
669.043	81.69
669.246	91.69
669.449	76.69
669.651	81.69
669.854	72.69
670.057	83.69
670.259	84.69
670.462	80.69
670.665	90.69
670.867	99.69
671.07	81.69
671.272	88.69
671.475	85.69
671.677	84.69
671.88	80.69
672.082	102.69
672.284	86.69
672.487	87.69
672.689	87.69
672.892	89.69
