Data from 1981.PennyLincolnUp.Lamp.En5.5.200Scan.071819.P1_HRD10591_16-43-20-960.txt Node
Date: Thu Jul 18 16:43:20 EDT 2019
User: cochatt
Spectrometer: HR+D1059
Trigger mode: 1
Integration Time (sec): 1.000000E-1
Scans to average: 1
Electric dark correction enabled: true
Nonlinearity correction enabled: false
Boxcar width: 0
XAxis mode: Wavelengths
Number of Pixels in Spectrum: 2048
>>>>>Begin Spectral Data<<<<<
223.165	-15.94
223.4	-15.94
223.635	-15.94
223.869	-18.94
224.104	-11.94
224.338	-4.94
224.573	-7.94
224.808	-16.94
225.042	-10.94
225.277	-3.94
225.511	11.06
225.746	-6.94
225.98	-9.94
226.215	17.06
226.449	13.06
226.683	17.06
226.918	23.06
227.152	27.06
227.387	40.06
227.621	50.06
227.856	45.06
228.09	53.06
228.324	61.06
228.559	69.06
228.793	77.06
229.027	104.06
229.262	116.06
229.496	117.06
229.73	134.06
229.964	170.06
230.199	137.06
230.433	122.06
230.667	121.06
230.901	123.06
231.136	122.06
231.37	108.06
231.604	128.06
231.838	103.06
232.072	113.06
232.306	122.06
232.541	123.06
232.775	124.06
233.009	114.06
233.243	119.06
233.477	126.06
233.711	128.06
233.945	98.06
234.179	118.06
234.413	125.06
234.647	105.06
234.881	122.06
235.115	121.06
235.349	122.06
235.583	117.06
235.817	121.06
236.051	135.06
236.285	112.06
236.519	119.06
236.753	131.06
236.987	159.06
237.221	177.06
237.455	238.06
237.689	196.06
237.922	147.06
238.156	135.06
238.39	146.06
238.624	125.06
238.858	138.06
239.091	118.06
239.325	122.06
239.559	131.06
239.793	125.06
240.027	151.06
240.26	134.06
240.494	156.06
240.728	156.06
240.961	156.06
241.195	159.06
241.429	148.06
241.662	144.06
241.896	149.06
242.13	136.06
242.363	134.06
242.597	150.06
242.83	155.06
243.064	140.06
243.298	138.06
243.531	150.06
243.765	137.06
243.998	162.06
244.232	144.06
244.465	140.06
244.699	132.06
244.932	156.06
245.166	156.06
245.399	148.06
245.633	165.06
245.866	142.06
246.099	148.06
246.333	150.06
246.566	149.06
246.8	151.06
247.033	150.06
247.266	168.06
247.5	157.06
247.733	170.06
247.966	177.06
248.2	178.06
248.433	193.06
248.666	188.06
248.899	198.06
249.133	206.06
249.366	223.06
249.599	208.06
249.832	196.06
250.066	193.06
250.299	189.06
250.532	210.06
250.765	210.06
250.998	233.06
251.231	242.06
251.465	246.06
251.698	237.06
251.931	225.06
252.164	219.06
252.397	215.06
252.63	216.06
252.863	219.06
253.096	248.06
253.329	246.06
253.562	237.06
253.795	233.06
254.028	218.06
254.261	240.06
254.494	263.06
254.727	294.06
254.96	302.06
255.193	321.06
255.426	268.06
255.659	279.06
255.892	257.06
256.124	244.06
256.357	269.06
256.59	250.06
256.823	235.06
257.056	231.06
257.289	218.06
257.521	225.06
257.754	238.06
257.987	207.06
258.22	226.06
258.452	238.06
258.685	223.06
258.918	221.06
259.151	240.06
259.383	245.06
259.616	223.06
259.849	248.06
260.081	239.06
260.314	279.06
260.547	269.06
260.779	269.06
261.012	260.06
261.244	239.06
261.477	232.06
261.71	252.06
261.942	244.06
262.175	259.06
262.407	262.06
262.64	248.06
262.872	232.06
263.105	230.06
263.337	238.06
263.57	226.06
263.802	253.06
264.035	229.06
264.267	231.06
264.499	242.06
264.732	210.06
264.964	210.06
265.197	228.06
265.429	218.06
265.661	215.06
265.894	232.06
266.126	219.06
266.358	238.06
266.591	228.06
266.823	238.06
267.055	247.06
267.287	249.06
267.52	232.06
267.752	233.06
267.984	222.06
268.216	235.06
268.448	241.06
268.681	260.06
268.913	262.06
269.145	285.06
269.377	301.06
269.609	298.06
269.841	303.06
270.073	309.06
270.306	309.06
270.538	331.06
270.77	357.06
271.002	348.06
271.234	332.06
271.466	344.06
271.698	352.06
271.93	352.06
272.162	349.06
272.394	350.06
272.626	339.06
272.858	326.06
273.09	327.06
273.322	314.06
273.553	292.06
273.785	292.06
274.017	292.06
274.249	279.06
274.481	281.06
274.713	289.06
274.945	294.06
275.176	314.06
275.408	287.06
275.64	296.06
275.872	296.06
276.104	273.06
276.335	271.06
276.567	292.06
276.799	303.06
277.031	321.06
277.262	344.06
277.494	357.06
277.726	337.06
277.957	292.06
278.189	287.06
278.421	297.06
278.652	285.06
278.884	296.06
279.115	275.06
279.347	278.06
279.579	288.06
279.81	299.06
280.042	299.06
280.273	309.06
280.505	284.06
280.736	297.06
280.968	266.06
281.199	279.06
281.431	286.06
281.662	293.06
281.894	278.06
282.125	280.06
282.356	297.06
282.588	325.06
282.819	336.06
283.051	305.06
283.282	314.06
283.513	291.06
283.745	287.06
283.976	295.06
284.207	296.06
284.439	294.06
284.67	294.06
284.901	312.06
285.132	290.06
285.364	274.06
285.595	293.06
285.826	288.06
286.057	269.06
286.288	276.06
286.52	282.06
286.751	308.06
286.982	299.06
287.213	293.06
287.444	280.06
287.675	298.06
287.906	298.06
288.138	313.06
288.369	327.06
288.6	305.06
288.831	316.06
289.062	318.06
289.293	296.06
289.524	300.06
289.755	296.06
289.986	302.06
290.217	287.06
290.448	294.06
290.679	284.06
290.91	293.06
291.141	296.06
291.371	276.06
291.602	307.06
291.833	296.06
292.064	281.06
292.295	289.06
292.526	293.06
292.757	276.06
292.987	280.06
293.218	270.06
293.449	300.06
293.68	288.06
293.91	290.06
294.141	296.06
294.372	310.06
294.603	303.06
294.833	308.06
295.064	296.06
295.295	314.06
295.525	300.06
295.756	318.06
295.987	322.06
296.217	338.06
296.448	354.06
296.679	322.06
296.909	310.06
297.14	308.06
297.37	297.06
297.601	298.06
297.831	324.06
298.062	305.06
298.292	308.06
298.523	308.06
298.753	303.06
298.984	317.06
299.214	311.06
299.445	310.06
299.675	297.06
299.905	303.06
300.136	320.06
300.366	313.06
300.597	312.06
300.827	311.06
301.057	329.06
301.288	344.06
301.518	338.06
301.748	308.06
301.979	334.06
302.209	327.06
302.439	327.06
302.669	341.06
302.9	308.06
303.13	324.06
303.36	345.06
303.59	334.06
303.82	338.06
304.051	355.06
304.281	332.06
304.511	332.06
304.741	324.06
304.971	332.06
305.201	324.06
305.431	339.06
305.661	313.06
305.891	360.06
306.121	332.06
306.352	349.06
306.582	350.06
306.812	346.06
307.042	351.06
307.272	328.06
307.502	340.06
307.731	341.06
307.961	356.06
308.191	358.06
308.421	344.06
308.651	344.06
308.881	357.06
309.111	372.06
309.341	366.06
309.571	370.06
309.8	380.06
310.03	376.06
310.26	386.06
310.49	388.06
310.72	406.06
310.949	414.06
311.179	420.06
311.409	411.06
311.639	388.06
311.868	400.06
312.098	400.06
312.328	420.06
312.557	415.06
312.787	445.06
313.017	448.06
313.246	402.06
313.476	422.06
313.706	385.06
313.935	406.06
314.165	416.06
314.394	425.06
314.624	424.06
314.853	406.06
315.083	411.06
315.312	413.06
315.542	378.06
315.771	374.06
316.001	383.06
316.23	369.06
316.46	376.06
316.689	383.06
316.919	392.06
317.148	418.06
317.377	402.06
317.607	393.06
317.836	425.06
318.065	387.06
318.295	385.06
318.524	379.06
318.753	403.06
318.983	390.06
319.212	386.06
319.441	423.06
319.67	407.06
319.9	399.06
320.129	404.06
320.358	401.06
320.587	402.06
320.816	414.06
321.046	429.06
321.275	442.06
321.504	431.06
321.733	434.06
321.962	432.06
322.191	460.06
322.42	456.06
322.649	478.06
322.878	490.06
323.108	517.06
323.337	550.06
323.566	568.06
323.795	618.06
324.024	687.06
324.253	840.06
324.482	1234.06
324.71	1897.06
324.939	2551.06
325.168	2195.06
325.397	1162.06
325.626	794.06
325.855	644.06
326.084	582.06
326.313	575.06
326.542	570.06
326.77	646.06
326.999	777.06
327.228	1071.06
327.457	1621.06
327.686	1914.06
327.914	1281.06
328.143	837.06
328.372	741.06
328.6	679.06
328.829	639.06
329.058	660.06
329.287	650.06
329.515	619.06
329.744	580.06
329.972	578.06
330.201	568.06
330.43	626.06
330.658	685.06
330.887	696.06
331.115	664.06
331.344	565.06
331.572	519.06
331.801	534.06
332.03	516.06
332.258	492.06
332.486	478.06
332.715	484.06
332.943	476.06
333.172	475.06
333.4	469.06
333.629	468.06
333.857	477.06
334.085	512.06
334.314	525.06
334.542	555.06
334.771	557.06
334.999	495.06
335.227	480.06
335.455	471.06
335.684	456.06
335.912	452.06
336.14	436.06
336.369	450.06
336.597	444.06
336.825	468.06
337.053	437.06
337.281	446.06
337.51	440.06
337.738	474.06
337.966	414.06
338.194	448.06
338.422	466.06
338.65	431.06
338.878	429.06
339.106	425.06
339.334	424.06
339.562	425.06
339.79	436.06
340.018	433.06
340.246	442.06
340.474	434.06
340.702	448.06
340.93	444.06
341.158	437.06
341.386	452.06
341.614	422.06
341.842	421.06
342.07	430.06
342.298	444.06
342.526	417.06
342.754	406.06
342.981	401.06
343.209	386.06
343.437	427.06
343.665	418.06
343.893	419.06
344.12	426.06
344.348	434.06
344.576	433.06
344.804	449.06
345.031	462.06
345.259	454.06
345.487	426.06
345.714	437.06
345.942	427.06
346.17	397.06
346.397	413.06
346.625	418.06
346.853	437.06
347.08	399.06
347.308	422.06
347.535	423.06
347.763	435.06
347.99	418.06
348.218	442.06
348.445	436.06
348.673	429.06
348.9	420.06
349.128	412.06
349.355	411.06
349.583	386.06
349.81	396.06
350.037	390.06
350.265	401.06
350.492	392.06
350.72	414.06
350.947	426.06
351.174	396.06
351.402	449.06
351.629	432.06
351.856	439.06
352.083	425.06
352.311	434.06
352.538	456.06
352.765	423.06
352.992	430.06
353.22	426.06
353.447	395.06
353.674	394.06
353.901	382.06
354.128	375.06
354.355	372.06
354.583	381.06
354.81	394.06
355.037	384.06
355.264	377.06
355.491	386.06
355.718	382.06
355.945	378.06
356.172	355.06
356.399	376.06
356.626	375.06
356.853	368.06
357.08	363.06
357.307	376.06
357.534	365.06
357.761	370.06
357.988	403.06
358.215	382.06
358.441	374.06
358.668	375.06
358.895	378.06
359.122	396.06
359.349	385.06
359.576	416.06
359.802	432.06
360.029	459.06
360.256	484.06
360.483	436.06
360.709	423.06
360.936	423.06
361.163	408.06
361.39	406.06
361.616	401.06
361.843	420.06
362.07	394.06
362.296	424.06
362.523	391.06
362.749	404.06
362.976	411.06
363.203	403.06
363.429	380.06
363.656	363.06
363.882	379.06
364.109	384.06
364.335	373.06
364.562	405.06
364.788	379.06
365.015	400.06
365.241	378.06
365.468	370.06
365.694	390.06
365.92	391.06
366.147	383.06
366.373	361.06
366.599	378.06
366.826	364.06
367.052	384.06
367.278	382.06
367.505	377.06
367.731	383.06
367.957	369.06
368.184	374.06
368.41	378.06
368.636	384.06
368.862	395.06
369.089	389.06
369.315	348.06
369.541	368.06
369.767	365.06
369.993	353.06
370.219	360.06
370.445	367.06
370.672	377.06
370.898	365.06
371.124	352.06
371.35	366.06
371.576	364.06
371.802	361.06
372.028	366.06
372.254	370.06
372.48	360.06
372.706	358.06
372.932	353.06
373.158	358.06
373.384	382.06
373.61	373.06
373.835	357.06
374.061	369.06
374.287	360.06
374.513	367.06
374.739	384.06
374.965	368.06
375.191	367.06
375.416	377.06
375.642	376.06
375.868	369.06
376.094	372.06
376.319	353.06
376.545	349.06
376.771	367.06
376.997	392.06
377.222	353.06
377.448	377.06
377.674	360.06
377.899	346.06
378.125	343.06
378.35	365.06
378.576	353.06
378.802	360.06
379.027	364.06
379.253	371.06
379.478	363.06
379.704	334.06
379.929	329.06
380.155	349.06
380.38	356.06
380.606	376.06
380.831	361.06
381.057	367.06
381.282	361.06
381.507	331.06
381.733	359.06
381.958	365.06
382.184	347.06
382.409	361.06
382.634	376.06
382.86	346.06
383.085	361.06
383.31	362.06
383.535	368.06
383.761	358.06
383.986	376.06
384.211	380.06
384.436	359.06
384.662	366.06
384.887	374.06
385.112	372.06
385.337	347.06
385.562	348.06
385.787	375.06
386.013	388.06
386.238	380.06
386.463	380.06
386.688	361.06
386.913	376.06
387.138	369.06
387.363	378.06
387.588	375.06
387.813	362.06
388.038	363.06
388.263	369.06
388.488	363.06
388.713	373.06
388.938	378.06
389.163	383.06
389.387	391.06
389.612	374.06
389.837	359.06
390.062	352.06
390.287	364.06
390.512	373.06
390.736	361.06
390.961	372.06
391.186	350.06
391.411	380.06
391.636	360.06
391.86	361.06
392.085	379.06
392.31	375.06
392.534	365.06
392.759	394.06
392.984	388.06
393.208	374.06
393.433	358.06
393.658	376.06
393.882	357.06
394.107	379.06
394.331	360.06
394.556	367.06
394.78	376.06
395.005	360.06
395.229	375.06
395.454	380.06
395.678	367.06
395.903	374.06
396.127	405.06
396.352	412.06
396.576	396.06
396.801	387.06
397.025	366.06
397.249	385.06
397.474	372.06
397.698	407.06
397.922	401.06
398.147	424.06
398.371	412.06
398.595	389.06
398.82	401.06
399.044	414.06
399.268	415.06
399.492	443.06
399.717	448.06
399.941	481.06
400.165	483.06
400.389	519.06
400.613	460.06
400.837	428.06
401.062	421.06
401.286	415.06
401.51	415.06
401.734	403.06
401.958	417.06
402.182	411.06
402.406	433.06
402.63	439.06
402.854	413.06
403.078	437.06
403.302	433.06
403.526	408.06
403.75	406.06
403.974	442.06
404.198	420.06
404.422	428.06
404.645	430.06
404.869	433.06
405.093	458.06
405.317	513.06
405.541	530.06
405.765	486.06
405.988	461.06
406.212	469.06
406.436	482.06
406.66	489.06
406.883	474.06
407.107	495.06
407.331	515.06
407.555	561.06
407.778	598.06
408.002	526.06
408.226	479.06
408.449	466.06
408.673	476.06
408.896	492.06
409.12	530.06
409.344	516.06
409.567	465.06
409.791	434.06
410.014	440.06
410.238	414.06
410.461	426.06
410.685	436.06
410.908	468.06
411.132	479.06
411.355	495.06
411.578	494.06
411.802	449.06
412.025	423.06
412.249	442.06
412.472	452.06
412.695	502.06
412.919	475.06
413.142	445.06
413.365	405.06
413.589	417.06
413.812	410.06
414.035	406.06
414.258	409.06
414.482	393.06
414.705	388.06
414.928	397.06
415.151	406.06
415.374	396.06
415.597	374.06
415.821	398.06
416.044	406.06
416.267	403.06
416.49	405.06
416.713	401.06
416.936	393.06
417.159	395.06
417.382	419.06
417.605	403.06
417.828	402.06
418.051	441.06
418.274	412.06
418.497	424.06
418.72	403.06
418.943	397.06
419.166	392.06
419.389	438.06
419.611	445.06
419.834	457.06
420.057	429.06
420.28	430.06
420.503	431.06
420.726	444.06
420.948	445.06
421.171	480.06
421.394	493.06
421.617	452.06
421.839	414.06
422.062	425.06
422.285	443.06
422.507	482.06
422.73	547.06
422.953	534.06
423.175	481.06
423.398	456.06
423.621	462.06
423.843	471.06
424.066	453.06
424.288	463.06
424.511	472.06
424.733	537.06
424.956	608.06
425.178	606.06
425.401	593.06
425.623	604.06
425.846	536.06
426.068	489.06
426.291	486.06
426.513	496.06
426.735	508.06
426.958	545.06
427.18	598.06
427.402	727.06
427.625	798.06
427.847	726.06
428.069	631.06
428.292	526.06
428.514	478.06
428.736	464.06
428.958	455.06
429.181	447.06
429.403	440.06
429.625	443.06
429.847	475.06
430.069	542.06
430.292	550.06
430.514	479.06
430.736	422.06
430.958	422.06
431.18	426.06
431.402	413.06
431.624	403.06
431.846	381.06
432.068	392.06
432.29	418.06
432.512	417.06
432.734	411.06
432.956	425.06
433.178	428.06
433.4	441.06
433.622	412.06
433.844	407.06
434.066	403.06
434.287	407.06
434.509	416.06
434.731	417.06
434.953	420.06
435.175	430.06
435.397	464.06
435.618	467.06
435.84	520.06
436.062	600.06
436.284	643.06
436.505	568.06
436.727	483.06
436.949	476.06
437.17	436.06
437.392	437.06
437.614	450.06
437.835	497.06
438.057	612.06
438.278	684.06
438.5	686.06
438.721	730.06
438.943	683.06
439.165	580.06
439.386	507.06
439.608	500.06
439.829	512.06
440.05	524.06
440.272	580.06
440.493	527.06
440.715	467.06
440.936	453.06
441.158	439.06
441.379	438.06
441.6	443.06
441.822	471.06
442.043	513.06
442.264	616.06
442.486	648.06
442.707	537.06
442.928	496.06
443.149	476.06
443.371	524.06
443.592	545.06
443.813	631.06
444.034	678.06
444.255	582.06
444.476	488.06
444.698	497.06
444.919	457.06
445.14	570.06
445.361	512.06
445.582	522.06
445.803	586.06
446.024	678.06
446.245	694.06
446.466	638.06
446.687	518.06
446.908	473.06
447.129	452.06
447.35	446.06
447.571	434.06
447.792	454.06
448.013	451.06
448.234	463.06
448.455	540.06
448.675	631.06
448.896	694.06
449.117	620.06
449.338	583.06
449.559	664.06
449.779	739.06
450	609.06
450.221	491.06
450.442	474.06
450.662	446.06
450.883	469.06
451.104	492.06
451.324	469.06
451.545	433.06
451.766	416.06
451.986	385.06
452.207	405.06
452.428	384.06
452.648	387.06
452.869	392.06
453.089	412.06
453.31	404.06
453.53	407.06
453.751	413.06
453.971	418.06
454.192	421.06
454.412	385.06
454.633	384.06
454.853	391.06
455.073	393.06
455.294	426.06
455.514	501.06
455.734	473.06
455.955	411.06
456.175	373.06
456.395	362.06
456.616	367.06
456.836	376.06
457.056	342.06
457.276	354.06
457.497	352.06
457.717	349.06
457.937	370.06
458.157	374.06
458.377	385.06
458.598	420.06
458.818	484.06
459.038	552.06
459.258	551.06
459.478	465.06
459.698	417.06
459.918	406.06
460.138	413.06
460.358	392.06
460.578	388.06
460.798	396.06
461.018	408.06
461.238	401.06
461.458	383.06
461.678	385.06
461.898	412.06
462.118	390.06
462.338	424.06
462.558	415.06
462.777	377.06
462.997	406.06
463.217	416.06
463.437	400.06
463.657	422.06
463.876	413.06
464.096	399.06
464.316	411.06
464.536	414.06
464.755	396.06
464.975	431.06
465.195	485.06
465.414	562.06
465.634	503.06
465.854	442.06
466.073	417.06
466.293	405.06
466.512	391.06
466.732	398.06
466.951	392.06
467.171	395.06
467.391	366.06
467.61	402.06
467.829	420.06
468.049	417.06
468.268	405.06
468.488	379.06
468.707	387.06
468.927	379.06
469.146	367.06
469.365	384.06
469.585	378.06
469.804	389.06
470.023	414.06
470.243	414.06
470.462	429.06
470.681	412.06
470.901	426.06
471.12	402.06
471.339	402.06
471.558	383.06
471.777	392.06
471.997	387.06
472.216	426.06
472.435	447.06
472.654	423.06
472.873	422.06
473.092	395.06
473.311	390.06
473.53	392.06
473.749	424.06
473.968	457.06
474.187	570.06
474.406	579.06
474.625	470.06
474.844	423.06
475.063	408.06
475.282	396.06
475.501	401.06
475.72	413.06
475.939	402.06
476.158	422.06
476.377	401.06
476.596	403.06
476.814	426.06
477.033	416.06
477.252	424.06
477.471	410.06
477.69	425.06
477.908	414.06
478.127	428.06
478.346	422.06
478.564	442.06
478.783	439.06
479.002	443.06
479.22	438.06
479.439	473.06
479.658	468.06
479.876	485.06
480.095	491.06
480.313	496.06
480.532	481.06
480.751	490.06
480.969	503.06
481.188	549.06
481.406	591.06
481.624	545.06
481.843	473.06
482.061	490.06
482.28	449.06
482.498	463.06
482.717	463.06
482.935	455.06
483.153	437.06
483.372	472.06
483.59	467.06
483.808	461.06
484.027	463.06
484.245	476.06
484.463	478.06
484.681	464.06
484.9	468.06
485.118	500.06
485.336	478.06
485.554	501.06
485.772	495.06
485.99	470.06
486.209	482.06
486.427	504.06
486.645	506.06
486.863	510.06
487.081	520.06
487.299	500.06
487.517	525.06
487.735	490.06
487.953	514.06
488.171	503.06
488.389	500.06
488.607	528.06
488.825	518.06
489.043	506.06
489.261	498.06
489.479	524.06
489.696	509.06
489.914	517.06
490.132	532.06
490.35	541.06
490.568	528.06
490.786	528.06
491.003	554.06
491.221	574.06
491.439	577.06
491.657	574.06
491.874	586.06
492.092	575.06
492.31	586.06
492.527	613.06
492.745	589.06
492.963	597.06
493.18	605.06
493.398	605.06
493.615	615.06
493.833	585.06
494.05	614.06
494.268	599.06
494.485	584.06
494.703	584.06
494.92	603.06
495.138	609.06
495.355	589.06
495.573	598.06
495.79	587.06
496.008	605.06
496.225	587.06
496.442	594.06
496.66	566.06
496.877	598.06
497.094	588.06
497.312	598.06
497.529	606.06
497.746	606.06
497.963	613.06
498.181	641.06
498.398	646.06
498.615	629.06
498.832	638.06
499.049	660.06
499.267	647.06
499.484	668.06
499.701	670.06
499.918	704.06
500.135	698.06
500.352	730.06
500.569	701.06
500.786	749.06
501.003	751.06
501.22	739.06
501.437	725.06
501.654	708.06
501.871	701.06
502.088	694.06
502.305	644.06
502.522	670.06
502.739	649.06
502.956	638.06
503.172	628.06
503.389	616.06
503.606	615.06
503.823	612.06
504.04	628.06
504.256	619.06
504.473	593.06
504.69	623.06
504.907	583.06
505.123	585.06
505.34	584.06
505.557	589.06
505.773	600.06
505.99	576.06
506.207	576.06
506.423	608.06
506.64	596.06
506.856	581.06
507.073	582.06
507.289	583.06
507.506	556.06
507.722	608.06
507.939	607.06
508.155	601.06
508.372	555.06
508.588	572.06
508.805	574.06
509.021	568.06
509.238	584.06
509.454	595.06
509.67	599.06
509.887	544.06
510.103	569.06
510.319	589.06
510.536	695.06
510.752	1173.06
510.968	908.06
511.184	608.06
511.401	551.06
511.617	558.06
511.833	561.06
512.049	543.06
512.265	526.06
512.481	550.06
512.698	545.06
512.914	538.06
513.13	534.06
513.346	530.06
513.562	550.06
513.778	553.06
513.994	554.06
514.21	558.06
514.426	589.06
514.642	640.06
514.858	679.06
515.074	697.06
515.29	871.06
515.506	1319.06
515.721	1008.06
515.937	712.06
516.153	607.06
516.369	599.06
516.585	550.06
516.801	566.06
517.016	550.06
517.232	549.06
517.448	542.06
517.664	551.06
517.879	525.06
518.095	537.06
518.311	538.06
518.527	549.06
518.742	540.06
518.958	536.06
519.173	527.06
519.389	516.06
519.605	568.06
519.82	543.06
520.036	584.06
520.251	586.06
520.467	620.06
520.682	623.06
520.898	638.06
521.113	652.06
521.329	684.06
521.544	830.06
521.76	1013.06
521.975	1732.06
522.19	1650.06
522.406	875.06
522.621	660.06
522.836	600.06
523.052	564.06
523.267	524.06
523.482	510.06
523.698	505.06
523.913	522.06
524.128	517.06
524.343	475.06
524.559	490.06
524.774	490.06
524.989	463.06
525.204	478.06
525.419	475.06
525.634	465.06
525.849	430.06
526.064	437.06
526.28	450.06
526.495	425.06
526.71	431.06
526.925	445.06
527.14	433.06
527.355	452.06
527.57	443.06
527.785	439.06
527.999	415.06
528.214	420.06
528.429	422.06
528.644	441.06
528.859	439.06
529.074	437.06
529.289	456.06
529.503	558.06
529.718	532.06
529.933	487.06
530.148	444.06
530.363	430.06
530.577	418.06
530.792	418.06
531.007	422.06
531.221	420.06
531.436	411.06
531.651	430.06
531.865	410.06
532.08	401.06
532.295	413.06
532.509	399.06
532.724	414.06
532.938	412.06
533.153	415.06
533.367	385.06
533.582	429.06
533.796	406.06
534.011	411.06
534.225	376.06
534.44	380.06
534.654	386.06
534.868	395.06
535.083	384.06
535.297	400.06
535.511	402.06
535.726	417.06
535.94	419.06
536.154	407.06
536.369	409.06
536.583	396.06
536.797	372.06
537.011	389.06
537.225	378.06
537.44	384.06
537.654	379.06
537.868	379.06
538.082	374.06
538.296	409.06
538.51	372.06
538.724	388.06
538.938	416.06
539.153	385.06
539.367	402.06
539.581	418.06
539.795	394.06
540.009	401.06
540.222	407.06
540.436	380.06
540.65	385.06
540.864	397.06
541.078	403.06
541.292	385.06
541.506	401.06
541.72	384.06
541.934	382.06
542.147	372.06
542.361	384.06
542.575	398.06
542.789	375.06
543.002	388.06
543.216	392.06
543.43	404.06
543.644	385.06
543.857	405.06
544.071	390.06
544.285	408.06
544.498	395.06
544.712	378.06
544.925	393.06
545.139	358.06
545.352	365.06
545.566	374.06
545.779	366.06
545.993	366.06
546.206	388.06
546.42	376.06
546.633	394.06
546.847	381.06
547.06	351.06
547.274	352.06
547.487	360.06
547.7	348.06
547.914	349.06
548.127	346.06
548.34	352.06
548.554	360.06
548.767	353.06
548.98	349.06
549.193	359.06
549.407	351.06
549.62	367.06
549.833	345.06
550.046	345.06
550.259	349.06
550.473	350.06
550.686	361.06
550.899	365.06
551.112	358.06
551.325	360.06
551.538	352.06
551.751	341.06
551.964	356.06
552.177	351.06
552.39	343.06
552.603	358.06
552.816	346.06
553.029	364.06
553.242	340.06
553.455	375.06
553.667	372.06
553.88	368.06
554.093	369.06
554.306	378.06
554.519	375.06
554.732	354.06
554.944	335.06
555.157	358.06
555.37	345.06
555.583	328.06
555.795	335.06
556.008	340.06
556.221	330.06
556.433	324.06
556.646	356.06
556.859	348.06
557.071	336.06
557.284	320.06
557.496	333.06
557.709	332.06
557.921	320.06
558.134	337.06
558.346	325.06
558.559	319.06
558.771	311.06
558.984	297.06
559.196	322.06
559.409	320.06
559.621	326.06
559.833	327.06
560.046	309.06
560.258	325.06
560.47	334.06
560.683	307.06
560.895	328.06
561.107	317.06
561.32	308.06
561.532	316.06
561.744	317.06
561.956	319.06
562.168	314.06
562.381	316.06
562.593	330.06
562.805	320.06
563.017	305.06
563.229	308.06
563.441	322.06
563.653	327.06
563.865	325.06
564.077	318.06
564.289	320.06
564.501	308.06
564.713	331.06
564.925	332.06
565.137	340.06
565.349	338.06
565.561	334.06
565.773	315.06
565.985	330.06
566.197	334.06
566.408	352.06
566.62	344.06
566.832	362.06
567.044	377.06
567.255	348.06
567.467	349.06
567.679	349.06
567.891	365.06
568.102	352.06
568.314	378.06
568.526	350.06
568.737	354.06
568.949	328.06
569.161	333.06
569.372	316.06
569.584	312.06
569.795	327.06
570.007	334.06
570.218	351.06
570.43	347.06
570.641	321.06
570.853	314.06
571.064	300.06
571.276	314.06
571.487	306.06
571.698	318.06
571.91	291.06
572.121	280.06
572.333	286.06
572.544	290.06
572.755	286.06
572.966	288.06
573.178	282.06
573.389	287.06
573.6	306.06
573.811	276.06
574.023	293.06
574.234	285.06
574.445	284.06
574.656	275.06
574.867	276.06
575.078	293.06
575.289	279.06
575.501	269.06
575.712	266.06
575.923	284.06
576.134	282.06
576.345	263.06
576.556	268.06
576.767	248.06
576.978	286.06
577.188	295.06
577.399	279.06
577.61	271.06
577.821	270.06
578.032	295.06
578.243	331.06
578.454	535.06
578.665	396.06
578.875	304.06
579.086	284.06
579.297	267.06
579.508	270.06
579.718	285.06
579.929	263.06
580.14	262.06
580.35	266.06
580.561	264.06
580.772	263.06
580.982	270.06
581.193	271.06
581.403	265.06
581.614	263.06
581.825	251.06
582.035	252.06
582.246	251.06
582.456	248.06
582.667	261.06
582.877	249.06
583.087	238.06
583.298	244.06
583.508	253.06
583.719	251.06
583.929	266.06
584.139	240.06
584.35	245.06
584.56	260.06
584.77	259.06
584.981	241.06
585.191	244.06
585.401	260.06
585.611	268.06
585.821	257.06
586.032	252.06
586.242	259.06
586.452	237.06
586.662	237.06
586.872	254.06
587.082	237.06
587.292	249.06
587.502	238.06
587.713	259.06
587.923	228.06
588.133	248.06
588.343	244.06
588.553	230.06
588.762	235.06
588.972	254.06
589.182	261.06
589.392	264.06
589.602	244.06
589.812	257.06
590.022	248.06
590.232	236.06
590.441	246.06
590.651	260.06
590.861	246.06
591.071	237.06
591.281	232.06
591.49	241.06
591.7	225.06
591.91	258.06
592.119	248.06
592.329	246.06
592.539	264.06
592.748	244.06
592.958	249.06
593.167	244.06
593.377	247.06
593.587	263.06
593.796	255.06
594.006	268.06
594.215	248.06
594.424	244.06
594.634	249.06
594.843	254.06
595.053	229.06
595.262	242.06
595.472	228.06
595.681	250.06
595.89	225.06
596.1	219.06
596.309	226.06
596.518	243.06
596.727	256.06
596.937	227.06
597.146	218.06
597.355	234.06
597.564	232.06
597.774	217.06
597.983	231.06
598.192	225.06
598.401	230.06
598.61	212.06
598.819	221.06
599.028	229.06
599.237	224.06
599.446	216.06
599.655	218.06
599.864	224.06
600.073	227.06
600.282	214.06
600.491	222.06
600.7	225.06
600.909	211.06
601.118	198.06
601.327	205.06
601.536	212.06
601.745	229.06
601.953	217.06
602.162	216.06
602.371	223.06
602.58	224.06
602.789	222.06
602.997	211.06
603.206	224.06
603.415	222.06
603.623	218.06
603.832	208.06
604.041	197.06
604.249	209.06
604.458	200.06
604.666	213.06
604.875	232.06
605.084	210.06
605.292	208.06
605.501	206.06
605.709	216.06
605.918	211.06
606.126	215.06
606.334	212.06
606.543	217.06
606.751	227.06
606.96	200.06
607.168	205.06
607.376	201.06
607.585	212.06
607.793	195.06
608.001	204.06
608.21	207.06
608.418	195.06
608.626	206.06
608.834	198.06
609.043	210.06
609.251	210.06
609.459	205.06
609.667	206.06
609.875	217.06
610.083	213.06
610.291	218.06
610.499	209.06
610.707	213.06
610.916	221.06
611.124	208.06
611.332	210.06
611.54	210.06
611.748	208.06
611.955	191.06
612.163	199.06
612.371	212.06
612.579	203.06
612.787	207.06
612.995	206.06
613.203	209.06
613.411	211.06
613.618	201.06
613.826	217.06
614.034	203.06
614.242	214.06
614.449	200.06
614.657	208.06
614.865	195.06
615.072	200.06
615.28	196.06
615.488	200.06
615.695	199.06
615.903	203.06
616.111	210.06
616.318	207.06
616.526	215.06
616.733	202.06
616.941	205.06
617.148	208.06
617.356	209.06
617.563	203.06
617.771	189.06
617.978	199.06
618.185	201.06
618.393	199.06
618.6	200.06
618.807	216.06
619.015	189.06
619.222	209.06
619.429	201.06
619.637	196.06
619.844	201.06
620.051	190.06
620.258	189.06
620.466	189.06
620.673	196.06
620.88	215.06
621.087	190.06
621.294	192.06
621.501	169.06
621.708	196.06
621.915	187.06
622.122	202.06
622.329	205.06
622.536	183.06
622.743	183.06
622.95	204.06
623.157	176.06
623.364	183.06
623.571	204.06
623.778	182.06
623.985	169.06
624.192	177.06
624.399	172.06
624.606	191.06
624.812	190.06
625.019	202.06
625.226	192.06
625.433	186.06
625.639	185.06
625.846	196.06
626.053	183.06
626.259	196.06
626.466	198.06
626.673	191.06
626.879	187.06
627.086	176.06
627.293	188.06
627.499	182.06
627.706	191.06
627.912	193.06
628.119	185.06
628.325	166.06
628.532	184.06
628.738	178.06
628.945	173.06
629.151	192.06
629.357	170.06
629.564	165.06
629.77	154.06
629.976	151.06
630.183	171.06
630.389	157.06
630.595	168.06
630.802	154.06
631.008	174.06
631.214	172.06
631.42	177.06
631.627	174.06
631.833	169.06
632.039	167.06
632.245	167.06
632.451	167.06
632.657	155.06
632.863	182.06
633.069	159.06
633.275	160.06
633.481	159.06
633.688	159.06
633.893	167.06
634.099	168.06
634.305	161.06
634.511	161.06
634.717	165.06
634.923	174.06
635.129	171.06
635.335	162.06
635.541	157.06
635.747	170.06
635.952	150.06
636.158	171.06
636.364	166.06
636.57	164.06
636.775	162.06
636.981	156.06
637.187	168.06
637.392	165.06
637.598	164.06
637.804	149.06
638.009	153.06
638.215	160.06
638.421	148.06
638.626	155.06
638.832	158.06
639.037	160.06
639.243	176.06
639.448	164.06
639.654	142.06
639.859	164.06
640.065	154.06
640.27	145.06
640.475	164.06
640.681	161.06
640.886	147.06
641.091	155.06
641.297	161.06
641.502	160.06
641.707	164.06
641.913	151.06
642.118	146.06
642.323	161.06
642.528	136.06
642.733	138.06
642.939	155.06
643.144	162.06
643.349	170.06
643.554	138.06
643.759	159.06
643.964	162.06
644.169	156.06
644.374	146.06
644.579	143.06
644.784	156.06
644.989	147.06
645.194	147.06
645.399	141.06
645.604	156.06
645.809	147.06
646.014	158.06
646.219	156.06
646.423	147.06
646.628	151.06
646.833	155.06
647.038	142.06
647.243	150.06
647.447	138.06
647.652	156.06
647.857	159.06
648.062	152.06
648.266	141.06
648.471	161.06
648.676	159.06
648.88	157.06
649.085	159.06
649.289	150.06
649.494	152.06
649.698	168.06
649.903	162.06
650.107	144.06
650.312	159.06
650.516	146.06
650.721	153.06
650.925	145.06
651.13	151.06
651.334	142.06
651.539	151.06
651.743	132.06
651.947	143.06
652.152	143.06
652.356	143.06
652.56	131.06
652.764	142.06
652.969	141.06
653.173	122.06
653.377	136.06
653.581	127.06
653.785	136.06
653.99	142.06
654.194	124.06
654.398	123.06
654.602	142.06
654.806	126.06
655.01	128.06
655.214	124.06
655.418	132.06
655.622	125.06
655.826	118.06
656.03	132.06
656.234	136.06
656.438	124.06
656.642	126.06
656.846	122.06
657.049	113.06
657.253	124.06
657.457	123.06
657.661	134.06
657.865	105.06
658.068	106.06
658.272	113.06
658.476	113.06
658.68	110.06
658.883	95.06
659.087	111.06
659.291	108.06
659.494	96.06
659.698	99.06
659.901	109.06
660.105	92.06
660.309	112.06
660.512	92.06
660.716	82.06
660.919	101.06
661.123	98.06
661.326	88.06
661.53	95.06
661.733	93.06
661.936	93.06
662.14	92.06
662.343	101.06
662.546	81.06
662.75	87.06
662.953	102.06
663.156	85.06
663.36	88.06
663.563	79.06
663.766	88.06
663.969	100.06
664.173	109.06
664.376	75.06
664.579	95.06
664.782	79.06
664.985	95.06
665.188	95.06
665.391	92.06
665.594	92.06
665.797	80.06
666	80.06
666.203	108.06
666.406	81.06
666.609	88.06
666.812	86.06
667.015	82.06
667.218	86.06
667.421	85.06
667.624	80.06
667.827	88.06
668.03	88.06
668.232	89.06
668.435	95.06
668.638	82.06
668.841	96.06
669.043	83.06
669.246	82.06
669.449	97.06
669.651	94.06
669.854	89.06
670.057	83.06
670.259	76.06
670.462	101.06
670.665	82.06
670.867	86.06
671.07	98.06
671.272	94.06
671.475	86.06
671.677	82.06
671.88	87.06
672.082	89.06
672.284	91.06
672.487	78.06
672.689	94.06
672.892	88.06
