Data from 1981.PennyLincolnUp.Lamp.En5.5.200Scan.071819.P1_HRD10591_16-43-02-961.txt Node
Date: Thu Jul 18 16:43:02 EDT 2019
User: cochatt
Spectrometer: HR+D1059
Trigger mode: 1
Integration Time (sec): 1.000000E-1
Scans to average: 1
Electric dark correction enabled: true
Nonlinearity correction enabled: false
Boxcar width: 0
XAxis mode: Wavelengths
Number of Pixels in Spectrum: 2048
>>>>>Begin Spectral Data<<<<<
223.165	-9.31
223.4	-9.31
223.635	-9.31
223.869	-8.31
224.104	-15.31
224.338	-19.31
224.573	2.69
224.808	-7.31
225.042	-27.31
225.277	0.69
225.511	-2.31
225.746	8.69
225.98	5.69
226.215	14.69
226.449	4.69
226.683	10.69
226.918	24.69
227.152	16.69
227.387	30.69
227.621	29.69
227.856	43.69
228.09	42.69
228.324	41.69
228.559	61.69
228.793	49.69
229.027	84.69
229.262	115.69
229.496	119.69
229.73	127.69
229.964	150.69
230.199	124.69
230.433	124.69
230.667	114.69
230.901	116.69
231.136	114.69
231.37	107.69
231.604	118.69
231.838	96.69
232.072	122.69
232.306	115.69
232.541	118.69
232.775	101.69
233.009	108.69
233.243	121.69
233.477	116.69
233.711	124.69
233.945	123.69
234.179	115.69
234.413	115.69
234.647	124.69
234.881	122.69
235.115	124.69
235.349	117.69
235.583	122.69
235.817	132.69
236.051	121.69
236.285	115.69
236.519	129.69
236.753	142.69
236.987	154.69
237.221	188.69
237.455	237.69
237.689	201.69
237.922	173.69
238.156	128.69
238.39	135.69
238.624	126.69
238.858	124.69
239.091	120.69
239.325	120.69
239.559	129.69
239.793	119.69
240.027	136.69
240.26	131.69
240.494	159.69
240.728	156.69
240.961	147.69
241.195	138.69
241.429	147.69
241.662	146.69
241.896	129.69
242.13	129.69
242.363	133.69
242.597	134.69
242.83	136.69
243.064	138.69
243.298	138.69
243.531	121.69
243.765	138.69
243.998	152.69
244.232	137.69
244.465	155.69
244.699	144.69
244.932	135.69
245.166	140.69
245.399	126.69
245.633	136.69
245.866	141.69
246.099	136.69
246.333	158.69
246.566	181.69
246.8	152.69
247.033	173.69
247.266	154.69
247.5	159.69
247.733	170.69
247.966	179.69
248.2	187.69
248.433	184.69
248.666	178.69
248.899	200.69
249.133	212.69
249.366	234.69
249.599	200.69
249.832	192.69
250.066	185.69
250.299	192.69
250.532	203.69
250.765	222.69
250.998	236.69
251.231	246.69
251.465	220.69
251.698	231.69
251.931	212.69
252.164	207.69
252.397	202.69
252.63	233.69
252.863	215.69
253.096	224.69
253.329	241.69
253.562	231.69
253.795	231.69
254.028	233.69
254.261	235.69
254.494	258.69
254.727	284.69
254.96	297.69
255.193	280.69
255.426	274.69
255.659	264.69
255.892	257.69
256.124	232.69
256.357	260.69
256.59	237.69
256.823	235.69
257.056	223.69
257.289	241.69
257.521	231.69
257.754	202.69
257.987	230.69
258.22	227.69
258.452	225.69
258.685	228.69
258.918	215.69
259.151	214.69
259.383	225.69
259.616	223.69
259.849	231.69
260.081	249.69
260.314	278.69
260.547	274.69
260.779	259.69
261.012	256.69
261.244	256.69
261.477	242.69
261.71	241.69
261.942	227.69
262.175	236.69
262.407	236.69
262.64	221.69
262.872	228.69
263.105	224.69
263.337	211.69
263.57	213.69
263.802	213.69
264.035	210.69
264.267	229.69
264.499	242.69
264.732	224.69
264.964	206.69
265.197	225.69
265.429	225.69
265.661	194.69
265.894	209.69
266.126	244.69
266.358	226.69
266.591	216.69
266.823	226.69
267.055	240.69
267.287	231.69
267.52	218.69
267.752	225.69
267.984	232.69
268.216	258.69
268.448	246.69
268.681	230.69
268.913	252.69
269.145	254.69
269.377	291.69
269.609	284.69
269.841	293.69
270.073	299.69
270.306	320.69
270.538	354.69
270.77	348.69
271.002	322.69
271.234	303.69
271.466	314.69
271.698	328.69
271.93	342.69
272.162	349.69
272.394	343.69
272.626	346.69
272.858	317.69
273.09	317.69
273.322	304.69
273.553	280.69
273.785	289.69
274.017	297.69
274.249	281.69
274.481	279.69
274.713	288.69
274.945	284.69
275.176	295.69
275.408	276.69
275.64	276.69
275.872	278.69
276.104	280.69
276.335	293.69
276.567	276.69
276.799	306.69
277.031	328.69
277.262	315.69
277.494	344.69
277.726	316.69
277.957	298.69
278.189	306.69
278.421	293.69
278.652	270.69
278.884	281.69
279.115	301.69
279.347	281.69
279.579	286.69
279.81	276.69
280.042	296.69
280.273	295.69
280.505	280.69
280.736	292.69
280.968	282.69
281.199	284.69
281.431	269.69
281.662	277.69
281.894	286.69
282.125	289.69
282.356	309.69
282.588	324.69
282.819	317.69
283.051	278.69
283.282	292.69
283.513	290.69
283.745	287.69
283.976	270.69
284.207	286.69
284.439	277.69
284.67	289.69
284.901	279.69
285.132	295.69
285.364	309.69
285.595	289.69
285.826	283.69
286.057	280.69
286.288	275.69
286.52	269.69
286.751	271.69
286.982	278.69
287.213	280.69
287.444	306.69
287.675	296.69
287.906	306.69
288.138	309.69
288.369	302.69
288.6	308.69
288.831	309.69
289.062	294.69
289.293	315.69
289.524	290.69
289.755	294.69
289.986	281.69
290.217	284.69
290.448	306.69
290.679	297.69
290.91	283.69
291.141	292.69
291.371	300.69
291.602	273.69
291.833	300.69
292.064	284.69
292.295	290.69
292.526	290.69
292.757	290.69
292.987	297.69
293.218	277.69
293.449	285.69
293.68	293.69
293.91	289.69
294.141	290.69
294.372	294.69
294.603	291.69
294.833	288.69
295.064	322.69
295.295	301.69
295.525	296.69
295.756	302.69
295.987	313.69
296.217	331.69
296.448	344.69
296.679	299.69
296.909	292.69
297.14	314.69
297.37	296.69
297.601	306.69
297.831	292.69
298.062	295.69
298.292	312.69
298.523	313.69
298.753	309.69
298.984	300.69
299.214	290.69
299.445	323.69
299.675	325.69
299.905	318.69
300.136	304.69
300.366	321.69
300.597	301.69
300.827	311.69
301.057	318.69
301.288	322.69
301.518	342.69
301.748	317.69
301.979	315.69
302.209	330.69
302.439	332.69
302.669	329.69
302.9	327.69
303.13	333.69
303.36	320.69
303.59	342.69
303.82	342.69
304.051	329.69
304.281	328.69
304.511	320.69
304.741	315.69
304.971	326.69
305.201	322.69
305.431	337.69
305.661	330.69
305.891	309.69
306.121	317.69
306.352	323.69
306.582	340.69
306.812	339.69
307.042	332.69
307.272	351.69
307.502	342.69
307.731	338.69
307.961	325.69
308.191	337.69
308.421	333.69
308.651	349.69
308.881	349.69
309.111	366.69
309.341	359.69
309.571	382.69
309.8	386.69
310.03	365.69
310.26	387.69
310.49	380.69
310.72	410.69
310.949	427.69
311.179	418.69
311.409	403.69
311.639	406.69
311.868	393.69
312.098	371.69
312.328	404.69
312.557	429.69
312.787	416.69
313.017	430.69
313.246	410.69
313.476	402.69
313.706	398.69
313.935	410.69
314.165	402.69
314.394	425.69
314.624	416.69
314.853	411.69
315.083	397.69
315.312	384.69
315.542	394.69
315.771	377.69
316.001	375.69
316.23	380.69
316.46	386.69
316.689	394.69
316.919	400.69
317.148	412.69
317.377	403.69
317.607	398.69
317.836	397.69
318.065	398.69
318.295	408.69
318.524	401.69
318.753	380.69
318.983	384.69
319.212	389.69
319.441	393.69
319.67	393.69
319.9	398.69
320.129	393.69
320.358	403.69
320.587	416.69
320.816	429.69
321.046	419.69
321.275	422.69
321.504	429.69
321.733	419.69
321.962	444.69
322.191	455.69
322.42	451.69
322.649	483.69
322.878	489.69
323.108	491.69
323.337	536.69
323.566	555.69
323.795	610.69
324.024	676.69
324.253	858.69
324.482	1195.69
324.71	1887.69
324.939	2543.69
325.168	2181.69
325.397	1153.69
325.626	762.69
325.855	639.69
326.084	583.69
326.313	566.69
326.542	590.69
326.77	633.69
326.999	745.69
327.228	1079.69
327.457	1622.69
327.686	1837.69
327.914	1277.69
328.143	820.69
328.372	733.69
328.6	692.69
328.829	634.69
329.058	680.69
329.287	642.69
329.515	606.69
329.744	571.69
329.972	552.69
330.201	570.69
330.43	638.69
330.658	664.69
330.887	694.69
331.115	670.69
331.344	554.69
331.572	553.69
331.801	528.69
332.03	517.69
332.258	490.69
332.486	483.69
332.715	477.69
332.943	470.69
333.172	472.69
333.4	464.69
333.629	492.69
333.857	497.69
334.085	504.69
334.314	517.69
334.542	536.69
334.771	553.69
334.999	525.69
335.227	480.69
335.455	470.69
335.684	459.69
335.912	429.69
336.14	449.69
336.369	449.69
336.597	450.69
336.825	439.69
337.053	444.69
337.281	426.69
337.51	446.69
337.738	432.69
337.966	434.69
338.194	452.69
338.422	438.69
338.65	440.69
338.878	436.69
339.106	415.69
339.334	418.69
339.562	418.69
339.79	417.69
340.018	428.69
340.246	434.69
340.474	438.69
340.702	428.69
340.93	426.69
341.158	423.69
341.386	426.69
341.614	449.69
341.842	435.69
342.07	404.69
342.298	417.69
342.526	408.69
342.754	422.69
342.981	404.69
343.209	420.69
343.437	419.69
343.665	390.69
343.893	404.69
344.12	401.69
344.348	419.69
344.576	448.69
344.804	413.69
345.031	427.69
345.259	436.69
345.487	446.69
345.714	436.69
345.942	418.69
346.17	412.69
346.397	440.69
346.625	396.69
346.853	399.69
347.08	408.69
347.308	422.69
347.535	420.69
347.763	420.69
347.99	425.69
348.218	428.69
348.445	419.69
348.673	444.69
348.9	397.69
349.128	395.69
349.355	385.69
349.583	398.69
349.81	397.69
350.037	407.69
350.265	412.69
350.492	408.69
350.72	396.69
350.947	396.69
351.174	416.69
351.402	432.69
351.629	426.69
351.856	404.69
352.083	436.69
352.311	428.69
352.538	409.69
352.765	426.69
352.992	412.69
353.22	426.69
353.447	419.69
353.674	422.69
353.901	398.69
354.128	403.69
354.355	378.69
354.583	384.69
354.81	374.69
355.037	371.69
355.264	385.69
355.491	374.69
355.718	356.69
355.945	375.69
356.172	372.69
356.399	369.69
356.626	365.69
356.853	370.69
357.08	366.69
357.307	355.69
357.534	385.69
357.761	361.69
357.988	378.69
358.215	392.69
358.441	387.69
358.668	374.69
358.895	365.69
359.122	374.69
359.349	394.69
359.576	396.69
359.802	436.69
360.029	459.69
360.256	468.69
360.483	461.69
360.709	416.69
360.936	409.69
361.163	406.69
361.39	404.69
361.616	393.69
361.843	404.69
362.07	384.69
362.296	398.69
362.523	396.69
362.749	395.69
362.976	371.69
363.203	393.69
363.429	388.69
363.656	376.69
363.882	378.69
364.109	404.69
364.335	378.69
364.562	369.69
364.788	376.69
365.015	374.69
365.241	359.69
365.468	377.69
365.694	390.69
365.92	382.69
366.147	357.69
366.373	377.69
366.599	355.69
366.826	354.69
367.052	363.69
367.278	360.69
367.505	360.69
367.731	385.69
367.957	386.69
368.184	376.69
368.41	377.69
368.636	390.69
368.862	371.69
369.089	370.69
369.315	376.69
369.541	361.69
369.767	372.69
369.993	373.69
370.219	369.69
370.445	379.69
370.672	344.69
370.898	344.69
371.124	372.69
371.35	375.69
371.576	343.69
371.802	359.69
372.028	354.69
372.254	371.69
372.48	356.69
372.706	364.69
372.932	371.69
373.158	352.69
373.384	372.69
373.61	362.69
373.835	363.69
374.061	377.69
374.287	364.69
374.513	374.69
374.739	356.69
374.965	368.69
375.191	366.69
375.416	349.69
375.642	359.69
375.868	358.69
376.094	365.69
376.319	345.69
376.545	350.69
376.771	363.69
376.997	365.69
377.222	352.69
377.448	343.69
377.674	352.69
377.899	348.69
378.125	340.69
378.35	353.69
378.576	362.69
378.802	352.69
379.027	356.69
379.253	370.69
379.478	341.69
379.704	341.69
379.929	344.69
380.155	372.69
380.38	343.69
380.606	362.69
380.831	360.69
381.057	354.69
381.282	341.69
381.507	357.69
381.733	371.69
381.958	334.69
382.184	346.69
382.409	356.69
382.634	380.69
382.86	360.69
383.085	357.69
383.31	348.69
383.535	357.69
383.761	379.69
383.986	371.69
384.211	372.69
384.436	367.69
384.662	341.69
384.887	369.69
385.112	354.69
385.337	366.69
385.562	370.69
385.787	378.69
386.013	381.69
386.238	379.69
386.463	402.69
386.688	352.69
386.913	356.69
387.138	364.69
387.363	370.69
387.588	370.69
387.813	377.69
388.038	360.69
388.263	372.69
388.488	380.69
388.713	354.69
388.938	378.69
389.163	358.69
389.387	372.69
389.612	348.69
389.837	357.69
390.062	354.69
390.287	360.69
390.512	361.69
390.736	358.69
390.961	376.69
391.186	355.69
391.411	367.69
391.636	382.69
391.86	372.69
392.085	374.69
392.31	360.69
392.534	365.69
392.759	377.69
392.984	341.69
393.208	362.69
393.433	360.69
393.658	373.69
393.882	364.69
394.107	378.69
394.331	378.69
394.556	371.69
394.78	377.69
395.005	379.69
395.229	368.69
395.454	378.69
395.678	383.69
395.903	392.69
396.127	413.69
396.352	420.69
396.576	401.69
396.801	371.69
397.025	357.69
397.249	374.69
397.474	383.69
397.698	362.69
397.922	406.69
398.147	402.69
398.371	413.69
398.595	401.69
398.82	406.69
399.044	411.69
399.268	389.69
399.492	412.69
399.717	451.69
399.941	457.69
400.165	482.69
400.389	505.69
400.613	468.69
400.837	422.69
401.062	438.69
401.286	429.69
401.51	406.69
401.734	412.69
401.958	418.69
402.182	410.69
402.406	416.69
402.63	422.69
402.854	416.69
403.078	407.69
403.302	409.69
403.526	424.69
403.75	416.69
403.974	415.69
404.198	422.69
404.422	424.69
404.645	434.69
404.869	441.69
405.093	456.69
405.317	492.69
405.541	527.69
405.765	482.69
405.988	440.69
406.212	469.69
406.436	475.69
406.66	479.69
406.883	476.69
407.107	484.69
407.331	498.69
407.555	583.69
407.778	581.69
408.002	514.69
408.226	481.69
408.449	459.69
408.673	461.69
408.896	492.69
409.12	537.69
409.344	520.69
409.567	448.69
409.791	440.69
410.014	420.69
410.238	428.69
410.461	420.69
410.685	430.69
410.908	449.69
411.132	465.69
411.355	513.69
411.578	478.69
411.802	448.69
412.025	400.69
412.249	438.69
412.472	455.69
412.695	494.69
412.919	483.69
413.142	424.69
413.365	410.69
413.589	427.69
413.812	430.69
414.035	439.69
414.258	417.69
414.482	417.69
414.705	405.69
414.928	404.69
415.151	398.69
415.374	374.69
415.597	397.69
415.821	404.69
416.044	420.69
416.267	396.69
416.49	409.69
416.713	388.69
416.936	400.69
417.159	414.69
417.382	404.69
417.605	395.69
417.828	432.69
418.051	408.69
418.274	443.69
418.497	397.69
418.72	404.69
418.943	413.69
419.166	392.69
419.389	426.69
419.611	422.69
419.834	409.69
420.057	436.69
420.28	423.69
420.503	404.69
420.726	438.69
420.948	448.69
421.171	466.69
421.394	504.69
421.617	445.69
421.839	423.69
422.062	442.69
422.285	455.69
422.507	496.69
422.73	598.69
422.953	550.69
423.175	448.69
423.398	433.69
423.621	458.69
423.843	465.69
424.066	472.69
424.288	469.69
424.511	484.69
424.733	536.69
424.956	599.69
425.178	583.69
425.401	586.69
425.623	615.69
425.846	529.69
426.068	483.69
426.291	475.69
426.513	483.69
426.735	521.69
426.958	544.69
427.18	626.69
427.402	705.69
427.625	783.69
427.847	710.69
428.069	598.69
428.292	532.69
428.514	498.69
428.736	477.69
428.958	464.69
429.181	449.69
429.403	433.69
429.625	433.69
429.847	471.69
430.069	530.69
430.292	527.69
430.514	461.69
430.736	418.69
430.958	421.69
431.18	418.69
431.402	409.69
431.624	394.69
431.846	407.69
432.068	402.69
432.29	410.69
432.512	408.69
432.734	410.69
432.956	421.69
433.178	427.69
433.4	432.69
433.622	432.69
433.844	407.69
434.066	398.69
434.287	388.69
434.509	410.69
434.731	402.69
434.953	405.69
435.175	421.69
435.397	442.69
435.618	452.69
435.84	504.69
436.062	600.69
436.284	650.69
436.505	524.69
436.727	507.69
436.949	477.69
437.17	418.69
437.392	441.69
437.614	468.69
437.835	525.69
438.057	582.69
438.278	670.69
438.5	678.69
438.721	704.69
438.943	676.69
439.165	578.69
439.386	522.69
439.608	504.69
439.829	497.69
440.05	534.69
440.272	570.69
440.493	519.69
440.715	483.69
440.936	452.69
441.158	434.69
441.379	424.69
441.6	446.69
441.822	476.69
442.043	510.69
442.264	562.69
442.486	629.69
442.707	528.69
442.928	522.69
443.149	519.69
443.371	515.69
443.592	542.69
443.813	633.69
444.034	689.69
444.255	554.69
444.476	504.69
444.698	471.69
444.919	462.69
445.14	550.69
445.361	518.69
445.582	519.69
445.803	582.69
446.024	690.69
446.245	674.69
446.466	633.69
446.687	536.69
446.908	485.69
447.129	444.69
447.35	435.69
447.571	433.69
447.792	435.69
448.013	442.69
448.234	486.69
448.455	523.69
448.675	612.69
448.896	681.69
449.117	607.69
449.338	579.69
449.559	662.69
449.779	757.69
450	615.69
450.221	514.69
450.442	440.69
450.662	427.69
450.883	454.69
451.104	454.69
451.324	442.69
451.545	440.69
451.766	417.69
451.986	398.69
452.207	398.69
452.428	411.69
452.648	396.69
452.869	410.69
453.089	410.69
453.31	424.69
453.53	413.69
453.751	395.69
453.971	407.69
454.192	425.69
454.412	418.69
454.633	388.69
454.853	410.69
455.073	397.69
455.294	431.69
455.514	490.69
455.734	469.69
455.955	404.69
456.175	394.69
456.395	378.69
456.616	350.69
456.836	368.69
457.056	380.69
457.276	343.69
457.497	348.69
457.717	365.69
457.937	365.69
458.157	380.69
458.377	402.69
458.598	404.69
458.818	462.69
459.038	565.69
459.258	544.69
459.478	458.69
459.698	420.69
459.918	421.69
460.138	401.69
460.358	404.69
460.578	391.69
460.798	392.69
461.018	413.69
461.238	397.69
461.458	384.69
461.678	402.69
461.898	396.69
462.118	381.69
462.338	396.69
462.558	398.69
462.777	397.69
462.997	391.69
463.217	421.69
463.437	409.69
463.657	406.69
463.876	392.69
464.096	413.69
464.316	420.69
464.536	398.69
464.755	422.69
464.975	428.69
465.195	462.69
465.414	557.69
465.634	485.69
465.854	438.69
466.073	408.69
466.293	430.69
466.512	371.69
466.732	396.69
466.951	379.69
467.171	393.69
467.391	407.69
467.61	413.69
467.829	407.69
468.049	412.69
468.268	398.69
468.488	397.69
468.707	379.69
468.927	385.69
469.146	377.69
469.365	378.69
469.585	389.69
469.804	389.69
470.023	407.69
470.243	392.69
470.462	420.69
470.681	424.69
470.901	415.69
471.12	392.69
471.339	399.69
471.558	405.69
471.777	417.69
471.997	397.69
472.216	421.69
472.435	456.69
472.654	428.69
472.873	395.69
473.092	400.69
473.311	388.69
473.53	389.69
473.749	415.69
473.968	458.69
474.187	570.69
474.406	571.69
474.625	456.69
474.844	430.69
475.063	412.69
475.282	400.69
475.501	402.69
475.72	420.69
475.939	408.69
476.158	405.69
476.377	410.69
476.596	412.69
476.814	413.69
477.033	404.69
477.252	418.69
477.471	417.69
477.69	413.69
477.908	439.69
478.127	437.69
478.346	427.69
478.564	427.69
478.783	433.69
479.002	437.69
479.22	427.69
479.439	467.69
479.658	482.69
479.876	482.69
480.095	508.69
480.313	511.69
480.532	511.69
480.751	491.69
480.969	510.69
481.188	566.69
481.406	579.69
481.624	544.69
481.843	488.69
482.061	473.69
482.28	478.69
482.498	482.69
482.717	482.69
482.935	490.69
483.153	477.69
483.372	470.69
483.59	465.69
483.808	469.69
484.027	470.69
484.245	487.69
484.463	473.69
484.681	502.69
484.9	470.69
485.118	469.69
485.336	474.69
485.554	485.69
485.772	500.69
485.99	468.69
486.209	497.69
486.427	476.69
486.645	510.69
486.863	523.69
487.081	526.69
487.299	507.69
487.517	493.69
487.735	496.69
487.953	502.69
488.171	498.69
488.389	504.69
488.607	494.69
488.825	512.69
489.043	516.69
489.261	497.69
489.479	541.69
489.696	508.69
489.914	528.69
490.132	532.69
490.35	540.69
490.568	521.69
490.786	530.69
491.003	534.69
491.221	561.69
491.439	568.69
491.657	562.69
491.874	589.69
492.092	575.69
492.31	587.69
492.527	565.69
492.745	568.69
492.963	594.69
493.18	588.69
493.398	580.69
493.615	615.69
493.833	595.69
494.05	590.69
494.268	607.69
494.485	599.69
494.703	589.69
494.92	612.69
495.138	594.69
495.355	593.69
495.573	621.69
495.79	615.69
496.008	602.69
496.225	594.69
496.442	610.69
496.66	604.69
496.877	598.69
497.094	614.69
497.312	614.69
497.529	597.69
497.746	609.69
497.963	626.69
498.181	641.69
498.398	621.69
498.615	662.69
498.832	642.69
499.049	641.69
499.267	660.69
499.484	645.69
499.701	684.69
499.918	670.69
500.135	729.69
500.352	716.69
500.569	725.69
500.786	739.69
501.003	732.69
501.22	760.69
501.437	719.69
501.654	713.69
501.871	718.69
502.088	679.69
502.305	674.69
502.522	654.69
502.739	640.69
502.956	654.69
503.172	634.69
503.389	612.69
503.606	634.69
503.823	624.69
504.04	604.69
504.256	596.69
504.473	592.69
504.69	598.69
504.907	605.69
505.123	598.69
505.34	583.69
505.557	581.69
505.773	572.69
505.99	600.69
506.207	575.69
506.423	568.69
506.64	579.69
506.856	569.69
507.073	567.69
507.289	592.69
507.506	565.69
507.722	590.69
507.939	606.69
508.155	589.69
508.372	572.69
508.588	566.69
508.805	552.69
509.021	580.69
509.238	588.69
509.454	606.69
509.67	592.69
509.887	566.69
510.103	557.69
510.319	592.69
510.536	690.69
510.752	1170.69
510.968	935.69
511.184	581.69
511.401	586.69
511.617	538.69
511.833	548.69
512.049	548.69
512.265	544.69
512.481	546.69
512.698	544.69
512.914	540.69
513.13	534.69
513.346	521.69
513.562	556.69
513.778	549.69
513.994	534.69
514.21	576.69
514.426	602.69
514.642	653.69
514.858	668.69
515.074	715.69
515.29	858.69
515.506	1255.69
515.721	1005.69
515.937	684.69
516.153	594.69
516.369	567.69
516.585	574.69
516.801	543.69
517.016	552.69
517.232	531.69
517.448	530.69
517.664	542.69
517.879	517.69
518.095	518.69
518.311	530.69
518.527	537.69
518.742	517.69
518.958	537.69
519.173	543.69
519.389	538.69
519.605	522.69
519.82	552.69
520.036	562.69
520.251	596.69
520.467	594.69
520.682	585.69
520.898	622.69
521.113	653.69
521.329	708.69
521.544	787.69
521.76	1042.69
521.975	1724.69
522.19	1638.69
522.406	920.69
522.621	664.69
522.836	595.69
523.052	579.69
523.267	525.69
523.482	523.69
523.698	488.69
523.913	525.69
524.128	488.69
524.343	462.69
524.559	474.69
524.774	475.69
524.989	476.69
525.204	469.69
525.419	471.69
525.634	443.69
525.849	441.69
526.064	448.69
526.28	455.69
526.495	459.69
526.71	441.69
526.925	418.69
527.14	439.69
527.355	432.69
527.57	413.69
527.785	450.69
527.999	424.69
528.214	416.69
528.429	430.69
528.644	430.69
528.859	434.69
529.074	424.69
529.289	454.69
529.503	535.69
529.718	519.69
529.933	468.69
530.148	410.69
530.363	425.69
530.577	419.69
530.792	403.69
531.007	419.69
531.221	421.69
531.436	405.69
531.651	421.69
531.865	419.69
532.08	414.69
532.295	426.69
532.509	400.69
532.724	412.69
532.938	392.69
533.153	405.69
533.367	393.69
533.582	426.69
533.796	395.69
534.011	404.69
534.225	384.69
534.44	412.69
534.654	401.69
534.868	390.69
535.083	404.69
535.297	399.69
535.511	407.69
535.726	407.69
535.94	420.69
536.154	385.69
536.369	415.69
536.583	381.69
536.797	380.69
537.011	396.69
537.225	398.69
537.44	397.69
537.654	391.69
537.868	394.69
538.082	392.69
538.296	408.69
538.51	379.69
538.724	388.69
538.938	380.69
539.153	384.69
539.367	407.69
539.581	397.69
539.795	396.69
540.009	381.69
540.222	400.69
540.436	388.69
540.65	373.69
540.864	392.69
541.078	403.69
541.292	401.69
541.506	396.69
541.72	382.69
541.934	357.69
542.147	393.69
542.361	370.69
542.575	387.69
542.789	391.69
543.002	390.69
543.216	377.69
543.43	384.69
543.644	406.69
543.857	376.69
544.071	388.69
544.285	384.69
544.498	384.69
544.712	395.69
544.925	388.69
545.139	381.69
545.352	387.69
545.566	381.69
545.779	372.69
545.993	374.69
546.206	373.69
546.42	371.69
546.633	355.69
546.847	360.69
547.06	372.69
547.274	348.69
547.487	341.69
547.7	359.69
547.914	361.69
548.127	386.69
548.34	364.69
548.554	360.69
548.767	368.69
548.98	338.69
549.193	361.69
549.407	341.69
549.62	365.69
549.833	351.69
550.046	364.69
550.259	337.69
550.473	347.69
550.686	361.69
550.899	343.69
551.112	333.69
551.325	358.69
551.538	342.69
551.751	360.69
551.964	360.69
552.177	347.69
552.39	345.69
552.603	352.69
552.816	343.69
553.029	356.69
553.242	355.69
553.455	374.69
553.667	359.69
553.88	349.69
554.093	368.69
554.306	349.69
554.519	368.69
554.732	378.69
554.944	358.69
555.157	368.69
555.37	334.69
555.583	339.69
555.795	361.69
556.008	338.69
556.221	345.69
556.433	323.69
556.646	345.69
556.859	333.69
557.071	330.69
557.284	332.69
557.496	306.69
557.709	312.69
557.921	323.69
558.134	317.69
558.346	316.69
558.559	319.69
558.771	320.69
558.984	322.69
559.196	320.69
559.409	327.69
559.621	316.69
559.833	321.69
560.046	320.69
560.258	318.69
560.47	314.69
560.683	316.69
560.895	320.69
561.107	332.69
561.32	313.69
561.532	318.69
561.744	323.69
561.956	307.69
562.168	333.69
562.381	293.69
562.593	308.69
562.805	333.69
563.017	321.69
563.229	318.69
563.441	325.69
563.653	315.69
563.865	319.69
564.077	307.69
564.289	316.69
564.501	312.69
564.713	325.69
564.925	332.69
565.137	324.69
565.349	333.69
565.561	333.69
565.773	344.69
565.985	331.69
566.197	355.69
566.408	339.69
566.62	352.69
566.832	345.69
567.044	355.69
567.255	358.69
567.467	365.69
567.679	367.69
567.891	366.69
568.102	352.69
568.314	359.69
568.526	347.69
568.737	353.69
568.949	355.69
569.161	331.69
569.372	316.69
569.584	331.69
569.795	326.69
570.007	320.69
570.218	372.69
570.43	356.69
570.641	307.69
570.853	320.69
571.064	311.69
571.276	299.69
571.487	288.69
571.698	287.69
571.91	306.69
572.121	304.69
572.333	296.69
572.544	301.69
572.755	280.69
572.966	291.69
573.178	278.69
573.389	284.69
573.6	290.69
573.811	286.69
574.023	287.69
574.234	269.69
574.445	279.69
574.656	288.69
574.867	267.69
575.078	273.69
575.289	270.69
575.501	284.69
575.712	272.69
575.923	261.69
576.134	282.69
576.345	279.69
576.556	269.69
576.767	274.69
576.978	272.69
577.188	271.69
577.399	269.69
577.61	261.69
577.821	290.69
578.032	275.69
578.243	305.69
578.454	537.69
578.665	392.69
578.875	289.69
579.086	290.69
579.297	260.69
579.508	262.69
579.718	261.69
579.929	262.69
580.14	249.69
580.35	268.69
580.561	235.69
580.772	267.69
580.982	263.69
581.193	261.69
581.403	244.69
581.614	254.69
581.825	250.69
582.035	269.69
582.246	258.69
582.456	248.69
582.667	255.69
582.877	282.69
583.087	260.69
583.298	262.69
583.508	253.69
583.719	250.69
583.929	247.69
584.139	259.69
584.35	242.69
584.56	237.69
584.77	227.69
584.981	246.69
585.191	247.69
585.401	250.69
585.611	247.69
585.821	268.69
586.032	252.69
586.242	247.69
586.452	249.69
586.662	264.69
586.872	254.69
587.082	227.69
587.292	238.69
587.502	231.69
587.713	245.69
587.923	247.69
588.133	230.69
588.343	242.69
588.553	245.69
588.762	248.69
588.972	248.69
589.182	248.69
589.392	245.69
589.602	230.69
589.812	231.69
590.022	250.69
590.232	245.69
590.441	241.69
590.651	226.69
590.861	230.69
591.071	229.69
591.281	242.69
591.49	233.69
591.7	242.69
591.91	238.69
592.119	238.69
592.329	249.69
592.539	240.69
592.748	243.69
592.958	262.69
593.167	241.69
593.377	242.69
593.587	263.69
593.796	253.69
594.006	239.69
594.215	244.69
594.424	260.69
594.634	232.69
594.843	245.69
595.053	244.69
595.262	234.69
595.472	227.69
595.681	227.69
595.89	226.69
596.1	256.69
596.309	216.69
596.518	230.69
596.727	221.69
596.937	231.69
597.146	237.69
597.355	212.69
597.564	208.69
597.774	221.69
597.983	214.69
598.192	239.69
598.401	217.69
598.61	232.69
598.819	215.69
599.028	229.69
599.237	230.69
599.446	224.69
599.655	232.69
599.864	206.69
600.073	201.69
600.282	218.69
600.491	217.69
600.7	232.69
600.909	226.69
601.118	210.69
601.327	221.69
601.536	227.69
601.745	218.69
601.953	219.69
602.162	201.69
602.371	197.69
602.58	190.69
602.789	210.69
602.997	215.69
603.206	208.69
603.415	199.69
603.623	199.69
603.832	205.69
604.041	209.69
604.249	206.69
604.458	197.69
604.666	192.69
604.875	196.69
605.084	212.69
605.292	194.69
605.501	203.69
605.709	192.69
605.918	208.69
606.126	202.69
606.334	199.69
606.543	205.69
606.751	198.69
606.96	210.69
607.168	209.69
607.376	212.69
607.585	220.69
607.793	206.69
608.001	194.69
608.21	192.69
608.418	182.69
608.626	187.69
608.834	209.69
609.043	197.69
609.251	201.69
609.459	192.69
609.667	212.69
609.875	212.69
610.083	208.69
610.291	196.69
610.499	195.69
610.707	193.69
610.916	189.69
611.124	189.69
611.332	213.69
611.54	198.69
611.748	217.69
611.955	204.69
612.163	186.69
612.371	209.69
612.579	195.69
612.787	201.69
612.995	189.69
613.203	205.69
613.411	207.69
613.618	202.69
613.826	194.69
614.034	201.69
614.242	206.69
614.449	203.69
614.657	186.69
614.865	201.69
615.072	199.69
615.28	186.69
615.488	206.69
615.695	209.69
615.903	198.69
616.111	197.69
616.318	192.69
616.526	187.69
616.733	201.69
616.941	192.69
617.148	187.69
617.356	198.69
617.563	189.69
617.771	173.69
617.978	193.69
618.185	195.69
618.393	205.69
618.6	199.69
618.807	191.69
619.015	193.69
619.222	177.69
619.429	186.69
619.637	185.69
619.844	185.69
620.051	197.69
620.258	177.69
620.466	187.69
620.673	188.69
620.88	185.69
621.087	184.69
621.294	180.69
621.501	180.69
621.708	174.69
621.915	181.69
622.122	180.69
622.329	188.69
622.536	197.69
622.743	179.69
622.95	179.69
623.157	159.69
623.364	181.69
623.571	177.69
623.778	173.69
623.985	181.69
624.192	185.69
624.399	177.69
624.606	182.69
624.812	187.69
625.019	180.69
625.226	177.69
625.433	185.69
625.639	162.69
625.846	186.69
626.053	179.69
626.259	181.69
626.466	181.69
626.673	167.69
626.879	168.69
627.086	176.69
627.293	168.69
627.499	172.69
627.706	176.69
627.912	165.69
628.119	176.69
628.325	173.69
628.532	181.69
628.738	185.69
628.945	164.69
629.151	169.69
629.357	160.69
629.564	173.69
629.77	174.69
629.976	181.69
630.183	159.69
630.389	168.69
630.595	154.69
630.802	146.69
631.008	154.69
631.214	177.69
631.42	170.69
631.627	182.69
631.833	175.69
632.039	162.69
632.245	168.69
632.451	185.69
632.657	155.69
632.863	155.69
633.069	153.69
633.275	158.69
633.481	166.69
633.688	169.69
633.893	161.69
634.099	149.69
634.305	165.69
634.511	156.69
634.717	156.69
634.923	160.69
635.129	141.69
635.335	166.69
635.541	164.69
635.747	170.69
635.952	173.69
636.158	165.69
636.364	160.69
636.57	163.69
636.775	167.69
636.981	173.69
637.187	155.69
637.392	143.69
637.598	165.69
637.804	152.69
638.009	152.69
638.215	156.69
638.421	152.69
638.626	142.69
638.832	162.69
639.037	128.69
639.243	143.69
639.448	152.69
639.654	143.69
639.859	150.69
640.065	166.69
640.27	154.69
640.475	157.69
640.681	153.69
640.886	148.69
641.091	140.69
641.297	160.69
641.502	161.69
641.707	150.69
641.913	140.69
642.118	133.69
642.323	139.69
642.528	162.69
642.733	164.69
642.939	139.69
643.144	137.69
643.349	150.69
643.554	136.69
643.759	155.69
643.964	156.69
644.169	153.69
644.374	141.69
644.579	144.69
644.784	150.69
644.989	139.69
645.194	150.69
645.399	136.69
645.604	134.69
645.809	135.69
646.014	143.69
646.219	132.69
646.423	142.69
646.628	139.69
646.833	131.69
647.038	142.69
647.243	140.69
647.447	150.69
647.652	162.69
647.857	122.69
648.062	146.69
648.266	156.69
648.471	145.69
648.676	144.69
648.88	153.69
649.085	138.69
649.289	151.69
649.494	142.69
649.698	148.69
649.903	172.69
650.107	160.69
650.312	147.69
650.516	144.69
650.721	130.69
650.925	131.69
651.13	147.69
651.334	138.69
651.539	130.69
651.743	145.69
651.947	122.69
652.152	133.69
652.356	140.69
652.56	136.69
652.764	128.69
652.969	132.69
653.173	132.69
653.377	120.69
653.581	124.69
653.785	138.69
653.99	118.69
654.194	121.69
654.398	121.69
654.602	114.69
654.806	124.69
655.01	130.69
655.214	126.69
655.418	124.69
655.622	121.69
655.826	120.69
656.03	130.69
656.234	118.69
656.438	130.69
656.642	106.69
656.846	112.69
657.049	111.69
657.253	120.69
657.457	110.69
657.661	105.69
657.865	115.69
658.068	99.69
658.272	110.69
658.476	108.69
658.68	102.69
658.883	101.69
659.087	89.69
659.291	92.69
659.494	75.69
659.698	88.69
659.901	79.69
660.105	96.69
660.309	85.69
660.512	97.69
660.716	95.69
660.919	96.69
661.123	91.69
661.326	97.69
661.53	92.69
661.733	77.69
661.936	88.69
662.14	76.69
662.343	83.69
662.546	84.69
662.75	89.69
662.953	98.69
663.156	74.69
663.36	90.69
663.563	74.69
663.766	76.69
663.969	74.69
664.173	92.69
664.376	82.69
664.579	89.69
664.782	78.69
664.985	86.69
665.188	83.69
665.391	71.69
665.594	81.69
665.797	89.69
666	85.69
666.203	68.69
666.406	74.69
666.609	90.69
666.812	79.69
667.015	92.69
667.218	80.69
667.421	82.69
667.624	71.69
667.827	90.69
668.03	84.69
668.232	86.69
668.435	74.69
668.638	73.69
668.841	69.69
669.043	71.69
669.246	72.69
669.449	76.69
669.651	74.69
669.854	87.69
670.057	77.69
670.259	73.69
670.462	84.69
670.665	68.69
670.867	81.69
671.07	88.69
671.272	75.69
671.475	81.69
671.677	76.69
671.88	68.69
672.082	83.69
672.284	76.69
672.487	80.69
672.689	90.69
672.892	90.69
