Data from 1981.PennyLincolnUp.Lamp.En5.5.200Scan.071819.P1_HRD10591_16-40-44-959.txt Node
Date: Thu Jul 18 16:40:44 EDT 2019
User: cochatt
Spectrometer: HR+D1059
Trigger mode: 1
Integration Time (sec): 1.000000E-1
Scans to average: 1
Electric dark correction enabled: true
Nonlinearity correction enabled: false
Boxcar width: 0
XAxis mode: Wavelengths
Number of Pixels in Spectrum: 2048
>>>>>Begin Spectral Data<<<<<
223.165	-18.94
223.4	-18.94
223.635	-18.94
223.869	-8.94
224.104	-22.94
224.338	-25.94
224.573	-1.94
224.808	-16.94
225.042	8.06
225.277	-4.94
225.511	3.06
225.746	0.06
225.98	2.06
226.215	3.06
226.449	20.06
226.683	25.06
226.918	13.06
227.152	26.06
227.387	22.06
227.621	42.06
227.856	45.06
228.09	37.06
228.324	43.06
228.559	55.06
228.793	76.06
229.027	91.06
229.262	103.06
229.496	104.06
229.73	115.06
229.964	152.06
230.199	113.06
230.433	114.06
230.667	105.06
230.901	105.06
231.136	114.06
231.37	100.06
231.604	99.06
231.838	90.06
232.072	97.06
232.306	92.06
232.541	100.06
232.775	111.06
233.009	99.06
233.243	107.06
233.477	102.06
233.711	116.06
233.945	111.06
234.179	110.06
234.413	102.06
234.647	112.06
234.881	110.06
235.115	90.06
235.349	125.06
235.583	115.06
235.817	121.06
236.051	124.06
236.285	117.06
236.519	117.06
236.753	121.06
236.987	140.06
237.221	165.06
237.455	212.06
237.689	175.06
237.922	118.06
238.156	135.06
238.39	124.06
238.624	119.06
238.858	129.06
239.091	114.06
239.325	113.06
239.559	130.06
239.793	121.06
240.027	114.06
240.26	110.06
240.494	142.06
240.728	145.06
240.961	150.06
241.195	141.06
241.429	135.06
241.662	129.06
241.896	127.06
242.13	131.06
242.363	126.06
242.597	120.06
242.83	118.06
243.064	117.06
243.298	113.06
243.531	140.06
243.765	131.06
243.998	131.06
244.232	115.06
244.465	141.06
244.699	135.06
244.932	129.06
245.166	138.06
245.399	134.06
245.633	128.06
245.866	134.06
246.099	131.06
246.333	157.06
246.566	141.06
246.8	141.06
247.033	128.06
247.266	163.06
247.5	145.06
247.733	159.06
247.966	152.06
248.2	147.06
248.433	178.06
248.666	171.06
248.899	167.06
249.133	183.06
249.366	186.06
249.599	192.06
249.832	167.06
250.066	162.06
250.299	175.06
250.532	164.06
250.765	191.06
250.998	205.06
251.231	195.06
251.465	192.06
251.698	179.06
251.931	180.06
252.164	177.06
252.397	202.06
252.63	177.06
252.863	179.06
253.096	217.06
253.329	212.06
253.562	188.06
253.795	211.06
254.028	213.06
254.261	209.06
254.494	220.06
254.727	227.06
254.96	255.06
255.193	249.06
255.426	243.06
255.659	220.06
255.892	227.06
256.124	206.06
256.357	205.06
256.59	199.06
256.823	195.06
257.056	198.06
257.289	191.06
257.521	212.06
257.754	190.06
257.987	200.06
258.22	186.06
258.452	189.06
258.685	203.06
258.918	202.06
259.151	189.06
259.383	204.06
259.616	216.06
259.849	201.06
260.081	202.06
260.314	219.06
260.547	247.06
260.779	219.06
261.012	232.06
261.244	212.06
261.477	206.06
261.71	213.06
261.942	214.06
262.175	204.06
262.407	203.06
262.64	202.06
262.872	191.06
263.105	195.06
263.337	216.06
263.57	177.06
263.802	202.06
264.035	195.06
264.267	176.06
264.499	185.06
264.732	201.06
264.964	212.06
265.197	192.06
265.429	214.06
265.661	193.06
265.894	183.06
266.126	190.06
266.358	199.06
266.591	197.06
266.823	210.06
267.055	206.06
267.287	212.06
267.52	193.06
267.752	197.06
267.984	210.06
268.216	218.06
268.448	204.06
268.681	218.06
268.913	216.06
269.145	249.06
269.377	248.06
269.609	240.06
269.841	243.06
270.073	246.06
270.306	258.06
270.538	290.06
270.77	292.06
271.002	280.06
271.234	263.06
271.466	280.06
271.698	273.06
271.93	278.06
272.162	283.06
272.394	291.06
272.626	265.06
272.858	281.06
273.09	268.06
273.322	267.06
273.553	258.06
273.785	251.06
274.017	246.06
274.249	261.06
274.481	248.06
274.713	253.06
274.945	235.06
275.176	240.06
275.408	242.06
275.64	248.06
275.872	237.06
276.104	261.06
276.335	236.06
276.567	233.06
276.799	247.06
277.031	262.06
277.262	292.06
277.494	297.06
277.726	255.06
277.957	256.06
278.189	253.06
278.421	246.06
278.652	240.06
278.884	243.06
279.115	215.06
279.347	227.06
279.579	232.06
279.81	251.06
280.042	255.06
280.273	226.06
280.505	239.06
280.736	241.06
280.968	260.06
281.199	249.06
281.431	234.06
281.662	224.06
281.894	260.06
282.125	239.06
282.356	253.06
282.588	278.06
282.819	281.06
283.051	240.06
283.282	241.06
283.513	243.06
283.745	231.06
283.976	259.06
284.207	242.06
284.439	258.06
284.67	269.06
284.901	261.06
285.132	260.06
285.364	254.06
285.595	245.06
285.826	248.06
286.057	265.06
286.288	253.06
286.52	235.06
286.751	262.06
286.982	247.06
287.213	245.06
287.444	249.06
287.675	264.06
287.906	263.06
288.138	237.06
288.369	269.06
288.6	290.06
288.831	285.06
289.062	269.06
289.293	275.06
289.524	260.06
289.755	243.06
289.986	243.06
290.217	266.06
290.448	255.06
290.679	257.06
290.91	249.06
291.141	247.06
291.371	256.06
291.602	254.06
291.833	243.06
292.064	247.06
292.295	257.06
292.526	243.06
292.757	242.06
292.987	241.06
293.218	257.06
293.449	258.06
293.68	251.06
293.91	267.06
294.141	272.06
294.372	265.06
294.603	258.06
294.833	260.06
295.064	273.06
295.295	247.06
295.525	248.06
295.756	264.06
295.987	269.06
296.217	283.06
296.448	275.06
296.679	265.06
296.909	255.06
297.14	273.06
297.37	263.06
297.601	266.06
297.831	262.06
298.062	261.06
298.292	281.06
298.523	279.06
298.753	272.06
298.984	279.06
299.214	275.06
299.445	280.06
299.675	277.06
299.905	302.06
300.136	265.06
300.366	270.06
300.597	271.06
300.827	287.06
301.057	280.06
301.288	283.06
301.518	271.06
301.748	287.06
301.979	280.06
302.209	284.06
302.439	285.06
302.669	274.06
302.9	285.06
303.13	279.06
303.36	301.06
303.59	299.06
303.82	290.06
304.051	296.06
304.281	294.06
304.511	271.06
304.741	267.06
304.971	288.06
305.201	282.06
305.431	283.06
305.661	278.06
305.891	284.06
306.121	292.06
306.352	294.06
306.582	291.06
306.812	269.06
307.042	289.06
307.272	298.06
307.502	286.06
307.731	294.06
307.961	292.06
308.191	295.06
308.421	286.06
308.651	304.06
308.881	295.06
309.111	296.06
309.341	299.06
309.571	299.06
309.8	327.06
310.03	323.06
310.26	356.06
310.49	323.06
310.72	333.06
310.949	339.06
311.179	356.06
311.409	330.06
311.639	328.06
311.868	335.06
312.098	334.06
312.328	337.06
312.557	349.06
312.787	370.06
313.017	362.06
313.246	336.06
313.476	345.06
313.706	337.06
313.935	336.06
314.165	339.06
314.394	357.06
314.624	334.06
314.853	332.06
315.083	353.06
315.312	338.06
315.542	336.06
315.771	321.06
316.001	311.06
316.23	316.06
316.46	323.06
316.689	322.06
316.919	344.06
317.148	327.06
317.377	356.06
317.607	345.06
317.836	354.06
318.065	329.06
318.295	345.06
318.524	330.06
318.753	357.06
318.983	333.06
319.212	333.06
319.441	354.06
319.67	349.06
319.9	328.06
320.129	347.06
320.358	346.06
320.587	340.06
320.816	330.06
321.046	352.06
321.275	360.06
321.504	357.06
321.733	372.06
321.962	375.06
322.191	374.06
322.42	397.06
322.649	398.06
322.878	394.06
323.108	388.06
323.337	425.06
323.566	428.06
323.795	472.06
324.024	536.06
324.253	643.06
324.482	888.06
324.71	1361.06
324.939	1839.06
325.168	1564.06
325.397	827.06
325.626	571.06
325.855	496.06
326.084	449.06
326.313	454.06
326.542	466.06
326.77	508.06
326.999	605.06
327.228	820.06
327.457	1176.06
327.686	1372.06
327.914	933.06
328.143	609.06
328.372	534.06
328.6	507.06
328.829	507.06
329.058	503.06
329.287	511.06
329.515	471.06
329.744	429.06
329.972	451.06
330.201	442.06
330.43	459.06
330.658	489.06
330.887	527.06
331.115	516.06
331.344	452.06
331.572	432.06
331.801	427.06
332.03	421.06
332.258	406.06
332.486	381.06
332.715	396.06
332.943	396.06
333.172	406.06
333.4	389.06
333.629	390.06
333.857	405.06
334.085	405.06
334.314	403.06
334.542	441.06
334.771	433.06
334.999	407.06
335.227	385.06
335.455	396.06
335.684	363.06
335.912	383.06
336.14	373.06
336.369	374.06
336.597	387.06
336.825	397.06
337.053	372.06
337.281	369.06
337.51	391.06
337.738	371.06
337.966	367.06
338.194	364.06
338.422	371.06
338.65	371.06
338.878	364.06
339.106	376.06
339.334	367.06
339.562	385.06
339.79	359.06
340.018	363.06
340.246	368.06
340.474	367.06
340.702	376.06
340.93	373.06
341.158	357.06
341.386	351.06
341.614	371.06
341.842	357.06
342.07	375.06
342.298	353.06
342.526	367.06
342.754	363.06
342.981	355.06
343.209	347.06
343.437	362.06
343.665	354.06
343.893	364.06
344.12	378.06
344.348	388.06
344.576	385.06
344.804	398.06
345.031	373.06
345.259	373.06
345.487	373.06
345.714	361.06
345.942	373.06
346.17	348.06
346.397	343.06
346.625	354.06
346.853	339.06
347.08	349.06
347.308	354.06
347.535	371.06
347.763	371.06
347.99	375.06
348.218	370.06
348.445	342.06
348.673	365.06
348.9	356.06
349.128	359.06
349.355	345.06
349.583	342.06
349.81	339.06
350.037	347.06
350.265	341.06
350.492	357.06
350.72	351.06
350.947	358.06
351.174	361.06
351.402	375.06
351.629	367.06
351.856	363.06
352.083	367.06
352.311	378.06
352.538	375.06
352.765	363.06
352.992	369.06
353.22	339.06
353.447	341.06
353.674	351.06
353.901	345.06
354.128	347.06
354.355	332.06
354.583	323.06
354.81	323.06
355.037	337.06
355.264	312.06
355.491	304.06
355.718	317.06
355.945	337.06
356.172	343.06
356.399	328.06
356.626	332.06
356.853	332.06
357.08	318.06
357.307	306.06
357.534	310.06
357.761	332.06
357.988	319.06
358.215	325.06
358.441	322.06
358.668	338.06
358.895	342.06
359.122	332.06
359.349	350.06
359.576	343.06
359.802	375.06
360.029	399.06
360.256	394.06
360.483	365.06
360.709	355.06
360.936	326.06
361.163	348.06
361.39	357.06
361.616	349.06
361.843	364.06
362.07	365.06
362.296	336.06
362.523	337.06
362.749	332.06
362.976	335.06
363.203	362.06
363.429	334.06
363.656	350.06
363.882	331.06
364.109	335.06
364.335	333.06
364.562	313.06
364.788	312.06
365.015	331.06
365.241	324.06
365.468	344.06
365.694	327.06
365.92	347.06
366.147	332.06
366.373	346.06
366.599	343.06
366.826	321.06
367.052	321.06
367.278	312.06
367.505	339.06
367.731	322.06
367.957	329.06
368.184	343.06
368.41	345.06
368.636	330.06
368.862	349.06
369.089	329.06
369.315	345.06
369.541	332.06
369.767	319.06
369.993	331.06
370.219	314.06
370.445	320.06
370.672	347.06
370.898	337.06
371.124	316.06
371.35	323.06
371.576	337.06
371.802	327.06
372.028	344.06
372.254	319.06
372.48	333.06
372.706	332.06
372.932	308.06
373.158	311.06
373.384	325.06
373.61	303.06
373.835	348.06
374.061	328.06
374.287	329.06
374.513	323.06
374.739	311.06
374.965	344.06
375.191	327.06
375.416	323.06
375.642	329.06
375.868	325.06
376.094	307.06
376.319	299.06
376.545	323.06
376.771	297.06
376.997	305.06
377.222	322.06
377.448	337.06
377.674	329.06
377.899	309.06
378.125	313.06
378.35	313.06
378.576	315.06
378.802	314.06
379.027	311.06
379.253	325.06
379.478	317.06
379.704	318.06
379.929	305.06
380.155	311.06
380.38	308.06
380.606	329.06
380.831	305.06
381.057	337.06
381.282	314.06
381.507	321.06
381.733	316.06
381.958	328.06
382.184	304.06
382.409	309.06
382.634	322.06
382.86	342.06
383.085	329.06
383.31	327.06
383.535	319.06
383.761	317.06
383.986	324.06
384.211	340.06
384.436	345.06
384.662	336.06
384.887	307.06
385.112	341.06
385.337	329.06
385.562	333.06
385.787	354.06
386.013	330.06
386.238	342.06
386.463	365.06
386.688	346.06
386.913	333.06
387.138	330.06
387.363	347.06
387.588	318.06
387.813	337.06
388.038	331.06
388.263	326.06
388.488	342.06
388.713	344.06
388.938	315.06
389.163	333.06
389.387	338.06
389.612	329.06
389.837	339.06
390.062	342.06
390.287	342.06
390.512	320.06
390.736	352.06
390.961	343.06
391.186	341.06
391.411	336.06
391.636	340.06
391.86	356.06
392.085	330.06
392.31	345.06
392.534	331.06
392.759	337.06
392.984	341.06
393.208	332.06
393.433	311.06
393.658	332.06
393.882	329.06
394.107	340.06
394.331	345.06
394.556	351.06
394.78	313.06
395.005	337.06
395.229	333.06
395.454	332.06
395.678	329.06
395.903	357.06
396.127	360.06
396.352	369.06
396.576	351.06
396.801	339.06
397.025	344.06
397.249	333.06
397.474	334.06
397.698	337.06
397.922	355.06
398.147	340.06
398.371	355.06
398.595	375.06
398.82	371.06
399.044	364.06
399.268	368.06
399.492	415.06
399.717	396.06
399.941	442.06
400.165	461.06
400.389	452.06
400.613	421.06
400.837	392.06
401.062	379.06
401.286	383.06
401.51	367.06
401.734	363.06
401.958	371.06
402.182	381.06
402.406	393.06
402.63	376.06
402.854	378.06
403.078	367.06
403.302	376.06
403.526	383.06
403.75	395.06
403.974	370.06
404.198	384.06
404.422	373.06
404.645	408.06
404.869	374.06
405.093	389.06
405.317	428.06
405.541	455.06
405.765	418.06
405.988	403.06
406.212	427.06
406.436	415.06
406.66	437.06
406.883	429.06
407.107	444.06
407.331	443.06
407.555	499.06
407.778	504.06
408.002	449.06
408.226	406.06
408.449	407.06
408.673	397.06
408.896	447.06
409.12	455.06
409.344	448.06
409.567	427.06
409.791	385.06
410.014	363.06
410.238	363.06
410.461	367.06
410.685	404.06
410.908	397.06
411.132	421.06
411.355	448.06
411.578	450.06
411.802	405.06
412.025	388.06
412.249	371.06
412.472	387.06
412.695	415.06
412.919	419.06
413.142	394.06
413.365	364.06
413.589	347.06
413.812	359.06
414.035	370.06
414.258	364.06
414.482	371.06
414.705	360.06
414.928	356.06
415.151	341.06
415.374	370.06
415.597	356.06
415.821	356.06
416.044	352.06
416.267	353.06
416.49	372.06
416.713	360.06
416.936	377.06
417.159	359.06
417.382	343.06
417.605	363.06
417.828	370.06
418.051	371.06
418.274	359.06
418.497	356.06
418.72	352.06
418.943	357.06
419.166	365.06
419.389	377.06
419.611	385.06
419.834	383.06
420.057	370.06
420.28	371.06
420.503	379.06
420.726	385.06
420.948	388.06
421.171	416.06
421.394	460.06
421.617	413.06
421.839	379.06
422.062	376.06
422.285	380.06
422.507	445.06
422.73	511.06
422.953	480.06
423.175	422.06
423.398	392.06
423.621	407.06
423.843	405.06
424.066	403.06
424.288	403.06
424.511	429.06
424.733	474.06
424.956	547.06
425.178	519.06
425.401	491.06
425.623	509.06
425.846	436.06
426.068	417.06
426.291	410.06
426.513	415.06
426.735	421.06
426.958	457.06
427.18	530.06
427.402	639.06
427.625	657.06
427.847	573.06
428.069	519.06
428.292	459.06
428.514	425.06
428.736	405.06
428.958	397.06
429.181	393.06
429.403	389.06
429.625	424.06
429.847	416.06
430.069	483.06
430.292	469.06
430.514	403.06
430.736	375.06
430.958	376.06
431.18	364.06
431.402	365.06
431.624	360.06
431.846	348.06
432.068	354.06
432.29	380.06
432.512	336.06
432.734	354.06
432.956	367.06
433.178	370.06
433.4	355.06
433.622	360.06
433.844	364.06
434.066	356.06
434.287	356.06
434.509	357.06
434.731	361.06
434.953	356.06
435.175	395.06
435.397	396.06
435.618	403.06
435.84	450.06
436.062	534.06
436.284	591.06
436.505	497.06
436.727	434.06
436.949	405.06
437.17	372.06
437.392	385.06
437.614	416.06
437.835	422.06
438.057	495.06
438.278	575.06
438.5	572.06
438.721	600.06
438.943	587.06
439.165	489.06
439.386	447.06
439.608	440.06
439.829	423.06
440.05	436.06
440.272	468.06
440.493	456.06
440.715	410.06
440.936	387.06
441.158	393.06
441.379	373.06
441.6	390.06
441.822	405.06
442.043	453.06
442.264	495.06
442.486	531.06
442.707	462.06
442.928	435.06
443.149	423.06
443.371	453.06
443.592	483.06
443.813	556.06
444.034	583.06
444.255	472.06
444.476	428.06
444.698	423.06
444.919	431.06
445.14	473.06
445.361	446.06
445.582	448.06
445.803	499.06
446.024	554.06
446.245	583.06
446.466	536.06
446.687	456.06
446.908	409.06
447.129	391.06
447.35	379.06
447.571	391.06
447.792	372.06
448.013	379.06
448.234	412.06
448.455	450.06
448.675	536.06
448.896	629.06
449.117	539.06
449.338	479.06
449.559	575.06
449.779	623.06
450	538.06
450.221	444.06
450.442	397.06
450.662	391.06
450.883	392.06
451.104	395.06
451.324	398.06
451.545	357.06
451.766	344.06
451.986	332.06
452.207	337.06
452.428	346.06
452.648	363.06
452.869	368.06
453.089	369.06
453.31	355.06
453.53	375.06
453.751	353.06
453.971	352.06
454.192	375.06
454.412	366.06
454.633	353.06
454.853	343.06
455.073	347.06
455.294	377.06
455.514	403.06
455.734	405.06
455.955	346.06
456.175	329.06
456.395	326.06
456.616	335.06
456.836	320.06
457.056	321.06
457.276	332.06
457.497	308.06
457.717	319.06
457.937	327.06
458.157	333.06
458.377	339.06
458.598	355.06
458.818	381.06
459.038	463.06
459.258	460.06
459.478	397.06
459.698	355.06
459.918	361.06
460.138	361.06
460.358	357.06
460.578	334.06
460.798	340.06
461.018	361.06
461.238	356.06
461.458	351.06
461.678	333.06
461.898	354.06
462.118	346.06
462.338	347.06
462.558	377.06
462.777	355.06
462.997	367.06
463.217	362.06
463.437	363.06
463.657	377.06
463.876	381.06
464.096	382.06
464.316	381.06
464.536	363.06
464.755	367.06
464.975	383.06
465.195	404.06
465.414	440.06
465.634	409.06
465.854	406.06
466.073	377.06
466.293	350.06
466.512	359.06
466.732	358.06
466.951	343.06
467.171	343.06
467.391	344.06
467.61	344.06
467.829	363.06
468.049	341.06
468.268	346.06
468.488	340.06
468.707	352.06
468.927	346.06
469.146	343.06
469.365	346.06
469.585	329.06
469.804	347.06
470.023	347.06
470.243	352.06
470.462	355.06
470.681	380.06
470.901	371.06
471.12	348.06
471.339	347.06
471.558	361.06
471.777	355.06
471.997	357.06
472.216	354.06
472.435	365.06
472.654	394.06
472.873	367.06
473.092	343.06
473.311	358.06
473.53	375.06
473.749	369.06
473.968	388.06
474.187	461.06
474.406	499.06
474.625	405.06
474.844	384.06
475.063	354.06
475.282	356.06
475.501	351.06
475.72	387.06
475.939	364.06
476.158	362.06
476.377	384.06
476.596	368.06
476.814	377.06
477.033	363.06
477.252	368.06
477.471	383.06
477.69	375.06
477.908	375.06
478.127	391.06
478.346	372.06
478.564	366.06
478.783	392.06
479.002	391.06
479.22	380.06
479.439	412.06
479.658	424.06
479.876	417.06
480.095	425.06
480.313	445.06
480.532	431.06
480.751	430.06
480.969	432.06
481.188	458.06
481.406	468.06
481.624	455.06
481.843	426.06
482.061	407.06
482.28	415.06
482.498	407.06
482.717	410.06
482.935	420.06
483.153	422.06
483.372	413.06
483.59	411.06
483.808	412.06
484.027	423.06
484.245	415.06
484.463	397.06
484.681	433.06
484.9	424.06
485.118	427.06
485.336	431.06
485.554	413.06
485.772	434.06
485.99	436.06
486.209	440.06
486.427	433.06
486.645	441.06
486.863	456.06
487.081	456.06
487.299	452.06
487.517	470.06
487.735	425.06
487.953	433.06
488.171	437.06
488.389	437.06
488.607	436.06
488.825	434.06
489.043	422.06
489.261	453.06
489.479	449.06
489.696	464.06
489.914	436.06
490.132	454.06
490.35	436.06
490.568	461.06
490.786	444.06
491.003	484.06
491.221	481.06
491.439	486.06
491.657	486.06
491.874	489.06
492.092	501.06
492.31	495.06
492.527	500.06
492.745	492.06
492.963	496.06
493.18	527.06
493.398	499.06
493.615	517.06
493.833	509.06
494.05	516.06
494.268	506.06
494.485	498.06
494.703	516.06
494.92	500.06
495.138	525.06
495.355	529.06
495.573	550.06
495.79	526.06
496.008	526.06
496.225	513.06
496.442	523.06
496.66	513.06
496.877	524.06
497.094	521.06
497.312	538.06
497.529	537.06
497.746	543.06
497.963	520.06
498.181	543.06
498.398	546.06
498.615	540.06
498.832	577.06
499.049	583.06
499.267	568.06
499.484	598.06
499.701	599.06
499.918	632.06
500.135	655.06
500.352	664.06
500.569	665.06
500.786	650.06
501.003	622.06
501.22	639.06
501.437	650.06
501.654	617.06
501.871	612.06
502.088	622.06
502.305	593.06
502.522	592.06
502.739	584.06
502.956	549.06
503.172	554.06
503.389	536.06
503.606	564.06
503.823	556.06
504.04	542.06
504.256	529.06
504.473	543.06
504.69	512.06
504.907	531.06
505.123	533.06
505.34	515.06
505.557	503.06
505.773	546.06
505.99	538.06
506.207	518.06
506.423	533.06
506.64	497.06
506.856	503.06
507.073	503.06
507.289	502.06
507.506	511.06
507.722	490.06
507.939	531.06
508.155	512.06
508.372	514.06
508.588	449.06
508.805	482.06
509.021	502.06
509.238	481.06
509.454	519.06
509.67	500.06
509.887	480.06
510.103	503.06
510.319	513.06
510.536	572.06
510.752	939.06
510.968	758.06
511.184	486.06
511.401	483.06
511.617	456.06
511.833	452.06
512.049	451.06
512.265	468.06
512.481	475.06
512.698	479.06
512.914	473.06
513.13	440.06
513.346	449.06
513.562	466.06
513.778	473.06
513.994	470.06
514.21	503.06
514.426	483.06
514.642	532.06
514.858	546.06
515.074	572.06
515.29	695.06
515.506	1011.06
515.721	824.06
515.937	571.06
516.153	520.06
516.369	510.06
516.585	496.06
516.801	470.06
517.016	471.06
517.232	470.06
517.448	459.06
517.664	484.06
517.879	461.06
518.095	472.06
518.311	469.06
518.527	473.06
518.742	476.06
518.958	468.06
519.173	471.06
519.389	461.06
519.605	465.06
519.82	468.06
520.036	496.06
520.251	492.06
520.467	532.06
520.682	528.06
520.898	525.06
521.113	537.06
521.329	564.06
521.544	638.06
521.76	805.06
521.975	1310.06
522.19	1271.06
522.406	703.06
522.621	548.06
522.836	463.06
523.052	473.06
523.267	451.06
523.482	435.06
523.698	436.06
523.913	429.06
524.128	420.06
524.343	432.06
524.559	427.06
524.774	421.06
524.989	419.06
525.204	402.06
525.419	407.06
525.634	381.06
525.849	390.06
526.064	400.06
526.28	392.06
526.495	378.06
526.71	385.06
526.925	399.06
527.14	396.06
527.355	383.06
527.57	389.06
527.785	352.06
527.999	398.06
528.214	389.06
528.429	356.06
528.644	378.06
528.859	371.06
529.074	376.06
529.289	399.06
529.503	460.06
529.718	435.06
529.933	392.06
530.148	391.06
530.363	386.06
530.577	379.06
530.792	383.06
531.007	396.06
531.221	375.06
531.436	354.06
531.651	365.06
531.865	381.06
532.08	364.06
532.295	370.06
532.509	367.06
532.724	358.06
532.938	375.06
533.153	363.06
533.367	355.06
533.582	373.06
533.796	368.06
534.011	373.06
534.225	348.06
534.44	361.06
534.654	356.06
534.868	352.06
535.083	347.06
535.297	353.06
535.511	344.06
535.726	370.06
535.94	363.06
536.154	353.06
536.369	373.06
536.583	348.06
536.797	349.06
537.011	348.06
537.225	355.06
537.44	351.06
537.654	352.06
537.868	362.06
538.082	347.06
538.296	332.06
538.51	322.06
538.724	347.06
538.938	360.06
539.153	358.06
539.367	376.06
539.581	371.06
539.795	372.06
540.009	361.06
540.222	349.06
540.436	355.06
540.65	345.06
540.864	365.06
541.078	348.06
541.292	349.06
541.506	354.06
541.72	337.06
541.934	342.06
542.147	349.06
542.361	340.06
542.575	334.06
542.789	325.06
543.002	332.06
543.216	347.06
543.43	359.06
543.644	347.06
543.857	343.06
544.071	344.06
544.285	323.06
544.498	357.06
544.712	324.06
544.925	325.06
545.139	347.06
545.352	341.06
545.566	326.06
545.779	323.06
545.993	333.06
546.206	347.06
546.42	359.06
546.633	335.06
546.847	354.06
547.06	316.06
547.274	353.06
547.487	337.06
547.7	332.06
547.914	316.06
548.127	344.06
548.34	326.06
548.554	337.06
548.767	315.06
548.98	322.06
549.193	324.06
549.407	324.06
549.62	334.06
549.833	318.06
550.046	319.06
550.259	311.06
550.473	329.06
550.686	317.06
550.899	324.06
551.112	316.06
551.325	315.06
551.538	336.06
551.751	325.06
551.964	326.06
552.177	316.06
552.39	321.06
552.603	308.06
552.816	325.06
553.029	305.06
553.242	325.06
553.455	337.06
553.667	343.06
553.88	329.06
554.093	341.06
554.306	341.06
554.519	342.06
554.732	310.06
554.944	323.06
555.157	317.06
555.37	306.06
555.583	308.06
555.795	316.06
556.008	307.06
556.221	287.06
556.433	297.06
556.646	306.06
556.859	297.06
557.071	308.06
557.284	289.06
557.496	288.06
557.709	299.06
557.921	294.06
558.134	299.06
558.346	305.06
558.559	299.06
558.771	296.06
558.984	304.06
559.196	267.06
559.409	285.06
559.621	283.06
559.833	280.06
560.046	287.06
560.258	291.06
560.47	303.06
560.683	293.06
560.895	297.06
561.107	289.06
561.32	320.06
561.532	296.06
561.744	284.06
561.956	283.06
562.168	297.06
562.381	276.06
562.593	285.06
562.805	287.06
563.017	297.06
563.229	292.06
563.441	292.06
563.653	286.06
563.865	284.06
564.077	300.06
564.289	299.06
564.501	297.06
564.713	305.06
564.925	299.06
565.137	310.06
565.349	299.06
565.561	310.06
565.773	315.06
565.985	314.06
566.197	318.06
566.408	328.06
566.62	322.06
566.832	316.06
567.044	327.06
567.255	332.06
567.467	323.06
567.679	346.06
567.891	331.06
568.102	364.06
568.314	338.06
568.526	340.06
568.737	316.06
568.949	324.06
569.161	291.06
569.372	292.06
569.584	309.06
569.795	298.06
570.007	294.06
570.218	342.06
570.43	321.06
570.641	316.06
570.853	288.06
571.064	285.06
571.276	278.06
571.487	276.06
571.698	271.06
571.91	266.06
572.121	275.06
572.333	265.06
572.544	279.06
572.755	266.06
572.966	247.06
573.178	269.06
573.389	272.06
573.6	252.06
573.811	268.06
574.023	268.06
574.234	265.06
574.445	273.06
574.656	248.06
574.867	245.06
575.078	267.06
575.289	243.06
575.501	264.06
575.712	236.06
575.923	276.06
576.134	242.06
576.345	245.06
576.556	231.06
576.767	230.06
576.978	251.06
577.188	249.06
577.399	254.06
577.61	255.06
577.821	278.06
578.032	255.06
578.243	303.06
578.454	476.06
578.665	345.06
578.875	259.06
579.086	246.06
579.297	257.06
579.508	230.06
579.718	244.06
579.929	245.06
580.14	234.06
580.35	246.06
580.561	231.06
580.772	231.06
580.982	232.06
581.193	245.06
581.403	239.06
581.614	232.06
581.825	223.06
582.035	245.06
582.246	236.06
582.456	244.06
582.667	235.06
582.877	239.06
583.087	218.06
583.298	236.06
583.508	230.06
583.719	225.06
583.929	227.06
584.139	215.06
584.35	218.06
584.56	235.06
584.77	245.06
584.981	248.06
585.191	224.06
585.401	224.06
585.611	241.06
585.821	224.06
586.032	232.06
586.242	231.06
586.452	231.06
586.662	212.06
586.872	228.06
587.082	242.06
587.292	234.06
587.502	223.06
587.713	228.06
587.923	219.06
588.133	235.06
588.343	225.06
588.553	226.06
588.762	233.06
588.972	236.06
589.182	267.06
589.392	275.06
589.602	226.06
589.812	265.06
590.022	243.06
590.232	244.06
590.441	235.06
590.651	220.06
590.861	226.06
591.071	226.06
591.281	217.06
591.49	214.06
591.7	240.06
591.91	225.06
592.119	225.06
592.329	227.06
592.539	244.06
592.748	227.06
592.958	232.06
593.167	214.06
593.377	246.06
593.587	255.06
593.796	229.06
594.006	241.06
594.215	235.06
594.424	224.06
594.634	223.06
594.843	228.06
595.053	221.06
595.262	207.06
595.472	215.06
595.681	228.06
595.89	227.06
596.1	221.06
596.309	225.06
596.518	204.06
596.727	215.06
596.937	221.06
597.146	226.06
597.355	231.06
597.564	219.06
597.774	207.06
597.983	200.06
598.192	211.06
598.401	217.06
598.61	220.06
598.819	203.06
599.028	196.06
599.237	202.06
599.446	204.06
599.655	204.06
599.864	197.06
600.073	199.06
600.282	205.06
600.491	208.06
600.7	189.06
600.909	197.06
601.118	203.06
601.327	202.06
601.536	207.06
601.745	219.06
601.953	212.06
602.162	212.06
602.371	199.06
602.58	214.06
602.789	193.06
602.997	195.06
603.206	195.06
603.415	183.06
603.623	195.06
603.832	187.06
604.041	194.06
604.249	200.06
604.458	200.06
604.666	192.06
604.875	203.06
605.084	199.06
605.292	185.06
605.501	190.06
605.709	201.06
605.918	187.06
606.126	217.06
606.334	189.06
606.543	205.06
606.751	194.06
606.96	194.06
607.168	188.06
607.376	203.06
607.585	200.06
607.793	178.06
608.001	195.06
608.21	194.06
608.418	202.06
608.626	193.06
608.834	184.06
609.043	201.06
609.251	187.06
609.459	201.06
609.667	204.06
609.875	190.06
610.083	181.06
610.291	194.06
610.499	196.06
610.707	187.06
610.916	204.06
611.124	189.06
611.332	187.06
611.54	213.06
611.748	199.06
611.955	196.06
612.163	190.06
612.371	183.06
612.579	188.06
612.787	184.06
612.995	184.06
613.203	193.06
613.411	179.06
613.618	179.06
613.826	185.06
614.034	197.06
614.242	186.06
614.449	181.06
614.657	196.06
614.865	191.06
615.072	192.06
615.28	186.06
615.488	193.06
615.695	195.06
615.903	193.06
616.111	192.06
616.318	198.06
616.526	192.06
616.733	206.06
616.941	188.06
617.148	189.06
617.356	179.06
617.563	187.06
617.771	189.06
617.978	188.06
618.185	191.06
618.393	182.06
618.6	173.06
618.807	212.06
619.015	179.06
619.222	179.06
619.429	181.06
619.637	179.06
619.844	174.06
620.051	191.06
620.258	191.06
620.466	168.06
620.673	183.06
620.88	180.06
621.087	180.06
621.294	185.06
621.501	191.06
621.708	163.06
621.915	161.06
622.122	172.06
622.329	177.06
622.536	177.06
622.743	183.06
622.95	170.06
623.157	169.06
623.364	163.06
623.571	188.06
623.778	179.06
623.985	191.06
624.192	165.06
624.399	161.06
624.606	176.06
624.812	159.06
625.019	157.06
625.226	164.06
625.433	171.06
625.639	157.06
625.846	169.06
626.053	170.06
626.259	175.06
626.466	172.06
626.673	171.06
626.879	168.06
627.086	177.06
627.293	170.06
627.499	169.06
627.706	171.06
627.912	157.06
628.119	159.06
628.325	157.06
628.532	165.06
628.738	166.06
628.945	141.06
629.151	159.06
629.357	153.06
629.564	175.06
629.77	154.06
629.976	143.06
630.183	162.06
630.389	150.06
630.595	153.06
630.802	153.06
631.008	156.06
631.214	152.06
631.42	158.06
631.627	150.06
631.833	151.06
632.039	160.06
632.245	169.06
632.451	161.06
632.657	168.06
632.863	153.06
633.069	157.06
633.275	156.06
633.481	139.06
633.688	161.06
633.893	169.06
634.099	159.06
634.305	163.06
634.511	140.06
634.717	149.06
634.923	155.06
635.129	147.06
635.335	150.06
635.541	148.06
635.747	164.06
635.952	149.06
636.158	153.06
636.364	161.06
636.57	155.06
636.775	152.06
636.981	144.06
637.187	152.06
637.392	150.06
637.598	160.06
637.804	151.06
638.009	161.06
638.215	150.06
638.421	156.06
638.626	148.06
638.832	148.06
639.037	142.06
639.243	148.06
639.448	138.06
639.654	137.06
639.859	150.06
640.065	156.06
640.27	148.06
640.475	152.06
640.681	136.06
640.886	149.06
641.091	139.06
641.297	146.06
641.502	139.06
641.707	136.06
641.913	150.06
642.118	154.06
642.323	143.06
642.528	147.06
642.733	130.06
642.939	148.06
643.144	148.06
643.349	133.06
643.554	137.06
643.759	134.06
643.964	147.06
644.169	142.06
644.374	137.06
644.579	129.06
644.784	121.06
644.989	153.06
645.194	138.06
645.399	129.06
645.604	129.06
645.809	153.06
646.014	135.06
646.219	150.06
646.423	141.06
646.628	136.06
646.833	137.06
647.038	157.06
647.243	147.06
647.447	148.06
647.652	153.06
647.857	135.06
648.062	144.06
648.266	141.06
648.471	147.06
648.676	131.06
648.88	157.06
649.085	159.06
649.289	144.06
649.494	152.06
649.698	173.06
649.903	161.06
650.107	131.06
650.312	135.06
650.516	140.06
650.721	130.06
650.925	131.06
651.13	128.06
651.334	131.06
651.539	118.06
651.743	121.06
651.947	131.06
652.152	139.06
652.356	127.06
652.56	118.06
652.764	122.06
652.969	131.06
653.173	108.06
653.377	125.06
653.581	126.06
653.785	127.06
653.99	119.06
654.194	132.06
654.398	145.06
654.602	128.06
654.806	117.06
655.01	130.06
655.214	122.06
655.418	125.06
655.622	119.06
655.826	119.06
656.03	125.06
656.234	123.06
656.438	117.06
656.642	130.06
656.846	106.06
657.049	119.06
657.253	111.06
657.457	114.06
657.661	108.06
657.865	127.06
658.068	120.06
658.272	122.06
658.476	96.06
658.68	99.06
658.883	113.06
659.087	92.06
659.291	101.06
659.494	106.06
659.698	90.06
659.901	88.06
660.105	99.06
660.309	103.06
660.512	94.06
660.716	96.06
660.919	97.06
661.123	103.06
661.326	73.06
661.53	87.06
661.733	89.06
661.936	91.06
662.14	88.06
662.343	87.06
662.546	82.06
662.75	80.06
662.953	99.06
663.156	83.06
663.36	72.06
663.563	90.06
663.766	64.06
663.969	79.06
664.173	100.06
664.376	89.06
664.579	91.06
664.782	89.06
664.985	84.06
665.188	92.06
665.391	80.06
665.594	67.06
665.797	80.06
666	91.06
666.203	93.06
666.406	89.06
666.609	86.06
666.812	79.06
667.015	96.06
667.218	80.06
667.421	80.06
667.624	76.06
667.827	89.06
668.03	98.06
668.232	83.06
668.435	82.06
668.638	83.06
668.841	81.06
669.043	79.06
669.246	76.06
669.449	79.06
669.651	85.06
669.854	83.06
670.057	84.06
670.259	83.06
670.462	79.06
670.665	80.06
670.867	88.06
671.07	83.06
671.272	89.06
671.475	85.06
671.677	74.06
671.88	92.06
672.082	88.06
672.284	80.06
672.487	76.06
672.689	89.06
672.892	84.06
