Data from 1981.PennyLincolnUp.Lamp.En5.5.200Scan.071819.P1_HRD10591_16-42-50-960.txt Node
Date: Thu Jul 18 16:42:50 EDT 2019
User: cochatt
Spectrometer: HR+D1059
Trigger mode: 1
Integration Time (sec): 1.000000E-1
Scans to average: 1
Electric dark correction enabled: true
Nonlinearity correction enabled: false
Boxcar width: 0
XAxis mode: Wavelengths
Number of Pixels in Spectrum: 2048
>>>>>Begin Spectral Data<<<<<
223.165	-11.31
223.4	-11.31
223.635	-11.31
223.869	-13.31
224.104	-23.31
224.338	-20.31
224.573	-9.31
224.808	-7.31
225.042	-7.31
225.277	2.69
225.511	-7.31
225.746	-1.31
225.98	-1.31
226.215	15.69
226.449	18.69
226.683	17.69
226.918	16.69
227.152	30.69
227.387	10.69
227.621	38.69
227.856	46.69
228.09	42.69
228.324	42.69
228.559	56.69
228.793	71.69
229.027	95.69
229.262	110.69
229.496	108.69
229.73	133.69
229.964	144.69
230.199	121.69
230.433	100.69
230.667	101.69
230.901	119.69
231.136	120.69
231.37	109.69
231.604	98.69
231.838	93.69
232.072	94.69
232.306	128.69
232.541	125.69
232.775	96.69
233.009	106.69
233.243	107.69
233.477	105.69
233.711	110.69
233.945	132.69
234.179	115.69
234.413	113.69
234.647	123.69
234.881	116.69
235.115	114.69
235.349	119.69
235.583	123.69
235.817	114.69
236.051	121.69
236.285	140.69
236.519	128.69
236.753	133.69
236.987	134.69
237.221	201.69
237.455	232.69
237.689	175.69
237.922	122.69
238.156	135.69
238.39	123.69
238.624	117.69
238.858	129.69
239.091	133.69
239.325	124.69
239.559	130.69
239.793	125.69
240.027	130.69
240.26	151.69
240.494	154.69
240.728	166.69
240.961	152.69
241.195	140.69
241.429	142.69
241.662	125.69
241.896	120.69
242.13	116.69
242.363	122.69
242.597	136.69
242.83	140.69
243.064	156.69
243.298	131.69
243.531	121.69
243.765	140.69
243.998	121.69
244.232	156.69
244.465	147.69
244.699	128.69
244.932	142.69
245.166	154.69
245.399	153.69
245.633	128.69
245.866	147.69
246.099	147.69
246.333	156.69
246.566	150.69
246.8	155.69
247.033	151.69
247.266	164.69
247.5	162.69
247.733	175.69
247.966	176.69
248.2	180.69
248.433	167.69
248.666	166.69
248.899	187.69
249.133	224.69
249.366	226.69
249.599	201.69
249.832	178.69
250.066	192.69
250.299	193.69
250.532	191.69
250.765	217.69
250.998	227.69
251.231	231.69
251.465	215.69
251.698	223.69
251.931	207.69
252.164	227.69
252.397	207.69
252.63	203.69
252.863	216.69
253.096	216.69
253.329	233.69
253.562	234.69
253.795	245.69
254.028	235.69
254.261	248.69
254.494	242.69
254.727	267.69
254.96	302.69
255.193	297.69
255.426	268.69
255.659	270.69
255.892	242.69
256.124	240.69
256.357	260.69
256.59	260.69
256.823	229.69
257.056	246.69
257.289	222.69
257.521	214.69
257.754	220.69
257.987	220.69
258.22	234.69
258.452	228.69
258.685	234.69
258.918	229.69
259.151	215.69
259.383	231.69
259.616	230.69
259.849	241.69
260.081	251.69
260.314	264.69
260.547	263.69
260.779	248.69
261.012	241.69
261.244	248.69
261.477	238.69
261.71	232.69
261.942	233.69
262.175	232.69
262.407	243.69
262.64	225.69
262.872	233.69
263.105	241.69
263.337	219.69
263.57	206.69
263.802	219.69
264.035	203.69
264.267	228.69
264.499	215.69
264.732	226.69
264.964	222.69
265.197	212.69
265.429	223.69
265.661	212.69
265.894	231.69
266.126	233.69
266.358	218.69
266.591	222.69
266.823	246.69
267.055	254.69
267.287	234.69
267.52	238.69
267.752	241.69
267.984	241.69
268.216	220.69
268.448	244.69
268.681	251.69
268.913	255.69
269.145	291.69
269.377	303.69
269.609	270.69
269.841	285.69
270.073	295.69
270.306	313.69
270.538	351.69
270.77	341.69
271.002	312.69
271.234	324.69
271.466	312.69
271.698	338.69
271.93	348.69
272.162	338.69
272.394	354.69
272.626	339.69
272.858	312.69
273.09	305.69
273.322	299.69
273.553	272.69
273.785	295.69
274.017	290.69
274.249	287.69
274.481	296.69
274.713	288.69
274.945	284.69
275.176	281.69
275.408	277.69
275.64	283.69
275.872	281.69
276.104	283.69
276.335	285.69
276.567	291.69
276.799	306.69
277.031	331.69
277.262	346.69
277.494	337.69
277.726	323.69
277.957	303.69
278.189	296.69
278.421	302.69
278.652	288.69
278.884	297.69
279.115	276.69
279.347	264.69
279.579	292.69
279.81	282.69
280.042	264.69
280.273	267.69
280.505	260.69
280.736	275.69
280.968	298.69
281.199	292.69
281.431	283.69
281.662	289.69
281.894	286.69
282.125	281.69
282.356	313.69
282.588	308.69
282.819	331.69
283.051	296.69
283.282	283.69
283.513	279.69
283.745	277.69
283.976	291.69
284.207	280.69
284.439	287.69
284.67	272.69
284.901	302.69
285.132	288.69
285.364	289.69
285.595	289.69
285.826	289.69
286.057	283.69
286.288	312.69
286.52	311.69
286.751	288.69
286.982	302.69
287.213	307.69
287.444	287.69
287.675	278.69
287.906	292.69
288.138	327.69
288.369	332.69
288.6	315.69
288.831	306.69
289.062	307.69
289.293	291.69
289.524	306.69
289.755	295.69
289.986	295.69
290.217	275.69
290.448	296.69
290.679	295.69
290.91	299.69
291.141	281.69
291.371	277.69
291.602	295.69
291.833	292.69
292.064	308.69
292.295	283.69
292.526	282.69
292.757	302.69
292.987	311.69
293.218	293.69
293.449	296.69
293.68	300.69
293.91	294.69
294.141	288.69
294.372	302.69
294.603	304.69
294.833	294.69
295.064	293.69
295.295	291.69
295.525	282.69
295.756	307.69
295.987	334.69
296.217	344.69
296.448	351.69
296.679	323.69
296.909	320.69
297.14	304.69
297.37	307.69
297.601	282.69
297.831	307.69
298.062	294.69
298.292	302.69
298.523	306.69
298.753	302.69
298.984	297.69
299.214	294.69
299.445	312.69
299.675	313.69
299.905	323.69
300.136	324.69
300.366	318.69
300.597	309.69
300.827	323.69
301.057	329.69
301.288	338.69
301.518	334.69
301.748	323.69
301.979	304.69
302.209	323.69
302.439	347.69
302.669	354.69
302.9	325.69
303.13	332.69
303.36	320.69
303.59	330.69
303.82	332.69
304.051	348.69
304.281	299.69
304.511	347.69
304.741	335.69
304.971	331.69
305.201	326.69
305.431	339.69
305.661	326.69
305.891	331.69
306.121	325.69
306.352	342.69
306.582	353.69
306.812	339.69
307.042	370.69
307.272	331.69
307.502	330.69
307.731	354.69
307.961	348.69
308.191	359.69
308.421	339.69
308.651	351.69
308.881	335.69
309.111	358.69
309.341	361.69
309.571	372.69
309.8	378.69
310.03	380.69
310.26	399.69
310.49	408.69
310.72	424.69
310.949	427.69
311.179	425.69
311.409	383.69
311.639	379.69
311.868	400.69
312.098	395.69
312.328	415.69
312.557	436.69
312.787	438.69
313.017	432.69
313.246	404.69
313.476	387.69
313.706	395.69
313.935	397.69
314.165	419.69
314.394	424.69
314.624	426.69
314.853	399.69
315.083	403.69
315.312	394.69
315.542	404.69
315.771	382.69
316.001	377.69
316.23	386.69
316.46	385.69
316.689	395.69
316.919	387.69
317.148	387.69
317.377	407.69
317.607	383.69
317.836	396.69
318.065	403.69
318.295	374.69
318.524	393.69
318.753	387.69
318.983	401.69
319.212	395.69
319.441	406.69
319.67	394.69
319.9	392.69
320.129	400.69
320.358	390.69
320.587	395.69
320.816	407.69
321.046	405.69
321.275	409.69
321.504	436.69
321.733	441.69
321.962	421.69
322.191	450.69
322.42	458.69
322.649	486.69
322.878	491.69
323.108	496.69
323.337	542.69
323.566	584.69
323.795	597.69
324.024	673.69
324.253	831.69
324.482	1227.69
324.71	1856.69
324.939	2550.69
325.168	2208.69
325.397	1150.69
325.626	746.69
325.855	631.69
326.084	606.69
326.313	587.69
326.542	568.69
326.77	626.69
326.999	779.69
327.228	1109.69
327.457	1584.69
327.686	1888.69
327.914	1310.69
328.143	849.69
328.372	722.69
328.6	698.69
328.829	651.69
329.058	681.69
329.287	662.69
329.515	623.69
329.744	596.69
329.972	560.69
330.201	598.69
330.43	611.69
330.658	680.69
330.887	704.69
331.115	642.69
331.344	571.69
331.572	544.69
331.801	520.69
332.03	529.69
332.258	503.69
332.486	488.69
332.715	474.69
332.943	463.69
333.172	460.69
333.4	474.69
333.629	493.69
333.857	488.69
334.085	496.69
334.314	508.69
334.542	558.69
334.771	532.69
334.999	518.69
335.227	488.69
335.455	459.69
335.684	473.69
335.912	442.69
336.14	460.69
336.369	442.69
336.597	459.69
336.825	465.69
337.053	438.69
337.281	460.69
337.51	451.69
337.738	462.69
337.966	423.69
338.194	434.69
338.422	455.69
338.65	430.69
338.878	428.69
339.106	417.69
339.334	439.69
339.562	434.69
339.79	406.69
340.018	414.69
340.246	442.69
340.474	438.69
340.702	436.69
340.93	437.69
341.158	434.69
341.386	428.69
341.614	442.69
341.842	411.69
342.07	412.69
342.298	424.69
342.526	416.69
342.754	436.69
342.981	412.69
343.209	405.69
343.437	436.69
343.665	412.69
343.893	427.69
344.12	430.69
344.348	408.69
344.576	425.69
344.804	441.69
345.031	434.69
345.259	467.69
345.487	437.69
345.714	434.69
345.942	432.69
346.17	428.69
346.397	421.69
346.625	417.69
346.853	409.69
347.08	417.69
347.308	423.69
347.535	426.69
347.763	440.69
347.99	431.69
348.218	443.69
348.445	444.69
348.673	437.69
348.9	418.69
349.128	416.69
349.355	409.69
349.583	394.69
349.81	382.69
350.037	399.69
350.265	402.69
350.492	404.69
350.72	423.69
350.947	414.69
351.174	412.69
351.402	434.69
351.629	417.69
351.856	416.69
352.083	436.69
352.311	445.69
352.538	439.69
352.765	438.69
352.992	431.69
353.22	431.69
353.447	404.69
353.674	428.69
353.901	406.69
354.128	383.69
354.355	386.69
354.583	388.69
354.81	381.69
355.037	380.69
355.264	369.69
355.491	364.69
355.718	372.69
355.945	363.69
356.172	354.69
356.399	375.69
356.626	374.69
356.853	380.69
357.08	352.69
357.307	380.69
357.534	364.69
357.761	357.69
357.988	371.69
358.215	369.69
358.441	386.69
358.668	373.69
358.895	352.69
359.122	394.69
359.349	388.69
359.576	428.69
359.802	442.69
360.029	468.69
360.256	466.69
360.483	458.69
360.709	406.69
360.936	406.69
361.163	418.69
361.39	416.69
361.616	434.69
361.843	405.69
362.07	408.69
362.296	406.69
362.523	411.69
362.749	380.69
362.976	401.69
363.203	387.69
363.429	382.69
363.656	399.69
363.882	382.69
364.109	385.69
364.335	375.69
364.562	387.69
364.788	394.69
365.015	384.69
365.241	339.69
365.468	385.69
365.694	374.69
365.92	375.69
366.147	382.69
366.373	395.69
366.599	369.69
366.826	366.69
367.052	379.69
367.278	366.69
367.505	371.69
367.731	368.69
367.957	368.69
368.184	395.69
368.41	384.69
368.636	405.69
368.862	408.69
369.089	377.69
369.315	379.69
369.541	376.69
369.767	371.69
369.993	348.69
370.219	360.69
370.445	374.69
370.672	370.69
370.898	362.69
371.124	367.69
371.35	376.69
371.576	371.69
371.802	374.69
372.028	354.69
372.254	358.69
372.48	357.69
372.706	364.69
372.932	362.69
373.158	376.69
373.384	386.69
373.61	361.69
373.835	351.69
374.061	368.69
374.287	363.69
374.513	380.69
374.739	358.69
374.965	358.69
375.191	360.69
375.416	359.69
375.642	355.69
375.868	363.69
376.094	373.69
376.319	351.69
376.545	335.69
376.771	358.69
376.997	370.69
377.222	362.69
377.448	376.69
377.674	350.69
377.899	353.69
378.125	361.69
378.35	362.69
378.576	325.69
378.802	339.69
379.027	342.69
379.253	350.69
379.478	364.69
379.704	371.69
379.929	358.69
380.155	374.69
380.38	377.69
380.606	353.69
380.831	359.69
381.057	362.69
381.282	346.69
381.507	362.69
381.733	376.69
381.958	370.69
382.184	356.69
382.409	368.69
382.634	358.69
382.86	352.69
383.085	363.69
383.31	345.69
383.535	348.69
383.761	387.69
383.986	357.69
384.211	366.69
384.436	372.69
384.662	373.69
384.887	361.69
385.112	353.69
385.337	377.69
385.562	362.69
385.787	370.69
386.013	386.69
386.238	391.69
386.463	375.69
386.688	377.69
386.913	380.69
387.138	375.69
387.363	363.69
387.588	360.69
387.813	380.69
388.038	369.69
388.263	378.69
388.488	386.69
388.713	371.69
388.938	366.69
389.163	359.69
389.387	348.69
389.612	374.69
389.837	370.69
390.062	371.69
390.287	357.69
390.512	366.69
390.736	356.69
390.961	368.69
391.186	370.69
391.411	368.69
391.636	382.69
391.86	377.69
392.085	383.69
392.31	390.69
392.534	374.69
392.759	383.69
392.984	364.69
393.208	361.69
393.433	370.69
393.658	370.69
393.882	361.69
394.107	376.69
394.331	364.69
394.556	376.69
394.78	378.69
395.005	380.69
395.229	377.69
395.454	384.69
395.678	392.69
395.903	392.69
396.127	401.69
396.352	392.69
396.576	379.69
396.801	378.69
397.025	379.69
397.249	386.69
397.474	394.69
397.698	385.69
397.922	410.69
398.147	401.69
398.371	423.69
398.595	401.69
398.82	414.69
399.044	416.69
399.268	442.69
399.492	441.69
399.717	460.69
399.941	463.69
400.165	496.69
400.389	511.69
400.613	477.69
400.837	456.69
401.062	423.69
401.286	437.69
401.51	406.69
401.734	415.69
401.958	429.69
402.182	420.69
402.406	425.69
402.63	454.69
402.854	453.69
403.078	406.69
403.302	433.69
403.526	442.69
403.75	428.69
403.974	434.69
404.198	417.69
404.422	432.69
404.645	436.69
404.869	430.69
405.093	463.69
405.317	499.69
405.541	523.69
405.765	471.69
405.988	471.69
406.212	457.69
406.436	524.69
406.66	514.69
406.883	501.69
407.107	476.69
407.331	525.69
407.555	584.69
407.778	572.69
408.002	537.69
408.226	492.69
408.449	466.69
408.673	484.69
408.896	530.69
409.12	528.69
409.344	507.69
409.567	458.69
409.791	440.69
410.014	400.69
410.238	430.69
410.461	426.69
410.685	426.69
410.908	436.69
411.132	499.69
411.355	500.69
411.578	492.69
411.802	443.69
412.025	449.69
412.249	466.69
412.472	449.69
412.695	490.69
412.919	485.69
413.142	437.69
413.365	445.69
413.589	423.69
413.812	413.69
414.035	434.69
414.258	413.69
414.482	399.69
414.705	396.69
414.928	378.69
415.151	403.69
415.374	395.69
415.597	402.69
415.821	391.69
416.044	404.69
416.267	388.69
416.49	410.69
416.713	397.69
416.936	389.69
417.159	412.69
417.382	409.69
417.605	414.69
417.828	416.69
418.051	437.69
418.274	427.69
418.497	415.69
418.72	398.69
418.943	389.69
419.166	428.69
419.389	444.69
419.611	424.69
419.834	417.69
420.057	424.69
420.28	425.69
420.503	454.69
420.726	430.69
420.948	442.69
421.171	491.69
421.394	510.69
421.617	433.69
421.839	418.69
422.062	424.69
422.285	452.69
422.507	511.69
422.73	566.69
422.953	564.69
423.175	481.69
423.398	474.69
423.621	466.69
423.843	479.69
424.066	476.69
424.288	448.69
424.511	469.69
424.733	545.69
424.956	602.69
425.178	568.69
425.401	561.69
425.623	605.69
425.846	521.69
426.068	491.69
426.291	459.69
426.513	480.69
426.735	467.69
426.958	526.69
427.18	598.69
427.402	722.69
427.625	816.69
427.847	714.69
428.069	614.69
428.292	518.69
428.514	490.69
428.736	474.69
428.958	455.69
429.181	447.69
429.403	433.69
429.625	427.69
429.847	484.69
430.069	566.69
430.292	539.69
430.514	458.69
430.736	439.69
430.958	428.69
431.18	428.69
431.402	422.69
431.624	418.69
431.846	411.69
432.068	422.69
432.29	409.69
432.512	396.69
432.734	404.69
432.956	423.69
433.178	416.69
433.4	422.69
433.622	420.69
433.844	418.69
434.066	390.69
434.287	401.69
434.509	411.69
434.731	425.69
434.953	419.69
435.175	416.69
435.397	449.69
435.618	466.69
435.84	513.69
436.062	593.69
436.284	667.69
436.505	587.69
436.727	499.69
436.949	471.69
437.17	455.69
437.392	444.69
437.614	456.69
437.835	492.69
438.057	596.69
438.278	658.69
438.5	664.69
438.721	744.69
438.943	671.69
439.165	552.69
439.386	509.69
439.608	484.69
439.829	503.69
440.05	548.69
440.272	590.69
440.493	536.69
440.715	489.69
440.936	449.69
441.158	443.69
441.379	463.69
441.6	476.69
441.822	473.69
442.043	505.69
442.264	595.69
442.486	641.69
442.707	543.69
442.928	518.69
443.149	500.69
443.371	521.69
443.592	574.69
443.813	659.69
444.034	699.69
444.255	553.69
444.476	492.69
444.698	471.69
444.919	457.69
445.14	589.69
445.361	519.69
445.582	535.69
445.803	599.69
446.024	652.69
446.245	692.69
446.466	626.69
446.687	542.69
446.908	484.69
447.129	466.69
447.35	455.69
447.571	454.69
447.792	458.69
448.013	471.69
448.234	468.69
448.455	520.69
448.675	623.69
448.896	744.69
449.117	627.69
449.338	620.69
449.559	675.69
449.779	733.69
450	624.69
450.221	482.69
450.442	471.69
450.662	441.69
450.883	447.69
451.104	472.69
451.324	442.69
451.545	430.69
451.766	401.69
451.986	394.69
452.207	388.69
452.428	393.69
452.648	391.69
452.869	401.69
453.089	398.69
453.31	430.69
453.53	417.69
453.751	380.69
453.971	403.69
454.192	416.69
454.412	426.69
454.633	390.69
454.853	387.69
455.073	418.69
455.294	417.69
455.514	484.69
455.734	460.69
455.955	400.69
456.175	382.69
456.395	353.69
456.616	350.69
456.836	388.69
457.056	388.69
457.276	376.69
457.497	357.69
457.717	366.69
457.937	384.69
458.157	371.69
458.377	372.69
458.598	407.69
458.818	476.69
459.038	538.69
459.258	546.69
459.478	440.69
459.698	414.69
459.918	402.69
460.138	395.69
460.358	408.69
460.578	404.69
460.798	411.69
461.018	427.69
461.238	405.69
461.458	394.69
461.678	407.69
461.898	399.69
462.118	392.69
462.338	397.69
462.558	416.69
462.777	422.69
462.997	439.69
463.217	414.69
463.437	422.69
463.657	407.69
463.876	416.69
464.096	421.69
464.316	422.69
464.536	415.69
464.755	440.69
464.975	417.69
465.195	489.69
465.414	559.69
465.634	504.69
465.854	439.69
466.073	416.69
466.293	394.69
466.512	393.69
466.732	408.69
466.951	377.69
467.171	395.69
467.391	393.69
467.61	395.69
467.829	402.69
468.049	425.69
468.268	402.69
468.488	402.69
468.707	390.69
468.927	368.69
469.146	379.69
469.365	380.69
469.585	369.69
469.804	387.69
470.023	385.69
470.243	398.69
470.462	417.69
470.681	421.69
470.901	416.69
471.12	397.69
471.339	418.69
471.558	386.69
471.777	393.69
471.997	416.69
472.216	406.69
472.435	458.69
472.654	427.69
472.873	402.69
473.092	390.69
473.311	410.69
473.53	407.69
473.749	385.69
473.968	474.69
474.187	560.69
474.406	570.69
474.625	483.69
474.844	417.69
475.063	398.69
475.282	410.69
475.501	405.69
475.72	389.69
475.939	406.69
476.158	405.69
476.377	401.69
476.596	404.69
476.814	414.69
477.033	418.69
477.252	416.69
477.471	435.69
477.69	433.69
477.908	449.69
478.127	425.69
478.346	418.69
478.564	445.69
478.783	443.69
479.002	430.69
479.22	446.69
479.439	467.69
479.658	494.69
479.876	480.69
480.095	488.69
480.313	525.69
480.532	498.69
480.751	494.69
480.969	508.69
481.188	559.69
481.406	599.69
481.624	535.69
481.843	499.69
482.061	485.69
482.28	468.69
482.498	450.69
482.717	463.69
482.935	462.69
483.153	458.69
483.372	451.69
483.59	452.69
483.808	461.69
484.027	468.69
484.245	478.69
484.463	486.69
484.681	483.69
484.9	466.69
485.118	470.69
485.336	490.69
485.554	464.69
485.772	476.69
485.99	478.69
486.209	468.69
486.427	502.69
486.645	500.69
486.863	499.69
487.081	516.69
487.299	496.69
487.517	531.69
487.735	513.69
487.953	521.69
488.171	509.69
488.389	468.69
488.607	512.69
488.825	506.69
489.043	511.69
489.261	510.69
489.479	520.69
489.696	500.69
489.914	519.69
490.132	521.69
490.35	558.69
490.568	515.69
490.786	518.69
491.003	546.69
491.221	541.69
491.439	549.69
491.657	591.69
491.874	583.69
492.092	567.69
492.31	563.69
492.527	593.69
492.745	584.69
492.963	593.69
493.18	588.69
493.398	594.69
493.615	601.69
493.833	592.69
494.05	581.69
494.268	607.69
494.485	611.69
494.703	597.69
494.92	602.69
495.138	597.69
495.355	609.69
495.573	602.69
495.79	600.69
496.008	599.69
496.225	596.69
496.442	599.69
496.66	616.69
496.877	608.69
497.094	593.69
497.312	600.69
497.529	608.69
497.746	612.69
497.963	631.69
498.181	660.69
498.398	653.69
498.615	652.69
498.832	648.69
499.049	653.69
499.267	644.69
499.484	662.69
499.701	658.69
499.918	694.69
500.135	710.69
500.352	730.69
500.569	740.69
500.786	756.69
501.003	723.69
501.22	726.69
501.437	746.69
501.654	726.69
501.871	740.69
502.088	686.69
502.305	684.69
502.522	688.69
502.739	660.69
502.956	631.69
503.172	638.69
503.389	616.69
503.606	608.69
503.823	638.69
504.04	615.69
504.256	608.69
504.473	586.69
504.69	597.69
504.907	602.69
505.123	599.69
505.34	576.69
505.557	597.69
505.773	590.69
505.99	585.69
506.207	583.69
506.423	598.69
506.64	566.69
506.856	589.69
507.073	564.69
507.289	592.69
507.506	579.69
507.722	591.69
507.939	587.69
508.155	602.69
508.372	588.69
508.588	578.69
508.805	577.69
509.021	549.69
509.238	587.69
509.454	623.69
509.67	596.69
509.887	558.69
510.103	579.69
510.319	603.69
510.536	712.69
510.752	1160.69
510.968	931.69
511.184	593.69
511.401	563.69
511.617	544.69
511.833	540.69
512.049	533.69
512.265	509.69
512.481	542.69
512.698	555.69
512.914	524.69
513.13	546.69
513.346	524.69
513.562	530.69
513.778	541.69
513.994	547.69
514.21	569.69
514.426	609.69
514.642	652.69
514.858	675.69
515.074	720.69
515.29	879.69
515.506	1277.69
515.721	1033.69
515.937	692.69
516.153	607.69
516.369	592.69
516.585	568.69
516.801	531.69
517.016	550.69
517.232	570.69
517.448	540.69
517.664	527.69
517.879	563.69
518.095	544.69
518.311	526.69
518.527	530.69
518.742	507.69
518.958	536.69
519.173	538.69
519.389	536.69
519.605	530.69
519.82	548.69
520.036	557.69
520.251	586.69
520.467	617.69
520.682	610.69
520.898	634.69
521.113	641.69
521.329	691.69
521.544	794.69
521.76	1052.69
521.975	1737.69
522.19	1634.69
522.406	894.69
522.621	676.69
522.836	615.69
523.052	575.69
523.267	512.69
523.482	519.69
523.698	511.69
523.913	521.69
524.128	520.69
524.343	475.69
524.559	472.69
524.774	459.69
524.989	446.69
525.204	474.69
525.419	483.69
525.634	474.69
525.849	450.69
526.064	435.69
526.28	451.69
526.495	450.69
526.71	438.69
526.925	404.69
527.14	436.69
527.355	426.69
527.57	425.69
527.785	414.69
527.999	428.69
528.214	405.69
528.429	448.69
528.644	444.69
528.859	415.69
529.074	415.69
529.289	448.69
529.503	553.69
529.718	516.69
529.933	460.69
530.148	452.69
530.363	436.69
530.577	415.69
530.792	421.69
531.007	417.69
531.221	415.69
531.436	424.69
531.651	420.69
531.865	395.69
532.08	416.69
532.295	402.69
532.509	425.69
532.724	418.69
532.938	402.69
533.153	404.69
533.367	383.69
533.582	380.69
533.796	404.69
534.011	395.69
534.225	412.69
534.44	400.69
534.654	404.69
534.868	366.69
535.083	389.69
535.297	390.69
535.511	408.69
535.726	404.69
535.94	403.69
536.154	410.69
536.369	396.69
536.583	396.69
536.797	394.69
537.011	399.69
537.225	386.69
537.44	385.69
537.654	387.69
537.868	392.69
538.082	395.69
538.296	395.69
538.51	400.69
538.724	387.69
538.938	396.69
539.153	393.69
539.367	419.69
539.581	395.69
539.795	396.69
540.009	388.69
540.222	387.69
540.436	408.69
540.65	407.69
540.864	387.69
541.078	390.69
541.292	411.69
541.506	392.69
541.72	396.69
541.934	395.69
542.147	359.69
542.361	398.69
542.575	398.69
542.789	392.69
543.002	372.69
543.216	388.69
543.43	384.69
543.644	408.69
543.857	375.69
544.071	376.69
544.285	406.69
544.498	385.69
544.712	376.69
544.925	374.69
545.139	374.69
545.352	369.69
545.566	356.69
545.779	366.69
545.993	372.69
546.206	372.69
546.42	367.69
546.633	375.69
546.847	362.69
547.06	386.69
547.274	362.69
547.487	367.69
547.7	350.69
547.914	361.69
548.127	374.69
548.34	363.69
548.554	352.69
548.767	395.69
548.98	359.69
549.193	355.69
549.407	341.69
549.62	350.69
549.833	340.69
550.046	357.69
550.259	348.69
550.473	347.69
550.686	352.69
550.899	351.69
551.112	348.69
551.325	348.69
551.538	332.69
551.751	332.69
551.964	347.69
552.177	376.69
552.39	373.69
552.603	354.69
552.816	353.69
553.029	360.69
553.242	350.69
553.455	372.69
553.667	379.69
553.88	382.69
554.093	367.69
554.306	371.69
554.519	378.69
554.732	366.69
554.944	342.69
555.157	352.69
555.37	351.69
555.583	349.69
555.795	349.69
556.008	350.69
556.221	335.69
556.433	328.69
556.646	332.69
556.859	328.69
557.071	345.69
557.284	337.69
557.496	323.69
557.709	318.69
557.921	341.69
558.134	323.69
558.346	310.69
558.559	319.69
558.771	291.69
558.984	343.69
559.196	316.69
559.409	326.69
559.621	315.69
559.833	316.69
560.046	303.69
560.258	291.69
560.47	320.69
560.683	313.69
560.895	322.69
561.107	311.69
561.32	327.69
561.532	315.69
561.744	322.69
561.956	322.69
562.168	316.69
562.381	313.69
562.593	325.69
562.805	325.69
563.017	313.69
563.229	323.69
563.441	322.69
563.653	319.69
563.865	323.69
564.077	322.69
564.289	315.69
564.501	312.69
564.713	332.69
564.925	328.69
565.137	338.69
565.349	324.69
565.561	343.69
565.773	346.69
565.985	368.69
566.197	347.69
566.408	350.69
566.62	333.69
566.832	350.69
567.044	369.69
567.255	350.69
567.467	352.69
567.679	352.69
567.891	358.69
568.102	360.69
568.314	357.69
568.526	348.69
568.737	346.69
568.949	352.69
569.161	326.69
569.372	323.69
569.584	322.69
569.795	317.69
570.007	330.69
570.218	374.69
570.43	350.69
570.641	316.69
570.853	292.69
571.064	313.69
571.276	312.69
571.487	315.69
571.698	289.69
571.91	306.69
572.121	295.69
572.333	288.69
572.544	292.69
572.755	301.69
572.966	289.69
573.178	298.69
573.389	289.69
573.6	289.69
573.811	278.69
574.023	298.69
574.234	287.69
574.445	292.69
574.656	278.69
574.867	299.69
575.078	284.69
575.289	282.69
575.501	279.69
575.712	263.69
575.923	281.69
576.134	256.69
576.345	272.69
576.556	278.69
576.767	269.69
576.978	272.69
577.188	269.69
577.399	280.69
577.61	274.69
577.821	270.69
578.032	268.69
578.243	329.69
578.454	557.69
578.665	392.69
578.875	292.69
579.086	270.69
579.297	261.69
579.508	276.69
579.718	245.69
579.929	256.69
580.14	267.69
580.35	270.69
580.561	265.69
580.772	254.69
580.982	244.69
581.193	255.69
581.403	256.69
581.614	245.69
581.825	247.69
582.035	248.69
582.246	247.69
582.456	252.69
582.667	271.69
582.877	250.69
583.087	239.69
583.298	251.69
583.508	239.69
583.719	252.69
583.929	256.69
584.139	242.69
584.35	275.69
584.56	239.69
584.77	249.69
584.981	260.69
585.191	246.69
585.401	254.69
585.611	273.69
585.821	257.69
586.032	250.69
586.242	227.69
586.452	235.69
586.662	243.69
586.872	262.69
587.082	233.69
587.292	243.69
587.502	242.69
587.713	250.69
587.923	243.69
588.133	216.69
588.343	227.69
588.553	242.69
588.762	258.69
588.972	238.69
589.182	239.69
589.392	244.69
589.602	254.69
589.812	250.69
590.022	242.69
590.232	231.69
590.441	221.69
590.651	254.69
590.861	235.69
591.071	230.69
591.281	244.69
591.49	240.69
591.7	224.69
591.91	261.69
592.119	262.69
592.329	261.69
592.539	249.69
592.748	246.69
592.958	259.69
593.167	248.69
593.377	271.69
593.587	247.69
593.796	254.69
594.006	251.69
594.215	255.69
594.424	230.69
594.634	242.69
594.843	265.69
595.053	256.69
595.262	251.69
595.472	251.69
595.681	233.69
595.89	248.69
596.1	221.69
596.309	223.69
596.518	231.69
596.727	228.69
596.937	242.69
597.146	242.69
597.355	239.69
597.564	224.69
597.774	224.69
597.983	222.69
598.192	224.69
598.401	223.69
598.61	213.69
598.819	221.69
599.028	217.69
599.237	222.69
599.446	222.69
599.655	215.69
599.864	234.69
600.073	223.69
600.282	209.69
600.491	222.69
600.7	223.69
600.909	221.69
601.118	202.69
601.327	215.69
601.536	202.69
601.745	217.69
601.953	202.69
602.162	222.69
602.371	217.69
602.58	215.69
602.789	202.69
602.997	210.69
603.206	212.69
603.415	225.69
603.623	223.69
603.832	211.69
604.041	217.69
604.249	215.69
604.458	208.69
604.666	209.69
604.875	199.69
605.084	204.69
605.292	205.69
605.501	223.69
605.709	202.69
605.918	196.69
606.126	193.69
606.334	204.69
606.543	223.69
606.751	204.69
606.96	194.69
607.168	202.69
607.376	194.69
607.585	205.69
607.793	210.69
608.001	212.69
608.21	199.69
608.418	193.69
608.626	209.69
608.834	205.69
609.043	196.69
609.251	195.69
609.459	202.69
609.667	209.69
609.875	193.69
610.083	201.69
610.291	208.69
610.499	198.69
610.707	191.69
610.916	205.69
611.124	200.69
611.332	202.69
611.54	206.69
611.748	201.69
611.955	210.69
612.163	203.69
612.371	204.69
612.579	194.69
612.787	212.69
612.995	187.69
613.203	211.69
613.411	201.69
613.618	187.69
613.826	204.69
614.034	187.69
614.242	203.69
614.449	205.69
614.657	198.69
614.865	189.69
615.072	180.69
615.28	204.69
615.488	200.69
615.695	208.69
615.903	194.69
616.111	210.69
616.318	214.69
616.526	198.69
616.733	198.69
616.941	183.69
617.148	180.69
617.356	193.69
617.563	199.69
617.771	196.69
617.978	204.69
618.185	195.69
618.393	176.69
618.6	191.69
618.807	212.69
619.015	186.69
619.222	188.69
619.429	170.69
619.637	195.69
619.844	194.69
620.051	176.69
620.258	199.69
620.466	203.69
620.673	190.69
620.88	187.69
621.087	188.69
621.294	186.69
621.501	191.69
621.708	185.69
621.915	188.69
622.122	193.69
622.329	183.69
622.536	197.69
622.743	190.69
622.95	185.69
623.157	191.69
623.364	204.69
623.571	200.69
623.778	196.69
623.985	187.69
624.192	187.69
624.399	194.69
624.606	172.69
624.812	191.69
625.019	175.69
625.226	170.69
625.433	184.69
625.639	178.69
625.846	180.69
626.053	167.69
626.259	186.69
626.466	179.69
626.673	174.69
626.879	190.69
627.086	170.69
627.293	173.69
627.499	177.69
627.706	191.69
627.912	191.69
628.119	167.69
628.325	175.69
628.532	170.69
628.738	184.69
628.945	159.69
629.151	169.69
629.357	169.69
629.564	167.69
629.77	148.69
629.976	171.69
630.183	171.69
630.389	165.69
630.595	168.69
630.802	170.69
631.008	157.69
631.214	166.69
631.42	177.69
631.627	168.69
631.833	174.69
632.039	164.69
632.245	168.69
632.451	185.69
632.657	176.69
632.863	164.69
633.069	158.69
633.275	167.69
633.481	161.69
633.688	159.69
633.893	153.69
634.099	148.69
634.305	154.69
634.511	148.69
634.717	173.69
634.923	155.69
635.129	159.69
635.335	157.69
635.541	149.69
635.747	164.69
635.952	147.69
636.158	170.69
636.364	170.69
636.57	161.69
636.775	156.69
636.981	164.69
637.187	142.69
637.392	152.69
637.598	163.69
637.804	164.69
638.009	155.69
638.215	154.69
638.421	152.69
638.626	160.69
638.832	151.69
639.037	151.69
639.243	147.69
639.448	162.69
639.654	167.69
639.859	153.69
640.065	143.69
640.27	154.69
640.475	156.69
640.681	147.69
640.886	161.69
641.091	158.69
641.297	165.69
641.502	150.69
641.707	154.69
641.913	152.69
642.118	169.69
642.323	154.69
642.528	144.69
642.733	147.69
642.939	147.69
643.144	139.69
643.349	141.69
643.554	150.69
643.759	135.69
643.964	154.69
644.169	166.69
644.374	147.69
644.579	147.69
644.784	158.69
644.989	153.69
645.194	140.69
645.399	148.69
645.604	138.69
645.809	140.69
646.014	155.69
646.219	146.69
646.423	158.69
646.628	160.69
646.833	141.69
647.038	166.69
647.243	158.69
647.447	149.69
647.652	138.69
647.857	134.69
648.062	138.69
648.266	147.69
648.471	146.69
648.676	156.69
648.88	151.69
649.085	137.69
649.289	144.69
649.494	142.69
649.698	178.69
649.903	164.69
650.107	167.69
650.312	147.69
650.516	144.69
650.721	136.69
650.925	140.69
651.13	127.69
651.334	150.69
651.539	133.69
651.743	131.69
651.947	135.69
652.152	137.69
652.356	140.69
652.56	130.69
652.764	122.69
652.969	123.69
653.173	145.69
653.377	140.69
653.581	124.69
653.785	117.69
653.99	138.69
654.194	144.69
654.398	131.69
654.602	130.69
654.806	121.69
655.01	138.69
655.214	144.69
655.418	133.69
655.622	114.69
655.826	122.69
656.03	127.69
656.234	133.69
656.438	124.69
656.642	119.69
656.846	121.69
657.049	126.69
657.253	132.69
657.457	112.69
657.661	112.69
657.865	100.69
658.068	93.69
658.272	97.69
658.476	107.69
658.68	110.69
658.883	112.69
659.087	100.69
659.291	80.69
659.494	99.69
659.698	95.69
659.901	89.69
660.105	83.69
660.309	85.69
660.512	94.69
660.716	95.69
660.919	88.69
661.123	87.69
661.326	78.69
661.53	90.69
661.733	82.69
661.936	92.69
662.14	90.69
662.343	104.69
662.546	96.69
662.75	79.69
662.953	84.69
663.156	73.69
663.36	80.69
663.563	75.69
663.766	84.69
663.969	83.69
664.173	70.69
664.376	84.69
664.579	72.69
664.782	71.69
664.985	73.69
665.188	88.69
665.391	88.69
665.594	77.69
665.797	80.69
666	80.69
666.203	85.69
666.406	86.69
666.609	78.69
666.812	83.69
667.015	74.69
667.218	85.69
667.421	69.69
667.624	75.69
667.827	59.69
668.03	79.69
668.232	68.69
668.435	81.69
668.638	79.69
668.841	73.69
669.043	75.69
669.246	87.69
669.449	88.69
669.651	84.69
669.854	84.69
670.057	75.69
670.259	79.69
670.462	81.69
670.665	82.69
670.867	75.69
671.07	87.69
671.272	93.69
671.475	79.69
671.677	84.69
671.88	77.69
672.082	78.69
672.284	76.69
672.487	72.69
672.689	66.69
672.892	80.69
