Data from 1981.PennyLincolnUp.Lamp.En5.5.200Scan.071819.P1_HRD10591_16-41-54-959.txt Node
Date: Thu Jul 18 16:41:54 EDT 2019
User: cochatt
Spectrometer: HR+D1059
Trigger mode: 1
Integration Time (sec): 1.000000E-1
Scans to average: 1
Electric dark correction enabled: true
Nonlinearity correction enabled: false
Boxcar width: 0
XAxis mode: Wavelengths
Number of Pixels in Spectrum: 2048
>>>>>Begin Spectral Data<<<<<
223.165	-9.62
223.4	-9.62
223.635	-9.62
223.869	-24.62
224.104	-12.62
224.338	-13.62
224.573	-16.62
224.808	-1.62
225.042	-12.62
225.277	-10.62
225.511	-4.62
225.746	8.38
225.98	13.38
226.215	7.38
226.449	19.38
226.683	14.38
226.918	12.38
227.152	31.38
227.387	19.38
227.621	36.38
227.856	29.38
228.09	43.38
228.324	36.38
228.559	62.38
228.793	73.38
229.027	97.38
229.262	102.38
229.496	111.38
229.73	119.38
229.964	144.38
230.199	112.38
230.433	105.38
230.667	107.38
230.901	102.38
231.136	108.38
231.37	119.38
231.604	98.38
231.838	123.38
232.072	110.38
232.306	108.38
232.541	114.38
232.775	114.38
233.009	107.38
233.243	115.38
233.477	113.38
233.711	126.38
233.945	112.38
234.179	106.38
234.413	114.38
234.647	120.38
234.881	135.38
235.115	122.38
235.349	98.38
235.583	112.38
235.817	121.38
236.051	126.38
236.285	130.38
236.519	115.38
236.753	133.38
236.987	138.38
237.221	200.38
237.455	235.38
237.689	197.38
237.922	161.38
238.156	136.38
238.39	118.38
238.624	132.38
238.858	124.38
239.091	126.38
239.325	128.38
239.559	128.38
239.793	128.38
240.027	132.38
240.26	147.38
240.494	163.38
240.728	143.38
240.961	146.38
241.195	152.38
241.429	136.38
241.662	145.38
241.896	138.38
242.13	125.38
242.363	129.38
242.597	129.38
242.83	143.38
243.064	134.38
243.298	142.38
243.531	129.38
243.765	138.38
243.998	146.38
244.232	143.38
244.465	128.38
244.699	154.38
244.932	138.38
245.166	153.38
245.399	156.38
245.633	134.38
245.866	151.38
246.099	131.38
246.333	148.38
246.566	150.38
246.8	149.38
247.033	162.38
247.266	162.38
247.5	158.38
247.733	156.38
247.966	163.38
248.2	186.38
248.433	162.38
248.666	175.38
248.899	185.38
249.133	220.38
249.366	214.38
249.599	188.38
249.832	195.38
250.066	204.38
250.299	176.38
250.532	203.38
250.765	214.38
250.998	226.38
251.231	243.38
251.465	229.38
251.698	208.38
251.931	198.38
252.164	199.38
252.397	210.38
252.63	211.38
252.863	213.38
253.096	215.38
253.329	232.38
253.562	225.38
253.795	241.38
254.028	228.38
254.261	230.38
254.494	239.38
254.727	266.38
254.96	283.38
255.193	275.38
255.426	258.38
255.659	244.38
255.892	230.38
256.124	242.38
256.357	247.38
256.59	243.38
256.823	241.38
257.056	211.38
257.289	221.38
257.521	221.38
257.754	222.38
257.987	203.38
258.22	218.38
258.452	212.38
258.685	218.38
258.918	207.38
259.151	225.38
259.383	222.38
259.616	226.38
259.849	228.38
260.081	244.38
260.314	259.38
260.547	276.38
260.779	256.38
261.012	232.38
261.244	230.38
261.477	235.38
261.71	230.38
261.942	235.38
262.175	230.38
262.407	246.38
262.64	228.38
262.872	222.38
263.105	220.38
263.337	215.38
263.57	223.38
263.802	200.38
264.035	213.38
264.267	215.38
264.499	215.38
264.732	228.38
264.964	215.38
265.197	204.38
265.429	224.38
265.661	212.38
265.894	223.38
266.126	216.38
266.358	212.38
266.591	223.38
266.823	242.38
267.055	231.38
267.287	234.38
267.52	217.38
267.752	231.38
267.984	231.38
268.216	241.38
268.448	242.38
268.681	244.38
268.913	275.38
269.145	258.38
269.377	270.38
269.609	291.38
269.841	268.38
270.073	304.38
270.306	313.38
270.538	334.38
270.77	322.38
271.002	310.38
271.234	325.38
271.466	330.38
271.698	338.38
271.93	347.38
272.162	330.38
272.394	331.38
272.626	323.38
272.858	307.38
273.09	309.38
273.322	291.38
273.553	289.38
273.785	262.38
274.017	289.38
274.249	295.38
274.481	282.38
274.713	274.38
274.945	292.38
275.176	274.38
275.408	274.38
275.64	263.38
275.872	297.38
276.104	277.38
276.335	270.38
276.567	288.38
276.799	303.38
277.031	310.38
277.262	327.38
277.494	327.38
277.726	329.38
277.957	309.38
278.189	298.38
278.421	299.38
278.652	275.38
278.884	276.38
279.115	266.38
279.347	284.38
279.579	259.38
279.81	266.38
280.042	268.38
280.273	255.38
280.505	283.38
280.736	268.38
280.968	251.38
281.199	289.38
281.431	274.38
281.662	271.38
281.894	280.38
282.125	277.38
282.356	283.38
282.588	300.38
282.819	321.38
283.051	274.38
283.282	279.38
283.513	282.38
283.745	270.38
283.976	292.38
284.207	294.38
284.439	287.38
284.67	290.38
284.901	278.38
285.132	280.38
285.364	283.38
285.595	274.38
285.826	289.38
286.057	299.38
286.288	277.38
286.52	274.38
286.751	282.38
286.982	262.38
287.213	290.38
287.444	274.38
287.675	297.38
287.906	306.38
288.138	312.38
288.369	306.38
288.6	304.38
288.831	291.38
289.062	306.38
289.293	305.38
289.524	283.38
289.755	268.38
289.986	292.38
290.217	282.38
290.448	280.38
290.679	273.38
290.91	290.38
291.141	296.38
291.371	289.38
291.602	274.38
291.833	286.38
292.064	295.38
292.295	286.38
292.526	289.38
292.757	278.38
292.987	289.38
293.218	287.38
293.449	282.38
293.68	299.38
293.91	282.38
294.141	300.38
294.372	307.38
294.603	292.38
294.833	302.38
295.064	280.38
295.295	275.38
295.525	276.38
295.756	298.38
295.987	295.38
296.217	330.38
296.448	338.38
296.679	314.38
296.909	296.38
297.14	310.38
297.37	299.38
297.601	301.38
297.831	293.38
298.062	316.38
298.292	292.38
298.523	308.38
298.753	318.38
298.984	313.38
299.214	288.38
299.445	294.38
299.675	300.38
299.905	318.38
300.136	309.38
300.366	319.38
300.597	329.38
300.827	307.38
301.057	327.38
301.288	325.38
301.518	324.38
301.748	303.38
301.979	307.38
302.209	319.38
302.439	326.38
302.669	328.38
302.9	328.38
303.13	321.38
303.36	321.38
303.59	299.38
303.82	332.38
304.051	321.38
304.281	332.38
304.511	329.38
304.741	315.38
304.971	305.38
305.201	332.38
305.431	323.38
305.661	346.38
305.891	328.38
306.121	334.38
306.352	357.38
306.582	341.38
306.812	337.38
307.042	346.38
307.272	331.38
307.502	333.38
307.731	335.38
307.961	337.38
308.191	320.38
308.421	323.38
308.651	330.38
308.881	338.38
309.111	323.38
309.341	356.38
309.571	366.38
309.8	359.38
310.03	362.38
310.26	389.38
310.49	382.38
310.72	383.38
310.949	401.38
311.179	408.38
311.409	384.38
311.639	392.38
311.868	394.38
312.098	394.38
312.328	416.38
312.557	407.38
312.787	431.38
313.017	412.38
313.246	398.38
313.476	380.38
313.706	392.38
313.935	394.38
314.165	407.38
314.394	418.38
314.624	402.38
314.853	386.38
315.083	375.38
315.312	392.38
315.542	380.38
315.771	377.38
316.001	374.38
316.23	391.38
316.46	384.38
316.689	371.38
316.919	407.38
317.148	404.38
317.377	397.38
317.607	394.38
317.836	384.38
318.065	379.38
318.295	386.38
318.524	382.38
318.753	378.38
318.983	379.38
319.212	373.38
319.441	384.38
319.67	406.38
319.9	376.38
320.129	396.38
320.358	377.38
320.587	375.38
320.816	395.38
321.046	406.38
321.275	418.38
321.504	412.38
321.733	418.38
321.962	437.38
322.191	449.38
322.42	450.38
322.649	470.38
322.878	489.38
323.108	497.38
323.337	510.38
323.566	562.38
323.795	604.38
324.024	650.38
324.253	793.38
324.482	1147.38
324.71	1804.38
324.939	2468.38
325.168	2083.38
325.397	1087.38
325.626	737.38
325.855	604.38
326.084	553.38
326.313	558.38
326.542	571.38
326.77	612.38
326.999	732.38
327.228	1002.38
327.457	1546.38
327.686	1776.38
327.914	1170.38
328.143	815.38
328.372	692.38
328.6	640.38
328.829	634.38
329.058	615.38
329.287	645.38
329.515	579.38
329.744	555.38
329.972	544.38
330.201	551.38
330.43	611.38
330.658	636.38
330.887	672.38
331.115	637.38
331.344	544.38
331.572	496.38
331.801	522.38
332.03	503.38
332.258	487.38
332.486	459.38
332.715	447.38
332.943	462.38
333.172	441.38
333.4	452.38
333.629	465.38
333.857	474.38
334.085	487.38
334.314	475.38
334.542	523.38
334.771	535.38
334.999	510.38
335.227	468.38
335.455	463.38
335.684	445.38
335.912	447.38
336.14	443.38
336.369	442.38
336.597	452.38
336.825	463.38
337.053	434.38
337.281	435.38
337.51	423.38
337.738	445.38
337.966	428.38
338.194	424.38
338.422	457.38
338.65	438.38
338.878	427.38
339.106	423.38
339.334	420.38
339.562	410.38
339.79	434.38
340.018	427.38
340.246	425.38
340.474	436.38
340.702	438.38
340.93	414.38
341.158	425.38
341.386	416.38
341.614	415.38
341.842	417.38
342.07	421.38
342.298	423.38
342.526	403.38
342.754	397.38
342.981	405.38
343.209	402.38
343.437	394.38
343.665	417.38
343.893	430.38
344.12	394.38
344.348	417.38
344.576	405.38
344.804	441.38
345.031	427.38
345.259	457.38
345.487	426.38
345.714	425.38
345.942	442.38
346.17	409.38
346.397	412.38
346.625	414.38
346.853	402.38
347.08	410.38
347.308	414.38
347.535	436.38
347.763	410.38
347.99	432.38
348.218	416.38
348.445	415.38
348.673	441.38
348.9	388.38
349.128	381.38
349.355	379.38
349.583	390.38
349.81	385.38
350.037	378.38
350.265	384.38
350.492	390.38
350.72	379.38
350.947	388.38
351.174	416.38
351.402	403.38
351.629	406.38
351.856	404.38
352.083	426.38
352.311	427.38
352.538	422.38
352.765	432.38
352.992	415.38
353.22	406.38
353.447	402.38
353.674	410.38
353.901	368.38
354.128	396.38
354.355	367.38
354.583	374.38
354.81	383.38
355.037	366.38
355.264	364.38
355.491	374.38
355.718	370.38
355.945	363.38
356.172	382.38
356.399	361.38
356.626	360.38
356.853	366.38
357.08	371.38
357.307	364.38
357.534	367.38
357.761	370.38
357.988	365.38
358.215	370.38
358.441	349.38
358.668	339.38
358.895	373.38
359.122	384.38
359.349	386.38
359.576	394.38
359.802	420.38
360.029	430.38
360.256	478.38
360.483	433.38
360.709	407.38
360.936	403.38
361.163	388.38
361.39	394.38
361.616	385.38
361.843	392.38
362.07	384.38
362.296	404.38
362.523	402.38
362.749	386.38
362.976	374.38
363.203	377.38
363.429	378.38
363.656	376.38
363.882	370.38
364.109	385.38
364.335	363.38
364.562	364.38
364.788	365.38
365.015	354.38
365.241	369.38
365.468	366.38
365.694	387.38
365.92	375.38
366.147	367.38
366.373	375.38
366.599	364.38
366.826	376.38
367.052	354.38
367.278	366.38
367.505	353.38
367.731	360.38
367.957	365.38
368.184	362.38
368.41	382.38
368.636	377.38
368.862	378.38
369.089	374.38
369.315	356.38
369.541	332.38
369.767	324.38
369.993	360.38
370.219	348.38
370.445	366.38
370.672	359.38
370.898	366.38
371.124	356.38
371.35	368.38
371.576	353.38
371.802	352.38
372.028	359.38
372.254	373.38
372.48	354.38
372.706	359.38
372.932	369.38
373.158	376.38
373.384	362.38
373.61	374.38
373.835	354.38
374.061	338.38
374.287	375.38
374.513	368.38
374.739	358.38
374.965	368.38
375.191	369.38
375.416	367.38
375.642	360.38
375.868	356.38
376.094	378.38
376.319	349.38
376.545	354.38
376.771	353.38
376.997	341.38
377.222	342.38
377.448	355.38
377.674	357.38
377.899	334.38
378.125	326.38
378.35	345.38
378.576	349.38
378.802	350.38
379.027	344.38
379.253	348.38
379.478	374.38
379.704	353.38
379.929	345.38
380.155	339.38
380.38	361.38
380.606	328.38
380.831	349.38
381.057	351.38
381.282	340.38
381.507	356.38
381.733	345.38
381.958	358.38
382.184	367.38
382.409	376.38
382.634	356.38
382.86	356.38
383.085	340.38
383.31	341.38
383.535	358.38
383.761	353.38
383.986	355.38
384.211	356.38
384.436	361.38
384.662	370.38
384.887	376.38
385.112	358.38
385.337	366.38
385.562	362.38
385.787	370.38
386.013	379.38
386.238	369.38
386.463	385.38
386.688	373.38
386.913	377.38
387.138	376.38
387.363	364.38
387.588	368.38
387.813	374.38
388.038	351.38
388.263	358.38
388.488	363.38
388.713	372.38
388.938	370.38
389.163	382.38
389.387	368.38
389.612	375.38
389.837	364.38
390.062	367.38
390.287	362.38
390.512	345.38
390.736	361.38
390.961	366.38
391.186	374.38
391.411	372.38
391.636	365.38
391.86	369.38
392.085	361.38
392.31	366.38
392.534	370.38
392.759	380.38
392.984	366.38
393.208	356.38
393.433	376.38
393.658	376.38
393.882	369.38
394.107	351.38
394.331	354.38
394.556	355.38
394.78	361.38
395.005	348.38
395.229	353.38
395.454	371.38
395.678	375.38
395.903	396.38
396.127	409.38
396.352	406.38
396.576	376.38
396.801	368.38
397.025	363.38
397.249	374.38
397.474	368.38
397.698	386.38
397.922	394.38
398.147	418.38
398.371	404.38
398.595	390.38
398.82	382.38
399.044	416.38
399.268	417.38
399.492	445.38
399.717	452.38
399.941	466.38
400.165	502.38
400.389	504.38
400.613	455.38
400.837	430.38
401.062	413.38
401.286	402.38
401.51	418.38
401.734	407.38
401.958	402.38
402.182	417.38
402.406	421.38
402.63	448.38
402.854	408.38
403.078	417.38
403.302	412.38
403.526	430.38
403.75	441.38
403.974	420.38
404.198	418.38
404.422	432.38
404.645	432.38
404.869	419.38
405.093	452.38
405.317	484.38
405.541	531.38
405.765	466.38
405.988	460.38
406.212	447.38
406.436	482.38
406.66	470.38
406.883	468.38
407.107	479.38
407.331	516.38
407.555	568.38
407.778	566.38
408.002	500.38
408.226	508.38
408.449	468.38
408.673	472.38
408.896	485.38
409.12	538.38
409.344	495.38
409.567	455.38
409.791	428.38
410.014	411.38
410.238	414.38
410.461	422.38
410.685	431.38
410.908	448.38
411.132	494.38
411.355	517.38
411.578	474.38
411.802	451.38
412.025	424.38
412.249	445.38
412.472	448.38
412.695	460.38
412.919	473.38
413.142	432.38
413.365	419.38
413.589	423.38
413.812	392.38
414.035	424.38
414.258	403.38
414.482	397.38
414.705	390.38
414.928	388.38
415.151	383.38
415.374	386.38
415.597	396.38
415.821	387.38
416.044	386.38
416.267	411.38
416.49	372.38
416.713	399.38
416.936	384.38
417.159	394.38
417.382	400.38
417.605	398.38
417.828	417.38
418.051	427.38
418.274	427.38
418.497	389.38
418.72	390.38
418.943	414.38
419.166	392.38
419.389	430.38
419.611	416.38
419.834	425.38
420.057	432.38
420.28	426.38
420.503	419.38
420.726	441.38
420.948	450.38
421.171	482.38
421.394	514.38
421.617	448.38
421.839	405.38
422.062	432.38
422.285	450.38
422.507	503.38
422.73	551.38
422.953	554.38
423.175	466.38
423.398	453.38
423.621	430.38
423.843	452.38
424.066	459.38
424.288	455.38
424.511	464.38
424.733	547.38
424.956	607.38
425.178	582.38
425.401	570.38
425.623	605.38
425.846	517.38
426.068	484.38
426.291	456.38
426.513	452.38
426.735	488.38
426.958	520.38
427.18	608.38
427.402	709.38
427.625	776.38
427.847	670.38
428.069	585.38
428.292	526.38
428.514	476.38
428.736	452.38
428.958	422.38
429.181	437.38
429.403	428.38
429.625	440.38
429.847	453.38
430.069	526.38
430.292	549.38
430.514	464.38
430.736	434.38
430.958	409.38
431.18	407.38
431.402	402.38
431.624	410.38
431.846	401.38
432.068	389.38
432.29	412.38
432.512	394.38
432.734	414.38
432.956	406.38
433.178	408.38
433.4	414.38
433.622	405.38
433.844	394.38
434.066	405.38
434.287	394.38
434.509	426.38
434.731	403.38
434.953	446.38
435.175	424.38
435.397	463.38
435.618	478.38
435.84	504.38
436.062	587.38
436.284	661.38
436.505	561.38
436.727	480.38
436.949	465.38
437.17	456.38
437.392	430.38
437.614	441.38
437.835	510.38
438.057	577.38
438.278	659.38
438.5	656.38
438.721	716.38
438.943	664.38
439.165	536.38
439.386	505.38
439.608	462.38
439.829	478.38
440.05	503.38
440.272	558.38
440.493	518.38
440.715	467.38
440.936	457.38
441.158	438.38
441.379	440.38
441.6	434.38
441.822	467.38
442.043	519.38
442.264	580.38
442.486	618.38
442.707	525.38
442.928	491.38
443.149	472.38
443.371	524.38
443.592	549.38
443.813	642.38
444.034	674.38
444.255	542.38
444.476	468.38
444.698	459.38
444.919	447.38
445.14	598.38
445.361	536.38
445.582	524.38
445.803	579.38
446.024	677.38
446.245	686.38
446.466	597.38
446.687	512.38
446.908	461.38
447.129	467.38
447.35	427.38
447.571	428.38
447.792	417.38
448.013	434.38
448.234	449.38
448.455	519.38
448.675	593.38
448.896	672.38
449.117	602.38
449.338	572.38
449.559	640.38
449.779	706.38
450	612.38
450.221	487.38
450.442	462.38
450.662	432.38
450.883	442.38
451.104	460.38
451.324	441.38
451.545	419.38
451.766	418.38
451.986	390.38
452.207	392.38
452.428	398.38
452.648	402.38
452.869	387.38
453.089	430.38
453.31	416.38
453.53	388.38
453.751	402.38
453.971	389.38
454.192	430.38
454.412	426.38
454.633	402.38
454.853	385.38
455.073	378.38
455.294	409.38
455.514	489.38
455.734	453.38
455.955	394.38
456.175	379.38
456.395	370.38
456.616	373.38
456.836	377.38
457.056	357.38
457.276	360.38
457.497	372.38
457.717	353.38
457.937	360.38
458.157	381.38
458.377	373.38
458.598	394.38
458.818	467.38
459.038	519.38
459.258	566.38
459.478	473.38
459.698	406.38
459.918	395.38
460.138	396.38
460.358	399.38
460.578	392.38
460.798	367.38
461.018	408.38
461.238	385.38
461.458	382.38
461.678	385.38
461.898	406.38
462.118	391.38
462.338	395.38
462.558	388.38
462.777	379.38
462.997	395.38
463.217	405.38
463.437	427.38
463.657	402.38
463.876	394.38
464.096	409.38
464.316	412.38
464.536	417.38
464.755	421.38
464.975	436.38
465.195	485.38
465.414	554.38
465.634	476.38
465.854	427.38
466.073	420.38
466.293	408.38
466.512	387.38
466.732	393.38
466.951	399.38
467.171	376.38
467.391	403.38
467.61	400.38
467.829	373.38
468.049	396.38
468.268	389.38
468.488	395.38
468.707	379.38
468.927	379.38
469.146	362.38
469.365	390.38
469.585	365.38
469.804	383.38
470.023	396.38
470.243	375.38
470.462	390.38
470.681	411.38
470.901	413.38
471.12	400.38
471.339	378.38
471.558	402.38
471.777	389.38
471.997	394.38
472.216	403.38
472.435	439.38
472.654	422.38
472.873	402.38
473.092	386.38
473.311	373.38
473.53	390.38
473.749	414.38
473.968	460.38
474.187	552.38
474.406	564.38
474.625	451.38
474.844	427.38
475.063	383.38
475.282	390.38
475.501	395.38
475.72	430.38
475.939	406.38
476.158	397.38
476.377	404.38
476.596	412.38
476.814	421.38
477.033	410.38
477.252	420.38
477.471	434.38
477.69	426.38
477.908	416.38
478.127	413.38
478.346	417.38
478.564	446.38
478.783	448.38
479.002	437.38
479.22	442.38
479.439	479.38
479.658	483.38
479.876	473.38
480.095	496.38
480.313	531.38
480.532	504.38
480.751	481.38
480.969	486.38
481.188	538.38
481.406	577.38
481.624	512.38
481.843	476.38
482.061	467.38
482.28	449.38
482.498	449.38
482.717	447.38
482.935	451.38
483.153	439.38
483.372	458.38
483.59	462.38
483.808	447.38
484.027	457.38
484.245	471.38
484.463	470.38
484.681	452.38
484.9	447.38
485.118	458.38
485.336	460.38
485.554	490.38
485.772	491.38
485.99	468.38
486.209	487.38
486.427	459.38
486.645	504.38
486.863	534.38
487.081	485.38
487.299	507.38
487.517	491.38
487.735	498.38
487.953	491.38
488.171	474.38
488.389	499.38
488.607	500.38
488.825	496.38
489.043	501.38
489.261	514.38
489.479	502.38
489.696	489.38
489.914	503.38
490.132	529.38
490.35	534.38
490.568	516.38
490.786	510.38
491.003	545.38
491.221	552.38
491.439	560.38
491.657	549.38
491.874	560.38
492.092	570.38
492.31	538.38
492.527	582.38
492.745	586.38
492.963	583.38
493.18	586.38
493.398	587.38
493.615	580.38
493.833	587.38
494.05	575.38
494.268	590.38
494.485	595.38
494.703	598.38
494.92	600.38
495.138	577.38
495.355	575.38
495.573	608.38
495.79	590.38
496.008	614.38
496.225	619.38
496.442	578.38
496.66	580.38
496.877	594.38
497.094	578.38
497.312	613.38
497.529	607.38
497.746	611.38
497.963	655.38
498.181	637.38
498.398	615.38
498.615	647.38
498.832	662.38
499.049	642.38
499.267	656.38
499.484	667.38
499.701	642.38
499.918	696.38
500.135	684.38
500.352	700.38
500.569	738.38
500.786	723.38
501.003	737.38
501.22	707.38
501.437	715.38
501.654	718.38
501.871	712.38
502.088	684.38
502.305	668.38
502.522	624.38
502.739	632.38
502.956	635.38
503.172	614.38
503.389	601.38
503.606	619.38
503.823	610.38
504.04	605.38
504.256	603.38
504.473	594.38
504.69	602.38
504.907	595.38
505.123	579.38
505.34	579.38
505.557	589.38
505.773	594.38
505.99	572.38
506.207	593.38
506.423	567.38
506.64	568.38
506.856	583.38
507.073	593.38
507.289	569.38
507.506	578.38
507.722	579.38
507.939	589.38
508.155	558.38
508.372	546.38
508.588	550.38
508.805	565.38
509.021	550.38
509.238	564.38
509.454	564.38
509.67	558.38
509.887	562.38
510.103	557.38
510.319	599.38
510.536	676.38
510.752	1127.38
510.968	922.38
511.184	611.38
511.401	561.38
511.617	553.38
511.833	536.38
512.049	536.38
512.265	523.38
512.481	529.38
512.698	528.38
512.914	505.38
513.13	528.38
513.346	522.38
513.562	524.38
513.778	544.38
513.994	534.38
514.21	545.38
514.426	592.38
514.642	598.38
514.858	646.38
515.074	703.38
515.29	865.38
515.506	1240.38
515.721	997.38
515.937	646.38
516.153	595.38
516.369	581.38
516.585	536.38
516.801	535.38
517.016	540.38
517.232	530.38
517.448	528.38
517.664	534.38
517.879	517.38
518.095	535.38
518.311	508.38
518.527	508.38
518.742	510.38
518.958	513.38
519.173	510.38
519.389	527.38
519.605	518.38
519.82	535.38
520.036	547.38
520.251	571.38
520.467	598.38
520.682	615.38
520.898	593.38
521.113	641.38
521.329	658.38
521.544	748.38
521.76	994.38
521.975	1658.38
522.19	1571.38
522.406	875.38
522.621	641.38
522.836	583.38
523.052	551.38
523.267	510.38
523.482	487.38
523.698	489.38
523.913	495.38
524.128	496.38
524.343	467.38
524.559	454.38
524.774	467.38
524.989	458.38
525.204	459.38
525.419	454.38
525.634	439.38
525.849	436.38
526.064	451.38
526.28	455.38
526.495	450.38
526.71	447.38
526.925	434.38
527.14	417.38
527.355	419.38
527.57	425.38
527.785	433.38
527.999	416.38
528.214	411.38
528.429	422.38
528.644	432.38
528.859	440.38
529.074	424.38
529.289	443.38
529.503	515.38
529.718	489.38
529.933	465.38
530.148	446.38
530.363	442.38
530.577	424.38
530.792	439.38
531.007	408.38
531.221	420.38
531.436	403.38
531.651	401.38
531.865	420.38
532.08	404.38
532.295	407.38
532.509	416.38
532.724	380.38
532.938	407.38
533.153	386.38
533.367	412.38
533.582	404.38
533.796	382.38
534.011	378.38
534.225	396.38
534.44	391.38
534.654	396.38
534.868	385.38
535.083	384.38
535.297	386.38
535.511	418.38
535.726	399.38
535.94	409.38
536.154	397.38
536.369	415.38
536.583	394.38
536.797	390.38
537.011	395.38
537.225	385.38
537.44	384.38
537.654	377.38
537.868	394.38
538.082	379.38
538.296	392.38
538.51	375.38
538.724	374.38
538.938	383.38
539.153	377.38
539.367	400.38
539.581	397.38
539.795	393.38
540.009	388.38
540.222	387.38
540.436	372.38
540.65	378.38
540.864	399.38
541.078	404.38
541.292	395.38
541.506	382.38
541.72	380.38
541.934	398.38
542.147	373.38
542.361	387.38
542.575	363.38
542.789	384.38
543.002	388.38
543.216	392.38
543.43	409.38
543.644	382.38
543.857	378.38
544.071	368.38
544.285	378.38
544.498	375.38
544.712	392.38
544.925	369.38
545.139	381.38
545.352	361.38
545.566	377.38
545.779	364.38
545.993	352.38
546.206	359.38
546.42	357.38
546.633	350.38
546.847	369.38
547.06	326.38
547.274	374.38
547.487	353.38
547.7	348.38
547.914	366.38
548.127	366.38
548.34	348.38
548.554	342.38
548.767	367.38
548.98	378.38
549.193	351.38
549.407	335.38
549.62	360.38
549.833	332.38
550.046	348.38
550.259	348.38
550.473	354.38
550.686	347.38
550.899	354.38
551.112	346.38
551.325	346.38
551.538	342.38
551.751	322.38
551.964	347.38
552.177	332.38
552.39	352.38
552.603	350.38
552.816	337.38
553.029	343.38
553.242	359.38
553.455	373.38
553.667	376.38
553.88	392.38
554.093	334.38
554.306	346.38
554.519	363.38
554.732	367.38
554.944	354.38
555.157	347.38
555.37	338.38
555.583	326.38
555.795	341.38
556.008	332.38
556.221	329.38
556.433	329.38
556.646	315.38
556.859	315.38
557.071	349.38
557.284	314.38
557.496	312.38
557.709	335.38
557.921	318.38
558.134	322.38
558.346	335.38
558.559	322.38
558.771	324.38
558.984	328.38
559.196	324.38
559.409	329.38
559.621	326.38
559.833	311.38
560.046	316.38
560.258	320.38
560.47	324.38
560.683	328.38
560.895	299.38
561.107	320.38
561.32	309.38
561.532	313.38
561.744	302.38
561.956	296.38
562.168	325.38
562.381	317.38
562.593	311.38
562.805	337.38
563.017	314.38
563.229	316.38
563.441	327.38
563.653	290.38
563.865	308.38
564.077	311.38
564.289	312.38
564.501	322.38
564.713	339.38
564.925	339.38
565.137	345.38
565.349	338.38
565.561	308.38
565.773	327.38
565.985	330.38
566.197	340.38
566.408	363.38
566.62	348.38
566.832	352.38
567.044	355.38
567.255	354.38
567.467	361.38
567.679	368.38
567.891	356.38
568.102	351.38
568.314	366.38
568.526	332.38
568.737	343.38
568.949	337.38
569.161	324.38
569.372	320.38
569.584	326.38
569.795	299.38
570.007	302.38
570.218	361.38
570.43	360.38
570.641	332.38
570.853	306.38
571.064	306.38
571.276	326.38
571.487	311.38
571.698	308.38
571.91	279.38
572.121	309.38
572.333	294.38
572.544	288.38
572.755	286.38
572.966	272.38
573.178	285.38
573.389	275.38
573.6	273.38
573.811	278.38
574.023	275.38
574.234	293.38
574.445	286.38
574.656	267.38
574.867	274.38
575.078	263.38
575.289	266.38
575.501	286.38
575.712	286.38
575.923	285.38
576.134	274.38
576.345	266.38
576.556	258.38
576.767	288.38
576.978	263.38
577.188	253.38
577.399	247.38
577.61	266.38
577.821	266.38
578.032	267.38
578.243	305.38
578.454	516.38
578.665	379.38
578.875	280.38
579.086	266.38
579.297	254.38
579.508	253.38
579.718	268.38
579.929	242.38
580.14	265.38
580.35	248.38
580.561	259.38
580.772	260.38
580.982	260.38
581.193	239.38
581.403	257.38
581.614	271.38
581.825	242.38
582.035	239.38
582.246	251.38
582.456	249.38
582.667	246.38
582.877	256.38
583.087	256.38
583.298	268.38
583.508	251.38
583.719	254.38
583.929	247.38
584.139	252.38
584.35	256.38
584.56	255.38
584.77	272.38
584.981	254.38
585.191	246.38
585.401	251.38
585.611	245.38
585.821	241.38
586.032	267.38
586.242	224.38
586.452	252.38
586.662	243.38
586.872	239.38
587.082	243.38
587.292	220.38
587.502	242.38
587.713	238.38
587.923	226.38
588.133	233.38
588.343	236.38
588.553	246.38
588.762	249.38
588.972	245.38
589.182	258.38
589.392	269.38
589.602	254.38
589.812	246.38
590.022	253.38
590.232	226.38
590.441	246.38
590.651	240.38
590.861	219.38
591.071	229.38
591.281	238.38
591.49	243.38
591.7	244.38
591.91	246.38
592.119	253.38
592.329	241.38
592.539	234.38
592.748	227.38
592.958	232.38
593.167	246.38
593.377	239.38
593.587	256.38
593.796	257.38
594.006	238.38
594.215	242.38
594.424	247.38
594.634	244.38
594.843	257.38
595.053	241.38
595.262	232.38
595.472	239.38
595.681	230.38
595.89	235.38
596.1	227.38
596.309	232.38
596.518	234.38
596.727	211.38
596.937	246.38
597.146	226.38
597.355	225.38
597.564	226.38
597.774	224.38
597.983	225.38
598.192	232.38
598.401	220.38
598.61	228.38
598.819	219.38
599.028	211.38
599.237	219.38
599.446	202.38
599.655	234.38
599.864	220.38
600.073	215.38
600.282	205.38
600.491	223.38
600.7	216.38
600.909	219.38
601.118	213.38
601.327	210.38
601.536	196.38
601.745	215.38
601.953	216.38
602.162	201.38
602.371	204.38
602.58	207.38
602.789	211.38
602.997	200.38
603.206	212.38
603.415	207.38
603.623	217.38
603.832	210.38
604.041	210.38
604.249	214.38
604.458	190.38
604.666	212.38
604.875	195.38
605.084	193.38
605.292	204.38
605.501	212.38
605.709	203.38
605.918	202.38
606.126	203.38
606.334	207.38
606.543	197.38
606.751	202.38
606.96	185.38
607.168	193.38
607.376	194.38
607.585	194.38
607.793	202.38
608.001	206.38
608.21	191.38
608.418	199.38
608.626	195.38
608.834	208.38
609.043	200.38
609.251	194.38
609.459	196.38
609.667	211.38
609.875	195.38
610.083	207.38
610.291	195.38
610.499	212.38
610.707	199.38
610.916	202.38
611.124	209.38
611.332	205.38
611.54	215.38
611.748	202.38
611.955	200.38
612.163	202.38
612.371	212.38
612.579	197.38
612.787	192.38
612.995	190.38
613.203	195.38
613.411	178.38
613.618	202.38
613.826	193.38
614.034	180.38
614.242	189.38
614.449	186.38
614.657	191.38
614.865	203.38
615.072	194.38
615.28	191.38
615.488	179.38
615.695	192.38
615.903	197.38
616.111	182.38
616.318	200.38
616.526	214.38
616.733	184.38
616.941	200.38
617.148	206.38
617.356	193.38
617.563	192.38
617.771	191.38
617.978	184.38
618.185	191.38
618.393	194.38
618.6	174.38
618.807	191.38
619.015	195.38
619.222	195.38
619.429	188.38
619.637	196.38
619.844	188.38
620.051	193.38
620.258	185.38
620.466	196.38
620.673	182.38
620.88	193.38
621.087	170.38
621.294	178.38
621.501	179.38
621.708	160.38
621.915	193.38
622.122	189.38
622.329	183.38
622.536	195.38
622.743	180.38
622.95	198.38
623.157	178.38
623.364	190.38
623.571	178.38
623.778	182.38
623.985	185.38
624.192	186.38
624.399	188.38
624.606	176.38
624.812	179.38
625.019	172.38
625.226	182.38
625.433	178.38
625.639	170.38
625.846	180.38
626.053	171.38
626.259	183.38
626.466	180.38
626.673	180.38
626.879	167.38
627.086	178.38
627.293	163.38
627.499	162.38
627.706	162.38
627.912	176.38
628.119	150.38
628.325	177.38
628.532	174.38
628.738	166.38
628.945	166.38
629.151	164.38
629.357	156.38
629.564	168.38
629.77	161.38
629.976	165.38
630.183	172.38
630.389	179.38
630.595	161.38
630.802	171.38
631.008	161.38
631.214	165.38
631.42	155.38
631.627	170.38
631.833	154.38
632.039	163.38
632.245	172.38
632.451	167.38
632.657	141.38
632.863	162.38
633.069	153.38
633.275	170.38
633.481	152.38
633.688	155.38
633.893	155.38
634.099	159.38
634.305	149.38
634.511	149.38
634.717	160.38
634.923	161.38
635.129	162.38
635.335	160.38
635.541	148.38
635.747	147.38
635.952	155.38
636.158	153.38
636.364	156.38
636.57	157.38
636.775	169.38
636.981	150.38
637.187	151.38
637.392	166.38
637.598	153.38
637.804	146.38
638.009	167.38
638.215	144.38
638.421	140.38
638.626	163.38
638.832	163.38
639.037	146.38
639.243	159.38
639.448	140.38
639.654	149.38
639.859	163.38
640.065	157.38
640.27	156.38
640.475	144.38
640.681	155.38
640.886	160.38
641.091	161.38
641.297	147.38
641.502	140.38
641.707	146.38
641.913	147.38
642.118	147.38
642.323	140.38
642.528	147.38
642.733	152.38
642.939	153.38
643.144	147.38
643.349	150.38
643.554	146.38
643.759	146.38
643.964	136.38
644.169	134.38
644.374	147.38
644.579	152.38
644.784	163.38
644.989	170.38
645.194	138.38
645.399	136.38
645.604	134.38
645.809	136.38
646.014	160.38
646.219	152.38
646.423	146.38
646.628	153.38
646.833	140.38
647.038	146.38
647.243	147.38
647.447	132.38
647.652	146.38
647.857	129.38
648.062	131.38
648.266	150.38
648.471	136.38
648.676	138.38
648.88	147.38
649.085	150.38
649.289	144.38
649.494	152.38
649.698	154.38
649.903	179.38
650.107	164.38
650.312	138.38
650.516	139.38
650.721	146.38
650.925	134.38
651.13	135.38
651.334	128.38
651.539	131.38
651.743	124.38
651.947	132.38
652.152	137.38
652.356	107.38
652.56	126.38
652.764	123.38
652.969	134.38
653.173	126.38
653.377	122.38
653.581	121.38
653.785	119.38
653.99	131.38
654.194	118.38
654.398	121.38
654.602	122.38
654.806	103.38
655.01	126.38
655.214	126.38
655.418	115.38
655.622	121.38
655.826	133.38
656.03	115.38
656.234	137.38
656.438	133.38
656.642	125.38
656.846	129.38
657.049	113.38
657.253	118.38
657.457	117.38
657.661	124.38
657.865	95.38
658.068	95.38
658.272	102.38
658.476	107.38
658.68	113.38
658.883	108.38
659.087	91.38
659.291	87.38
659.494	94.38
659.698	97.38
659.901	105.38
660.105	98.38
660.309	74.38
660.512	87.38
660.716	87.38
660.919	88.38
661.123	85.38
661.326	86.38
661.53	91.38
661.733	83.38
661.936	83.38
662.14	88.38
662.343	91.38
662.546	88.38
662.75	85.38
662.953	83.38
663.156	82.38
663.36	92.38
663.563	100.38
663.766	85.38
663.969	79.38
664.173	83.38
664.376	76.38
664.579	86.38
664.782	79.38
664.985	79.38
665.188	88.38
665.391	84.38
665.594	64.38
665.797	94.38
666	86.38
666.203	87.38
666.406	77.38
666.609	90.38
666.812	86.38
667.015	77.38
667.218	86.38
667.421	87.38
667.624	90.38
667.827	82.38
668.03	79.38
668.232	74.38
668.435	76.38
668.638	95.38
668.841	85.38
669.043	67.38
669.246	79.38
669.449	79.38
669.651	82.38
669.854	74.38
670.057	74.38
670.259	83.38
670.462	90.38
670.665	72.38
670.867	83.38
671.07	94.38
671.272	90.38
671.475	94.38
671.677	75.38
671.88	87.38
672.082	85.38
672.284	92.38
672.487	80.38
672.689	90.38
672.892	75.38
