Data from 1981.PennyLincolnUp.Lamp.En5.5.200Scan.071819.P1_HRD10591_16-40-28-958.txt Node
Date: Thu Jul 18 16:40:28 EDT 2019
User: cochatt
Spectrometer: HR+D1059
Trigger mode: 1
Integration Time (sec): 1.000000E-1
Scans to average: 1
Electric dark correction enabled: true
Nonlinearity correction enabled: false
Boxcar width: 0
XAxis mode: Wavelengths
Number of Pixels in Spectrum: 2048
>>>>>Begin Spectral Data<<<<<
223.165	-18.94
223.4	-18.94
223.635	-18.94
223.869	-14.94
224.104	-16.94
224.338	-12.94
224.573	-19.94
224.808	-12.94
225.042	-4.94
225.277	-5.94
225.511	-5.94
225.746	9.06
225.98	11.06
226.215	8.06
226.449	30.06
226.683	21.06
226.918	10.06
227.152	24.06
227.387	41.06
227.621	44.06
227.856	42.06
228.09	49.06
228.324	32.06
228.559	43.06
228.793	80.06
229.027	99.06
229.262	101.06
229.496	89.06
229.73	112.06
229.964	113.06
230.199	100.06
230.433	102.06
230.667	101.06
230.901	86.06
231.136	105.06
231.37	113.06
231.604	105.06
231.838	104.06
232.072	102.06
232.306	93.06
232.541	102.06
232.775	92.06
233.009	99.06
233.243	114.06
233.477	107.06
233.711	104.06
233.945	103.06
234.179	107.06
234.413	103.06
234.647	100.06
234.881	101.06
235.115	103.06
235.349	99.06
235.583	114.06
235.817	93.06
236.051	113.06
236.285	92.06
236.519	100.06
236.753	129.06
236.987	112.06
237.221	164.06
237.455	167.06
237.689	138.06
237.922	124.06
238.156	133.06
238.39	121.06
238.624	125.06
238.858	125.06
239.091	114.06
239.325	110.06
239.559	120.06
239.793	110.06
240.027	125.06
240.26	126.06
240.494	144.06
240.728	133.06
240.961	123.06
241.195	107.06
241.429	113.06
241.662	116.06
241.896	119.06
242.13	110.06
242.363	123.06
242.597	124.06
242.83	123.06
243.064	113.06
243.298	120.06
243.531	115.06
243.765	122.06
243.998	118.06
244.232	121.06
244.465	122.06
244.699	132.06
244.932	123.06
245.166	143.06
245.399	132.06
245.633	127.06
245.866	133.06
246.099	134.06
246.333	145.06
246.566	125.06
246.8	134.06
247.033	144.06
247.266	139.06
247.5	145.06
247.733	161.06
247.966	153.06
248.2	161.06
248.433	145.06
248.666	171.06
248.899	167.06
249.133	155.06
249.366	172.06
249.599	173.06
249.832	152.06
250.066	159.06
250.299	159.06
250.532	163.06
250.765	158.06
250.998	173.06
251.231	190.06
251.465	167.06
251.698	179.06
251.931	173.06
252.164	179.06
252.397	174.06
252.63	182.06
252.863	195.06
253.096	177.06
253.329	188.06
253.562	180.06
253.795	186.06
254.028	187.06
254.261	174.06
254.494	178.06
254.727	194.06
254.96	225.06
255.193	205.06
255.426	193.06
255.659	200.06
255.892	181.06
256.124	190.06
256.357	178.06
256.59	181.06
256.823	171.06
257.056	179.06
257.289	157.06
257.521	195.06
257.754	188.06
257.987	178.06
258.22	191.06
258.452	181.06
258.685	182.06
258.918	178.06
259.151	183.06
259.383	186.06
259.616	177.06
259.849	189.06
260.081	202.06
260.314	194.06
260.547	218.06
260.779	190.06
261.012	193.06
261.244	188.06
261.477	181.06
261.71	195.06
261.942	191.06
262.175	197.06
262.407	196.06
262.64	186.06
262.872	177.06
263.105	186.06
263.337	168.06
263.57	181.06
263.802	174.06
264.035	193.06
264.267	188.06
264.499	187.06
264.732	181.06
264.964	192.06
265.197	189.06
265.429	173.06
265.661	185.06
265.894	181.06
266.126	190.06
266.358	172.06
266.591	201.06
266.823	200.06
267.055	182.06
267.287	200.06
267.52	183.06
267.752	203.06
267.984	175.06
268.216	202.06
268.448	197.06
268.681	191.06
268.913	205.06
269.145	199.06
269.377	237.06
269.609	232.06
269.841	214.06
270.073	243.06
270.306	226.06
270.538	252.06
270.77	257.06
271.002	234.06
271.234	228.06
271.466	244.06
271.698	246.06
271.93	234.06
272.162	243.06
272.394	233.06
272.626	243.06
272.858	241.06
273.09	220.06
273.322	234.06
273.553	214.06
273.785	213.06
274.017	230.06
274.249	219.06
274.481	213.06
274.713	204.06
274.945	210.06
275.176	222.06
275.408	235.06
275.64	217.06
275.872	208.06
276.104	210.06
276.335	221.06
276.567	222.06
276.799	218.06
277.031	238.06
277.262	241.06
277.494	241.06
277.726	230.06
277.957	230.06
278.189	221.06
278.421	216.06
278.652	218.06
278.884	230.06
279.115	215.06
279.347	227.06
279.579	231.06
279.81	225.06
280.042	233.06
280.273	203.06
280.505	210.06
280.736	221.06
280.968	202.06
281.199	222.06
281.431	226.06
281.662	225.06
281.894	206.06
282.125	206.06
282.356	230.06
282.588	250.06
282.819	241.06
283.051	214.06
283.282	220.06
283.513	221.06
283.745	224.06
283.976	244.06
284.207	236.06
284.439	226.06
284.67	225.06
284.901	229.06
285.132	243.06
285.364	232.06
285.595	222.06
285.826	221.06
286.057	231.06
286.288	230.06
286.52	215.06
286.751	215.06
286.982	222.06
287.213	236.06
287.444	234.06
287.675	230.06
287.906	233.06
288.138	247.06
288.369	241.06
288.6	236.06
288.831	227.06
289.062	238.06
289.293	235.06
289.524	230.06
289.755	241.06
289.986	225.06
290.217	236.06
290.448	214.06
290.679	222.06
290.91	246.06
291.141	221.06
291.371	248.06
291.602	241.06
291.833	223.06
292.064	222.06
292.295	233.06
292.526	250.06
292.757	220.06
292.987	229.06
293.218	246.06
293.449	245.06
293.68	229.06
293.91	246.06
294.141	245.06
294.372	242.06
294.603	227.06
294.833	235.06
295.064	221.06
295.295	241.06
295.525	219.06
295.756	237.06
295.987	239.06
296.217	238.06
296.448	257.06
296.679	240.06
296.909	238.06
297.14	233.06
297.37	259.06
297.601	225.06
297.831	236.06
298.062	234.06
298.292	243.06
298.523	244.06
298.753	238.06
298.984	260.06
299.214	232.06
299.445	250.06
299.675	259.06
299.905	261.06
300.136	270.06
300.366	261.06
300.597	248.06
300.827	273.06
301.057	265.06
301.288	272.06
301.518	257.06
301.748	246.06
301.979	236.06
302.209	267.06
302.439	265.06
302.669	267.06
302.9	259.06
303.13	237.06
303.36	265.06
303.59	247.06
303.82	251.06
304.051	246.06
304.281	263.06
304.511	271.06
304.741	267.06
304.971	264.06
305.201	268.06
305.431	253.06
305.661	246.06
305.891	245.06
306.121	258.06
306.352	269.06
306.582	271.06
306.812	253.06
307.042	256.06
307.272	289.06
307.502	286.06
307.731	269.06
307.961	258.06
308.191	265.06
308.421	271.06
308.651	264.06
308.881	259.06
309.111	273.06
309.341	254.06
309.571	265.06
309.8	292.06
310.03	286.06
310.26	290.06
310.49	297.06
310.72	295.06
310.949	307.06
311.179	316.06
311.409	316.06
311.639	294.06
311.868	282.06
312.098	274.06
312.328	312.06
312.557	310.06
312.787	302.06
313.017	315.06
313.246	309.06
313.476	297.06
313.706	294.06
313.935	302.06
314.165	310.06
314.394	314.06
314.624	297.06
314.853	283.06
315.083	300.06
315.312	311.06
315.542	297.06
315.771	309.06
316.001	300.06
316.23	289.06
316.46	309.06
316.689	289.06
316.919	307.06
317.148	311.06
317.377	302.06
317.607	302.06
317.836	311.06
318.065	289.06
318.295	298.06
318.524	303.06
318.753	296.06
318.983	302.06
319.212	299.06
319.441	306.06
319.67	297.06
319.9	305.06
320.129	298.06
320.358	292.06
320.587	301.06
320.816	306.06
321.046	302.06
321.275	312.06
321.504	305.06
321.733	309.06
321.962	314.06
322.191	324.06
322.42	316.06
322.649	340.06
322.878	361.06
323.108	356.06
323.337	357.06
323.566	382.06
323.795	393.06
324.024	414.06
324.253	509.06
324.482	715.06
324.71	1056.06
324.939	1429.06
325.168	1231.06
325.397	651.06
325.626	473.06
325.855	415.06
326.084	373.06
326.313	371.06
326.542	377.06
326.77	421.06
326.999	470.06
327.228	653.06
327.457	934.06
327.686	1053.06
327.914	718.06
328.143	506.06
328.372	437.06
328.6	417.06
328.829	398.06
329.058	418.06
329.287	420.06
329.515	416.06
329.744	381.06
329.972	360.06
330.201	359.06
330.43	369.06
330.658	413.06
330.887	437.06
331.115	403.06
331.344	398.06
331.572	369.06
331.801	367.06
332.03	377.06
332.258	351.06
332.486	348.06
332.715	344.06
332.943	340.06
333.172	325.06
333.4	334.06
333.629	344.06
333.857	343.06
334.085	345.06
334.314	367.06
334.542	348.06
334.771	382.06
334.999	347.06
335.227	337.06
335.455	347.06
335.684	355.06
335.912	341.06
336.14	338.06
336.369	350.06
336.597	369.06
336.825	367.06
337.053	345.06
337.281	343.06
337.51	321.06
337.738	334.06
337.966	337.06
338.194	345.06
338.422	347.06
338.65	342.06
338.878	350.06
339.106	315.06
339.334	331.06
339.562	327.06
339.79	323.06
340.018	327.06
340.246	326.06
340.474	325.06
340.702	334.06
340.93	325.06
341.158	319.06
341.386	326.06
341.614	318.06
341.842	316.06
342.07	326.06
342.298	320.06
342.526	299.06
342.754	307.06
342.981	329.06
343.209	323.06
343.437	330.06
343.665	323.06
343.893	335.06
344.12	343.06
344.348	326.06
344.576	343.06
344.804	346.06
345.031	325.06
345.259	345.06
345.487	334.06
345.714	315.06
345.942	326.06
346.17	325.06
346.397	315.06
346.625	322.06
346.853	305.06
347.08	317.06
347.308	330.06
347.535	319.06
347.763	344.06
347.99	330.06
348.218	313.06
348.445	334.06
348.673	316.06
348.9	311.06
349.128	315.06
349.355	303.06
349.583	304.06
349.81	301.06
350.037	310.06
350.265	320.06
350.492	321.06
350.72	300.06
350.947	317.06
351.174	310.06
351.402	321.06
351.629	324.06
351.856	311.06
352.083	293.06
352.311	338.06
352.538	325.06
352.765	327.06
352.992	321.06
353.22	318.06
353.447	298.06
353.674	317.06
353.901	299.06
354.128	289.06
354.355	301.06
354.583	317.06
354.81	301.06
355.037	285.06
355.264	306.06
355.491	281.06
355.718	298.06
355.945	292.06
356.172	281.06
356.399	296.06
356.626	297.06
356.853	306.06
357.08	317.06
357.307	294.06
357.534	305.06
357.761	295.06
357.988	303.06
358.215	301.06
358.441	295.06
358.668	308.06
358.895	307.06
359.122	305.06
359.349	289.06
359.576	313.06
359.802	318.06
360.029	323.06
360.256	348.06
360.483	334.06
360.709	318.06
360.936	290.06
361.163	308.06
361.39	310.06
361.616	312.06
361.843	321.06
362.07	311.06
362.296	297.06
362.523	287.06
362.749	319.06
362.976	310.06
363.203	311.06
363.429	300.06
363.656	310.06
363.882	314.06
364.109	309.06
364.335	285.06
364.562	304.06
364.788	292.06
365.015	311.06
365.241	309.06
365.468	317.06
365.694	307.06
365.92	314.06
366.147	292.06
366.373	305.06
366.599	308.06
366.826	297.06
367.052	279.06
367.278	297.06
367.505	306.06
367.731	305.06
367.957	310.06
368.184	293.06
368.41	292.06
368.636	309.06
368.862	315.06
369.089	310.06
369.315	306.06
369.541	296.06
369.767	293.06
369.993	306.06
370.219	295.06
370.445	302.06
370.672	290.06
370.898	305.06
371.124	283.06
371.35	310.06
371.576	273.06
371.802	302.06
372.028	309.06
372.254	316.06
372.48	289.06
372.706	295.06
372.932	300.06
373.158	302.06
373.384	294.06
373.61	282.06
373.835	301.06
374.061	302.06
374.287	299.06
374.513	294.06
374.739	297.06
374.965	299.06
375.191	320.06
375.416	287.06
375.642	295.06
375.868	307.06
376.094	315.06
376.319	300.06
376.545	308.06
376.771	299.06
376.997	291.06
377.222	306.06
377.448	291.06
377.674	283.06
377.899	306.06
378.125	301.06
378.35	304.06
378.576	282.06
378.802	287.06
379.027	300.06
379.253	280.06
379.478	284.06
379.704	310.06
379.929	290.06
380.155	310.06
380.38	286.06
380.606	307.06
380.831	309.06
381.057	314.06
381.282	294.06
381.507	291.06
381.733	288.06
381.958	314.06
382.184	306.06
382.409	282.06
382.634	291.06
382.86	296.06
383.085	302.06
383.31	302.06
383.535	294.06
383.761	305.06
383.986	322.06
384.211	306.06
384.436	311.06
384.662	295.06
384.887	302.06
385.112	312.06
385.337	307.06
385.562	317.06
385.787	295.06
386.013	337.06
386.238	339.06
386.463	307.06
386.688	303.06
386.913	301.06
387.138	309.06
387.363	315.06
387.588	290.06
387.813	324.06
388.038	299.06
388.263	309.06
388.488	315.06
388.713	303.06
388.938	310.06
389.163	321.06
389.387	315.06
389.612	312.06
389.837	316.06
390.062	310.06
390.287	302.06
390.512	305.06
390.736	302.06
390.961	313.06
391.186	329.06
391.411	309.06
391.636	311.06
391.86	309.06
392.085	307.06
392.31	327.06
392.534	328.06
392.759	314.06
392.984	307.06
393.208	308.06
393.433	313.06
393.658	301.06
393.882	312.06
394.107	308.06
394.331	311.06
394.556	306.06
394.78	321.06
395.005	313.06
395.229	353.06
395.454	314.06
395.678	318.06
395.903	325.06
396.127	329.06
396.352	345.06
396.576	315.06
396.801	313.06
397.025	328.06
397.249	323.06
397.474	356.06
397.698	343.06
397.922	351.06
398.147	336.06
398.371	326.06
398.595	333.06
398.82	355.06
399.044	338.06
399.268	373.06
399.492	355.06
399.717	381.06
399.941	395.06
400.165	407.06
400.389	425.06
400.613	388.06
400.837	384.06
401.062	369.06
401.286	350.06
401.51	335.06
401.734	329.06
401.958	356.06
402.182	361.06
402.406	360.06
402.63	372.06
402.854	343.06
403.078	345.06
403.302	330.06
403.526	353.06
403.75	355.06
403.974	330.06
404.198	339.06
404.422	350.06
404.645	350.06
404.869	331.06
405.093	360.06
405.317	380.06
405.541	409.06
405.765	381.06
405.988	367.06
406.212	354.06
406.436	374.06
406.66	391.06
406.883	390.06
407.107	379.06
407.331	423.06
407.555	443.06
407.778	458.06
408.002	417.06
408.226	390.06
408.449	384.06
408.673	379.06
408.896	399.06
409.12	428.06
409.344	402.06
409.567	346.06
409.791	370.06
410.014	357.06
410.238	343.06
410.461	387.06
410.685	373.06
410.908	351.06
411.132	381.06
411.355	391.06
411.578	392.06
411.802	341.06
412.025	360.06
412.249	346.06
412.472	354.06
412.695	373.06
412.919	375.06
413.142	356.06
413.365	354.06
413.589	344.06
413.812	333.06
414.035	337.06
414.258	338.06
414.482	329.06
414.705	331.06
414.928	323.06
415.151	309.06
415.374	337.06
415.597	332.06
415.821	331.06
416.044	323.06
416.267	341.06
416.49	330.06
416.713	350.06
416.936	342.06
417.159	338.06
417.382	334.06
417.605	328.06
417.828	341.06
418.051	351.06
418.274	330.06
418.497	326.06
418.72	350.06
418.943	311.06
419.166	329.06
419.389	360.06
419.611	340.06
419.834	347.06
420.057	349.06
420.28	353.06
420.503	344.06
420.726	342.06
420.948	358.06
421.171	383.06
421.394	393.06
421.617	375.06
421.839	341.06
422.062	351.06
422.285	342.06
422.507	362.06
422.73	415.06
422.953	409.06
423.175	365.06
423.398	368.06
423.621	358.06
423.843	355.06
424.066	375.06
424.288	389.06
424.511	387.06
424.733	434.06
424.956	459.06
425.178	455.06
425.401	425.06
425.623	447.06
425.846	405.06
426.068	377.06
426.291	360.06
426.513	361.06
426.735	382.06
426.958	417.06
427.18	450.06
427.402	531.06
427.625	569.06
427.847	529.06
428.069	422.06
428.292	402.06
428.514	371.06
428.736	349.06
428.958	346.06
429.181	341.06
429.403	342.06
429.625	351.06
429.847	364.06
430.069	420.06
430.292	394.06
430.514	341.06
430.736	341.06
430.958	345.06
431.18	319.06
431.402	334.06
431.624	334.06
431.846	322.06
432.068	332.06
432.29	325.06
432.512	318.06
432.734	334.06
432.956	333.06
433.178	327.06
433.4	347.06
433.622	342.06
433.844	344.06
434.066	333.06
434.287	346.06
434.509	334.06
434.731	340.06
434.953	330.06
435.175	342.06
435.397	363.06
435.618	368.06
435.84	396.06
436.062	454.06
436.284	490.06
436.505	406.06
436.727	355.06
436.949	357.06
437.17	336.06
437.392	354.06
437.614	376.06
437.835	385.06
438.057	430.06
438.278	505.06
438.5	513.06
438.721	556.06
438.943	529.06
439.165	414.06
439.386	393.06
439.608	381.06
439.829	379.06
440.05	374.06
440.272	414.06
440.493	397.06
440.715	377.06
440.936	344.06
441.158	353.06
441.379	329.06
441.6	348.06
441.822	349.06
442.043	381.06
442.264	449.06
442.486	481.06
442.707	411.06
442.928	386.06
443.149	380.06
443.371	401.06
443.592	450.06
443.813	475.06
444.034	524.06
444.255	450.06
444.476	407.06
444.698	365.06
444.919	361.06
445.14	454.06
445.361	435.06
445.582	402.06
445.803	444.06
446.024	486.06
446.245	487.06
446.466	466.06
446.687	393.06
446.908	385.06
447.129	365.06
447.35	364.06
447.571	352.06
447.792	358.06
448.013	347.06
448.234	365.06
448.455	394.06
448.675	479.06
448.896	546.06
449.117	449.06
449.338	435.06
449.559	507.06
449.779	553.06
450	460.06
450.221	377.06
450.442	356.06
450.662	332.06
450.883	324.06
451.104	335.06
451.324	339.06
451.545	321.06
451.766	319.06
451.986	306.06
452.207	324.06
452.428	316.06
452.648	312.06
452.869	317.06
453.089	321.06
453.31	327.06
453.53	317.06
453.751	332.06
453.971	309.06
454.192	313.06
454.412	313.06
454.633	320.06
454.853	314.06
455.073	309.06
455.294	309.06
455.514	369.06
455.734	358.06
455.955	309.06
456.175	322.06
456.395	289.06
456.616	300.06
456.836	307.06
457.056	310.06
457.276	292.06
457.497	296.06
457.717	296.06
457.937	295.06
458.157	303.06
458.377	300.06
458.598	331.06
458.818	349.06
459.038	406.06
459.258	403.06
459.478	338.06
459.698	337.06
459.918	323.06
460.138	324.06
460.358	320.06
460.578	336.06
460.798	346.06
461.018	324.06
461.238	319.06
461.458	344.06
461.678	316.06
461.898	338.06
462.118	330.06
462.338	339.06
462.558	343.06
462.777	336.06
462.997	357.06
463.217	344.06
463.437	369.06
463.657	342.06
463.876	357.06
464.096	364.06
464.316	325.06
464.536	333.06
464.755	377.06
464.975	365.06
465.195	366.06
465.414	398.06
465.634	359.06
465.854	336.06
466.073	341.06
466.293	322.06
466.512	323.06
466.732	290.06
466.951	331.06
467.171	311.06
467.391	338.06
467.61	329.06
467.829	331.06
468.049	327.06
468.268	299.06
468.488	309.06
468.707	334.06
468.927	317.06
469.146	303.06
469.365	325.06
469.585	317.06
469.804	313.06
470.023	331.06
470.243	317.06
470.462	358.06
470.681	334.06
470.901	334.06
471.12	334.06
471.339	312.06
471.558	309.06
471.777	315.06
471.997	294.06
472.216	329.06
472.435	330.06
472.654	324.06
472.873	326.06
473.092	318.06
473.311	319.06
473.53	323.06
473.749	343.06
473.968	372.06
474.187	414.06
474.406	420.06
474.625	359.06
474.844	343.06
475.063	330.06
475.282	330.06
475.501	323.06
475.72	328.06
475.939	343.06
476.158	335.06
476.377	335.06
476.596	327.06
476.814	330.06
477.033	331.06
477.252	343.06
477.471	345.06
477.69	348.06
477.908	347.06
478.127	345.06
478.346	333.06
478.564	362.06
478.783	351.06
479.002	380.06
479.22	359.06
479.439	375.06
479.658	378.06
479.876	379.06
480.095	394.06
480.313	409.06
480.532	378.06
480.751	381.06
480.969	412.06
481.188	399.06
481.406	419.06
481.624	378.06
481.843	379.06
482.061	372.06
482.28	399.06
482.498	371.06
482.717	367.06
482.935	371.06
483.153	362.06
483.372	377.06
483.59	385.06
483.808	376.06
484.027	384.06
484.245	379.06
484.463	374.06
484.681	391.06
484.9	379.06
485.118	390.06
485.336	388.06
485.554	371.06
485.772	380.06
485.99	391.06
486.209	397.06
486.427	392.06
486.645	406.06
486.863	398.06
487.081	393.06
487.299	389.06
487.517	390.06
487.735	384.06
487.953	388.06
488.171	392.06
488.389	412.06
488.607	404.06
488.825	393.06
489.043	401.06
489.261	411.06
489.479	417.06
489.696	402.06
489.914	387.06
490.132	418.06
490.35	407.06
490.568	403.06
490.786	440.06
491.003	419.06
491.221	422.06
491.439	447.06
491.657	440.06
491.874	438.06
492.092	441.06
492.31	430.06
492.527	427.06
492.745	454.06
492.963	447.06
493.18	457.06
493.398	447.06
493.615	460.06
493.833	453.06
494.05	449.06
494.268	468.06
494.485	451.06
494.703	454.06
494.92	464.06
495.138	439.06
495.355	473.06
495.573	465.06
495.79	464.06
496.008	482.06
496.225	489.06
496.442	474.06
496.66	486.06
496.877	448.06
497.094	478.06
497.312	463.06
497.529	482.06
497.746	485.06
497.963	505.06
498.181	526.06
498.398	493.06
498.615	498.06
498.832	542.06
499.049	545.06
499.267	521.06
499.484	549.06
499.701	561.06
499.918	567.06
500.135	598.06
500.352	618.06
500.569	596.06
500.786	611.06
501.003	621.06
501.22	599.06
501.437	589.06
501.654	577.06
501.871	574.06
502.088	566.06
502.305	545.06
502.522	525.06
502.739	520.06
502.956	508.06
503.172	485.06
503.389	491.06
503.606	490.06
503.823	476.06
504.04	476.06
504.256	471.06
504.473	470.06
504.69	473.06
504.907	483.06
505.123	487.06
505.34	465.06
505.557	435.06
505.773	465.06
505.99	459.06
506.207	473.06
506.423	448.06
506.64	468.06
506.856	455.06
507.073	442.06
507.289	449.06
507.506	433.06
507.722	475.06
507.939	463.06
508.155	438.06
508.372	457.06
508.588	420.06
508.805	432.06
509.021	416.06
509.238	449.06
509.454	441.06
509.67	429.06
509.887	431.06
510.103	439.06
510.319	425.06
510.536	484.06
510.752	726.06
510.968	593.06
511.184	445.06
511.401	439.06
511.617	418.06
511.833	396.06
512.049	402.06
512.265	389.06
512.481	395.06
512.698	399.06
512.914	432.06
513.13	401.06
513.346	392.06
513.562	403.06
513.778	390.06
513.994	414.06
514.21	410.06
514.426	431.06
514.642	474.06
514.858	467.06
515.074	486.06
515.29	566.06
515.506	773.06
515.721	633.06
515.937	503.06
516.153	440.06
516.369	429.06
516.585	433.06
516.801	427.06
517.016	414.06
517.232	397.06
517.448	399.06
517.664	425.06
517.879	403.06
518.095	411.06
518.311	419.06
518.527	406.06
518.742	405.06
518.958	413.06
519.173	415.06
519.389	396.06
519.605	390.06
519.82	399.06
520.036	411.06
520.251	416.06
520.467	444.06
520.682	418.06
520.898	439.06
521.113	442.06
521.329	488.06
521.544	517.06
521.76	627.06
521.975	973.06
522.19	945.06
522.406	551.06
522.621	452.06
522.836	418.06
523.052	407.06
523.267	410.06
523.482	378.06
523.698	378.06
523.913	391.06
524.128	380.06
524.343	366.06
524.559	358.06
524.774	362.06
524.989	350.06
525.204	347.06
525.419	363.06
525.634	353.06
525.849	370.06
526.064	355.06
526.28	350.06
526.495	350.06
526.71	331.06
526.925	350.06
527.14	359.06
527.355	347.06
527.57	335.06
527.785	342.06
527.999	338.06
528.214	338.06
528.429	332.06
528.644	329.06
528.859	346.06
529.074	350.06
529.289	349.06
529.503	399.06
529.718	374.06
529.933	357.06
530.148	343.06
530.363	342.06
530.577	357.06
530.792	335.06
531.007	334.06
531.221	337.06
531.436	344.06
531.651	319.06
531.865	326.06
532.08	318.06
532.295	323.06
532.509	329.06
532.724	326.06
532.938	343.06
533.153	339.06
533.367	324.06
533.582	326.06
533.796	319.06
534.011	325.06
534.225	317.06
534.44	328.06
534.654	339.06
534.868	314.06
535.083	335.06
535.297	326.06
535.511	332.06
535.726	334.06
535.94	327.06
536.154	343.06
536.369	326.06
536.583	307.06
536.797	319.06
537.011	326.06
537.225	321.06
537.44	329.06
537.654	325.06
537.868	307.06
538.082	316.06
538.296	340.06
538.51	309.06
538.724	329.06
538.938	298.06
539.153	346.06
539.367	330.06
539.581	319.06
539.795	313.06
540.009	317.06
540.222	309.06
540.436	317.06
540.65	310.06
540.864	323.06
541.078	349.06
541.292	341.06
541.506	311.06
541.72	326.06
541.934	317.06
542.147	346.06
542.361	314.06
542.575	327.06
542.789	313.06
543.002	319.06
543.216	339.06
543.43	321.06
543.644	323.06
543.857	309.06
544.071	319.06
544.285	324.06
544.498	315.06
544.712	323.06
544.925	321.06
545.139	318.06
545.352	306.06
545.566	309.06
545.779	306.06
545.993	302.06
546.206	326.06
546.42	325.06
546.633	325.06
546.847	318.06
547.06	307.06
547.274	305.06
547.487	301.06
547.7	311.06
547.914	309.06
548.127	283.06
548.34	299.06
548.554	309.06
548.767	317.06
548.98	308.06
549.193	302.06
549.407	313.06
549.62	317.06
549.833	300.06
550.046	308.06
550.259	290.06
550.473	291.06
550.686	309.06
550.899	302.06
551.112	287.06
551.325	294.06
551.538	322.06
551.751	298.06
551.964	291.06
552.177	292.06
552.39	305.06
552.603	297.06
552.816	315.06
553.029	300.06
553.242	331.06
553.455	317.06
553.667	295.06
553.88	311.06
554.093	306.06
554.306	296.06
554.519	314.06
554.732	295.06
554.944	294.06
555.157	291.06
555.37	275.06
555.583	298.06
555.795	301.06
556.008	295.06
556.221	285.06
556.433	289.06
556.646	284.06
556.859	290.06
557.071	288.06
557.284	271.06
557.496	266.06
557.709	265.06
557.921	271.06
558.134	261.06
558.346	258.06
558.559	268.06
558.771	276.06
558.984	272.06
559.196	274.06
559.409	272.06
559.621	272.06
559.833	282.06
560.046	269.06
560.258	282.06
560.47	267.06
560.683	277.06
560.895	277.06
561.107	274.06
561.32	269.06
561.532	276.06
561.744	277.06
561.956	268.06
562.168	269.06
562.381	283.06
562.593	286.06
562.805	262.06
563.017	270.06
563.229	276.06
563.441	279.06
563.653	293.06
563.865	287.06
564.077	273.06
564.289	274.06
564.501	284.06
564.713	298.06
564.925	284.06
565.137	283.06
565.349	313.06
565.561	279.06
565.773	278.06
565.985	289.06
566.197	274.06
566.408	314.06
566.62	293.06
566.832	297.06
567.044	314.06
567.255	329.06
567.467	337.06
567.679	329.06
567.891	323.06
568.102	322.06
568.314	303.06
568.526	308.06
568.737	310.06
568.949	295.06
569.161	286.06
569.372	301.06
569.584	272.06
569.795	286.06
570.007	286.06
570.218	309.06
570.43	287.06
570.641	277.06
570.853	278.06
571.064	275.06
571.276	265.06
571.487	261.06
571.698	241.06
571.91	262.06
572.121	259.06
572.333	242.06
572.544	257.06
572.755	236.06
572.966	253.06
573.178	265.06
573.389	248.06
573.6	238.06
573.811	235.06
574.023	240.06
574.234	241.06
574.445	246.06
574.656	243.06
574.867	238.06
575.078	244.06
575.289	245.06
575.501	234.06
575.712	242.06
575.923	221.06
576.134	225.06
576.345	231.06
576.556	241.06
576.767	233.06
576.978	245.06
577.188	258.06
577.399	218.06
577.61	237.06
577.821	230.06
578.032	237.06
578.243	255.06
578.454	359.06
578.665	291.06
578.875	227.06
579.086	232.06
579.297	237.06
579.508	247.06
579.718	221.06
579.929	228.06
580.14	226.06
580.35	232.06
580.561	231.06
580.772	244.06
580.982	241.06
581.193	229.06
581.403	222.06
581.614	222.06
581.825	223.06
582.035	231.06
582.246	210.06
582.456	203.06
582.667	225.06
582.877	223.06
583.087	208.06
583.298	229.06
583.508	209.06
583.719	228.06
583.929	220.06
584.139	220.06
584.35	241.06
584.56	226.06
584.77	221.06
584.981	227.06
585.191	214.06
585.401	219.06
585.611	210.06
585.821	226.06
586.032	213.06
586.242	215.06
586.452	211.06
586.662	216.06
586.872	224.06
587.082	213.06
587.292	227.06
587.502	229.06
587.713	212.06
587.923	205.06
588.133	228.06
588.343	202.06
588.553	223.06
588.762	227.06
588.972	220.06
589.182	298.06
589.392	295.06
589.602	228.06
589.812	284.06
590.022	242.06
590.232	209.06
590.441	229.06
590.651	222.06
590.861	212.06
591.071	210.06
591.281	214.06
591.49	224.06
591.7	217.06
591.91	219.06
592.119	215.06
592.329	203.06
592.539	227.06
592.748	238.06
592.958	220.06
593.167	208.06
593.377	211.06
593.587	226.06
593.796	227.06
594.006	227.06
594.215	232.06
594.424	214.06
594.634	218.06
594.843	218.06
595.053	229.06
595.262	229.06
595.472	217.06
595.681	220.06
595.89	214.06
596.1	216.06
596.309	213.06
596.518	191.06
596.727	195.06
596.937	195.06
597.146	213.06
597.355	207.06
597.564	222.06
597.774	205.06
597.983	207.06
598.192	187.06
598.401	226.06
598.61	216.06
598.819	201.06
599.028	200.06
599.237	198.06
599.446	192.06
599.655	204.06
599.864	200.06
600.073	200.06
600.282	197.06
600.491	202.06
600.7	201.06
600.909	183.06
601.118	197.06
601.327	182.06
601.536	198.06
601.745	192.06
601.953	196.06
602.162	193.06
602.371	193.06
602.58	190.06
602.789	164.06
602.997	186.06
603.206	194.06
603.415	197.06
603.623	186.06
603.832	199.06
604.041	186.06
604.249	179.06
604.458	182.06
604.666	182.06
604.875	187.06
605.084	171.06
605.292	177.06
605.501	181.06
605.709	186.06
605.918	185.06
606.126	188.06
606.334	178.06
606.543	194.06
606.751	174.06
606.96	177.06
607.168	169.06
607.376	181.06
607.585	180.06
607.793	178.06
608.001	179.06
608.21	188.06
608.418	202.06
608.626	177.06
608.834	200.06
609.043	178.06
609.251	175.06
609.459	179.06
609.667	173.06
609.875	187.06
610.083	172.06
610.291	181.06
610.499	200.06
610.707	179.06
610.916	180.06
611.124	183.06
611.332	179.06
611.54	190.06
611.748	199.06
611.955	213.06
612.163	177.06
612.371	186.06
612.579	179.06
612.787	178.06
612.995	188.06
613.203	199.06
613.411	181.06
613.618	179.06
613.826	169.06
614.034	187.06
614.242	197.06
614.449	183.06
614.657	150.06
614.865	191.06
615.072	169.06
615.28	194.06
615.488	171.06
615.695	185.06
615.903	182.06
616.111	181.06
616.318	170.06
616.526	177.06
616.733	177.06
616.941	157.06
617.148	164.06
617.356	177.06
617.563	179.06
617.771	185.06
617.978	183.06
618.185	189.06
618.393	188.06
618.6	186.06
618.807	169.06
619.015	187.06
619.222	181.06
619.429	166.06
619.637	181.06
619.844	191.06
620.051	169.06
620.258	172.06
620.466	170.06
620.673	149.06
620.88	160.06
621.087	164.06
621.294	170.06
621.501	160.06
621.708	180.06
621.915	171.06
622.122	181.06
622.329	181.06
622.536	170.06
622.743	179.06
622.95	172.06
623.157	161.06
623.364	157.06
623.571	165.06
623.778	157.06
623.985	161.06
624.192	161.06
624.399	167.06
624.606	161.06
624.812	174.06
625.019	164.06
625.226	166.06
625.433	172.06
625.639	164.06
625.846	170.06
626.053	171.06
626.259	157.06
626.466	163.06
626.673	171.06
626.879	175.06
627.086	152.06
627.293	164.06
627.499	140.06
627.706	179.06
627.912	162.06
628.119	161.06
628.325	157.06
628.532	159.06
628.738	153.06
628.945	149.06
629.151	155.06
629.357	155.06
629.564	149.06
629.77	153.06
629.976	153.06
630.183	167.06
630.389	147.06
630.595	152.06
630.802	152.06
631.008	175.06
631.214	156.06
631.42	153.06
631.627	163.06
631.833	158.06
632.039	155.06
632.245	145.06
632.451	139.06
632.657	145.06
632.863	141.06
633.069	143.06
633.275	146.06
633.481	161.06
633.688	152.06
633.893	162.06
634.099	157.06
634.305	137.06
634.511	143.06
634.717	149.06
634.923	150.06
635.129	152.06
635.335	134.06
635.541	140.06
635.747	153.06
635.952	138.06
636.158	150.06
636.364	153.06
636.57	149.06
636.775	148.06
636.981	164.06
637.187	154.06
637.392	132.06
637.598	143.06
637.804	156.06
638.009	142.06
638.215	153.06
638.421	147.06
638.626	131.06
638.832	130.06
639.037	140.06
639.243	135.06
639.448	145.06
639.654	144.06
639.859	142.06
640.065	138.06
640.27	162.06
640.475	131.06
640.681	149.06
640.886	145.06
641.091	144.06
641.297	137.06
641.502	154.06
641.707	134.06
641.913	145.06
642.118	142.06
642.323	147.06
642.528	137.06
642.733	138.06
642.939	150.06
643.144	159.06
643.349	139.06
643.554	144.06
643.759	142.06
643.964	128.06
644.169	151.06
644.374	143.06
644.579	135.06
644.784	139.06
644.989	151.06
645.194	137.06
645.399	145.06
645.604	135.06
645.809	153.06
646.014	138.06
646.219	133.06
646.423	141.06
646.628	134.06
646.833	135.06
647.038	134.06
647.243	137.06
647.447	137.06
647.652	129.06
647.857	136.06
648.062	141.06
648.266	126.06
648.471	123.06
648.676	135.06
648.88	134.06
649.085	137.06
649.289	141.06
649.494	140.06
649.698	163.06
649.903	126.06
650.107	132.06
650.312	133.06
650.516	121.06
650.721	146.06
650.925	123.06
651.13	129.06
651.334	130.06
651.539	134.06
651.743	134.06
651.947	131.06
652.152	140.06
652.356	123.06
652.56	108.06
652.764	123.06
652.969	123.06
653.173	134.06
653.377	137.06
653.581	108.06
653.785	129.06
653.99	125.06
654.194	139.06
654.398	118.06
654.602	124.06
654.806	127.06
655.01	134.06
655.214	122.06
655.418	109.06
655.622	121.06
655.826	119.06
656.03	127.06
656.234	121.06
656.438	125.06
656.642	126.06
656.846	129.06
657.049	115.06
657.253	114.06
657.457	114.06
657.661	95.06
657.865	114.06
658.068	110.06
658.272	92.06
658.476	112.06
658.68	113.06
658.883	79.06
659.087	107.06
659.291	94.06
659.494	99.06
659.698	106.06
659.901	93.06
660.105	101.06
660.309	99.06
660.512	100.06
660.716	101.06
660.919	89.06
661.123	82.06
661.326	91.06
661.53	95.06
661.733	84.06
661.936	94.06
662.14	85.06
662.343	87.06
662.546	91.06
662.75	85.06
662.953	90.06
663.156	102.06
663.36	95.06
663.563	85.06
663.766	85.06
663.969	81.06
664.173	75.06
664.376	80.06
664.579	83.06
664.782	96.06
664.985	78.06
665.188	86.06
665.391	82.06
665.594	98.06
665.797	69.06
666	84.06
666.203	67.06
666.406	85.06
666.609	94.06
666.812	95.06
667.015	94.06
667.218	83.06
667.421	80.06
667.624	83.06
667.827	84.06
668.03	87.06
668.232	89.06
668.435	91.06
668.638	73.06
668.841	78.06
669.043	75.06
669.246	90.06
669.449	94.06
669.651	78.06
669.854	84.06
670.057	89.06
670.259	75.06
670.462	80.06
670.665	95.06
670.867	86.06
671.07	101.06
671.272	84.06
671.475	91.06
671.677	80.06
671.88	84.06
672.082	82.06
672.284	69.06
672.487	69.06
672.689	82.06
672.892	73.06
