Data from 1981.PennyLincolnUp.Lamp.En5.5.200Scan.071819.P1_HRD10591_16-40-26-959.txt Node
Date: Thu Jul 18 16:40:26 EDT 2019
User: cochatt
Spectrometer: HR+D1059
Trigger mode: 1
Integration Time (sec): 1.000000E-1
Scans to average: 1
Electric dark correction enabled: true
Nonlinearity correction enabled: false
Boxcar width: 0
XAxis mode: Wavelengths
Number of Pixels in Spectrum: 2048
>>>>>Begin Spectral Data<<<<<
223.165	-4.94
223.4	-4.94
223.635	-4.94
223.869	-18.94
224.104	-15.94
224.338	-12.94
224.573	-11.94
224.808	-8.94
225.042	-11.94
225.277	-12.94
225.511	-5.94
225.746	11.06
225.98	3.06
226.215	8.06
226.449	12.06
226.683	12.06
226.918	18.06
227.152	40.06
227.387	13.06
227.621	22.06
227.856	33.06
228.09	47.06
228.324	54.06
228.559	44.06
228.793	55.06
229.027	81.06
229.262	96.06
229.496	107.06
229.73	119.06
229.964	125.06
230.199	105.06
230.433	85.06
230.667	96.06
230.901	91.06
231.136	89.06
231.37	107.06
231.604	105.06
231.838	87.06
232.072	102.06
232.306	103.06
232.541	103.06
232.775	102.06
233.009	99.06
233.243	98.06
233.477	102.06
233.711	111.06
233.945	99.06
234.179	106.06
234.413	112.06
234.647	109.06
234.881	104.06
235.115	116.06
235.349	99.06
235.583	99.06
235.817	99.06
236.051	95.06
236.285	97.06
236.519	98.06
236.753	119.06
236.987	122.06
237.221	135.06
237.455	167.06
237.689	143.06
237.922	116.06
238.156	109.06
238.39	107.06
238.624	113.06
238.858	105.06
239.091	107.06
239.325	103.06
239.559	101.06
239.793	93.06
240.027	105.06
240.26	129.06
240.494	129.06
240.728	121.06
240.961	116.06
241.195	123.06
241.429	102.06
241.662	102.06
241.896	116.06
242.13	117.06
242.363	121.06
242.597	120.06
242.83	121.06
243.064	121.06
243.298	122.06
243.531	114.06
243.765	115.06
243.998	113.06
244.232	119.06
244.465	125.06
244.699	122.06
244.932	104.06
245.166	125.06
245.399	129.06
245.633	121.06
245.866	129.06
246.099	134.06
246.333	122.06
246.566	127.06
246.8	124.06
247.033	137.06
247.266	133.06
247.5	123.06
247.733	139.06
247.966	147.06
248.2	147.06
248.433	149.06
248.666	145.06
248.899	152.06
249.133	175.06
249.366	157.06
249.599	149.06
249.832	148.06
250.066	145.06
250.299	137.06
250.532	152.06
250.765	170.06
250.998	170.06
251.231	186.06
251.465	181.06
251.698	171.06
251.931	153.06
252.164	170.06
252.397	163.06
252.63	153.06
252.863	175.06
253.096	177.06
253.329	168.06
253.562	171.06
253.795	185.06
254.028	169.06
254.261	181.06
254.494	182.06
254.727	197.06
254.96	208.06
255.193	183.06
255.426	199.06
255.659	188.06
255.892	187.06
256.124	176.06
256.357	184.06
256.59	188.06
256.823	154.06
257.056	167.06
257.289	154.06
257.521	175.06
257.754	170.06
257.987	164.06
258.22	192.06
258.452	186.06
258.685	156.06
258.918	167.06
259.151	173.06
259.383	171.06
259.616	181.06
259.849	187.06
260.081	185.06
260.314	181.06
260.547	214.06
260.779	185.06
261.012	160.06
261.244	181.06
261.477	190.06
261.71	186.06
261.942	186.06
262.175	201.06
262.407	182.06
262.64	156.06
262.872	159.06
263.105	184.06
263.337	167.06
263.57	187.06
263.802	175.06
264.035	173.06
264.267	159.06
264.499	186.06
264.732	168.06
264.964	185.06
265.197	176.06
265.429	161.06
265.661	171.06
265.894	173.06
266.126	188.06
266.358	188.06
266.591	193.06
266.823	180.06
267.055	187.06
267.287	197.06
267.52	167.06
267.752	185.06
267.984	175.06
268.216	172.06
268.448	188.06
268.681	192.06
268.913	225.06
269.145	211.06
269.377	214.06
269.609	199.06
269.841	205.06
270.073	229.06
270.306	237.06
270.538	246.06
270.77	241.06
271.002	227.06
271.234	233.06
271.466	226.06
271.698	233.06
271.93	238.06
272.162	243.06
272.394	238.06
272.626	220.06
272.858	218.06
273.09	218.06
273.322	226.06
273.553	196.06
273.785	213.06
274.017	228.06
274.249	215.06
274.481	215.06
274.713	219.06
274.945	229.06
275.176	207.06
275.408	209.06
275.64	209.06
275.872	225.06
276.104	218.06
276.335	217.06
276.567	202.06
276.799	234.06
277.031	239.06
277.262	233.06
277.494	249.06
277.726	240.06
277.957	247.06
278.189	226.06
278.421	207.06
278.652	209.06
278.884	209.06
279.115	229.06
279.347	200.06
279.579	228.06
279.81	233.06
280.042	228.06
280.273	200.06
280.505	230.06
280.736	217.06
280.968	212.06
281.199	217.06
281.431	206.06
281.662	221.06
281.894	219.06
282.125	225.06
282.356	227.06
282.588	230.06
282.819	232.06
283.051	220.06
283.282	217.06
283.513	220.06
283.745	231.06
283.976	199.06
284.207	227.06
284.439	219.06
284.67	200.06
284.901	225.06
285.132	219.06
285.364	221.06
285.595	218.06
285.826	213.06
286.057	223.06
286.288	214.06
286.52	232.06
286.751	212.06
286.982	218.06
287.213	206.06
287.444	223.06
287.675	223.06
287.906	234.06
288.138	247.06
288.369	245.06
288.6	217.06
288.831	230.06
289.062	239.06
289.293	231.06
289.524	238.06
289.755	229.06
289.986	243.06
290.217	219.06
290.448	224.06
290.679	219.06
290.91	213.06
291.141	234.06
291.371	209.06
291.602	231.06
291.833	220.06
292.064	220.06
292.295	224.06
292.526	235.06
292.757	213.06
292.987	225.06
293.218	234.06
293.449	224.06
293.68	236.06
293.91	226.06
294.141	218.06
294.372	216.06
294.603	235.06
294.833	221.06
295.064	243.06
295.295	211.06
295.525	228.06
295.756	240.06
295.987	247.06
296.217	231.06
296.448	274.06
296.679	244.06
296.909	229.06
297.14	237.06
297.37	215.06
297.601	223.06
297.831	228.06
298.062	231.06
298.292	233.06
298.523	253.06
298.753	239.06
298.984	233.06
299.214	219.06
299.445	261.06
299.675	260.06
299.905	260.06
300.136	231.06
300.366	234.06
300.597	241.06
300.827	252.06
301.057	269.06
301.288	254.06
301.518	260.06
301.748	256.06
301.979	257.06
302.209	243.06
302.439	263.06
302.669	263.06
302.9	255.06
303.13	248.06
303.36	247.06
303.59	257.06
303.82	252.06
304.051	265.06
304.281	273.06
304.511	243.06
304.741	244.06
304.971	252.06
305.201	258.06
305.431	252.06
305.661	252.06
305.891	269.06
306.121	252.06
306.352	264.06
306.582	261.06
306.812	243.06
307.042	250.06
307.272	253.06
307.502	249.06
307.731	251.06
307.961	259.06
308.191	261.06
308.421	263.06
308.651	273.06
308.881	252.06
309.111	253.06
309.341	275.06
309.571	275.06
309.8	289.06
310.03	288.06
310.26	273.06
310.49	280.06
310.72	285.06
310.949	291.06
311.179	302.06
311.409	299.06
311.639	298.06
311.868	269.06
312.098	300.06
312.328	292.06
312.557	307.06
312.787	312.06
313.017	292.06
313.246	291.06
313.476	285.06
313.706	307.06
313.935	305.06
314.165	299.06
314.394	303.06
314.624	304.06
314.853	298.06
315.083	289.06
315.312	295.06
315.542	303.06
315.771	275.06
316.001	287.06
316.23	276.06
316.46	288.06
316.689	269.06
316.919	283.06
317.148	315.06
317.377	312.06
317.607	306.06
317.836	293.06
318.065	291.06
318.295	283.06
318.524	277.06
318.753	299.06
318.983	282.06
319.212	302.06
319.441	293.06
319.67	299.06
319.9	279.06
320.129	279.06
320.358	288.06
320.587	307.06
320.816	307.06
321.046	321.06
321.275	306.06
321.504	294.06
321.733	315.06
321.962	298.06
322.191	314.06
322.42	311.06
322.649	346.06
322.878	346.06
323.108	337.06
323.337	360.06
323.566	372.06
323.795	372.06
324.024	418.06
324.253	508.06
324.482	697.06
324.71	1065.06
324.939	1414.06
325.168	1231.06
325.397	649.06
325.626	462.06
325.855	405.06
326.084	373.06
326.313	363.06
326.542	373.06
326.77	420.06
326.999	493.06
327.228	651.06
327.457	925.06
327.686	1061.06
327.914	714.06
328.143	480.06
328.372	447.06
328.6	419.06
328.829	395.06
329.058	392.06
329.287	401.06
329.515	376.06
329.744	374.06
329.972	371.06
330.201	351.06
330.43	403.06
330.658	411.06
330.887	425.06
331.115	409.06
331.344	385.06
331.572	355.06
331.801	358.06
332.03	353.06
332.258	339.06
332.486	337.06
332.715	341.06
332.943	327.06
333.172	335.06
333.4	332.06
333.629	347.06
333.857	357.06
334.085	360.06
334.314	345.06
334.542	355.06
334.771	348.06
334.999	337.06
335.227	359.06
335.455	325.06
335.684	325.06
335.912	321.06
336.14	321.06
336.369	343.06
336.597	324.06
336.825	337.06
337.053	339.06
337.281	333.06
337.51	334.06
337.738	325.06
337.966	339.06
338.194	333.06
338.422	341.06
338.65	338.06
338.878	335.06
339.106	319.06
339.334	322.06
339.562	327.06
339.79	317.06
340.018	320.06
340.246	314.06
340.474	321.06
340.702	310.06
340.93	321.06
341.158	323.06
341.386	313.06
341.614	330.06
341.842	335.06
342.07	330.06
342.298	317.06
342.526	319.06
342.754	332.06
342.981	330.06
343.209	307.06
343.437	310.06
343.665	316.06
343.893	316.06
344.12	320.06
344.348	340.06
344.576	311.06
344.804	335.06
345.031	335.06
345.259	327.06
345.487	329.06
345.714	320.06
345.942	333.06
346.17	328.06
346.397	312.06
346.625	321.06
346.853	307.06
347.08	305.06
347.308	317.06
347.535	317.06
347.763	309.06
347.99	316.06
348.218	332.06
348.445	320.06
348.673	317.06
348.9	297.06
349.128	315.06
349.355	289.06
349.583	295.06
349.81	309.06
350.037	311.06
350.265	299.06
350.492	303.06
350.72	314.06
350.947	315.06
351.174	300.06
351.402	321.06
351.629	309.06
351.856	298.06
352.083	290.06
352.311	323.06
352.538	313.06
352.765	328.06
352.992	325.06
353.22	317.06
353.447	312.06
353.674	310.06
353.901	292.06
354.128	277.06
354.355	291.06
354.583	306.06
354.81	283.06
355.037	277.06
355.264	292.06
355.491	286.06
355.718	277.06
355.945	288.06
356.172	292.06
356.399	278.06
356.626	303.06
356.853	299.06
357.08	291.06
357.307	286.06
357.534	279.06
357.761	300.06
357.988	289.06
358.215	297.06
358.441	297.06
358.668	304.06
358.895	289.06
359.122	297.06
359.349	292.06
359.576	296.06
359.802	321.06
360.029	345.06
360.256	359.06
360.483	328.06
360.709	315.06
360.936	311.06
361.163	316.06
361.39	306.06
361.616	317.06
361.843	295.06
362.07	306.06
362.296	310.06
362.523	298.06
362.749	292.06
362.976	292.06
363.203	300.06
363.429	294.06
363.656	285.06
363.882	299.06
364.109	302.06
364.335	283.06
364.562	290.06
364.788	294.06
365.015	295.06
365.241	305.06
365.468	287.06
365.694	293.06
365.92	299.06
366.147	277.06
366.373	289.06
366.599	299.06
366.826	300.06
367.052	293.06
367.278	294.06
367.505	280.06
367.731	297.06
367.957	283.06
368.184	293.06
368.41	317.06
368.636	306.06
368.862	311.06
369.089	293.06
369.315	309.06
369.541	284.06
369.767	308.06
369.993	293.06
370.219	295.06
370.445	272.06
370.672	283.06
370.898	288.06
371.124	314.06
371.35	278.06
371.576	279.06
371.802	300.06
372.028	295.06
372.254	288.06
372.48	282.06
372.706	285.06
372.932	292.06
373.158	292.06
373.384	283.06
373.61	297.06
373.835	303.06
374.061	295.06
374.287	293.06
374.513	291.06
374.739	300.06
374.965	280.06
375.191	291.06
375.416	289.06
375.642	288.06
375.868	281.06
376.094	295.06
376.319	281.06
376.545	278.06
376.771	296.06
376.997	294.06
377.222	292.06
377.448	296.06
377.674	283.06
377.899	281.06
378.125	297.06
378.35	300.06
378.576	285.06
378.802	279.06
379.027	287.06
379.253	294.06
379.478	289.06
379.704	285.06
379.929	295.06
380.155	299.06
380.38	295.06
380.606	295.06
380.831	302.06
381.057	279.06
381.282	282.06
381.507	299.06
381.733	281.06
381.958	290.06
382.184	281.06
382.409	276.06
382.634	314.06
382.86	290.06
383.085	300.06
383.31	288.06
383.535	305.06
383.761	294.06
383.986	295.06
384.211	297.06
384.436	308.06
384.662	284.06
384.887	295.06
385.112	298.06
385.337	308.06
385.562	293.06
385.787	321.06
386.013	307.06
386.238	308.06
386.463	306.06
386.688	298.06
386.913	315.06
387.138	298.06
387.363	292.06
387.588	295.06
387.813	307.06
388.038	303.06
388.263	304.06
388.488	291.06
388.713	304.06
388.938	289.06
389.163	287.06
389.387	306.06
389.612	301.06
389.837	310.06
390.062	296.06
390.287	282.06
390.512	308.06
390.736	291.06
390.961	292.06
391.186	300.06
391.411	281.06
391.636	311.06
391.86	327.06
392.085	310.06
392.31	304.06
392.534	311.06
392.759	320.06
392.984	298.06
393.208	308.06
393.433	308.06
393.658	313.06
393.882	320.06
394.107	308.06
394.331	321.06
394.556	302.06
394.78	300.06
395.005	305.06
395.229	298.06
395.454	303.06
395.678	313.06
395.903	316.06
396.127	329.06
396.352	331.06
396.576	315.06
396.801	321.06
397.025	321.06
397.249	317.06
397.474	325.06
397.698	302.06
397.922	321.06
398.147	339.06
398.371	337.06
398.595	316.06
398.82	320.06
399.044	317.06
399.268	341.06
399.492	356.06
399.717	379.06
399.941	373.06
400.165	395.06
400.389	425.06
400.613	364.06
400.837	375.06
401.062	337.06
401.286	345.06
401.51	351.06
401.734	345.06
401.958	326.06
402.182	327.06
402.406	323.06
402.63	328.06
402.854	339.06
403.078	322.06
403.302	342.06
403.526	345.06
403.75	346.06
403.974	336.06
404.198	333.06
404.422	342.06
404.645	333.06
404.869	349.06
405.093	368.06
405.317	373.06
405.541	384.06
405.765	355.06
405.988	348.06
406.212	363.06
406.436	357.06
406.66	372.06
406.883	362.06
407.107	389.06
407.331	387.06
407.555	439.06
407.778	427.06
408.002	409.06
408.226	391.06
408.449	380.06
408.673	394.06
408.896	401.06
409.12	413.06
409.344	399.06
409.567	376.06
409.791	349.06
410.014	331.06
410.238	333.06
410.461	361.06
410.685	336.06
410.908	361.06
411.132	385.06
411.355	399.06
411.578	381.06
411.802	368.06
412.025	333.06
412.249	312.06
412.472	327.06
412.695	349.06
412.919	340.06
413.142	338.06
413.365	310.06
413.589	319.06
413.812	320.06
414.035	314.06
414.258	327.06
414.482	323.06
414.705	326.06
414.928	333.06
415.151	320.06
415.374	336.06
415.597	320.06
415.821	321.06
416.044	330.06
416.267	315.06
416.49	316.06
416.713	326.06
416.936	323.06
417.159	304.06
417.382	330.06
417.605	313.06
417.828	331.06
418.051	328.06
418.274	325.06
418.497	306.06
418.72	323.06
418.943	319.06
419.166	354.06
419.389	349.06
419.611	339.06
419.834	331.06
420.057	338.06
420.28	336.06
420.503	346.06
420.726	346.06
420.948	348.06
421.171	360.06
421.394	387.06
421.617	346.06
421.839	332.06
422.062	330.06
422.285	352.06
422.507	378.06
422.73	433.06
422.953	416.06
423.175	359.06
423.398	367.06
423.621	325.06
423.843	359.06
424.066	355.06
424.288	353.06
424.511	372.06
424.733	406.06
424.956	454.06
425.178	451.06
425.401	417.06
425.623	434.06
425.846	389.06
426.068	379.06
426.291	363.06
426.513	345.06
426.735	371.06
426.958	387.06
427.18	421.06
427.402	523.06
427.625	575.06
427.847	505.06
428.069	440.06
428.292	401.06
428.514	379.06
428.736	352.06
428.958	340.06
429.181	327.06
429.403	346.06
429.625	324.06
429.847	372.06
430.069	411.06
430.292	414.06
430.514	349.06
430.736	335.06
430.958	314.06
431.18	321.06
431.402	300.06
431.624	316.06
431.846	328.06
432.068	314.06
432.29	307.06
432.512	315.06
432.734	343.06
432.956	308.06
433.178	328.06
433.4	343.06
433.622	316.06
433.844	339.06
434.066	326.06
434.287	313.06
434.509	331.06
434.731	339.06
434.953	343.06
435.175	325.06
435.397	332.06
435.618	342.06
435.84	380.06
436.062	457.06
436.284	483.06
436.505	429.06
436.727	373.06
436.949	375.06
437.17	341.06
437.392	345.06
437.614	351.06
437.835	356.06
438.057	428.06
438.278	487.06
438.5	487.06
438.721	509.06
438.943	499.06
439.165	402.06
439.386	364.06
439.608	371.06
439.829	368.06
440.05	375.06
440.272	414.06
440.493	379.06
440.715	360.06
440.936	351.06
441.158	348.06
441.379	357.06
441.6	343.06
441.822	369.06
442.043	381.06
442.264	433.06
442.486	459.06
442.707	392.06
442.928	387.06
443.149	367.06
443.371	391.06
443.592	400.06
443.813	485.06
444.034	518.06
444.255	421.06
444.476	372.06
444.698	361.06
444.919	343.06
445.14	456.06
445.361	411.06
445.582	388.06
445.803	449.06
446.024	496.06
446.245	506.06
446.466	450.06
446.687	385.06
446.908	364.06
447.129	334.06
447.35	336.06
447.571	352.06
447.792	323.06
448.013	341.06
448.234	351.06
448.455	394.06
448.675	473.06
448.896	545.06
449.117	465.06
449.338	436.06
449.559	492.06
449.779	541.06
450	428.06
450.221	380.06
450.442	341.06
450.662	329.06
450.883	333.06
451.104	365.06
451.324	335.06
451.545	322.06
451.766	309.06
451.986	305.06
452.207	297.06
452.428	285.06
452.648	315.06
452.869	290.06
453.089	299.06
453.31	314.06
453.53	322.06
453.751	306.06
453.971	306.06
454.192	326.06
454.412	300.06
454.633	287.06
454.853	319.06
455.073	290.06
455.294	337.06
455.514	361.06
455.734	376.06
455.955	311.06
456.175	297.06
456.395	263.06
456.616	285.06
456.836	284.06
457.056	301.06
457.276	291.06
457.497	281.06
457.717	291.06
457.937	299.06
458.157	289.06
458.377	290.06
458.598	325.06
458.818	345.06
459.038	401.06
459.258	387.06
459.478	350.06
459.698	315.06
459.918	315.06
460.138	312.06
460.358	297.06
460.578	305.06
460.798	303.06
461.018	337.06
461.238	312.06
461.458	323.06
461.678	326.06
461.898	321.06
462.118	309.06
462.338	330.06
462.558	325.06
462.777	329.06
462.997	329.06
463.217	344.06
463.437	337.06
463.657	332.06
463.876	352.06
464.096	339.06
464.316	331.06
464.536	348.06
464.755	336.06
464.975	348.06
465.195	371.06
465.414	394.06
465.634	364.06
465.854	341.06
466.073	331.06
466.293	323.06
466.512	306.06
466.732	313.06
466.951	304.06
467.171	298.06
467.391	319.06
467.61	319.06
467.829	328.06
468.049	300.06
468.268	303.06
468.488	296.06
468.707	296.06
468.927	301.06
469.146	304.06
469.365	299.06
469.585	314.06
469.804	313.06
470.023	289.06
470.243	294.06
470.462	327.06
470.681	315.06
470.901	304.06
471.12	310.06
471.339	283.06
471.558	300.06
471.777	326.06
471.997	302.06
472.216	318.06
472.435	322.06
472.654	317.06
472.873	312.06
473.092	308.06
473.311	304.06
473.53	291.06
473.749	327.06
473.968	358.06
474.187	424.06
474.406	418.06
474.625	356.06
474.844	323.06
475.063	309.06
475.282	304.06
475.501	319.06
475.72	338.06
475.939	308.06
476.158	330.06
476.377	328.06
476.596	321.06
476.814	321.06
477.033	316.06
477.252	323.06
477.471	326.06
477.69	320.06
477.908	325.06
478.127	356.06
478.346	329.06
478.564	331.06
478.783	361.06
479.002	337.06
479.22	359.06
479.439	353.06
479.658	367.06
479.876	362.06
480.095	345.06
480.313	358.06
480.532	378.06
480.751	385.06
480.969	371.06
481.188	366.06
481.406	379.06
481.624	375.06
481.843	371.06
482.061	358.06
482.28	367.06
482.498	357.06
482.717	357.06
482.935	364.06
483.153	364.06
483.372	373.06
483.59	369.06
483.808	368.06
484.027	357.06
484.245	381.06
484.463	384.06
484.681	375.06
484.9	378.06
485.118	364.06
485.336	374.06
485.554	375.06
485.772	379.06
485.99	362.06
486.209	397.06
486.427	375.06
486.645	376.06
486.863	397.06
487.081	393.06
487.299	380.06
487.517	381.06
487.735	391.06
487.953	390.06
488.171	370.06
488.389	379.06
488.607	387.06
488.825	391.06
489.043	385.06
489.261	402.06
489.479	409.06
489.696	391.06
489.914	393.06
490.132	421.06
490.35	398.06
490.568	401.06
490.786	404.06
491.003	402.06
491.221	422.06
491.439	413.06
491.657	415.06
491.874	445.06
492.092	419.06
492.31	432.06
492.527	421.06
492.745	418.06
492.963	427.06
493.18	431.06
493.398	447.06
493.615	450.06
493.833	449.06
494.05	447.06
494.268	444.06
494.485	453.06
494.703	456.06
494.92	450.06
495.138	462.06
495.355	471.06
495.573	474.06
495.79	452.06
496.008	458.06
496.225	485.06
496.442	468.06
496.66	457.06
496.877	460.06
497.094	453.06
497.312	450.06
497.529	462.06
497.746	465.06
497.963	493.06
498.181	487.06
498.398	495.06
498.615	501.06
498.832	509.06
499.049	489.06
499.267	508.06
499.484	529.06
499.701	531.06
499.918	563.06
500.135	567.06
500.352	584.06
500.569	604.06
500.786	616.06
501.003	612.06
501.22	597.06
501.437	582.06
501.654	561.06
501.871	556.06
502.088	546.06
502.305	537.06
502.522	515.06
502.739	486.06
502.956	479.06
503.172	493.06
503.389	476.06
503.606	463.06
503.823	472.06
504.04	475.06
504.256	483.06
504.473	461.06
504.69	458.06
504.907	459.06
505.123	450.06
505.34	443.06
505.557	447.06
505.773	443.06
505.99	441.06
506.207	444.06
506.423	442.06
506.64	447.06
506.856	453.06
507.073	445.06
507.289	436.06
507.506	425.06
507.722	422.06
507.939	438.06
508.155	418.06
508.372	414.06
508.588	415.06
508.805	440.06
509.021	414.06
509.238	422.06
509.454	429.06
509.67	427.06
509.887	453.06
510.103	421.06
510.319	422.06
510.536	465.06
510.752	740.06
510.968	608.06
511.184	429.06
511.401	403.06
511.617	390.06
511.833	407.06
512.049	389.06
512.265	401.06
512.481	397.06
512.698	413.06
512.914	392.06
513.13	403.06
513.346	399.06
513.562	407.06
513.778	409.06
513.994	397.06
514.21	409.06
514.426	426.06
514.642	434.06
514.858	469.06
515.074	480.06
515.29	550.06
515.506	760.06
515.721	633.06
515.937	473.06
516.153	453.06
516.369	401.06
516.585	411.06
516.801	394.06
517.016	421.06
517.232	420.06
517.448	414.06
517.664	406.06
517.879	415.06
518.095	401.06
518.311	395.06
518.527	418.06
518.742	384.06
518.958	395.06
519.173	405.06
519.389	415.06
519.605	408.06
519.82	415.06
520.036	407.06
520.251	403.06
520.467	433.06
520.682	452.06
520.898	433.06
521.113	431.06
521.329	437.06
521.544	516.06
521.76	613.06
521.975	962.06
522.19	937.06
522.406	556.06
522.621	447.06
522.836	403.06
523.052	398.06
523.267	383.06
523.482	377.06
523.698	347.06
523.913	358.06
524.128	374.06
524.343	387.06
524.559	364.06
524.774	354.06
524.989	359.06
525.204	369.06
525.419	363.06
525.634	360.06
525.849	357.06
526.064	365.06
526.28	325.06
526.495	339.06
526.71	337.06
526.925	331.06
527.14	329.06
527.355	333.06
527.57	361.06
527.785	343.06
527.999	315.06
528.214	333.06
528.429	354.06
528.644	341.06
528.859	336.06
529.074	332.06
529.289	355.06
529.503	386.06
529.718	379.06
529.933	354.06
530.148	343.06
530.363	323.06
530.577	337.06
530.792	314.06
531.007	331.06
531.221	326.06
531.436	298.06
531.651	313.06
531.865	330.06
532.08	336.06
532.295	325.06
532.509	324.06
532.724	315.06
532.938	307.06
533.153	319.06
533.367	326.06
533.582	332.06
533.796	313.06
534.011	327.06
534.225	320.06
534.44	327.06
534.654	320.06
534.868	314.06
535.083	324.06
535.297	332.06
535.511	328.06
535.726	328.06
535.94	296.06
536.154	307.06
536.369	311.06
536.583	319.06
536.797	304.06
537.011	282.06
537.225	289.06
537.44	313.06
537.654	315.06
537.868	322.06
538.082	290.06
538.296	323.06
538.51	310.06
538.724	313.06
538.938	325.06
539.153	299.06
539.367	320.06
539.581	311.06
539.795	328.06
540.009	317.06
540.222	294.06
540.436	307.06
540.65	329.06
540.864	334.06
541.078	321.06
541.292	320.06
541.506	318.06
541.72	303.06
541.934	316.06
542.147	300.06
542.361	309.06
542.575	303.06
542.789	316.06
543.002	315.06
543.216	309.06
543.43	315.06
543.644	317.06
543.857	299.06
544.071	300.06
544.285	308.06
544.498	305.06
544.712	306.06
544.925	314.06
545.139	312.06
545.352	304.06
545.566	288.06
545.779	303.06
545.993	309.06
546.206	313.06
546.42	318.06
546.633	305.06
546.847	299.06
547.06	287.06
547.274	291.06
547.487	303.06
547.7	297.06
547.914	301.06
548.127	281.06
548.34	281.06
548.554	290.06
548.767	281.06
548.98	296.06
549.193	296.06
549.407	290.06
549.62	286.06
549.833	272.06
550.046	281.06
550.259	283.06
550.473	291.06
550.686	296.06
550.899	308.06
551.112	303.06
551.325	277.06
551.538	270.06
551.751	295.06
551.964	286.06
552.177	287.06
552.39	270.06
552.603	276.06
552.816	305.06
553.029	303.06
553.242	311.06
553.455	283.06
553.667	296.06
553.88	302.06
554.093	283.06
554.306	301.06
554.519	297.06
554.732	283.06
554.944	295.06
555.157	300.06
555.37	296.06
555.583	288.06
555.795	297.06
556.008	275.06
556.221	280.06
556.433	280.06
556.646	288.06
556.859	275.06
557.071	263.06
557.284	257.06
557.496	283.06
557.709	278.06
557.921	275.06
558.134	250.06
558.346	263.06
558.559	257.06
558.771	281.06
558.984	260.06
559.196	273.06
559.409	258.06
559.621	265.06
559.833	275.06
560.046	268.06
560.258	270.06
560.47	263.06
560.683	276.06
560.895	265.06
561.107	262.06
561.32	269.06
561.532	272.06
561.744	249.06
561.956	269.06
562.168	258.06
562.381	268.06
562.593	284.06
562.805	265.06
563.017	255.06
563.229	263.06
563.441	268.06
563.653	247.06
563.865	261.06
564.077	275.06
564.289	273.06
564.501	288.06
564.713	279.06
564.925	281.06
565.137	297.06
565.349	269.06
565.561	293.06
565.773	296.06
565.985	285.06
566.197	284.06
566.408	307.06
566.62	305.06
566.832	313.06
567.044	310.06
567.255	308.06
567.467	326.06
567.679	291.06
567.891	303.06
568.102	316.06
568.314	292.06
568.526	306.06
568.737	278.06
568.949	291.06
569.161	286.06
569.372	272.06
569.584	279.06
569.795	277.06
570.007	281.06
570.218	294.06
570.43	301.06
570.641	277.06
570.853	247.06
571.064	249.06
571.276	259.06
571.487	248.06
571.698	247.06
571.91	265.06
572.121	242.06
572.333	257.06
572.544	244.06
572.755	250.06
572.966	232.06
573.178	248.06
573.389	239.06
573.6	248.06
573.811	237.06
574.023	229.06
574.234	249.06
574.445	216.06
574.656	243.06
574.867	235.06
575.078	224.06
575.289	230.06
575.501	237.06
575.712	251.06
575.923	236.06
576.134	240.06
576.345	231.06
576.556	224.06
576.767	223.06
576.978	246.06
577.188	213.06
577.399	221.06
577.61	215.06
577.821	226.06
578.032	234.06
578.243	253.06
578.454	375.06
578.665	273.06
578.875	251.06
579.086	231.06
579.297	213.06
579.508	219.06
579.718	223.06
579.929	233.06
580.14	203.06
580.35	220.06
580.561	217.06
580.772	234.06
580.982	211.06
581.193	201.06
581.403	213.06
581.614	219.06
581.825	222.06
582.035	213.06
582.246	222.06
582.456	207.06
582.667	198.06
582.877	213.06
583.087	207.06
583.298	204.06
583.508	207.06
583.719	205.06
583.929	227.06
584.139	237.06
584.35	214.06
584.56	225.06
584.77	213.06
584.981	221.06
585.191	214.06
585.401	211.06
585.611	206.06
585.821	224.06
586.032	215.06
586.242	206.06
586.452	219.06
586.662	216.06
586.872	213.06
587.082	202.06
587.292	205.06
587.502	201.06
587.713	220.06
587.923	205.06
588.133	217.06
588.343	222.06
588.553	206.06
588.762	216.06
588.972	219.06
589.182	310.06
589.392	301.06
589.602	245.06
589.812	305.06
590.022	274.06
590.232	228.06
590.441	207.06
590.651	213.06
590.861	191.06
591.071	219.06
591.281	220.06
591.49	216.06
591.7	221.06
591.91	225.06
592.119	221.06
592.329	229.06
592.539	206.06
592.748	189.06
592.958	208.06
593.167	218.06
593.377	225.06
593.587	228.06
593.796	228.06
594.006	219.06
594.215	225.06
594.424	208.06
594.634	232.06
594.843	218.06
595.053	221.06
595.262	204.06
595.472	231.06
595.681	215.06
595.89	227.06
596.1	217.06
596.309	226.06
596.518	210.06
596.727	203.06
596.937	194.06
597.146	204.06
597.355	203.06
597.564	185.06
597.774	212.06
597.983	184.06
598.192	202.06
598.401	211.06
598.61	211.06
598.819	201.06
599.028	196.06
599.237	204.06
599.446	198.06
599.655	189.06
599.864	193.06
600.073	199.06
600.282	190.06
600.491	186.06
600.7	195.06
600.909	187.06
601.118	203.06
601.327	177.06
601.536	187.06
601.745	186.06
601.953	187.06
602.162	191.06
602.371	188.06
602.58	192.06
602.789	185.06
602.997	197.06
603.206	178.06
603.415	188.06
603.623	185.06
603.832	177.06
604.041	187.06
604.249	191.06
604.458	189.06
604.666	191.06
604.875	177.06
605.084	183.06
605.292	175.06
605.501	191.06
605.709	176.06
605.918	183.06
606.126	163.06
606.334	164.06
606.543	190.06
606.751	205.06
606.96	180.06
607.168	181.06
607.376	184.06
607.585	178.06
607.793	172.06
608.001	175.06
608.21	171.06
608.418	162.06
608.626	210.06
608.834	182.06
609.043	193.06
609.251	188.06
609.459	183.06
609.667	180.06
609.875	173.06
610.083	171.06
610.291	183.06
610.499	193.06
610.707	165.06
610.916	195.06
611.124	189.06
611.332	205.06
611.54	181.06
611.748	189.06
611.955	179.06
612.163	191.06
612.371	169.06
612.579	185.06
612.787	164.06
612.995	177.06
613.203	168.06
613.411	177.06
613.618	185.06
613.826	187.06
614.034	170.06
614.242	188.06
614.449	187.06
614.657	176.06
614.865	170.06
615.072	179.06
615.28	182.06
615.488	172.06
615.695	175.06
615.903	177.06
616.111	166.06
616.318	170.06
616.526	178.06
616.733	185.06
616.941	173.06
617.148	197.06
617.356	182.06
617.563	175.06
617.771	179.06
617.978	160.06
618.185	161.06
618.393	170.06
618.6	170.06
618.807	180.06
619.015	187.06
619.222	185.06
619.429	170.06
619.637	170.06
619.844	176.06
620.051	175.06
620.258	178.06
620.466	166.06
620.673	169.06
620.88	167.06
621.087	180.06
621.294	168.06
621.501	171.06
621.708	171.06
621.915	171.06
622.122	161.06
622.329	165.06
622.536	159.06
622.743	173.06
622.95	166.06
623.157	146.06
623.364	156.06
623.571	155.06
623.778	181.06
623.985	177.06
624.192	157.06
624.399	162.06
624.606	162.06
624.812	158.06
625.019	168.06
625.226	169.06
625.433	160.06
625.639	184.06
625.846	159.06
626.053	140.06
626.259	163.06
626.466	164.06
626.673	154.06
626.879	154.06
627.086	158.06
627.293	156.06
627.499	166.06
627.706	168.06
627.912	149.06
628.119	150.06
628.325	167.06
628.532	149.06
628.738	163.06
628.945	160.06
629.151	148.06
629.357	164.06
629.564	160.06
629.77	147.06
629.976	150.06
630.183	149.06
630.389	152.06
630.595	165.06
630.802	166.06
631.008	155.06
631.214	150.06
631.42	150.06
631.627	160.06
631.833	147.06
632.039	154.06
632.245	147.06
632.451	165.06
632.657	156.06
632.863	164.06
633.069	128.06
633.275	145.06
633.481	140.06
633.688	144.06
633.893	150.06
634.099	154.06
634.305	145.06
634.511	139.06
634.717	138.06
634.923	142.06
635.129	151.06
635.335	140.06
635.541	142.06
635.747	143.06
635.952	145.06
636.158	128.06
636.364	148.06
636.57	142.06
636.775	139.06
636.981	138.06
637.187	151.06
637.392	149.06
637.598	145.06
637.804	151.06
638.009	143.06
638.215	153.06
638.421	149.06
638.626	133.06
638.832	134.06
639.037	139.06
639.243	137.06
639.448	145.06
639.654	148.06
639.859	136.06
640.065	139.06
640.27	149.06
640.475	141.06
640.681	137.06
640.886	138.06
641.091	135.06
641.297	155.06
641.502	136.06
641.707	140.06
641.913	134.06
642.118	127.06
642.323	139.06
642.528	147.06
642.733	141.06
642.939	149.06
643.144	130.06
643.349	134.06
643.554	145.06
643.759	137.06
643.964	131.06
644.169	159.06
644.374	131.06
644.579	145.06
644.784	140.06
644.989	135.06
645.194	139.06
645.399	148.06
645.604	137.06
645.809	131.06
646.014	136.06
646.219	133.06
646.423	136.06
646.628	122.06
646.833	138.06
647.038	148.06
647.243	129.06
647.447	134.06
647.652	134.06
647.857	137.06
648.062	151.06
648.266	117.06
648.471	132.06
648.676	138.06
648.88	122.06
649.085	144.06
649.289	132.06
649.494	134.06
649.698	148.06
649.903	147.06
650.107	142.06
650.312	133.06
650.516	127.06
650.721	134.06
650.925	144.06
651.13	140.06
651.334	127.06
651.539	141.06
651.743	144.06
651.947	139.06
652.152	125.06
652.356	132.06
652.56	122.06
652.764	109.06
652.969	121.06
653.173	137.06
653.377	128.06
653.581	119.06
653.785	115.06
653.99	143.06
654.194	120.06
654.398	110.06
654.602	119.06
654.806	131.06
655.01	120.06
655.214	145.06
655.418	124.06
655.622	121.06
655.826	128.06
656.03	129.06
656.234	129.06
656.438	124.06
656.642	114.06
656.846	126.06
657.049	141.06
657.253	128.06
657.457	110.06
657.661	115.06
657.865	120.06
658.068	107.06
658.272	100.06
658.476	101.06
658.68	106.06
658.883	103.06
659.087	106.06
659.291	98.06
659.494	85.06
659.698	97.06
659.901	86.06
660.105	83.06
660.309	99.06
660.512	96.06
660.716	97.06
660.919	84.06
661.123	90.06
661.326	83.06
661.53	88.06
661.733	86.06
661.936	87.06
662.14	101.06
662.343	91.06
662.546	81.06
662.75	76.06
662.953	78.06
663.156	90.06
663.36	84.06
663.563	83.06
663.766	85.06
663.969	85.06
664.173	86.06
664.376	83.06
664.579	81.06
664.782	82.06
664.985	84.06
665.188	90.06
665.391	83.06
665.594	80.06
665.797	87.06
666	80.06
666.203	89.06
666.406	82.06
666.609	82.06
666.812	76.06
667.015	88.06
667.218	82.06
667.421	84.06
667.624	68.06
667.827	80.06
668.03	82.06
668.232	80.06
668.435	83.06
668.638	75.06
668.841	79.06
669.043	92.06
669.246	78.06
669.449	85.06
669.651	77.06
669.854	81.06
670.057	81.06
670.259	82.06
670.462	80.06
670.665	72.06
670.867	73.06
671.07	85.06
671.272	87.06
671.475	74.06
671.677	99.06
671.88	97.06
672.082	85.06
672.284	75.06
672.487	73.06
672.689	74.06
672.892	83.06
