Data from 1981.PennyLincolnUp.Lamp.En5.5.200Scan.071819.P1_HRD10591_16-40-29-958.txt Node
Date: Thu Jul 18 16:40:29 EDT 2019
User: cochatt
Spectrometer: HR+D1059
Trigger mode: 1
Integration Time (sec): 1.000000E-1
Scans to average: 1
Electric dark correction enabled: true
Nonlinearity correction enabled: false
Boxcar width: 0
XAxis mode: Wavelengths
Number of Pixels in Spectrum: 2048
>>>>>Begin Spectral Data<<<<<
223.165	-9.62
223.4	-9.62
223.635	-9.62
223.869	-14.62
224.104	-20.62
224.338	-29.62
224.573	-26.62
224.808	-0.62
225.042	-3.62
225.277	-6.62
225.511	10.38
225.746	-0.62
225.98	12.38
226.215	16.38
226.449	16.38
226.683	17.38
226.918	19.38
227.152	20.38
227.387	33.38
227.621	38.38
227.856	37.38
228.09	33.38
228.324	52.38
228.559	77.38
228.793	65.38
229.027	82.38
229.262	82.38
229.496	106.38
229.73	118.38
229.964	121.38
230.199	122.38
230.433	113.38
230.667	100.38
230.901	97.38
231.136	98.38
231.37	100.38
231.604	91.38
231.838	108.38
232.072	111.38
232.306	99.38
232.541	101.38
232.775	112.38
233.009	105.38
233.243	91.38
233.477	99.38
233.711	85.38
233.945	97.38
234.179	104.38
234.413	112.38
234.647	108.38
234.881	102.38
235.115	93.38
235.349	120.38
235.583	123.38
235.817	106.38
236.051	122.38
236.285	116.38
236.519	108.38
236.753	116.38
236.987	119.38
237.221	143.38
237.455	166.38
237.689	135.38
237.922	132.38
238.156	98.38
238.39	111.38
238.624	106.38
238.858	97.38
239.091	95.38
239.325	104.38
239.559	94.38
239.793	99.38
240.027	115.38
240.26	120.38
240.494	121.38
240.728	137.38
240.961	121.38
241.195	115.38
241.429	124.38
241.662	116.38
241.896	114.38
242.13	112.38
242.363	112.38
242.597	115.38
242.83	133.38
243.064	126.38
243.298	116.38
243.531	127.38
243.765	134.38
243.998	128.38
244.232	115.38
244.465	121.38
244.699	110.38
244.932	129.38
245.166	119.38
245.399	120.38
245.633	129.38
245.866	131.38
246.099	129.38
246.333	123.38
246.566	125.38
246.8	134.38
247.033	131.38
247.266	125.38
247.5	137.38
247.733	142.38
247.966	141.38
248.2	139.38
248.433	146.38
248.666	150.38
248.899	161.38
249.133	171.38
249.366	163.38
249.599	168.38
249.832	156.38
250.066	154.38
250.299	151.38
250.532	162.38
250.765	167.38
250.998	177.38
251.231	175.38
251.465	181.38
251.698	169.38
251.931	172.38
252.164	174.38
252.397	155.38
252.63	159.38
252.863	171.38
253.096	188.38
253.329	195.38
253.562	192.38
253.795	170.38
254.028	184.38
254.261	197.38
254.494	198.38
254.727	208.38
254.96	220.38
255.193	220.38
255.426	195.38
255.659	192.38
255.892	183.38
256.124	177.38
256.357	194.38
256.59	183.38
256.823	165.38
257.056	171.38
257.289	189.38
257.521	180.38
257.754	183.38
257.987	167.38
258.22	169.38
258.452	177.38
258.685	169.38
258.918	166.38
259.151	156.38
259.383	162.38
259.616	201.38
259.849	182.38
260.081	202.38
260.314	192.38
260.547	196.38
260.779	196.38
261.012	212.38
261.244	181.38
261.477	192.38
261.71	187.38
261.942	179.38
262.175	208.38
262.407	197.38
262.64	185.38
262.872	186.38
263.105	187.38
263.337	170.38
263.57	172.38
263.802	169.38
264.035	169.38
264.267	180.38
264.499	185.38
264.732	192.38
264.964	192.38
265.197	169.38
265.429	196.38
265.661	161.38
265.894	181.38
266.126	171.38
266.358	167.38
266.591	187.38
266.823	179.38
267.055	185.38
267.287	194.38
267.52	204.38
267.752	200.38
267.984	195.38
268.216	187.38
268.448	170.38
268.681	195.38
268.913	205.38
269.145	216.38
269.377	213.38
269.609	209.38
269.841	209.38
270.073	226.38
270.306	230.38
270.538	228.38
270.77	257.38
271.002	255.38
271.234	229.38
271.466	235.38
271.698	233.38
271.93	250.38
272.162	231.38
272.394	255.38
272.626	236.38
272.858	228.38
273.09	226.38
273.322	211.38
273.553	228.38
273.785	208.38
274.017	228.38
274.249	205.38
274.481	213.38
274.713	223.38
274.945	229.38
275.176	200.38
275.408	215.38
275.64	207.38
275.872	213.38
276.104	226.38
276.335	214.38
276.567	227.38
276.799	224.38
277.031	225.38
277.262	249.38
277.494	238.38
277.726	232.38
277.957	229.38
278.189	235.38
278.421	216.38
278.652	217.38
278.884	223.38
279.115	211.38
279.347	208.38
279.579	234.38
279.81	219.38
280.042	210.38
280.273	202.38
280.505	218.38
280.736	213.38
280.968	214.38
281.199	223.38
281.431	211.38
281.662	226.38
281.894	220.38
282.125	222.38
282.356	235.38
282.588	232.38
282.819	242.38
283.051	213.38
283.282	220.38
283.513	211.38
283.745	217.38
283.976	221.38
284.207	222.38
284.439	216.38
284.67	226.38
284.901	202.38
285.132	223.38
285.364	227.38
285.595	213.38
285.826	213.38
286.057	239.38
286.288	222.38
286.52	231.38
286.751	224.38
286.982	241.38
287.213	216.38
287.444	226.38
287.675	217.38
287.906	232.38
288.138	222.38
288.369	254.38
288.6	232.38
288.831	245.38
289.062	231.38
289.293	237.38
289.524	238.38
289.755	240.38
289.986	241.38
290.217	235.38
290.448	249.38
290.679	233.38
290.91	224.38
291.141	236.38
291.371	224.38
291.602	216.38
291.833	230.38
292.064	219.38
292.295	227.38
292.526	233.38
292.757	247.38
292.987	230.38
293.218	224.38
293.449	232.38
293.68	214.38
293.91	224.38
294.141	215.38
294.372	223.38
294.603	236.38
294.833	214.38
295.064	226.38
295.295	239.38
295.525	257.38
295.756	236.38
295.987	243.38
296.217	238.38
296.448	248.38
296.679	236.38
296.909	213.38
297.14	222.38
297.37	229.38
297.601	228.38
297.831	235.38
298.062	226.38
298.292	230.38
298.523	243.38
298.753	258.38
298.984	245.38
299.214	254.38
299.445	227.38
299.675	255.38
299.905	264.38
300.136	255.38
300.366	265.38
300.597	250.38
300.827	253.38
301.057	243.38
301.288	276.38
301.518	251.38
301.748	236.38
301.979	242.38
302.209	276.38
302.439	271.38
302.669	243.38
302.9	248.38
303.13	258.38
303.36	257.38
303.59	262.38
303.82	271.38
304.051	263.38
304.281	232.38
304.511	249.38
304.741	261.38
304.971	255.38
305.201	252.38
305.431	255.38
305.661	253.38
305.891	274.38
306.121	267.38
306.352	271.38
306.582	292.38
306.812	262.38
307.042	252.38
307.272	269.38
307.502	265.38
307.731	244.38
307.961	263.38
308.191	257.38
308.421	263.38
308.651	247.38
308.881	264.38
309.111	277.38
309.341	262.38
309.571	265.38
309.8	300.38
310.03	273.38
310.26	282.38
310.49	301.38
310.72	297.38
310.949	295.38
311.179	294.38
311.409	303.38
311.639	281.38
311.868	292.38
312.098	304.38
312.328	288.38
312.557	309.38
312.787	309.38
313.017	307.38
313.246	309.38
313.476	290.38
313.706	285.38
313.935	298.38
314.165	295.38
314.394	306.38
314.624	287.38
314.853	289.38
315.083	306.38
315.312	303.38
315.542	267.38
315.771	292.38
316.001	284.38
316.23	277.38
316.46	274.38
316.689	298.38
316.919	293.38
317.148	308.38
317.377	306.38
317.607	307.38
317.836	288.38
318.065	293.38
318.295	283.38
318.524	283.38
318.753	280.38
318.983	293.38
319.212	300.38
319.441	293.38
319.67	304.38
319.9	300.38
320.129	313.38
320.358	309.38
320.587	311.38
320.816	305.38
321.046	307.38
321.275	323.38
321.504	329.38
321.733	326.38
321.962	311.38
322.191	324.38
322.42	347.38
322.649	352.38
322.878	354.38
323.108	343.38
323.337	352.38
323.566	392.38
323.795	401.38
324.024	417.38
324.253	503.38
324.482	717.38
324.71	1045.38
324.939	1435.38
325.168	1212.38
325.397	631.38
325.626	474.38
325.855	391.38
326.084	372.38
326.313	361.38
326.542	385.38
326.77	406.38
326.999	482.38
327.228	643.38
327.457	906.38
327.686	1057.38
327.914	703.38
328.143	492.38
328.372	432.38
328.6	419.38
328.829	428.38
329.058	432.38
329.287	400.38
329.515	397.38
329.744	388.38
329.972	363.38
330.201	375.38
330.43	407.38
330.658	405.38
330.887	421.38
331.115	394.38
331.344	377.38
331.572	371.38
331.801	361.38
332.03	346.38
332.258	364.38
332.486	354.38
332.715	341.38
332.943	348.38
333.172	354.38
333.4	348.38
333.629	350.38
333.857	336.38
334.085	343.38
334.314	346.38
334.542	358.38
334.771	369.38
334.999	363.38
335.227	337.38
335.455	340.38
335.684	331.38
335.912	337.38
336.14	337.38
336.369	321.38
336.597	342.38
336.825	328.38
337.053	324.38
337.281	349.38
337.51	330.38
337.738	331.38
337.966	335.38
338.194	332.38
338.422	339.38
338.65	337.38
338.878	320.38
339.106	328.38
339.334	331.38
339.562	321.38
339.79	318.38
340.018	346.38
340.246	325.38
340.474	347.38
340.702	320.38
340.93	309.38
341.158	316.38
341.386	322.38
341.614	329.38
341.842	341.38
342.07	336.38
342.298	329.38
342.526	309.38
342.754	325.38
342.981	309.38
343.209	316.38
343.437	315.38
343.665	323.38
343.893	332.38
344.12	349.38
344.348	334.38
344.576	340.38
344.804	331.38
345.031	351.38
345.259	341.38
345.487	331.38
345.714	319.38
345.942	326.38
346.17	328.38
346.397	317.38
346.625	340.38
346.853	319.38
347.08	321.38
347.308	327.38
347.535	310.38
347.763	312.38
347.99	295.38
348.218	321.38
348.445	331.38
348.673	323.38
348.9	326.38
349.128	314.38
349.355	283.38
349.583	300.38
349.81	304.38
350.037	301.38
350.265	291.38
350.492	309.38
350.72	287.38
350.947	318.38
351.174	328.38
351.402	330.38
351.629	318.38
351.856	322.38
352.083	338.38
352.311	317.38
352.538	328.38
352.765	290.38
352.992	304.38
353.22	307.38
353.447	331.38
353.674	310.38
353.901	292.38
354.128	286.38
354.355	305.38
354.583	296.38
354.81	293.38
355.037	300.38
355.264	290.38
355.491	295.38
355.718	287.38
355.945	294.38
356.172	277.38
356.399	299.38
356.626	296.38
356.853	281.38
357.08	280.38
357.307	290.38
357.534	299.38
357.761	292.38
357.988	287.38
358.215	292.38
358.441	287.38
358.668	291.38
358.895	292.38
359.122	299.38
359.349	299.38
359.576	313.38
359.802	340.38
360.029	353.38
360.256	331.38
360.483	333.38
360.709	319.38
360.936	305.38
361.163	315.38
361.39	309.38
361.616	313.38
361.843	280.38
362.07	299.38
362.296	322.38
362.523	300.38
362.749	295.38
362.976	308.38
363.203	303.38
363.429	291.38
363.656	286.38
363.882	288.38
364.109	290.38
364.335	290.38
364.562	286.38
364.788	311.38
365.015	310.38
365.241	280.38
365.468	306.38
365.694	320.38
365.92	313.38
366.147	309.38
366.373	283.38
366.599	305.38
366.826	295.38
367.052	290.38
367.278	297.38
367.505	285.38
367.731	297.38
367.957	300.38
368.184	300.38
368.41	289.38
368.636	325.38
368.862	291.38
369.089	300.38
369.315	284.38
369.541	291.38
369.767	297.38
369.993	295.38
370.219	305.38
370.445	294.38
370.672	293.38
370.898	293.38
371.124	290.38
371.35	285.38
371.576	313.38
371.802	300.38
372.028	288.38
372.254	314.38
372.48	298.38
372.706	277.38
372.932	288.38
373.158	286.38
373.384	291.38
373.61	298.38
373.835	298.38
374.061	293.38
374.287	291.38
374.513	299.38
374.739	300.38
374.965	294.38
375.191	307.38
375.416	298.38
375.642	307.38
375.868	295.38
376.094	287.38
376.319	303.38
376.545	279.38
376.771	279.38
376.997	304.38
377.222	295.38
377.448	287.38
377.674	299.38
377.899	287.38
378.125	290.38
378.35	288.38
378.576	285.38
378.802	278.38
379.027	301.38
379.253	299.38
379.478	293.38
379.704	303.38
379.929	288.38
380.155	300.38
380.38	284.38
380.606	294.38
380.831	292.38
381.057	288.38
381.282	297.38
381.507	299.38
381.733	305.38
381.958	279.38
382.184	289.38
382.409	302.38
382.634	309.38
382.86	291.38
383.085	287.38
383.31	284.38
383.535	297.38
383.761	294.38
383.986	269.38
384.211	307.38
384.436	313.38
384.662	305.38
384.887	304.38
385.112	299.38
385.337	311.38
385.562	301.38
385.787	325.38
386.013	313.38
386.238	311.38
386.463	300.38
386.688	323.38
386.913	300.38
387.138	298.38
387.363	296.38
387.588	306.38
387.813	315.38
388.038	300.38
388.263	316.38
388.488	303.38
388.713	311.38
388.938	295.38
389.163	295.38
389.387	308.38
389.612	313.38
389.837	324.38
390.062	300.38
390.287	314.38
390.512	295.38
390.736	297.38
390.961	305.38
391.186	270.38
391.411	312.38
391.636	301.38
391.86	317.38
392.085	300.38
392.31	313.38
392.534	315.38
392.759	314.38
392.984	291.38
393.208	305.38
393.433	305.38
393.658	323.38
393.882	294.38
394.107	299.38
394.331	310.38
394.556	288.38
394.78	298.38
395.005	319.38
395.229	314.38
395.454	320.38
395.678	313.38
395.903	321.38
396.127	317.38
396.352	335.38
396.576	325.38
396.801	308.38
397.025	328.38
397.249	313.38
397.474	323.38
397.698	307.38
397.922	342.38
398.147	336.38
398.371	340.38
398.595	342.38
398.82	326.38
399.044	334.38
399.268	339.38
399.492	343.38
399.717	359.38
399.941	365.38
400.165	402.38
400.389	424.38
400.613	359.38
400.837	354.38
401.062	355.38
401.286	347.38
401.51	336.38
401.734	336.38
401.958	338.38
402.182	332.38
402.406	358.38
402.63	330.38
402.854	358.38
403.078	350.38
403.302	328.38
403.526	358.38
403.75	352.38
403.974	345.38
404.198	346.38
404.422	363.38
404.645	344.38
404.869	367.38
405.093	375.38
405.317	378.38
405.541	395.38
405.765	380.38
405.988	346.38
406.212	355.38
406.436	376.38
406.66	375.38
406.883	372.38
407.107	394.38
407.331	419.38
407.555	437.38
407.778	442.38
408.002	409.38
408.226	388.38
408.449	362.38
408.673	386.38
408.896	384.38
409.12	425.38
409.344	392.38
409.567	349.38
409.791	375.38
410.014	356.38
410.238	352.38
410.461	335.38
410.685	345.38
410.908	351.38
411.132	383.38
411.355	390.38
411.578	375.38
411.802	344.38
412.025	313.38
412.249	344.38
412.472	346.38
412.695	363.38
412.919	372.38
413.142	348.38
413.365	326.38
413.589	334.38
413.812	329.38
414.035	354.38
414.258	323.38
414.482	330.38
414.705	328.38
414.928	308.38
415.151	341.38
415.374	324.38
415.597	312.38
415.821	322.38
416.044	329.38
416.267	321.38
416.49	334.38
416.713	314.38
416.936	340.38
417.159	333.38
417.382	317.38
417.605	331.38
417.828	341.38
418.051	348.38
418.274	363.38
418.497	334.38
418.72	342.38
418.943	326.38
419.166	333.38
419.389	348.38
419.611	332.38
419.834	342.38
420.057	347.38
420.28	342.38
420.503	337.38
420.726	355.38
420.948	344.38
421.171	371.38
421.394	384.38
421.617	348.38
421.839	328.38
422.062	339.38
422.285	346.38
422.507	392.38
422.73	423.38
422.953	404.38
423.175	359.38
423.398	363.38
423.621	353.38
423.843	348.38
424.066	375.38
424.288	344.38
424.511	396.38
424.733	423.38
424.956	439.38
425.178	452.38
425.401	433.38
425.623	445.38
425.846	389.38
426.068	386.38
426.291	354.38
426.513	375.38
426.735	372.38
426.958	392.38
427.18	449.38
427.402	544.38
427.625	567.38
427.847	521.38
428.069	429.38
428.292	384.38
428.514	360.38
428.736	371.38
428.958	340.38
429.181	347.38
429.403	331.38
429.625	352.38
429.847	369.38
430.069	432.38
430.292	410.38
430.514	359.38
430.736	356.38
430.958	331.38
431.18	325.38
431.402	325.38
431.624	332.38
431.846	316.38
432.068	339.38
432.29	337.38
432.512	317.38
432.734	316.38
432.956	307.38
433.178	342.38
433.4	328.38
433.622	339.38
433.844	323.38
434.066	314.38
434.287	306.38
434.509	311.38
434.731	319.38
434.953	328.38
435.175	324.38
435.397	372.38
435.618	367.38
435.84	394.38
436.062	431.38
436.284	473.38
436.505	417.38
436.727	365.38
436.949	343.38
437.17	351.38
437.392	353.38
437.614	377.38
437.835	377.38
438.057	430.38
438.278	503.38
438.5	491.38
438.721	545.38
438.943	515.38
439.165	413.38
439.386	393.38
439.608	368.38
439.829	369.38
440.05	392.38
440.272	405.38
440.493	387.38
440.715	368.38
440.936	370.38
441.158	358.38
441.379	343.38
441.6	335.38
441.822	365.38
442.043	396.38
442.264	425.38
442.486	479.38
442.707	433.38
442.928	386.38
443.149	373.38
443.371	394.38
443.592	424.38
443.813	480.38
444.034	518.38
444.255	421.38
444.476	405.38
444.698	387.38
444.919	375.38
445.14	457.38
445.361	404.38
445.582	391.38
445.803	415.38
446.024	498.38
446.245	515.38
446.466	459.38
446.687	389.38
446.908	384.38
447.129	367.38
447.35	338.38
447.571	335.38
447.792	343.38
448.013	343.38
448.234	365.38
448.455	391.38
448.675	459.38
448.896	543.38
449.117	463.38
449.338	435.38
449.559	497.38
449.779	579.38
450	448.38
450.221	395.38
450.442	340.38
450.662	331.38
450.883	333.38
451.104	348.38
451.324	342.38
451.545	336.38
451.766	324.38
451.986	321.38
452.207	316.38
452.428	298.38
452.648	327.38
452.869	307.38
453.089	313.38
453.31	296.38
453.53	313.38
453.751	327.38
453.971	316.38
454.192	337.38
454.412	308.38
454.633	316.38
454.853	317.38
455.073	323.38
455.294	344.38
455.514	387.38
455.734	371.38
455.955	304.38
456.175	303.38
456.395	301.38
456.616	313.38
456.836	267.38
457.056	287.38
457.276	281.38
457.497	284.38
457.717	289.38
457.937	297.38
458.157	301.38
458.377	305.38
458.598	318.38
458.818	330.38
459.038	386.38
459.258	409.38
459.478	354.38
459.698	321.38
459.918	330.38
460.138	328.38
460.358	324.38
460.578	313.38
460.798	310.38
461.018	320.38
461.238	337.38
461.458	329.38
461.678	312.38
461.898	327.38
462.118	328.38
462.338	328.38
462.558	322.38
462.777	337.38
462.997	319.38
463.217	352.38
463.437	339.38
463.657	329.38
463.876	338.38
464.096	338.38
464.316	341.38
464.536	333.38
464.755	356.38
464.975	347.38
465.195	371.38
465.414	414.38
465.634	362.38
465.854	343.38
466.073	324.38
466.293	344.38
466.512	305.38
466.732	305.38
466.951	333.38
467.171	306.38
467.391	303.38
467.61	313.38
467.829	313.38
468.049	297.38
468.268	315.38
468.488	328.38
468.707	307.38
468.927	319.38
469.146	299.38
469.365	296.38
469.585	310.38
469.804	301.38
470.023	319.38
470.243	329.38
470.462	310.38
470.681	327.38
470.901	301.38
471.12	307.38
471.339	313.38
471.558	325.38
471.777	311.38
471.997	328.38
472.216	312.38
472.435	326.38
472.654	311.38
472.873	307.38
473.092	308.38
473.311	299.38
473.53	326.38
473.749	331.38
473.968	374.38
474.187	426.38
474.406	426.38
474.625	374.38
474.844	354.38
475.063	340.38
475.282	324.38
475.501	309.38
475.72	337.38
475.939	341.38
476.158	321.38
476.377	334.38
476.596	329.38
476.814	339.38
477.033	325.38
477.252	348.38
477.471	338.38
477.69	352.38
477.908	349.38
478.127	372.38
478.346	343.38
478.564	347.38
478.783	353.38
479.002	363.38
479.22	347.38
479.439	350.38
479.658	370.38
479.876	377.38
480.095	381.38
480.313	395.38
480.532	383.38
480.751	371.38
480.969	383.38
481.188	396.38
481.406	395.38
481.624	413.38
481.843	391.38
482.061	383.38
482.28	381.38
482.498	374.38
482.717	367.38
482.935	368.38
483.153	363.38
483.372	362.38
483.59	347.38
483.808	353.38
484.027	364.38
484.245	370.38
484.463	379.38
484.681	376.38
484.9	372.38
485.118	386.38
485.336	415.38
485.554	373.38
485.772	372.38
485.99	396.38
486.209	390.38
486.427	379.38
486.645	379.38
486.863	409.38
487.081	400.38
487.299	405.38
487.517	390.38
487.735	385.38
487.953	397.38
488.171	409.38
488.389	393.38
488.607	393.38
488.825	392.38
489.043	404.38
489.261	399.38
489.479	404.38
489.696	397.38
489.914	427.38
490.132	416.38
490.35	411.38
490.568	409.38
490.786	431.38
491.003	441.38
491.221	428.38
491.439	407.38
491.657	435.38
491.874	423.38
492.092	437.38
492.31	463.38
492.527	441.38
492.745	454.38
492.963	446.38
493.18	446.38
493.398	454.38
493.615	444.38
493.833	456.38
494.05	456.38
494.268	460.38
494.485	459.38
494.703	471.38
494.92	466.38
495.138	446.38
495.355	457.38
495.573	457.38
495.79	450.38
496.008	441.38
496.225	460.38
496.442	461.38
496.66	475.38
496.877	472.38
497.094	458.38
497.312	475.38
497.529	482.38
497.746	480.38
497.963	497.38
498.181	499.38
498.398	504.38
498.615	498.38
498.832	499.38
499.049	503.38
499.267	536.38
499.484	551.38
499.701	541.38
499.918	562.38
500.135	565.38
500.352	621.38
500.569	589.38
500.786	559.38
501.003	612.38
501.22	589.38
501.437	562.38
501.654	573.38
501.871	593.38
502.088	556.38
502.305	549.38
502.522	511.38
502.739	519.38
502.956	500.38
503.172	484.38
503.389	500.38
503.606	507.38
503.823	495.38
504.04	471.38
504.256	451.38
504.473	467.38
504.69	461.38
504.907	484.38
505.123	455.38
505.34	448.38
505.557	457.38
505.773	455.38
505.99	443.38
506.207	450.38
506.423	447.38
506.64	442.38
506.856	455.38
507.073	422.38
507.289	423.38
507.506	418.38
507.722	445.38
507.939	448.38
508.155	459.38
508.372	435.38
508.588	423.38
508.805	425.38
509.021	428.38
509.238	438.38
509.454	440.38
509.67	421.38
509.887	437.38
510.103	436.38
510.319	449.38
510.536	489.38
510.752	753.38
510.968	589.38
511.184	429.38
511.401	418.38
511.617	438.38
511.833	417.38
512.049	406.38
512.265	422.38
512.481	400.38
512.698	411.38
512.914	383.38
513.13	402.38
513.346	412.38
513.562	395.38
513.778	431.38
513.994	402.38
514.21	422.38
514.426	412.38
514.642	459.38
514.858	474.38
515.074	477.38
515.29	546.38
515.506	787.38
515.721	668.38
515.937	484.38
516.153	439.38
516.369	412.38
516.585	443.38
516.801	439.38
517.016	418.38
517.232	401.38
517.448	403.38
517.664	408.38
517.879	422.38
518.095	387.38
518.311	404.38
518.527	403.38
518.742	397.38
518.958	420.38
519.173	422.38
519.389	420.38
519.605	413.38
519.82	395.38
520.036	423.38
520.251	424.38
520.467	426.38
520.682	441.38
520.898	423.38
521.113	444.38
521.329	465.38
521.544	529.38
521.76	612.38
521.975	992.38
522.19	934.38
522.406	590.38
522.621	445.38
522.836	405.38
523.052	382.38
523.267	397.38
523.482	375.38
523.698	360.38
523.913	379.38
524.128	385.38
524.343	359.38
524.559	372.38
524.774	355.38
524.989	359.38
525.204	381.38
525.419	369.38
525.634	357.38
525.849	351.38
526.064	354.38
526.28	358.38
526.495	345.38
526.71	338.38
526.925	331.38
527.14	332.38
527.355	351.38
527.57	364.38
527.785	349.38
527.999	345.38
528.214	345.38
528.429	333.38
528.644	352.38
528.859	330.38
529.074	340.38
529.289	347.38
529.503	406.38
529.718	384.38
529.933	361.38
530.148	342.38
530.363	340.38
530.577	325.38
530.792	324.38
531.007	337.38
531.221	335.38
531.436	322.38
531.651	338.38
531.865	334.38
532.08	338.38
532.295	322.38
532.509	324.38
532.724	338.38
532.938	317.38
533.153	337.38
533.367	325.38
533.582	336.38
533.796	332.38
534.011	330.38
534.225	326.38
534.44	314.38
534.654	308.38
534.868	321.38
535.083	332.38
535.297	307.38
535.511	334.38
535.726	337.38
535.94	324.38
536.154	303.38
536.369	315.38
536.583	322.38
536.797	330.38
537.011	312.38
537.225	333.38
537.44	317.38
537.654	301.38
537.868	309.38
538.082	300.38
538.296	310.38
538.51	314.38
538.724	319.38
538.938	323.38
539.153	316.38
539.367	321.38
539.581	324.38
539.795	321.38
540.009	300.38
540.222	327.38
540.436	308.38
540.65	329.38
540.864	324.38
541.078	341.38
541.292	324.38
541.506	307.38
541.72	309.38
541.934	309.38
542.147	320.38
542.361	310.38
542.575	309.38
542.789	311.38
543.002	302.38
543.216	314.38
543.43	323.38
543.644	314.38
543.857	314.38
544.071	318.38
544.285	317.38
544.498	297.38
544.712	323.38
544.925	307.38
545.139	317.38
545.352	305.38
545.566	307.38
545.779	295.38
545.993	311.38
546.206	314.38
546.42	310.38
546.633	310.38
546.847	304.38
547.06	312.38
547.274	307.38
547.487	298.38
547.7	291.38
547.914	316.38
548.127	305.38
548.34	311.38
548.554	295.38
548.767	307.38
548.98	308.38
549.193	304.38
549.407	291.38
549.62	303.38
549.833	307.38
550.046	286.38
550.259	303.38
550.473	309.38
550.686	313.38
550.899	287.38
551.112	295.38
551.325	291.38
551.538	304.38
551.751	303.38
551.964	302.38
552.177	287.38
552.39	278.38
552.603	296.38
552.816	293.38
553.029	295.38
553.242	298.38
553.455	289.38
553.667	311.38
553.88	302.38
554.093	306.38
554.306	275.38
554.519	314.38
554.732	273.38
554.944	294.38
555.157	293.38
555.37	292.38
555.583	291.38
555.795	285.38
556.008	276.38
556.221	279.38
556.433	282.38
556.646	268.38
556.859	279.38
557.071	261.38
557.284	276.38
557.496	293.38
557.709	282.38
557.921	272.38
558.134	274.38
558.346	270.38
558.559	274.38
558.771	256.38
558.984	261.38
559.196	265.38
559.409	269.38
559.621	276.38
559.833	259.38
560.046	263.38
560.258	260.38
560.47	263.38
560.683	264.38
560.895	274.38
561.107	261.38
561.32	287.38
561.532	265.38
561.744	277.38
561.956	277.38
562.168	266.38
562.381	278.38
562.593	287.38
562.805	276.38
563.017	278.38
563.229	301.38
563.441	267.38
563.653	280.38
563.865	269.38
564.077	262.38
564.289	267.38
564.501	272.38
564.713	291.38
564.925	286.38
565.137	297.38
565.349	298.38
565.561	290.38
565.773	292.38
565.985	284.38
566.197	299.38
566.408	295.38
566.62	307.38
566.832	311.38
567.044	311.38
567.255	314.38
567.467	301.38
567.679	296.38
567.891	301.38
568.102	308.38
568.314	305.38
568.526	287.38
568.737	295.38
568.949	300.38
569.161	282.38
569.372	291.38
569.584	269.38
569.795	285.38
570.007	291.38
570.218	293.38
570.43	292.38
570.641	274.38
570.853	270.38
571.064	282.38
571.276	265.38
571.487	253.38
571.698	270.38
571.91	273.38
572.121	259.38
572.333	264.38
572.544	243.38
572.755	239.38
572.966	249.38
573.178	243.38
573.389	236.38
573.6	243.38
573.811	242.38
574.023	237.38
574.234	263.38
574.445	233.38
574.656	231.38
574.867	236.38
575.078	236.38
575.289	240.38
575.501	232.38
575.712	227.38
575.923	228.38
576.134	221.38
576.345	224.38
576.556	249.38
576.767	235.38
576.978	230.38
577.188	228.38
577.399	218.38
577.61	237.38
577.821	215.38
578.032	221.38
578.243	249.38
578.454	365.38
578.665	293.38
578.875	240.38
579.086	225.38
579.297	239.38
579.508	228.38
579.718	230.38
579.929	231.38
580.14	223.38
580.35	214.38
580.561	219.38
580.772	218.38
580.982	222.38
581.193	215.38
581.403	220.38
581.614	228.38
581.825	222.38
582.035	216.38
582.246	211.38
582.456	212.38
582.667	211.38
582.877	186.38
583.087	207.38
583.298	220.38
583.508	224.38
583.719	218.38
583.929	228.38
584.139	211.38
584.35	215.38
584.56	215.38
584.77	216.38
584.981	204.38
585.191	229.38
585.401	222.38
585.611	228.38
585.821	215.38
586.032	214.38
586.242	213.38
586.452	211.38
586.662	219.38
586.872	212.38
587.082	206.38
587.292	213.38
587.502	230.38
587.713	202.38
587.923	218.38
588.133	206.38
588.343	219.38
588.553	212.38
588.762	211.38
588.972	229.38
589.182	269.38
589.392	273.38
589.602	218.38
589.812	258.38
590.022	240.38
590.232	227.38
590.441	185.38
590.651	206.38
590.861	203.38
591.071	203.38
591.281	212.38
591.49	199.38
591.7	214.38
591.91	211.38
592.119	218.38
592.329	211.38
592.539	223.38
592.748	209.38
592.958	195.38
593.167	228.38
593.377	206.38
593.587	216.38
593.796	218.38
594.006	226.38
594.215	214.38
594.424	218.38
594.634	209.38
594.843	199.38
595.053	211.38
595.262	216.38
595.472	213.38
595.681	210.38
595.89	216.38
596.1	217.38
596.309	199.38
596.518	204.38
596.727	192.38
596.937	190.38
597.146	202.38
597.355	204.38
597.564	199.38
597.774	196.38
597.983	184.38
598.192	192.38
598.401	182.38
598.61	183.38
598.819	183.38
599.028	186.38
599.237	189.38
599.446	191.38
599.655	200.38
599.864	193.38
600.073	194.38
600.282	179.38
600.491	187.38
600.7	181.38
600.909	184.38
601.118	195.38
601.327	184.38
601.536	176.38
601.745	183.38
601.953	205.38
602.162	194.38
602.371	195.38
602.58	195.38
602.789	186.38
602.997	185.38
603.206	192.38
603.415	191.38
603.623	170.38
603.832	179.38
604.041	178.38
604.249	189.38
604.458	197.38
604.666	182.38
604.875	191.38
605.084	179.38
605.292	175.38
605.501	189.38
605.709	155.38
605.918	172.38
606.126	177.38
606.334	182.38
606.543	181.38
606.751	192.38
606.96	193.38
607.168	168.38
607.376	178.38
607.585	187.38
607.793	173.38
608.001	178.38
608.21	193.38
608.418	185.38
608.626	187.38
608.834	195.38
609.043	188.38
609.251	179.38
609.459	171.38
609.667	165.38
609.875	181.38
610.083	193.38
610.291	183.38
610.499	162.38
610.707	178.38
610.916	184.38
611.124	190.38
611.332	184.38
611.54	187.38
611.748	178.38
611.955	160.38
612.163	184.38
612.371	175.38
612.579	184.38
612.787	166.38
612.995	177.38
613.203	170.38
613.411	179.38
613.618	155.38
613.826	180.38
614.034	169.38
614.242	185.38
614.449	183.38
614.657	189.38
614.865	184.38
615.072	189.38
615.28	166.38
615.488	189.38
615.695	183.38
615.903	161.38
616.111	175.38
616.318	191.38
616.526	171.38
616.733	166.38
616.941	179.38
617.148	180.38
617.356	197.38
617.563	175.38
617.771	184.38
617.978	170.38
618.185	177.38
618.393	183.38
618.6	178.38
618.807	166.38
619.015	155.38
619.222	185.38
619.429	167.38
619.637	165.38
619.844	168.38
620.051	163.38
620.258	167.38
620.466	177.38
620.673	156.38
620.88	159.38
621.087	157.38
621.294	165.38
621.501	177.38
621.708	171.38
621.915	164.38
622.122	157.38
622.329	152.38
622.536	160.38
622.743	148.38
622.95	179.38
623.157	160.38
623.364	159.38
623.571	161.38
623.778	172.38
623.985	169.38
624.192	153.38
624.399	170.38
624.606	168.38
624.812	159.38
625.019	145.38
625.226	171.38
625.433	178.38
625.639	178.38
625.846	160.38
626.053	161.38
626.259	158.38
626.466	165.38
626.673	158.38
626.879	162.38
627.086	157.38
627.293	160.38
627.499	161.38
627.706	166.38
627.912	148.38
628.119	157.38
628.325	151.38
628.532	168.38
628.738	162.38
628.945	150.38
629.151	148.38
629.357	137.38
629.564	149.38
629.77	166.38
629.976	160.38
630.183	152.38
630.389	148.38
630.595	141.38
630.802	135.38
631.008	147.38
631.214	155.38
631.42	148.38
631.627	166.38
631.833	149.38
632.039	148.38
632.245	156.38
632.451	152.38
632.657	154.38
632.863	150.38
633.069	135.38
633.275	146.38
633.481	145.38
633.688	156.38
633.893	147.38
634.099	159.38
634.305	149.38
634.511	144.38
634.717	147.38
634.923	138.38
635.129	144.38
635.335	152.38
635.541	132.38
635.747	133.38
635.952	132.38
636.158	127.38
636.364	136.38
636.57	147.38
636.775	140.38
636.981	142.38
637.187	170.38
637.392	161.38
637.598	145.38
637.804	139.38
638.009	137.38
638.215	144.38
638.421	143.38
638.626	136.38
638.832	141.38
639.037	124.38
639.243	163.38
639.448	141.38
639.654	125.38
639.859	152.38
640.065	139.38
640.27	138.38
640.475	159.38
640.681	134.38
640.886	159.38
641.091	132.38
641.297	148.38
641.502	143.38
641.707	131.38
641.913	149.38
642.118	135.38
642.323	140.38
642.528	137.38
642.733	147.38
642.939	145.38
643.144	141.38
643.349	143.38
643.554	132.38
643.759	129.38
643.964	128.38
644.169	127.38
644.374	134.38
644.579	133.38
644.784	138.38
644.989	129.38
645.194	139.38
645.399	130.38
645.604	131.38
645.809	141.38
646.014	133.38
646.219	140.38
646.423	131.38
646.628	131.38
646.833	148.38
647.038	137.38
647.243	135.38
647.447	136.38
647.652	127.38
647.857	131.38
648.062	130.38
648.266	137.38
648.471	138.38
648.676	147.38
648.88	123.38
649.085	122.38
649.289	150.38
649.494	137.38
649.698	142.38
649.903	157.38
650.107	121.38
650.312	139.38
650.516	124.38
650.721	119.38
650.925	125.38
651.13	141.38
651.334	141.38
651.539	139.38
651.743	125.38
651.947	129.38
652.152	138.38
652.356	129.38
652.56	137.38
652.764	120.38
652.969	117.38
653.173	118.38
653.377	125.38
653.581	118.38
653.785	111.38
653.99	129.38
654.194	118.38
654.398	122.38
654.602	133.38
654.806	110.38
655.01	118.38
655.214	116.38
655.418	133.38
655.622	115.38
655.826	127.38
656.03	129.38
656.234	108.38
656.438	114.38
656.642	100.38
656.846	121.38
657.049	105.38
657.253	128.38
657.457	106.38
657.661	109.38
657.865	114.38
658.068	100.38
658.272	104.38
658.476	106.38
658.68	103.38
658.883	97.38
659.087	95.38
659.291	87.38
659.494	90.38
659.698	96.38
659.901	90.38
660.105	90.38
660.309	89.38
660.512	101.38
660.716	97.38
660.919	89.38
661.123	97.38
661.326	87.38
661.53	88.38
661.733	92.38
661.936	85.38
662.14	88.38
662.343	83.38
662.546	83.38
662.75	84.38
662.953	76.38
663.156	91.38
663.36	69.38
663.563	76.38
663.766	75.38
663.969	100.38
664.173	88.38
664.376	93.38
664.579	72.38
664.782	58.38
664.985	85.38
665.188	77.38
665.391	84.38
665.594	95.38
665.797	85.38
666	80.38
666.203	79.38
666.406	87.38
666.609	71.38
666.812	77.38
667.015	83.38
667.218	92.38
667.421	89.38
667.624	84.38
667.827	72.38
668.03	64.38
668.232	73.38
668.435	73.38
668.638	81.38
668.841	75.38
669.043	83.38
669.246	89.38
669.449	76.38
669.651	70.38
669.854	63.38
670.057	82.38
670.259	78.38
670.462	64.38
670.665	67.38
670.867	79.38
671.07	92.38
671.272	72.38
671.475	78.38
671.677	79.38
671.88	81.38
672.082	83.38
672.284	77.38
672.487	63.38
672.689	84.38
672.892	63.38
