Data from 1981.PennyLincolnUp.Lamp.En5.5.200Scan.071819.P1_HRD10591_16-42-15-959.txt Node
Date: Thu Jul 18 16:42:15 EDT 2019
User: cochatt
Spectrometer: HR+D1059
Trigger mode: 1
Integration Time (sec): 1.000000E-1
Scans to average: 1
Electric dark correction enabled: true
Nonlinearity correction enabled: false
Boxcar width: 0
XAxis mode: Wavelengths
Number of Pixels in Spectrum: 2048
>>>>>Begin Spectral Data<<<<<
223.165	-12.31
223.4	-12.31
223.635	-12.31
223.869	-19.31
224.104	-8.31
224.338	-23.31
224.573	-21.31
224.808	-21.31
225.042	-7.31
225.277	-11.31
225.511	1.69
225.746	10.69
225.98	7.69
226.215	2.69
226.449	29.69
226.683	22.69
226.918	22.69
227.152	26.69
227.387	32.69
227.621	50.69
227.856	55.69
228.09	51.69
228.324	38.69
228.559	58.69
228.793	63.69
229.027	107.69
229.262	107.69
229.496	118.69
229.73	142.69
229.964	142.69
230.199	132.69
230.433	124.69
230.667	114.69
230.901	123.69
231.136	117.69
231.37	114.69
231.604	102.69
231.838	114.69
232.072	104.69
232.306	118.69
232.541	121.69
232.775	120.69
233.009	119.69
233.243	119.69
233.477	118.69
233.711	104.69
233.945	113.69
234.179	111.69
234.413	116.69
234.647	110.69
234.881	114.69
235.115	124.69
235.349	136.69
235.583	130.69
235.817	127.69
236.051	124.69
236.285	126.69
236.519	120.69
236.753	134.69
236.987	161.69
237.221	184.69
237.455	231.69
237.689	198.69
237.922	143.69
238.156	134.69
238.39	124.69
238.624	126.69
238.858	139.69
239.091	123.69
239.325	123.69
239.559	135.69
239.793	133.69
240.027	127.69
240.26	162.69
240.494	144.69
240.728	156.69
240.961	156.69
241.195	154.69
241.429	128.69
241.662	140.69
241.896	138.69
242.13	124.69
242.363	143.69
242.597	127.69
242.83	142.69
243.064	132.69
243.298	124.69
243.531	122.69
243.765	119.69
243.998	139.69
244.232	136.69
244.465	148.69
244.699	139.69
244.932	136.69
245.166	135.69
245.399	144.69
245.633	141.69
245.866	147.69
246.099	148.69
246.333	158.69
246.566	142.69
246.8	154.69
247.033	160.69
247.266	166.69
247.5	175.69
247.733	160.69
247.966	174.69
248.2	154.69
248.433	180.69
248.666	178.69
248.899	180.69
249.133	202.69
249.366	221.69
249.599	205.69
249.832	193.69
250.066	182.69
250.299	190.69
250.532	190.69
250.765	212.69
250.998	236.69
251.231	254.69
251.465	230.69
251.698	211.69
251.931	208.69
252.164	218.69
252.397	223.69
252.63	214.69
252.863	219.69
253.096	216.69
253.329	226.69
253.562	238.69
253.795	230.69
254.028	222.69
254.261	223.69
254.494	231.69
254.727	284.69
254.96	289.69
255.193	307.69
255.426	267.69
255.659	244.69
255.892	259.69
256.124	253.69
256.357	240.69
256.59	236.69
256.823	226.69
257.056	211.69
257.289	236.69
257.521	222.69
257.754	212.69
257.987	224.69
258.22	214.69
258.452	214.69
258.685	213.69
258.918	212.69
259.151	215.69
259.383	242.69
259.616	236.69
259.849	240.69
260.081	235.69
260.314	279.69
260.547	286.69
260.779	256.69
261.012	250.69
261.244	229.69
261.477	246.69
261.71	227.69
261.942	225.69
262.175	250.69
262.407	248.69
262.64	230.69
262.872	219.69
263.105	239.69
263.337	233.69
263.57	207.69
263.802	213.69
264.035	216.69
264.267	216.69
264.499	230.69
264.732	228.69
264.964	219.69
265.197	227.69
265.429	208.69
265.661	220.69
265.894	229.69
266.126	229.69
266.358	222.69
266.591	206.69
266.823	229.69
267.055	232.69
267.287	237.69
267.52	236.69
267.752	227.69
267.984	242.69
268.216	210.69
268.448	247.69
268.681	262.69
268.913	263.69
269.145	270.69
269.377	316.69
269.609	298.69
269.841	280.69
270.073	290.69
270.306	298.69
270.538	318.69
270.77	331.69
271.002	331.69
271.234	315.69
271.466	318.69
271.698	354.69
271.93	344.69
272.162	354.69
272.394	331.69
272.626	320.69
272.858	307.69
273.09	302.69
273.322	289.69
273.553	277.69
273.785	280.69
274.017	292.69
274.249	283.69
274.481	269.69
274.713	291.69
274.945	280.69
275.176	278.69
275.408	262.69
275.64	251.69
275.872	262.69
276.104	270.69
276.335	275.69
276.567	276.69
276.799	301.69
277.031	332.69
277.262	332.69
277.494	325.69
277.726	303.69
277.957	312.69
278.189	296.69
278.421	279.69
278.652	275.69
278.884	277.69
279.115	289.69
279.347	278.69
279.579	283.69
279.81	278.69
280.042	264.69
280.273	265.69
280.505	282.69
280.736	272.69
280.968	278.69
281.199	270.69
281.431	279.69
281.662	271.69
281.894	276.69
282.125	276.69
282.356	313.69
282.588	317.69
282.819	319.69
283.051	296.69
283.282	285.69
283.513	275.69
283.745	278.69
283.976	291.69
284.207	277.69
284.439	280.69
284.67	282.69
284.901	271.69
285.132	284.69
285.364	283.69
285.595	271.69
285.826	286.69
286.057	280.69
286.288	284.69
286.52	295.69
286.751	292.69
286.982	293.69
287.213	286.69
287.444	275.69
287.675	311.69
287.906	292.69
288.138	306.69
288.369	309.69
288.6	317.69
288.831	306.69
289.062	324.69
289.293	294.69
289.524	288.69
289.755	296.69
289.986	291.69
290.217	282.69
290.448	302.69
290.679	298.69
290.91	295.69
291.141	294.69
291.371	300.69
291.602	292.69
291.833	283.69
292.064	271.69
292.295	276.69
292.526	310.69
292.757	278.69
292.987	287.69
293.218	285.69
293.449	311.69
293.68	294.69
293.91	298.69
294.141	299.69
294.372	289.69
294.603	290.69
294.833	307.69
295.064	301.69
295.295	304.69
295.525	298.69
295.756	298.69
295.987	298.69
296.217	351.69
296.448	332.69
296.679	320.69
296.909	295.69
297.14	297.69
297.37	292.69
297.601	296.69
297.831	306.69
298.062	294.69
298.292	314.69
298.523	302.69
298.753	302.69
298.984	304.69
299.214	307.69
299.445	310.69
299.675	310.69
299.905	327.69
300.136	310.69
300.366	315.69
300.597	330.69
300.827	338.69
301.057	335.69
301.288	326.69
301.518	332.69
301.748	302.69
301.979	329.69
302.209	344.69
302.439	333.69
302.669	308.69
302.9	326.69
303.13	325.69
303.36	323.69
303.59	338.69
303.82	346.69
304.051	325.69
304.281	336.69
304.511	334.69
304.741	317.69
304.971	323.69
305.201	320.69
305.431	328.69
305.661	322.69
305.891	338.69
306.121	331.69
306.352	336.69
306.582	336.69
306.812	330.69
307.042	320.69
307.272	324.69
307.502	319.69
307.731	336.69
307.961	326.69
308.191	339.69
308.421	353.69
308.651	347.69
308.881	347.69
309.111	358.69
309.341	343.69
309.571	362.69
309.8	382.69
310.03	394.69
310.26	384.69
310.49	394.69
310.72	404.69
310.949	399.69
311.179	423.69
311.409	387.69
311.639	391.69
311.868	407.69
312.098	389.69
312.328	419.69
312.557	404.69
312.787	415.69
313.017	452.69
313.246	412.69
313.476	382.69
313.706	372.69
313.935	411.69
314.165	418.69
314.394	435.69
314.624	400.69
314.853	401.69
315.083	401.69
315.312	391.69
315.542	390.69
315.771	375.69
316.001	393.69
316.23	386.69
316.46	389.69
316.689	372.69
316.919	404.69
317.148	391.69
317.377	403.69
317.607	384.69
317.836	386.69
318.065	403.69
318.295	397.69
318.524	387.69
318.753	378.69
318.983	372.69
319.212	384.69
319.441	390.69
319.67	425.69
319.9	390.69
320.129	397.69
320.358	401.69
320.587	400.69
320.816	415.69
321.046	428.69
321.275	420.69
321.504	413.69
321.733	418.69
321.962	439.69
322.191	458.69
322.42	461.69
322.649	472.69
322.878	476.69
323.108	493.69
323.337	510.69
323.566	550.69
323.795	591.69
324.024	670.69
324.253	825.69
324.482	1208.69
324.71	1857.69
324.939	2523.69
325.168	2125.69
325.397	1110.69
325.626	743.69
325.855	627.69
326.084	586.69
326.313	541.69
326.542	569.69
326.77	600.69
326.999	765.69
327.228	1069.69
327.457	1580.69
327.686	1839.69
327.914	1204.69
328.143	822.69
328.372	684.69
328.6	678.69
328.829	628.69
329.058	644.69
329.287	651.69
329.515	581.69
329.744	556.69
329.972	543.69
330.201	565.69
330.43	615.69
330.658	642.69
330.887	677.69
331.115	642.69
331.344	568.69
331.572	519.69
331.801	511.69
332.03	516.69
332.258	480.69
332.486	476.69
332.715	464.69
332.943	433.69
333.172	465.69
333.4	460.69
333.629	476.69
333.857	489.69
334.085	483.69
334.314	533.69
334.542	550.69
334.771	551.69
334.999	504.69
335.227	467.69
335.455	441.69
335.684	446.69
335.912	434.69
336.14	429.69
336.369	438.69
336.597	442.69
336.825	466.69
337.053	444.69
337.281	450.69
337.51	426.69
337.738	454.69
337.966	445.69
338.194	466.69
338.422	434.69
338.65	438.69
338.878	441.69
339.106	428.69
339.334	426.69
339.562	434.69
339.79	435.69
340.018	425.69
340.246	408.69
340.474	431.69
340.702	424.69
340.93	421.69
341.158	427.69
341.386	392.69
341.614	434.69
341.842	425.69
342.07	408.69
342.298	402.69
342.526	406.69
342.754	399.69
342.981	383.69
343.209	398.69
343.437	397.69
343.665	411.69
343.893	431.69
344.12	426.69
344.348	427.69
344.576	438.69
344.804	412.69
345.031	426.69
345.259	436.69
345.487	425.69
345.714	435.69
345.942	415.69
346.17	413.69
346.397	411.69
346.625	422.69
346.853	416.69
347.08	399.69
347.308	418.69
347.535	425.69
347.763	424.69
347.99	418.69
348.218	415.69
348.445	412.69
348.673	416.69
348.9	403.69
349.128	401.69
349.355	400.69
349.583	390.69
349.81	382.69
350.037	382.69
350.265	397.69
350.492	430.69
350.72	380.69
350.947	404.69
351.174	434.69
351.402	429.69
351.629	422.69
351.856	433.69
352.083	405.69
352.311	427.69
352.538	461.69
352.765	432.69
352.992	416.69
353.22	395.69
353.447	407.69
353.674	403.69
353.901	399.69
354.128	371.69
354.355	388.69
354.583	376.69
354.81	376.69
355.037	364.69
355.264	370.69
355.491	358.69
355.718	364.69
355.945	387.69
356.172	361.69
356.399	353.69
356.626	387.69
356.853	372.69
357.08	370.69
357.307	345.69
357.534	354.69
357.761	361.69
357.988	364.69
358.215	372.69
358.441	379.69
358.668	371.69
358.895	381.69
359.122	371.69
359.349	413.69
359.576	404.69
359.802	442.69
360.029	431.69
360.256	461.69
360.483	438.69
360.709	419.69
360.936	411.69
361.163	394.69
361.39	394.69
361.616	413.69
361.843	394.69
362.07	384.69
362.296	387.69
362.523	386.69
362.749	401.69
362.976	405.69
363.203	380.69
363.429	385.69
363.656	379.69
363.882	380.69
364.109	367.69
364.335	368.69
364.562	391.69
364.788	366.69
365.015	382.69
365.241	394.69
365.468	401.69
365.694	380.69
365.92	381.69
366.147	357.69
366.373	385.69
366.599	371.69
366.826	370.69
367.052	384.69
367.278	376.69
367.505	362.69
367.731	374.69
367.957	384.69
368.184	376.69
368.41	374.69
368.636	372.69
368.862	378.69
369.089	377.69
369.315	378.69
369.541	355.69
369.767	374.69
369.993	365.69
370.219	376.69
370.445	367.69
370.672	373.69
370.898	364.69
371.124	354.69
371.35	357.69
371.576	358.69
371.802	350.69
372.028	358.69
372.254	362.69
372.48	359.69
372.706	364.69
372.932	364.69
373.158	363.69
373.384	349.69
373.61	356.69
373.835	356.69
374.061	353.69
374.287	383.69
374.513	359.69
374.739	368.69
374.965	360.69
375.191	348.69
375.416	355.69
375.642	370.69
375.868	372.69
376.094	364.69
376.319	358.69
376.545	371.69
376.771	346.69
376.997	367.69
377.222	356.69
377.448	358.69
377.674	340.69
377.899	333.69
378.125	328.69
378.35	331.69
378.576	348.69
378.802	352.69
379.027	350.69
379.253	350.69
379.478	363.69
379.704	342.69
379.929	347.69
380.155	352.69
380.38	338.69
380.606	334.69
380.831	348.69
381.057	363.69
381.282	355.69
381.507	357.69
381.733	356.69
381.958	356.69
382.184	345.69
382.409	342.69
382.634	365.69
382.86	343.69
383.085	349.69
383.31	359.69
383.535	351.69
383.761	349.69
383.986	351.69
384.211	360.69
384.436	356.69
384.662	374.69
384.887	376.69
385.112	363.69
385.337	356.69
385.562	373.69
385.787	358.69
386.013	376.69
386.238	386.69
386.463	379.69
386.688	367.69
386.913	359.69
387.138	367.69
387.363	357.69
387.588	384.69
387.813	388.69
388.038	361.69
388.263	360.69
388.488	374.69
388.713	370.69
388.938	350.69
389.163	357.69
389.387	360.69
389.612	359.69
389.837	379.69
390.062	358.69
390.287	380.69
390.512	354.69
390.736	357.69
390.961	358.69
391.186	383.69
391.411	348.69
391.636	367.69
391.86	374.69
392.085	350.69
392.31	372.69
392.534	364.69
392.759	376.69
392.984	368.69
393.208	359.69
393.433	374.69
393.658	371.69
393.882	369.69
394.107	376.69
394.331	382.69
394.556	382.69
394.78	381.69
395.005	376.69
395.229	362.69
395.454	372.69
395.678	370.69
395.903	376.69
396.127	402.69
396.352	407.69
396.576	388.69
396.801	384.69
397.025	367.69
397.249	388.69
397.474	386.69
397.698	396.69
397.922	400.69
398.147	411.69
398.371	392.69
398.595	412.69
398.82	409.69
399.044	395.69
399.268	409.69
399.492	442.69
399.717	454.69
399.941	463.69
400.165	464.69
400.389	483.69
400.613	460.69
400.837	426.69
401.062	412.69
401.286	406.69
401.51	419.69
401.734	410.69
401.958	412.69
402.182	407.69
402.406	400.69
402.63	423.69
402.854	430.69
403.078	449.69
403.302	412.69
403.526	431.69
403.75	416.69
403.974	421.69
404.198	413.69
404.422	421.69
404.645	447.69
404.869	428.69
405.093	472.69
405.317	488.69
405.541	533.69
405.765	480.69
405.988	443.69
406.212	478.69
406.436	464.69
406.66	483.69
406.883	452.69
407.107	478.69
407.331	513.69
407.555	580.69
407.778	558.69
408.002	526.69
408.226	483.69
408.449	477.69
408.673	474.69
408.896	497.69
409.12	517.69
409.344	496.69
409.567	455.69
409.791	418.69
410.014	422.69
410.238	406.69
410.461	432.69
410.685	421.69
410.908	429.69
411.132	467.69
411.355	527.69
411.578	492.69
411.802	454.69
412.025	424.69
412.249	430.69
412.472	458.69
412.695	474.69
412.919	477.69
413.142	449.69
413.365	408.69
413.589	403.69
413.812	399.69
414.035	403.69
414.258	393.69
414.482	391.69
414.705	397.69
414.928	408.69
415.151	390.69
415.374	384.69
415.597	393.69
415.821	394.69
416.044	389.69
416.267	397.69
416.49	402.69
416.713	367.69
416.936	380.69
417.159	394.69
417.382	400.69
417.605	398.69
417.828	427.69
418.051	423.69
418.274	411.69
418.497	401.69
418.72	397.69
418.943	382.69
419.166	420.69
419.389	416.69
419.611	408.69
419.834	424.69
420.057	430.69
420.28	418.69
420.503	420.69
420.726	412.69
420.948	445.69
421.171	467.69
421.394	498.69
421.617	432.69
421.839	419.69
422.062	431.69
422.285	445.69
422.507	488.69
422.73	559.69
422.953	542.69
423.175	456.69
423.398	447.69
423.621	453.69
423.843	454.69
424.066	489.69
424.288	490.69
424.511	477.69
424.733	535.69
424.956	607.69
425.178	573.69
425.401	575.69
425.623	606.69
425.846	485.69
426.068	487.69
426.291	498.69
426.513	487.69
426.735	463.69
426.958	524.69
427.18	591.69
427.402	708.69
427.625	776.69
427.847	738.69
428.069	606.69
428.292	503.69
428.514	485.69
428.736	452.69
428.958	443.69
429.181	458.69
429.403	419.69
429.625	452.69
429.847	499.69
430.069	501.69
430.292	525.69
430.514	450.69
430.736	410.69
430.958	428.69
431.18	421.69
431.402	416.69
431.624	406.69
431.846	400.69
432.068	420.69
432.29	408.69
432.512	410.69
432.734	415.69
432.956	396.69
433.178	407.69
433.4	423.69
433.622	411.69
433.844	393.69
434.066	400.69
434.287	393.69
434.509	398.69
434.731	417.69
434.953	436.69
435.175	438.69
435.397	432.69
435.618	479.69
435.84	501.69
436.062	593.69
436.284	655.69
436.505	549.69
436.727	481.69
436.949	461.69
437.17	437.69
437.392	441.69
437.614	430.69
437.835	486.69
438.057	570.69
438.278	679.69
438.5	684.69
438.721	687.69
438.943	683.69
439.165	550.69
439.386	514.69
439.608	479.69
439.829	486.69
440.05	514.69
440.272	551.69
440.493	537.69
440.715	480.69
440.936	464.69
441.158	454.69
441.379	444.69
441.6	448.69
441.822	454.69
442.043	514.69
442.264	607.69
442.486	613.69
442.707	528.69
442.928	509.69
443.149	502.69
443.371	516.69
443.592	542.69
443.813	623.69
444.034	655.69
444.255	577.69
444.476	478.69
444.698	472.69
444.919	450.69
445.14	601.69
445.361	536.69
445.582	504.69
445.803	594.69
446.024	671.69
446.245	684.69
446.466	595.69
446.687	531.69
446.908	475.69
447.129	445.69
447.35	440.69
447.571	450.69
447.792	431.69
448.013	470.69
448.234	452.69
448.455	489.69
448.675	629.69
448.896	703.69
449.117	574.69
449.338	565.69
449.559	644.69
449.779	736.69
450	606.69
450.221	500.69
450.442	439.69
450.662	433.69
450.883	452.69
451.104	468.69
451.324	448.69
451.545	444.69
451.766	382.69
451.986	397.69
452.207	399.69
452.428	370.69
452.648	388.69
452.869	387.69
453.089	399.69
453.31	384.69
453.53	388.69
453.751	382.69
453.971	408.69
454.192	423.69
454.412	407.69
454.633	382.69
454.853	390.69
455.073	385.69
455.294	428.69
455.514	490.69
455.734	467.69
455.955	397.69
456.175	374.69
456.395	345.69
456.616	354.69
456.836	377.69
457.056	384.69
457.276	352.69
457.497	379.69
457.717	378.69
457.937	374.69
458.157	367.69
458.377	376.69
458.598	392.69
458.818	450.69
459.038	568.69
459.258	548.69
459.478	451.69
459.698	394.69
459.918	392.69
460.138	376.69
460.358	381.69
460.578	394.69
460.798	383.69
461.018	408.69
461.238	403.69
461.458	376.69
461.678	382.69
461.898	400.69
462.118	379.69
462.338	394.69
462.558	395.69
462.777	413.69
462.997	407.69
463.217	420.69
463.437	402.69
463.657	411.69
463.876	401.69
464.096	414.69
464.316	419.69
464.536	429.69
464.755	425.69
464.975	438.69
465.195	488.69
465.414	542.69
465.634	453.69
465.854	438.69
466.073	397.69
466.293	410.69
466.512	395.69
466.732	390.69
466.951	372.69
467.171	390.69
467.391	390.69
467.61	403.69
467.829	405.69
468.049	407.69
468.268	403.69
468.488	409.69
468.707	376.69
468.927	382.69
469.146	370.69
469.365	402.69
469.585	362.69
469.804	377.69
470.023	390.69
470.243	386.69
470.462	399.69
470.681	418.69
470.901	423.69
471.12	385.69
471.339	382.69
471.558	390.69
471.777	397.69
471.997	383.69
472.216	397.69
472.435	427.69
472.654	409.69
472.873	387.69
473.092	395.69
473.311	392.69
473.53	392.69
473.749	395.69
473.968	465.69
474.187	537.69
474.406	592.69
474.625	478.69
474.844	411.69
475.063	392.69
475.282	410.69
475.501	416.69
475.72	415.69
475.939	416.69
476.158	410.69
476.377	405.69
476.596	412.69
476.814	427.69
477.033	412.69
477.252	422.69
477.471	397.69
477.69	422.69
477.908	411.69
478.127	421.69
478.346	429.69
478.564	428.69
478.783	437.69
479.002	464.69
479.22	452.69
479.439	467.69
479.658	475.69
479.876	483.69
480.095	475.69
480.313	493.69
480.532	492.69
480.751	480.69
480.969	477.69
481.188	532.69
481.406	571.69
481.624	516.69
481.843	475.69
482.061	468.69
482.28	464.69
482.498	454.69
482.717	460.69
482.935	465.69
483.153	460.69
483.372	464.69
483.59	459.69
483.808	471.69
484.027	452.69
484.245	455.69
484.463	460.69
484.681	475.69
484.9	464.69
485.118	491.69
485.336	482.69
485.554	468.69
485.772	488.69
485.99	478.69
486.209	473.69
486.427	481.69
486.645	502.69
486.863	489.69
487.081	517.69
487.299	486.69
487.517	507.69
487.735	478.69
487.953	476.69
488.171	483.69
488.389	500.69
488.607	495.69
488.825	512.69
489.043	533.69
489.261	509.69
489.479	483.69
489.696	509.69
489.914	498.69
490.132	510.69
490.35	516.69
490.568	519.69
490.786	533.69
491.003	544.69
491.221	543.69
491.439	542.69
491.657	542.69
491.874	584.69
492.092	569.69
492.31	566.69
492.527	585.69
492.745	592.69
492.963	592.69
493.18	574.69
493.398	578.69
493.615	570.69
493.833	603.69
494.05	580.69
494.268	568.69
494.485	585.69
494.703	589.69
494.92	571.69
495.138	600.69
495.355	592.69
495.573	599.69
495.79	596.69
496.008	595.69
496.225	605.69
496.442	613.69
496.66	612.69
496.877	592.69
497.094	599.69
497.312	615.69
497.529	599.69
497.746	614.69
497.963	614.69
498.181	641.69
498.398	648.69
498.615	624.69
498.832	619.69
499.049	645.69
499.267	645.69
499.484	665.69
499.701	670.69
499.918	698.69
500.135	706.69
500.352	741.69
500.569	734.69
500.786	743.69
501.003	709.69
501.22	723.69
501.437	706.69
501.654	703.69
501.871	692.69
502.088	710.69
502.305	665.69
502.522	654.69
502.739	647.69
502.956	617.69
503.172	626.69
503.389	604.69
503.606	616.69
503.823	614.69
504.04	616.69
504.256	584.69
504.473	576.69
504.69	591.69
504.907	566.69
505.123	599.69
505.34	593.69
505.557	561.69
505.773	577.69
505.99	566.69
506.207	571.69
506.423	584.69
506.64	570.69
506.856	557.69
507.073	570.69
507.289	564.69
507.506	588.69
507.722	586.69
507.939	589.69
508.155	563.69
508.372	559.69
508.588	568.69
508.805	545.69
509.021	536.69
509.238	582.69
509.454	592.69
509.67	554.69
509.887	590.69
510.103	574.69
510.319	567.69
510.536	671.69
510.752	1141.69
510.968	910.69
511.184	601.69
511.401	552.69
511.617	543.69
511.833	546.69
512.049	525.69
512.265	546.69
512.481	536.69
512.698	526.69
512.914	539.69
513.13	535.69
513.346	522.69
513.562	554.69
513.778	552.69
513.994	547.69
514.21	550.69
514.426	591.69
514.642	636.69
514.858	653.69
515.074	683.69
515.29	851.69
515.506	1275.69
515.721	1036.69
515.937	682.69
516.153	601.69
516.369	582.69
516.585	564.69
516.801	571.69
517.016	536.69
517.232	547.69
517.448	545.69
517.664	544.69
517.879	514.69
518.095	521.69
518.311	524.69
518.527	533.69
518.742	534.69
518.958	540.69
519.173	540.69
519.389	522.69
519.605	507.69
519.82	528.69
520.036	544.69
520.251	583.69
520.467	620.69
520.682	573.69
520.898	580.69
521.113	642.69
521.329	664.69
521.544	782.69
521.76	1044.69
521.975	1696.69
522.19	1602.69
522.406	876.69
522.621	632.69
522.836	573.69
523.052	559.69
523.267	515.69
523.482	522.69
523.698	506.69
523.913	519.69
524.128	511.69
524.343	477.69
524.559	483.69
524.774	453.69
524.989	459.69
525.204	462.69
525.419	455.69
525.634	446.69
525.849	465.69
526.064	450.69
526.28	442.69
526.495	415.69
526.71	455.69
526.925	409.69
527.14	436.69
527.355	434.69
527.57	426.69
527.785	424.69
527.999	426.69
528.214	426.69
528.429	427.69
528.644	417.69
528.859	423.69
529.074	441.69
529.289	444.69
529.503	537.69
529.718	506.69
529.933	460.69
530.148	461.69
530.363	440.69
530.577	438.69
530.792	421.69
531.007	429.69
531.221	416.69
531.436	412.69
531.651	407.69
531.865	401.69
532.08	420.69
532.295	416.69
532.509	401.69
532.724	411.69
532.938	423.69
533.153	411.69
533.367	390.69
533.582	386.69
533.796	407.69
534.011	382.69
534.225	392.69
534.44	389.69
534.654	380.69
534.868	423.69
535.083	390.69
535.297	406.69
535.511	414.69
535.726	407.69
535.94	423.69
536.154	384.69
536.369	396.69
536.583	386.69
536.797	394.69
537.011	373.69
537.225	375.69
537.44	396.69
537.654	383.69
537.868	380.69
538.082	395.69
538.296	391.69
538.51	419.69
538.724	386.69
538.938	377.69
539.153	367.69
539.367	394.69
539.581	387.69
539.795	384.69
540.009	386.69
540.222	398.69
540.436	383.69
540.65	391.69
540.864	395.69
541.078	401.69
541.292	401.69
541.506	390.69
541.72	395.69
541.934	385.69
542.147	389.69
542.361	381.69
542.575	386.69
542.789	388.69
543.002	384.69
543.216	388.69
543.43	402.69
543.644	401.69
543.857	404.69
544.071	378.69
544.285	368.69
544.498	370.69
544.712	390.69
544.925	354.69
545.139	386.69
545.352	376.69
545.566	350.69
545.779	381.69
545.993	367.69
546.206	363.69
546.42	355.69
546.633	357.69
546.847	351.69
547.06	378.69
547.274	344.69
547.487	354.69
547.7	355.69
547.914	349.69
548.127	354.69
548.34	351.69
548.554	356.69
548.767	367.69
548.98	358.69
549.193	348.69
549.407	360.69
549.62	373.69
549.833	356.69
550.046	362.69
550.259	365.69
550.473	341.69
550.686	356.69
550.899	340.69
551.112	340.69
551.325	342.69
551.538	359.69
551.751	341.69
551.964	330.69
552.177	344.69
552.39	365.69
552.603	354.69
552.816	345.69
553.029	363.69
553.242	352.69
553.455	352.69
553.667	367.69
553.88	357.69
554.093	356.69
554.306	370.69
554.519	372.69
554.732	360.69
554.944	358.69
555.157	347.69
555.37	342.69
555.583	341.69
555.795	337.69
556.008	350.69
556.221	359.69
556.433	328.69
556.646	332.69
556.859	317.69
557.071	327.69
557.284	324.69
557.496	333.69
557.709	326.69
557.921	321.69
558.134	328.69
558.346	326.69
558.559	328.69
558.771	323.69
558.984	352.69
559.196	323.69
559.409	330.69
559.621	320.69
559.833	329.69
560.046	301.69
560.258	326.69
560.47	318.69
560.683	338.69
560.895	324.69
561.107	306.69
561.32	317.69
561.532	314.69
561.744	327.69
561.956	319.69
562.168	308.69
562.381	324.69
562.593	314.69
562.805	328.69
563.017	324.69
563.229	326.69
563.441	326.69
563.653	312.69
563.865	328.69
564.077	322.69
564.289	311.69
564.501	336.69
564.713	323.69
564.925	328.69
565.137	333.69
565.349	340.69
565.561	332.69
565.773	345.69
565.985	339.69
566.197	327.69
566.408	346.69
566.62	356.69
566.832	345.69
567.044	347.69
567.255	372.69
567.467	352.69
567.679	378.69
567.891	372.69
568.102	359.69
568.314	362.69
568.526	351.69
568.737	326.69
568.949	324.69
569.161	327.69
569.372	332.69
569.584	300.69
569.795	304.69
570.007	330.69
570.218	381.69
570.43	362.69
570.641	306.69
570.853	294.69
571.064	304.69
571.276	297.69
571.487	292.69
571.698	301.69
571.91	306.69
572.121	295.69
572.333	298.69
572.544	290.69
572.755	299.69
572.966	284.69
573.178	293.69
573.389	281.69
573.6	280.69
573.811	292.69
574.023	272.69
574.234	276.69
574.445	279.69
574.656	270.69
574.867	261.69
575.078	280.69
575.289	273.69
575.501	270.69
575.712	271.69
575.923	274.69
576.134	288.69
576.345	299.69
576.556	280.69
576.767	266.69
576.978	272.69
577.188	258.69
577.399	274.69
577.61	271.69
577.821	276.69
578.032	272.69
578.243	322.69
578.454	546.69
578.665	386.69
578.875	301.69
579.086	277.69
579.297	258.69
579.508	248.69
579.718	243.69
579.929	261.69
580.14	255.69
580.35	261.69
580.561	275.69
580.772	245.69
580.982	266.69
581.193	276.69
581.403	242.69
581.614	257.69
581.825	251.69
582.035	239.69
582.246	237.69
582.456	243.69
582.667	254.69
582.877	261.69
583.087	245.69
583.298	257.69
583.508	257.69
583.719	249.69
583.929	261.69
584.139	251.69
584.35	258.69
584.56	243.69
584.77	252.69
584.981	254.69
585.191	248.69
585.401	227.69
585.611	239.69
585.821	224.69
586.032	237.69
586.242	243.69
586.452	235.69
586.662	242.69
586.872	239.69
587.082	244.69
587.292	247.69
587.502	248.69
587.713	239.69
587.923	236.69
588.133	242.69
588.343	260.69
588.553	251.69
588.762	243.69
588.972	248.69
589.182	247.69
589.392	262.69
589.602	237.69
589.812	255.69
590.022	239.69
590.232	237.69
590.441	230.69
590.651	240.69
590.861	227.69
591.071	244.69
591.281	247.69
591.49	238.69
591.7	243.69
591.91	234.69
592.119	231.69
592.329	255.69
592.539	260.69
592.748	249.69
592.958	262.69
593.167	248.69
593.377	256.69
593.587	257.69
593.796	229.69
594.006	242.69
594.215	247.69
594.424	239.69
594.634	240.69
594.843	256.69
595.053	246.69
595.262	249.69
595.472	254.69
595.681	249.69
595.89	230.69
596.1	226.69
596.309	235.69
596.518	220.69
596.727	248.69
596.937	231.69
597.146	232.69
597.355	248.69
597.564	231.69
597.774	216.69
597.983	226.69
598.192	212.69
598.401	223.69
598.61	235.69
598.819	224.69
599.028	215.69
599.237	232.69
599.446	226.69
599.655	216.69
599.864	223.69
600.073	230.69
600.282	231.69
600.491	225.69
600.7	229.69
600.909	214.69
601.118	204.69
601.327	217.69
601.536	216.69
601.745	223.69
601.953	208.69
602.162	217.69
602.371	230.69
602.58	210.69
602.789	203.69
602.997	214.69
603.206	207.69
603.415	195.69
603.623	218.69
603.832	213.69
604.041	214.69
604.249	219.69
604.458	209.69
604.666	214.69
604.875	208.69
605.084	210.69
605.292	212.69
605.501	208.69
605.709	219.69
605.918	217.69
606.126	191.69
606.334	228.69
606.543	196.69
606.751	202.69
606.96	214.69
607.168	207.69
607.376	204.69
607.585	184.69
607.793	208.69
608.001	204.69
608.21	207.69
608.418	201.69
608.626	188.69
608.834	199.69
609.043	198.69
609.251	204.69
609.459	204.69
609.667	211.69
609.875	188.69
610.083	183.69
610.291	190.69
610.499	199.69
610.707	196.69
610.916	204.69
611.124	200.69
611.332	216.69
611.54	199.69
611.748	214.69
611.955	196.69
612.163	205.69
612.371	200.69
612.579	206.69
612.787	194.69
612.995	203.69
613.203	210.69
613.411	208.69
613.618	202.69
613.826	205.69
614.034	200.69
614.242	182.69
614.449	193.69
614.657	190.69
614.865	195.69
615.072	202.69
615.28	212.69
615.488	190.69
615.695	198.69
615.903	196.69
616.111	200.69
616.318	186.69
616.526	194.69
616.733	202.69
616.941	195.69
617.148	210.69
617.356	203.69
617.563	184.69
617.771	197.69
617.978	201.69
618.185	207.69
618.393	186.69
618.6	192.69
618.807	198.69
619.015	192.69
619.222	209.69
619.429	198.69
619.637	203.69
619.844	203.69
620.051	197.69
620.258	190.69
620.466	190.69
620.673	168.69
620.88	194.69
621.087	189.69
621.294	182.69
621.501	191.69
621.708	189.69
621.915	185.69
622.122	201.69
622.329	201.69
622.536	190.69
622.743	181.69
622.95	183.69
623.157	196.69
623.364	204.69
623.571	187.69
623.778	178.69
623.985	180.69
624.192	197.69
624.399	188.69
624.606	190.69
624.812	185.69
625.019	164.69
625.226	180.69
625.433	171.69
625.639	182.69
625.846	169.69
626.053	193.69
626.259	170.69
626.466	169.69
626.673	178.69
626.879	178.69
627.086	186.69
627.293	167.69
627.499	171.69
627.706	163.69
627.912	164.69
628.119	169.69
628.325	167.69
628.532	184.69
628.738	174.69
628.945	173.69
629.151	153.69
629.357	175.69
629.564	172.69
629.77	158.69
629.976	169.69
630.183	182.69
630.389	178.69
630.595	173.69
630.802	178.69
631.008	175.69
631.214	171.69
631.42	158.69
631.627	162.69
631.833	175.69
632.039	164.69
632.245	166.69
632.451	165.69
632.657	163.69
632.863	164.69
633.069	161.69
633.275	158.69
633.481	169.69
633.688	157.69
633.893	163.69
634.099	167.69
634.305	159.69
634.511	158.69
634.717	142.69
634.923	160.69
635.129	167.69
635.335	165.69
635.541	167.69
635.747	164.69
635.952	152.69
636.158	152.69
636.364	152.69
636.57	148.69
636.775	154.69
636.981	157.69
637.187	156.69
637.392	158.69
637.598	152.69
637.804	155.69
638.009	147.69
638.215	165.69
638.421	170.69
638.626	162.69
638.832	166.69
639.037	153.69
639.243	134.69
639.448	154.69
639.654	160.69
639.859	158.69
640.065	157.69
640.27	163.69
640.475	158.69
640.681	150.69
640.886	155.69
641.091	141.69
641.297	148.69
641.502	144.69
641.707	158.69
641.913	148.69
642.118	158.69
642.323	151.69
642.528	148.69
642.733	145.69
642.939	151.69
643.144	157.69
643.349	153.69
643.554	142.69
643.759	148.69
643.964	149.69
644.169	138.69
644.374	155.69
644.579	157.69
644.784	150.69
644.989	156.69
645.194	162.69
645.399	152.69
645.604	154.69
645.809	151.69
646.014	135.69
646.219	144.69
646.423	140.69
646.628	147.69
646.833	144.69
647.038	165.69
647.243	147.69
647.447	154.69
647.652	132.69
647.857	142.69
648.062	151.69
648.266	154.69
648.471	142.69
648.676	163.69
648.88	164.69
649.085	144.69
649.289	139.69
649.494	168.69
649.698	166.69
649.903	158.69
650.107	159.69
650.312	164.69
650.516	142.69
650.721	144.69
650.925	144.69
651.13	136.69
651.334	139.69
651.539	128.69
651.743	137.69
651.947	150.69
652.152	130.69
652.356	125.69
652.56	144.69
652.764	136.69
652.969	130.69
653.173	124.69
653.377	108.69
653.581	125.69
653.785	143.69
653.99	142.69
654.194	132.69
654.398	138.69
654.602	127.69
654.806	148.69
655.01	138.69
655.214	116.69
655.418	134.69
655.622	126.69
655.826	131.69
656.03	118.69
656.234	116.69
656.438	127.69
656.642	128.69
656.846	119.69
657.049	126.69
657.253	103.69
657.457	107.69
657.661	109.69
657.865	107.69
658.068	128.69
658.272	122.69
658.476	106.69
658.68	103.69
658.883	111.69
659.087	106.69
659.291	97.69
659.494	98.69
659.698	94.69
659.901	98.69
660.105	96.69
660.309	70.69
660.512	88.69
660.716	102.69
660.919	96.69
661.123	100.69
661.326	96.69
661.53	86.69
661.733	87.69
661.936	88.69
662.14	87.69
662.343	91.69
662.546	89.69
662.75	71.69
662.953	88.69
663.156	93.69
663.36	95.69
663.563	92.69
663.766	82.69
663.969	77.69
664.173	98.69
664.376	79.69
664.579	101.69
664.782	89.69
664.985	69.69
665.188	84.69
665.391	91.69
665.594	86.69
665.797	102.69
666	90.69
666.203	90.69
666.406	87.69
666.609	88.69
666.812	80.69
667.015	90.69
667.218	79.69
667.421	69.69
667.624	89.69
667.827	71.69
668.03	78.69
668.232	87.69
668.435	79.69
668.638	95.69
668.841	90.69
669.043	90.69
669.246	77.69
669.449	86.69
669.651	83.69
669.854	74.69
670.057	82.69
670.259	93.69
670.462	87.69
670.665	86.69
670.867	78.69
671.07	84.69
671.272	91.69
671.475	75.69
671.677	95.69
671.88	78.69
672.082	87.69
672.284	73.69
672.487	84.69
672.689	78.69
672.892	101.69
