Data from 1981.PennyLincolnUp.Lamp.En5.5.200Scan.071819.P1_HRD10591_16-43-15-960.txt Node
Date: Thu Jul 18 16:43:15 EDT 2019
User: cochatt
Spectrometer: HR+D1059
Trigger mode: 1
Integration Time (sec): 1.000000E-1
Scans to average: 1
Electric dark correction enabled: true
Nonlinearity correction enabled: false
Boxcar width: 0
XAxis mode: Wavelengths
Number of Pixels in Spectrum: 2048
>>>>>Begin Spectral Data<<<<<
223.165	-19.94
223.4	-19.94
223.635	-19.94
223.869	-20.94
224.104	-36.94
224.338	-10.94
224.573	-20.94
224.808	-16.94
225.042	5.06
225.277	5.06
225.511	8.06
225.746	1.06
225.98	4.06
226.215	13.06
226.449	9.06
226.683	17.06
226.918	27.06
227.152	37.06
227.387	40.06
227.621	48.06
227.856	48.06
228.09	46.06
228.324	62.06
228.559	63.06
228.793	71.06
229.027	117.06
229.262	117.06
229.496	129.06
229.73	153.06
229.964	156.06
230.199	133.06
230.433	130.06
230.667	113.06
230.901	107.06
231.136	123.06
231.37	108.06
231.604	121.06
231.838	101.06
232.072	118.06
232.306	123.06
232.541	106.06
232.775	123.06
233.009	98.06
233.243	108.06
233.477	99.06
233.711	133.06
233.945	126.06
234.179	121.06
234.413	123.06
234.647	112.06
234.881	117.06
235.115	117.06
235.349	133.06
235.583	138.06
235.817	128.06
236.051	133.06
236.285	128.06
236.519	129.06
236.753	136.06
236.987	163.06
237.221	205.06
237.455	241.06
237.689	204.06
237.922	140.06
238.156	131.06
238.39	134.06
238.624	133.06
238.858	126.06
239.091	129.06
239.325	132.06
239.559	141.06
239.793	133.06
240.027	134.06
240.26	151.06
240.494	176.06
240.728	153.06
240.961	147.06
241.195	133.06
241.429	152.06
241.662	142.06
241.896	134.06
242.13	145.06
242.363	139.06
242.597	132.06
242.83	151.06
243.064	155.06
243.298	156.06
243.531	152.06
243.765	144.06
243.998	143.06
244.232	139.06
244.465	153.06
244.699	145.06
244.932	153.06
245.166	153.06
245.399	153.06
245.633	139.06
245.866	139.06
246.099	163.06
246.333	148.06
246.566	159.06
246.8	161.06
247.033	146.06
247.266	152.06
247.5	173.06
247.733	168.06
247.966	189.06
248.2	191.06
248.433	195.06
248.666	175.06
248.899	207.06
249.133	211.06
249.366	212.06
249.599	203.06
249.832	191.06
250.066	187.06
250.299	191.06
250.532	194.06
250.765	219.06
250.998	240.06
251.231	243.06
251.465	218.06
251.698	229.06
251.931	229.06
252.164	204.06
252.397	204.06
252.63	226.06
252.863	225.06
253.096	238.06
253.329	267.06
253.562	259.06
253.795	258.06
254.028	251.06
254.261	233.06
254.494	240.06
254.727	287.06
254.96	315.06
255.193	311.06
255.426	289.06
255.659	268.06
255.892	247.06
256.124	273.06
256.357	253.06
256.59	254.06
256.823	245.06
257.056	242.06
257.289	249.06
257.521	224.06
257.754	226.06
257.987	215.06
258.22	216.06
258.452	241.06
258.685	233.06
258.918	218.06
259.151	220.06
259.383	234.06
259.616	239.06
259.849	249.06
260.081	243.06
260.314	270.06
260.547	285.06
260.779	275.06
261.012	249.06
261.244	253.06
261.477	246.06
261.71	239.06
261.942	258.06
262.175	259.06
262.407	247.06
262.64	240.06
262.872	227.06
263.105	229.06
263.337	242.06
263.57	228.06
263.802	214.06
264.035	221.06
264.267	211.06
264.499	227.06
264.732	226.06
264.964	222.06
265.197	235.06
265.429	221.06
265.661	220.06
265.894	224.06
266.126	230.06
266.358	215.06
266.591	241.06
266.823	256.06
267.055	233.06
267.287	240.06
267.52	257.06
267.752	238.06
267.984	247.06
268.216	250.06
268.448	240.06
268.681	248.06
268.913	267.06
269.145	280.06
269.377	293.06
269.609	272.06
269.841	297.06
270.073	309.06
270.306	310.06
270.538	352.06
270.77	348.06
271.002	323.06
271.234	332.06
271.466	334.06
271.698	347.06
271.93	354.06
272.162	345.06
272.394	362.06
272.626	345.06
272.858	323.06
273.09	313.06
273.322	299.06
273.553	307.06
273.785	296.06
274.017	300.06
274.249	289.06
274.481	280.06
274.713	276.06
274.945	290.06
275.176	316.06
275.408	287.06
275.64	284.06
275.872	301.06
276.104	290.06
276.335	276.06
276.567	297.06
276.799	310.06
277.031	325.06
277.262	343.06
277.494	339.06
277.726	327.06
277.957	307.06
278.189	277.06
278.421	297.06
278.652	291.06
278.884	276.06
279.115	295.06
279.347	278.06
279.579	287.06
279.81	297.06
280.042	296.06
280.273	280.06
280.505	289.06
280.736	273.06
280.968	290.06
281.199	283.06
281.431	287.06
281.662	284.06
281.894	291.06
282.125	279.06
282.356	314.06
282.588	330.06
282.819	312.06
283.051	304.06
283.282	287.06
283.513	299.06
283.745	273.06
283.976	288.06
284.207	287.06
284.439	304.06
284.67	313.06
284.901	302.06
285.132	292.06
285.364	290.06
285.595	281.06
285.826	285.06
286.057	301.06
286.288	289.06
286.52	306.06
286.751	302.06
286.982	294.06
287.213	295.06
287.444	321.06
287.675	297.06
287.906	300.06
288.138	293.06
288.369	315.06
288.6	325.06
288.831	300.06
289.062	315.06
289.293	306.06
289.524	297.06
289.755	317.06
289.986	282.06
290.217	304.06
290.448	282.06
290.679	304.06
290.91	303.06
291.141	298.06
291.371	289.06
291.602	300.06
291.833	297.06
292.064	288.06
292.295	292.06
292.526	291.06
292.757	292.06
292.987	300.06
293.218	311.06
293.449	297.06
293.68	304.06
293.91	306.06
294.141	319.06
294.372	302.06
294.603	304.06
294.833	287.06
295.064	312.06
295.295	290.06
295.525	300.06
295.756	307.06
295.987	319.06
296.217	324.06
296.448	338.06
296.679	325.06
296.909	309.06
297.14	305.06
297.37	313.06
297.601	296.06
297.831	285.06
298.062	299.06
298.292	318.06
298.523	313.06
298.753	314.06
298.984	318.06
299.214	323.06
299.445	296.06
299.675	326.06
299.905	328.06
300.136	327.06
300.366	317.06
300.597	325.06
300.827	325.06
301.057	339.06
301.288	358.06
301.518	343.06
301.748	306.06
301.979	341.06
302.209	330.06
302.439	336.06
302.669	325.06
302.9	331.06
303.13	327.06
303.36	336.06
303.59	345.06
303.82	351.06
304.051	322.06
304.281	348.06
304.511	336.06
304.741	330.06
304.971	325.06
305.201	327.06
305.431	333.06
305.661	332.06
305.891	345.06
306.121	346.06
306.352	349.06
306.582	348.06
306.812	334.06
307.042	323.06
307.272	337.06
307.502	342.06
307.731	350.06
307.961	346.06
308.191	350.06
308.421	345.06
308.651	371.06
308.881	366.06
309.111	358.06
309.341	361.06
309.571	368.06
309.8	381.06
310.03	393.06
310.26	393.06
310.49	410.06
310.72	407.06
310.949	442.06
311.179	411.06
311.409	419.06
311.639	406.06
311.868	402.06
312.098	411.06
312.328	421.06
312.557	440.06
312.787	446.06
313.017	423.06
313.246	408.06
313.476	387.06
313.706	389.06
313.935	398.06
314.165	415.06
314.394	421.06
314.624	421.06
314.853	418.06
315.083	404.06
315.312	404.06
315.542	390.06
315.771	370.06
316.001	391.06
316.23	390.06
316.46	399.06
316.689	389.06
316.919	394.06
317.148	428.06
317.377	409.06
317.607	418.06
317.836	393.06
318.065	390.06
318.295	399.06
318.524	409.06
318.753	385.06
318.983	402.06
319.212	403.06
319.441	411.06
319.67	443.06
319.9	396.06
320.129	403.06
320.358	404.06
320.587	409.06
320.816	413.06
321.046	413.06
321.275	438.06
321.504	445.06
321.733	427.06
321.962	450.06
322.191	466.06
322.42	466.06
322.649	496.06
322.878	513.06
323.108	499.06
323.337	535.06
323.566	591.06
323.795	645.06
324.024	691.06
324.253	857.06
324.482	1277.06
324.71	1887.06
324.939	2643.06
325.168	2290.06
325.397	1171.06
325.626	803.06
325.855	634.06
326.084	583.06
326.313	585.06
326.542	589.06
326.77	653.06
326.999	784.06
327.228	1100.06
327.457	1659.06
327.686	1917.06
327.914	1289.06
328.143	849.06
328.372	754.06
328.6	701.06
328.829	633.06
329.058	660.06
329.287	636.06
329.515	618.06
329.744	577.06
329.972	569.06
330.201	588.06
330.43	643.06
330.658	657.06
330.887	714.06
331.115	662.06
331.344	583.06
331.572	535.06
331.801	518.06
332.03	517.06
332.258	523.06
332.486	482.06
332.715	466.06
332.943	466.06
333.172	461.06
333.4	458.06
333.629	470.06
333.857	490.06
334.085	514.06
334.314	517.06
334.542	537.06
334.771	547.06
334.999	503.06
335.227	479.06
335.455	473.06
335.684	453.06
335.912	471.06
336.14	459.06
336.369	457.06
336.597	461.06
336.825	450.06
337.053	441.06
337.281	436.06
337.51	444.06
337.738	438.06
337.966	446.06
338.194	433.06
338.422	448.06
338.65	442.06
338.878	439.06
339.106	445.06
339.334	444.06
339.562	424.06
339.79	416.06
340.018	424.06
340.246	439.06
340.474	453.06
340.702	438.06
340.93	435.06
341.158	416.06
341.386	439.06
341.614	439.06
341.842	417.06
342.07	421.06
342.298	411.06
342.526	414.06
342.754	424.06
342.981	401.06
343.209	414.06
343.437	428.06
343.665	431.06
343.893	408.06
344.12	425.06
344.348	438.06
344.576	427.06
344.804	458.06
345.031	432.06
345.259	473.06
345.487	450.06
345.714	441.06
345.942	437.06
346.17	419.06
346.397	413.06
346.625	425.06
346.853	428.06
347.08	454.06
347.308	415.06
347.535	426.06
347.763	458.06
347.99	414.06
348.218	441.06
348.445	430.06
348.673	431.06
348.9	418.06
349.128	420.06
349.355	409.06
349.583	412.06
349.81	384.06
350.037	417.06
350.265	406.06
350.492	404.06
350.72	413.06
350.947	414.06
351.174	406.06
351.402	411.06
351.629	435.06
351.856	441.06
352.083	438.06
352.311	449.06
352.538	431.06
352.765	436.06
352.992	425.06
353.22	442.06
353.447	413.06
353.674	404.06
353.901	401.06
354.128	400.06
354.355	405.06
354.583	371.06
354.81	385.06
355.037	384.06
355.264	389.06
355.491	381.06
355.718	374.06
355.945	378.06
356.172	384.06
356.399	377.06
356.626	383.06
356.853	387.06
357.08	369.06
357.307	386.06
357.534	385.06
357.761	371.06
357.988	391.06
358.215	352.06
358.441	359.06
358.668	389.06
358.895	370.06
359.122	391.06
359.349	401.06
359.576	393.06
359.802	442.06
360.029	481.06
360.256	473.06
360.483	455.06
360.709	444.06
360.936	421.06
361.163	405.06
361.39	407.06
361.616	426.06
361.843	409.06
362.07	422.06
362.296	389.06
362.523	419.06
362.749	404.06
362.976	379.06
363.203	399.06
363.429	387.06
363.656	372.06
363.882	391.06
364.109	382.06
364.335	383.06
364.562	392.06
364.788	377.06
365.015	386.06
365.241	375.06
365.468	381.06
365.694	407.06
365.92	390.06
366.147	382.06
366.373	380.06
366.599	384.06
366.826	381.06
367.052	361.06
367.278	362.06
367.505	379.06
367.731	381.06
367.957	396.06
368.184	375.06
368.41	411.06
368.636	406.06
368.862	378.06
369.089	385.06
369.315	355.06
369.541	371.06
369.767	380.06
369.993	399.06
370.219	367.06
370.445	380.06
370.672	373.06
370.898	364.06
371.124	363.06
371.35	370.06
371.576	361.06
371.802	359.06
372.028	365.06
372.254	369.06
372.48	360.06
372.706	365.06
372.932	359.06
373.158	385.06
373.384	359.06
373.61	359.06
373.835	368.06
374.061	375.06
374.287	395.06
374.513	382.06
374.739	380.06
374.965	389.06
375.191	363.06
375.416	378.06
375.642	375.06
375.868	378.06
376.094	371.06
376.319	363.06
376.545	335.06
376.771	363.06
376.997	350.06
377.222	340.06
377.448	372.06
377.674	363.06
377.899	370.06
378.125	339.06
378.35	356.06
378.576	377.06
378.802	379.06
379.027	357.06
379.253	358.06
379.478	342.06
379.704	363.06
379.929	363.06
380.155	345.06
380.38	354.06
380.606	351.06
380.831	361.06
381.057	370.06
381.282	365.06
381.507	341.06
381.733	363.06
381.958	354.06
382.184	354.06
382.409	369.06
382.634	367.06
382.86	349.06
383.085	369.06
383.31	389.06
383.535	361.06
383.761	360.06
383.986	354.06
384.211	370.06
384.436	373.06
384.662	385.06
384.887	362.06
385.112	377.06
385.337	365.06
385.562	369.06
385.787	358.06
386.013	359.06
386.238	391.06
386.463	393.06
386.688	373.06
386.913	378.06
387.138	382.06
387.363	388.06
387.588	386.06
387.813	384.06
388.038	365.06
388.263	361.06
388.488	376.06
388.713	385.06
388.938	363.06
389.163	379.06
389.387	363.06
389.612	365.06
389.837	382.06
390.062	375.06
390.287	368.06
390.512	369.06
390.736	364.06
390.961	360.06
391.186	373.06
391.411	380.06
391.636	377.06
391.86	389.06
392.085	384.06
392.31	382.06
392.534	364.06
392.759	351.06
392.984	374.06
393.208	382.06
393.433	358.06
393.658	363.06
393.882	375.06
394.107	367.06
394.331	362.06
394.556	374.06
394.78	382.06
395.005	368.06
395.229	362.06
395.454	376.06
395.678	380.06
395.903	387.06
396.127	392.06
396.352	402.06
396.576	383.06
396.801	385.06
397.025	382.06
397.249	393.06
397.474	395.06
397.698	395.06
397.922	407.06
398.147	413.06
398.371	423.06
398.595	401.06
398.82	406.06
399.044	404.06
399.268	418.06
399.492	435.06
399.717	443.06
399.941	469.06
400.165	490.06
400.389	518.06
400.613	450.06
400.837	431.06
401.062	425.06
401.286	430.06
401.51	420.06
401.734	403.06
401.958	402.06
402.182	428.06
402.406	443.06
402.63	423.06
402.854	418.06
403.078	411.06
403.302	440.06
403.526	441.06
403.75	434.06
403.974	418.06
404.198	430.06
404.422	435.06
404.645	443.06
404.869	442.06
405.093	476.06
405.317	494.06
405.541	522.06
405.765	493.06
405.988	468.06
406.212	464.06
406.436	472.06
406.66	501.06
406.883	474.06
407.107	492.06
407.331	515.06
407.555	577.06
407.778	576.06
408.002	527.06
408.226	481.06
408.449	475.06
408.673	487.06
408.896	496.06
409.12	517.06
409.344	503.06
409.567	452.06
409.791	449.06
410.014	431.06
410.238	447.06
410.461	429.06
410.685	442.06
410.908	466.06
411.132	492.06
411.355	520.06
411.578	489.06
411.802	439.06
412.025	420.06
412.249	434.06
412.472	449.06
412.695	490.06
412.919	487.06
413.142	446.06
413.365	425.06
413.589	427.06
413.812	416.06
414.035	407.06
414.258	417.06
414.482	397.06
414.705	399.06
414.928	401.06
415.151	380.06
415.374	398.06
415.597	385.06
415.821	421.06
416.044	388.06
416.267	407.06
416.49	418.06
416.713	403.06
416.936	406.06
417.159	397.06
417.382	421.06
417.605	408.06
417.828	410.06
418.051	427.06
418.274	429.06
418.497	417.06
418.72	417.06
418.943	392.06
419.166	412.06
419.389	437.06
419.611	437.06
419.834	432.06
420.057	447.06
420.28	429.06
420.503	430.06
420.726	406.06
420.948	446.06
421.171	481.06
421.394	492.06
421.617	470.06
421.839	432.06
422.062	434.06
422.285	452.06
422.507	492.06
422.73	588.06
422.953	559.06
423.175	468.06
423.398	432.06
423.621	455.06
423.843	481.06
424.066	471.06
424.288	478.06
424.511	477.06
424.733	546.06
424.956	618.06
425.178	593.06
425.401	581.06
425.623	585.06
425.846	503.06
426.068	492.06
426.291	481.06
426.513	485.06
426.735	488.06
426.958	508.06
427.18	601.06
427.402	722.06
427.625	791.06
427.847	717.06
428.069	635.06
428.292	548.06
428.514	501.06
428.736	454.06
428.958	449.06
429.181	450.06
429.403	440.06
429.625	457.06
429.847	471.06
430.069	551.06
430.292	527.06
430.514	464.06
430.736	443.06
430.958	429.06
431.18	399.06
431.402	414.06
431.624	402.06
431.846	397.06
432.068	413.06
432.29	376.06
432.512	397.06
432.734	416.06
432.956	405.06
433.178	423.06
433.4	418.06
433.622	403.06
433.844	398.06
434.066	381.06
434.287	407.06
434.509	411.06
434.731	416.06
434.953	431.06
435.175	423.06
435.397	471.06
435.618	476.06
435.84	527.06
436.062	599.06
436.284	666.06
436.505	539.06
436.727	491.06
436.949	469.06
437.17	455.06
437.392	441.06
437.614	451.06
437.835	531.06
438.057	604.06
438.278	667.06
438.5	653.06
438.721	723.06
438.943	697.06
439.165	543.06
439.386	521.06
439.608	505.06
439.829	509.06
440.05	542.06
440.272	571.06
440.493	531.06
440.715	493.06
440.936	477.06
441.158	458.06
441.379	449.06
441.6	460.06
441.822	485.06
442.043	522.06
442.264	599.06
442.486	626.06
442.707	538.06
442.928	519.06
443.149	505.06
443.371	517.06
443.592	571.06
443.813	624.06
444.034	647.06
444.255	557.06
444.476	509.06
444.698	450.06
444.919	482.06
445.14	586.06
445.361	539.06
445.582	545.06
445.803	602.06
446.024	689.06
446.245	727.06
446.466	650.06
446.687	546.06
446.908	497.06
447.129	449.06
447.35	438.06
447.571	445.06
447.792	443.06
448.013	446.06
448.234	458.06
448.455	532.06
448.675	635.06
448.896	711.06
449.117	609.06
449.338	591.06
449.559	679.06
449.779	741.06
450	623.06
450.221	525.06
450.442	465.06
450.662	441.06
450.883	465.06
451.104	462.06
451.324	434.06
451.545	438.06
451.766	413.06
451.986	405.06
452.207	397.06
452.428	404.06
452.648	399.06
452.869	392.06
453.089	425.06
453.31	437.06
453.53	430.06
453.751	403.06
453.971	419.06
454.192	433.06
454.412	400.06
454.633	408.06
454.853	403.06
455.073	407.06
455.294	431.06
455.514	504.06
455.734	489.06
455.955	397.06
456.175	380.06
456.395	366.06
456.616	370.06
456.836	367.06
457.056	378.06
457.276	375.06
457.497	373.06
457.717	391.06
457.937	376.06
458.157	373.06
458.377	386.06
458.598	417.06
458.818	497.06
459.038	552.06
459.258	556.06
459.478	455.06
459.698	430.06
459.918	413.06
460.138	390.06
460.358	377.06
460.578	398.06
460.798	421.06
461.018	409.06
461.238	405.06
461.458	409.06
461.678	401.06
461.898	403.06
462.118	404.06
462.338	409.06
462.558	418.06
462.777	421.06
462.997	390.06
463.217	420.06
463.437	408.06
463.657	415.06
463.876	408.06
464.096	420.06
464.316	432.06
464.536	424.06
464.755	418.06
464.975	462.06
465.195	519.06
465.414	572.06
465.634	501.06
465.854	451.06
466.073	439.06
466.293	428.06
466.512	393.06
466.732	382.06
466.951	389.06
467.171	405.06
467.391	374.06
467.61	399.06
467.829	422.06
468.049	418.06
468.268	396.06
468.488	391.06
468.707	402.06
468.927	388.06
469.146	400.06
469.365	374.06
469.585	392.06
469.804	385.06
470.023	409.06
470.243	403.06
470.462	412.06
470.681	430.06
470.901	413.06
471.12	401.06
471.339	398.06
471.558	400.06
471.777	409.06
471.997	389.06
472.216	400.06
472.435	444.06
472.654	439.06
472.873	393.06
473.092	410.06
473.311	413.06
473.53	408.06
473.749	430.06
473.968	469.06
474.187	530.06
474.406	581.06
474.625	460.06
474.844	438.06
475.063	413.06
475.282	417.06
475.501	402.06
475.72	414.06
475.939	413.06
476.158	426.06
476.377	422.06
476.596	425.06
476.814	432.06
477.033	439.06
477.252	422.06
477.471	430.06
477.69	428.06
477.908	438.06
478.127	440.06
478.346	418.06
478.564	440.06
478.783	442.06
479.002	442.06
479.22	453.06
479.439	450.06
479.658	492.06
479.876	482.06
480.095	481.06
480.313	506.06
480.532	491.06
480.751	472.06
480.969	504.06
481.188	566.06
481.406	618.06
481.624	549.06
481.843	505.06
482.061	477.06
482.28	477.06
482.498	478.06
482.717	470.06
482.935	471.06
483.153	475.06
483.372	482.06
483.59	469.06
483.808	449.06
484.027	461.06
484.245	467.06
484.463	474.06
484.681	470.06
484.9	478.06
485.118	474.06
485.336	470.06
485.554	474.06
485.772	498.06
485.99	489.06
486.209	490.06
486.427	485.06
486.645	505.06
486.863	519.06
487.081	507.06
487.299	515.06
487.517	517.06
487.735	509.06
487.953	521.06
488.171	505.06
488.389	491.06
488.607	528.06
488.825	502.06
489.043	503.06
489.261	522.06
489.479	503.06
489.696	525.06
489.914	525.06
490.132	534.06
490.35	531.06
490.568	538.06
490.786	538.06
491.003	569.06
491.221	553.06
491.439	570.06
491.657	582.06
491.874	578.06
492.092	595.06
492.31	582.06
492.527	572.06
492.745	590.06
492.963	574.06
493.18	601.06
493.398	586.06
493.615	599.06
493.833	620.06
494.05	595.06
494.268	622.06
494.485	621.06
494.703	608.06
494.92	595.06
495.138	587.06
495.355	614.06
495.573	608.06
495.79	612.06
496.008	589.06
496.225	582.06
496.442	609.06
496.66	617.06
496.877	594.06
497.094	602.06
497.312	616.06
497.529	623.06
497.746	632.06
497.963	645.06
498.181	646.06
498.398	636.06
498.615	645.06
498.832	652.06
499.049	655.06
499.267	657.06
499.484	679.06
499.701	703.06
499.918	718.06
500.135	726.06
500.352	726.06
500.569	728.06
500.786	725.06
501.003	729.06
501.22	719.06
501.437	735.06
501.654	709.06
501.871	719.06
502.088	705.06
502.305	665.06
502.522	666.06
502.739	674.06
502.956	681.06
503.172	641.06
503.389	629.06
503.606	638.06
503.823	633.06
504.04	629.06
504.256	625.06
504.473	587.06
504.69	602.06
504.907	604.06
505.123	583.06
505.34	605.06
505.557	593.06
505.773	610.06
505.99	595.06
506.207	607.06
506.423	603.06
506.64	588.06
506.856	593.06
507.073	591.06
507.289	565.06
507.506	582.06
507.722	604.06
507.939	624.06
508.155	614.06
508.372	584.06
508.588	546.06
508.805	563.06
509.021	585.06
509.238	576.06
509.454	581.06
509.67	605.06
509.887	590.06
510.103	600.06
510.319	573.06
510.536	677.06
510.752	1178.06
510.968	943.06
511.184	608.06
511.401	575.06
511.617	568.06
511.833	549.06
512.049	550.06
512.265	529.06
512.481	545.06
512.698	543.06
512.914	543.06
513.13	552.06
513.346	551.06
513.562	552.06
513.778	549.06
513.994	531.06
514.21	577.06
514.426	605.06
514.642	646.06
514.858	673.06
515.074	704.06
515.29	876.06
515.506	1303.06
515.721	1039.06
515.937	683.06
516.153	645.06
516.369	587.06
516.585	573.06
516.801	586.06
517.016	554.06
517.232	541.06
517.448	525.06
517.664	561.06
517.879	557.06
518.095	525.06
518.311	529.06
518.527	526.06
518.742	542.06
518.958	546.06
519.173	536.06
519.389	542.06
519.605	545.06
519.82	549.06
520.036	577.06
520.251	596.06
520.467	635.06
520.682	610.06
520.898	630.06
521.113	658.06
521.329	714.06
521.544	796.06
521.76	1044.06
521.975	1759.06
522.19	1673.06
522.406	917.06
522.621	652.06
522.836	586.06
523.052	571.06
523.267	531.06
523.482	531.06
523.698	514.06
523.913	521.06
524.128	507.06
524.343	495.06
524.559	478.06
524.774	481.06
524.989	468.06
525.204	471.06
525.419	481.06
525.634	464.06
525.849	457.06
526.064	457.06
526.28	469.06
526.495	421.06
526.71	425.06
526.925	448.06
527.14	427.06
527.355	448.06
527.57	409.06
527.785	437.06
527.999	435.06
528.214	439.06
528.429	434.06
528.644	436.06
528.859	426.06
529.074	430.06
529.289	462.06
529.503	573.06
529.718	527.06
529.933	491.06
530.148	463.06
530.363	438.06
530.577	433.06
530.792	408.06
531.007	415.06
531.221	414.06
531.436	409.06
531.651	397.06
531.865	396.06
532.08	415.06
532.295	417.06
532.509	407.06
532.724	392.06
532.938	427.06
533.153	419.06
533.367	415.06
533.582	419.06
533.796	418.06
534.011	410.06
534.225	383.06
534.44	397.06
534.654	399.06
534.868	390.06
535.083	398.06
535.297	393.06
535.511	421.06
535.726	418.06
535.94	431.06
536.154	418.06
536.369	401.06
536.583	409.06
536.797	386.06
537.011	396.06
537.225	381.06
537.44	400.06
537.654	386.06
537.868	402.06
538.082	397.06
538.296	400.06
538.51	412.06
538.724	416.06
538.938	410.06
539.153	408.06
539.367	415.06
539.581	420.06
539.795	399.06
540.009	402.06
540.222	386.06
540.436	394.06
540.65	402.06
540.864	403.06
541.078	421.06
541.292	425.06
541.506	402.06
541.72	380.06
541.934	400.06
542.147	389.06
542.361	389.06
542.575	379.06
542.789	386.06
543.002	398.06
543.216	382.06
543.43	395.06
543.644	394.06
543.857	397.06
544.071	401.06
544.285	386.06
544.498	394.06
544.712	364.06
544.925	389.06
545.139	373.06
545.352	384.06
545.566	373.06
545.779	371.06
545.993	369.06
546.206	378.06
546.42	386.06
546.633	368.06
546.847	352.06
547.06	366.06
547.274	351.06
547.487	366.06
547.7	365.06
547.914	351.06
548.127	382.06
548.34	377.06
548.554	375.06
548.767	364.06
548.98	373.06
549.193	381.06
549.407	369.06
549.62	378.06
549.833	373.06
550.046	339.06
550.259	376.06
550.473	343.06
550.686	363.06
550.899	378.06
551.112	351.06
551.325	343.06
551.538	338.06
551.751	349.06
551.964	361.06
552.177	364.06
552.39	358.06
552.603	332.06
552.816	350.06
553.029	345.06
553.242	352.06
553.455	337.06
553.667	373.06
553.88	377.06
554.093	390.06
554.306	358.06
554.519	378.06
554.732	351.06
554.944	367.06
555.157	358.06
555.37	355.06
555.583	357.06
555.795	356.06
556.008	360.06
556.221	340.06
556.433	339.06
556.646	349.06
556.859	333.06
557.071	348.06
557.284	327.06
557.496	337.06
557.709	321.06
557.921	317.06
558.134	317.06
558.346	331.06
558.559	332.06
558.771	339.06
558.984	331.06
559.196	325.06
559.409	322.06
559.621	298.06
559.833	322.06
560.046	331.06
560.258	318.06
560.47	339.06
560.683	334.06
560.895	322.06
561.107	322.06
561.32	345.06
561.532	321.06
561.744	320.06
561.956	333.06
562.168	320.06
562.381	328.06
562.593	341.06
562.805	319.06
563.017	311.06
563.229	325.06
563.441	336.06
563.653	331.06
563.865	330.06
564.077	322.06
564.289	344.06
564.501	325.06
564.713	337.06
564.925	335.06
565.137	343.06
565.349	351.06
565.561	340.06
565.773	351.06
565.985	347.06
566.197	337.06
566.408	345.06
566.62	349.06
566.832	343.06
567.044	358.06
567.255	373.06
567.467	384.06
567.679	374.06
567.891	358.06
568.102	359.06
568.314	350.06
568.526	365.06
568.737	352.06
568.949	360.06
569.161	337.06
569.372	345.06
569.584	326.06
569.795	311.06
570.007	317.06
570.218	379.06
570.43	353.06
570.641	309.06
570.853	311.06
571.064	310.06
571.276	303.06
571.487	325.06
571.698	300.06
571.91	301.06
572.121	315.06
572.333	314.06
572.544	300.06
572.755	292.06
572.966	289.06
573.178	296.06
573.389	289.06
573.6	309.06
573.811	286.06
574.023	286.06
574.234	275.06
574.445	273.06
574.656	273.06
574.867	285.06
575.078	290.06
575.289	269.06
575.501	281.06
575.712	269.06
575.923	274.06
576.134	275.06
576.345	274.06
576.556	266.06
576.767	281.06
576.978	287.06
577.188	292.06
577.399	290.06
577.61	255.06
577.821	272.06
578.032	261.06
578.243	318.06
578.454	560.06
578.665	415.06
578.875	274.06
579.086	271.06
579.297	254.06
579.508	269.06
579.718	283.06
579.929	265.06
580.14	257.06
580.35	265.06
580.561	289.06
580.772	267.06
580.982	273.06
581.193	265.06
581.403	257.06
581.614	253.06
581.825	248.06
582.035	248.06
582.246	259.06
582.456	252.06
582.667	259.06
582.877	256.06
583.087	263.06
583.298	262.06
583.508	275.06
583.719	255.06
583.929	266.06
584.139	249.06
584.35	249.06
584.56	254.06
584.77	266.06
584.981	249.06
585.191	251.06
585.401	262.06
585.611	249.06
585.821	243.06
586.032	243.06
586.242	254.06
586.452	245.06
586.662	253.06
586.872	248.06
587.082	246.06
587.292	233.06
587.502	238.06
587.713	240.06
587.923	264.06
588.133	247.06
588.343	265.06
588.553	250.06
588.762	252.06
588.972	245.06
589.182	238.06
589.392	261.06
589.602	259.06
589.812	247.06
590.022	235.06
590.232	239.06
590.441	235.06
590.651	230.06
590.861	249.06
591.071	242.06
591.281	251.06
591.49	229.06
591.7	239.06
591.91	247.06
592.119	240.06
592.329	248.06
592.539	265.06
592.748	248.06
592.958	246.06
593.167	264.06
593.377	243.06
593.587	262.06
593.796	253.06
594.006	260.06
594.215	240.06
594.424	252.06
594.634	229.06
594.843	252.06
595.053	234.06
595.262	246.06
595.472	249.06
595.681	233.06
595.89	240.06
596.1	238.06
596.309	240.06
596.518	250.06
596.727	232.06
596.937	237.06
597.146	251.06
597.355	241.06
597.564	221.06
597.774	245.06
597.983	208.06
598.192	240.06
598.401	225.06
598.61	207.06
598.819	235.06
599.028	220.06
599.237	242.06
599.446	222.06
599.655	224.06
599.864	240.06
600.073	227.06
600.282	231.06
600.491	208.06
600.7	213.06
600.909	217.06
601.118	224.06
601.327	222.06
601.536	226.06
601.745	225.06
601.953	213.06
602.162	219.06
602.371	212.06
602.58	224.06
602.789	215.06
602.997	225.06
603.206	206.06
603.415	226.06
603.623	229.06
603.832	219.06
604.041	216.06
604.249	215.06
604.458	218.06
604.666	201.06
604.875	204.06
605.084	205.06
605.292	212.06
605.501	218.06
605.709	192.06
605.918	224.06
606.126	227.06
606.334	208.06
606.543	203.06
606.751	199.06
606.96	207.06
607.168	201.06
607.376	213.06
607.585	190.06
607.793	206.06
608.001	222.06
608.21	206.06
608.418	211.06
608.626	207.06
608.834	204.06
609.043	209.06
609.251	221.06
609.459	212.06
609.667	211.06
609.875	211.06
610.083	218.06
610.291	201.06
610.499	213.06
610.707	204.06
610.916	205.06
611.124	203.06
611.332	213.06
611.54	202.06
611.748	195.06
611.955	208.06
612.163	203.06
612.371	203.06
612.579	193.06
612.787	198.06
612.995	204.06
613.203	191.06
613.411	209.06
613.618	213.06
613.826	200.06
614.034	208.06
614.242	195.06
614.449	205.06
614.657	191.06
614.865	199.06
615.072	193.06
615.28	194.06
615.488	204.06
615.695	191.06
615.903	204.06
616.111	201.06
616.318	201.06
616.526	197.06
616.733	195.06
616.941	219.06
617.148	209.06
617.356	211.06
617.563	210.06
617.771	201.06
617.978	188.06
618.185	190.06
618.393	200.06
618.6	196.06
618.807	216.06
619.015	206.06
619.222	191.06
619.429	202.06
619.637	187.06
619.844	197.06
620.051	207.06
620.258	196.06
620.466	198.06
620.673	201.06
620.88	191.06
621.087	189.06
621.294	190.06
621.501	191.06
621.708	200.06
621.915	195.06
622.122	190.06
622.329	181.06
622.536	197.06
622.743	171.06
622.95	194.06
623.157	190.06
623.364	181.06
623.571	200.06
623.778	194.06
623.985	203.06
624.192	197.06
624.399	201.06
624.606	190.06
624.812	195.06
625.019	192.06
625.226	189.06
625.433	188.06
625.639	191.06
625.846	181.06
626.053	169.06
626.259	173.06
626.466	179.06
626.673	199.06
626.879	188.06
627.086	177.06
627.293	191.06
627.499	184.06
627.706	168.06
627.912	176.06
628.119	176.06
628.325	182.06
628.532	192.06
628.738	190.06
628.945	162.06
629.151	177.06
629.357	161.06
629.564	185.06
629.77	166.06
629.976	171.06
630.183	173.06
630.389	164.06
630.595	169.06
630.802	170.06
631.008	178.06
631.214	176.06
631.42	168.06
631.627	176.06
631.833	178.06
632.039	178.06
632.245	168.06
632.451	171.06
632.657	168.06
632.863	170.06
633.069	175.06
633.275	172.06
633.481	170.06
633.688	163.06
633.893	180.06
634.099	173.06
634.305	185.06
634.511	160.06
634.717	187.06
634.923	168.06
635.129	164.06
635.335	151.06
635.541	160.06
635.747	157.06
635.952	178.06
636.158	164.06
636.364	156.06
636.57	182.06
636.775	154.06
636.981	157.06
637.187	169.06
637.392	145.06
637.598	165.06
637.804	161.06
638.009	170.06
638.215	167.06
638.421	153.06
638.626	153.06
638.832	182.06
639.037	165.06
639.243	147.06
639.448	149.06
639.654	139.06
639.859	161.06
640.065	159.06
640.27	166.06
640.475	167.06
640.681	165.06
640.886	171.06
641.091	158.06
641.297	175.06
641.502	171.06
641.707	161.06
641.913	153.06
642.118	138.06
642.323	161.06
642.528	151.06
642.733	146.06
642.939	149.06
643.144	155.06
643.349	150.06
643.554	172.06
643.759	145.06
643.964	160.06
644.169	151.06
644.374	162.06
644.579	149.06
644.784	154.06
644.989	153.06
645.194	145.06
645.399	158.06
645.604	138.06
645.809	166.06
646.014	160.06
646.219	140.06
646.423	147.06
646.628	155.06
646.833	164.06
647.038	155.06
647.243	155.06
647.447	147.06
647.652	151.06
647.857	158.06
648.062	167.06
648.266	160.06
648.471	166.06
648.676	144.06
648.88	149.06
649.085	161.06
649.289	153.06
649.494	173.06
649.698	171.06
649.903	181.06
650.107	161.06
650.312	154.06
650.516	158.06
650.721	146.06
650.925	144.06
651.13	133.06
651.334	143.06
651.539	154.06
651.743	153.06
651.947	137.06
652.152	128.06
652.356	146.06
652.56	137.06
652.764	123.06
652.969	134.06
653.173	119.06
653.377	129.06
653.581	134.06
653.785	122.06
653.99	135.06
654.194	137.06
654.398	131.06
654.602	127.06
654.806	129.06
655.01	128.06
655.214	134.06
655.418	136.06
655.622	128.06
655.826	138.06
656.03	135.06
656.234	141.06
656.438	134.06
656.642	131.06
656.846	116.06
657.049	123.06
657.253	117.06
657.457	114.06
657.661	109.06
657.865	107.06
658.068	99.06
658.272	118.06
658.476	99.06
658.68	103.06
658.883	107.06
659.087	108.06
659.291	104.06
659.494	94.06
659.698	101.06
659.901	111.06
660.105	112.06
660.309	114.06
660.512	90.06
660.716	89.06
660.919	93.06
661.123	99.06
661.326	110.06
661.53	78.06
661.733	89.06
661.936	99.06
662.14	94.06
662.343	97.06
662.546	88.06
662.75	88.06
662.953	91.06
663.156	80.06
663.36	84.06
663.563	87.06
663.766	101.06
663.969	88.06
664.173	85.06
664.376	89.06
664.579	91.06
664.782	97.06
664.985	83.06
665.188	100.06
665.391	97.06
665.594	89.06
665.797	86.06
666	82.06
666.203	89.06
666.406	86.06
666.609	85.06
666.812	87.06
667.015	81.06
667.218	86.06
667.421	82.06
667.624	92.06
667.827	83.06
668.03	89.06
668.232	82.06
668.435	83.06
668.638	95.06
668.841	97.06
669.043	88.06
669.246	84.06
669.449	79.06
669.651	97.06
669.854	95.06
670.057	86.06
670.259	90.06
670.462	83.06
670.665	92.06
670.867	80.06
671.07	83.06
671.272	84.06
671.475	73.06
671.677	83.06
671.88	94.06
672.082	94.06
672.284	95.06
672.487	86.06
672.689	80.06
672.892	83.06
