Data from 1981.PennyLincolnUp.Lamp.En5.5.200Scan.071819.P1_HRD10591_16-40-57-959.txt Node
Date: Thu Jul 18 16:40:57 EDT 2019
User: cochatt
Spectrometer: HR+D1059
Trigger mode: 1
Integration Time (sec): 1.000000E-1
Scans to average: 1
Electric dark correction enabled: true
Nonlinearity correction enabled: false
Boxcar width: 0
XAxis mode: Wavelengths
Number of Pixels in Spectrum: 2048
>>>>>Begin Spectral Data<<<<<
223.165	-26.94
223.4	-26.94
223.635	-26.94
223.869	-11.94
224.104	-25.94
224.338	-21.94
224.573	-11.94
224.808	-11.94
225.042	7.06
225.277	4.06
225.511	7.06
225.746	1.06
225.98	6.06
226.215	21.06
226.449	19.06
226.683	19.06
226.918	2.06
227.152	24.06
227.387	36.06
227.621	52.06
227.856	47.06
228.09	51.06
228.324	43.06
228.559	49.06
228.793	68.06
229.027	93.06
229.262	113.06
229.496	117.06
229.73	119.06
229.964	130.06
230.199	116.06
230.433	120.06
230.667	121.06
230.901	104.06
231.136	119.06
231.37	102.06
231.604	107.06
231.838	117.06
232.072	109.06
232.306	107.06
232.541	121.06
232.775	115.06
233.009	115.06
233.243	106.06
233.477	113.06
233.711	110.06
233.945	117.06
234.179	122.06
234.413	119.06
234.647	123.06
234.881	101.06
235.115	113.06
235.349	99.06
235.583	105.06
235.817	133.06
236.051	119.06
236.285	119.06
236.519	126.06
236.753	132.06
236.987	146.06
237.221	182.06
237.455	236.06
237.689	169.06
237.922	143.06
238.156	146.06
238.39	117.06
238.624	116.06
238.858	123.06
239.091	129.06
239.325	129.06
239.559	127.06
239.793	132.06
240.027	125.06
240.26	131.06
240.494	148.06
240.728	149.06
240.961	146.06
241.195	144.06
241.429	132.06
241.662	114.06
241.896	112.06
242.13	121.06
242.363	121.06
242.597	139.06
242.83	140.06
243.064	115.06
243.298	134.06
243.531	135.06
243.765	130.06
243.998	124.06
244.232	134.06
244.465	138.06
244.699	161.06
244.932	150.06
245.166	149.06
245.399	144.06
245.633	144.06
245.866	132.06
246.099	143.06
246.333	133.06
246.566	144.06
246.8	151.06
247.033	151.06
247.266	150.06
247.5	160.06
247.733	138.06
247.966	173.06
248.2	143.06
248.433	168.06
248.666	168.06
248.899	183.06
249.133	189.06
249.366	202.06
249.599	185.06
249.832	181.06
250.066	173.06
250.299	173.06
250.532	184.06
250.765	187.06
250.998	197.06
251.231	224.06
251.465	199.06
251.698	207.06
251.931	207.06
252.164	202.06
252.397	194.06
252.63	220.06
252.863	193.06
253.096	205.06
253.329	228.06
253.562	222.06
253.795	228.06
254.028	227.06
254.261	212.06
254.494	231.06
254.727	238.06
254.96	271.06
255.193	279.06
255.426	249.06
255.659	243.06
255.892	239.06
256.124	237.06
256.357	215.06
256.59	215.06
256.823	213.06
257.056	224.06
257.289	206.06
257.521	205.06
257.754	224.06
257.987	211.06
258.22	207.06
258.452	205.06
258.685	201.06
258.918	200.06
259.151	196.06
259.383	221.06
259.616	234.06
259.849	213.06
260.081	222.06
260.314	236.06
260.547	240.06
260.779	239.06
261.012	238.06
261.244	214.06
261.477	210.06
261.71	203.06
261.942	227.06
262.175	236.06
262.407	235.06
262.64	210.06
262.872	207.06
263.105	204.06
263.337	208.06
263.57	197.06
263.802	215.06
264.035	200.06
264.267	217.06
264.499	196.06
264.732	204.06
264.964	202.06
265.197	213.06
265.429	223.06
265.661	194.06
265.894	216.06
266.126	211.06
266.358	206.06
266.591	209.06
266.823	205.06
267.055	206.06
267.287	231.06
267.52	206.06
267.752	233.06
267.984	227.06
268.216	223.06
268.448	231.06
268.681	222.06
268.913	232.06
269.145	251.06
269.377	263.06
269.609	243.06
269.841	270.06
270.073	284.06
270.306	281.06
270.538	295.06
270.77	313.06
271.002	287.06
271.234	295.06
271.466	299.06
271.698	315.06
271.93	314.06
272.162	294.06
272.394	313.06
272.626	309.06
272.858	288.06
273.09	299.06
273.322	258.06
273.553	271.06
273.785	261.06
274.017	270.06
274.249	261.06
274.481	265.06
274.713	263.06
274.945	270.06
275.176	265.06
275.408	233.06
275.64	243.06
275.872	253.06
276.104	268.06
276.335	261.06
276.567	258.06
276.799	298.06
277.031	286.06
277.262	282.06
277.494	295.06
277.726	297.06
277.957	279.06
278.189	285.06
278.421	277.06
278.652	276.06
278.884	276.06
279.115	245.06
279.347	248.06
279.579	260.06
279.81	259.06
280.042	262.06
280.273	238.06
280.505	270.06
280.736	250.06
280.968	241.06
281.199	255.06
281.431	256.06
281.662	254.06
281.894	253.06
282.125	249.06
282.356	296.06
282.588	280.06
282.819	294.06
283.051	259.06
283.282	254.06
283.513	259.06
283.745	263.06
283.976	276.06
284.207	273.06
284.439	265.06
284.67	283.06
284.901	255.06
285.132	246.06
285.364	252.06
285.595	262.06
285.826	271.06
286.057	277.06
286.288	262.06
286.52	275.06
286.751	250.06
286.982	251.06
287.213	256.06
287.444	257.06
287.675	292.06
287.906	297.06
288.138	293.06
288.369	283.06
288.6	293.06
288.831	262.06
289.062	266.06
289.293	281.06
289.524	269.06
289.755	284.06
289.986	264.06
290.217	264.06
290.448	260.06
290.679	266.06
290.91	262.06
291.141	282.06
291.371	259.06
291.602	267.06
291.833	272.06
292.064	279.06
292.295	269.06
292.526	287.06
292.757	272.06
292.987	271.06
293.218	261.06
293.449	266.06
293.68	278.06
293.91	261.06
294.141	259.06
294.372	270.06
294.603	267.06
294.833	274.06
295.064	284.06
295.295	286.06
295.525	263.06
295.756	286.06
295.987	291.06
296.217	280.06
296.448	317.06
296.679	285.06
296.909	294.06
297.14	272.06
297.37	278.06
297.601	283.06
297.831	288.06
298.062	279.06
298.292	277.06
298.523	270.06
298.753	300.06
298.984	263.06
299.214	281.06
299.445	286.06
299.675	289.06
299.905	297.06
300.136	279.06
300.366	283.06
300.597	286.06
300.827	292.06
301.057	281.06
301.288	315.06
301.518	284.06
301.748	274.06
301.979	289.06
302.209	301.06
302.439	320.06
302.669	305.06
302.9	316.06
303.13	305.06
303.36	297.06
303.59	305.06
303.82	308.06
304.051	298.06
304.281	289.06
304.511	296.06
304.741	299.06
304.971	320.06
305.201	291.06
305.431	311.06
305.661	302.06
305.891	310.06
306.121	329.06
306.352	323.06
306.582	318.06
306.812	297.06
307.042	321.06
307.272	323.06
307.502	306.06
307.731	309.06
307.961	311.06
308.191	311.06
308.421	311.06
308.651	311.06
308.881	316.06
309.111	317.06
309.341	319.06
309.571	316.06
309.8	355.06
310.03	344.06
310.26	358.06
310.49	337.06
310.72	359.06
310.949	380.06
311.179	369.06
311.409	350.06
311.639	353.06
311.868	362.06
312.098	353.06
312.328	375.06
312.557	388.06
312.787	402.06
313.017	381.06
313.246	358.06
313.476	364.06
313.706	349.06
313.935	342.06
314.165	371.06
314.394	377.06
314.624	362.06
314.853	352.06
315.083	370.06
315.312	375.06
315.542	350.06
315.771	365.06
316.001	352.06
316.23	324.06
316.46	343.06
316.689	356.06
316.919	372.06
317.148	365.06
317.377	353.06
317.607	363.06
317.836	373.06
318.065	362.06
318.295	359.06
318.524	358.06
318.753	344.06
318.983	349.06
319.212	360.06
319.441	367.06
319.67	380.06
319.9	375.06
320.129	370.06
320.358	376.06
320.587	370.06
320.816	373.06
321.046	382.06
321.275	387.06
321.504	390.06
321.733	384.06
321.962	393.06
322.191	399.06
322.42	409.06
322.649	426.06
322.878	419.06
323.108	442.06
323.337	462.06
323.566	481.06
323.795	525.06
324.024	602.06
324.253	701.06
324.482	1035.06
324.71	1559.06
324.939	2117.06
325.168	1807.06
325.397	983.06
325.626	649.06
325.855	552.06
326.084	492.06
326.313	485.06
326.542	486.06
326.77	547.06
326.999	653.06
327.228	896.06
327.457	1321.06
327.686	1545.06
327.914	1048.06
328.143	692.06
328.372	607.06
328.6	571.06
328.829	555.06
329.058	577.06
329.287	548.06
329.515	526.06
329.744	495.06
329.972	488.06
330.201	504.06
330.43	534.06
330.658	558.06
330.887	598.06
331.115	585.06
331.344	485.06
331.572	450.06
331.801	437.06
332.03	454.06
332.258	436.06
332.486	405.06
332.715	424.06
332.943	410.06
333.172	414.06
333.4	425.06
333.629	417.06
333.857	442.06
334.085	430.06
334.314	450.06
334.542	469.06
334.771	468.06
334.999	423.06
335.227	398.06
335.455	403.06
335.684	379.06
335.912	408.06
336.14	389.06
336.369	394.06
336.597	398.06
336.825	391.06
337.053	407.06
337.281	385.06
337.51	392.06
337.738	398.06
337.966	391.06
338.194	394.06
338.422	389.06
338.65	410.06
338.878	397.06
339.106	401.06
339.334	395.06
339.562	363.06
339.79	385.06
340.018	391.06
340.246	389.06
340.474	402.06
340.702	398.06
340.93	385.06
341.158	387.06
341.386	390.06
341.614	384.06
341.842	380.06
342.07	385.06
342.298	378.06
342.526	372.06
342.754	387.06
342.981	357.06
343.209	379.06
343.437	361.06
343.665	375.06
343.893	377.06
344.12	391.06
344.348	395.06
344.576	381.06
344.804	389.06
345.031	386.06
345.259	386.06
345.487	402.06
345.714	394.06
345.942	384.06
346.17	381.06
346.397	382.06
346.625	378.06
346.853	378.06
347.08	384.06
347.308	382.06
347.535	378.06
347.763	396.06
347.99	405.06
348.218	396.06
348.445	373.06
348.673	398.06
348.9	373.06
349.128	379.06
349.355	350.06
349.583	365.06
349.81	363.06
350.037	365.06
350.265	370.06
350.492	385.06
350.72	373.06
350.947	387.06
351.174	381.06
351.402	380.06
351.629	380.06
351.856	379.06
352.083	380.06
352.311	396.06
352.538	379.06
352.765	410.06
352.992	369.06
353.22	369.06
353.447	378.06
353.674	369.06
353.901	364.06
354.128	348.06
354.355	347.06
354.583	335.06
354.81	342.06
355.037	347.06
355.264	352.06
355.491	341.06
355.718	361.06
355.945	349.06
356.172	316.06
356.399	346.06
356.626	349.06
356.853	340.06
357.08	326.06
357.307	333.06
357.534	337.06
357.761	357.06
357.988	336.06
358.215	340.06
358.441	345.06
358.668	352.06
358.895	354.06
359.122	349.06
359.349	353.06
359.576	360.06
359.802	393.06
360.029	413.06
360.256	432.06
360.483	399.06
360.709	370.06
360.936	363.06
361.163	363.06
361.39	376.06
361.616	364.06
361.843	375.06
362.07	355.06
362.296	379.06
362.523	388.06
362.749	363.06
362.976	346.06
363.203	368.06
363.429	353.06
363.656	344.06
363.882	352.06
364.109	353.06
364.335	346.06
364.562	349.06
364.788	348.06
365.015	350.06
365.241	360.06
365.468	371.06
365.694	327.06
365.92	362.06
366.147	352.06
366.373	353.06
366.599	361.06
366.826	339.06
367.052	338.06
367.278	335.06
367.505	339.06
367.731	340.06
367.957	354.06
368.184	334.06
368.41	346.06
368.636	342.06
368.862	357.06
369.089	355.06
369.315	341.06
369.541	339.06
369.767	346.06
369.993	340.06
370.219	349.06
370.445	345.06
370.672	357.06
370.898	325.06
371.124	329.06
371.35	350.06
371.576	335.06
371.802	342.06
372.028	350.06
372.254	333.06
372.48	315.06
372.706	342.06
372.932	333.06
373.158	315.06
373.384	325.06
373.61	343.06
373.835	353.06
374.061	338.06
374.287	355.06
374.513	334.06
374.739	336.06
374.965	350.06
375.191	343.06
375.416	355.06
375.642	325.06
375.868	330.06
376.094	330.06
376.319	326.06
376.545	349.06
376.771	326.06
376.997	336.06
377.222	329.06
377.448	334.06
377.674	349.06
377.899	344.06
378.125	311.06
378.35	314.06
378.576	317.06
378.802	324.06
379.027	319.06
379.253	313.06
379.478	331.06
379.704	349.06
379.929	330.06
380.155	342.06
380.38	313.06
380.606	338.06
380.831	346.06
381.057	330.06
381.282	321.06
381.507	335.06
381.733	327.06
381.958	328.06
382.184	346.06
382.409	325.06
382.634	325.06
382.86	323.06
383.085	332.06
383.31	330.06
383.535	346.06
383.761	319.06
383.986	333.06
384.211	340.06
384.436	343.06
384.662	342.06
384.887	353.06
385.112	346.06
385.337	347.06
385.562	355.06
385.787	341.06
386.013	381.06
386.238	387.06
386.463	379.06
386.688	354.06
386.913	358.06
387.138	335.06
387.363	333.06
387.588	329.06
387.813	346.06
388.038	355.06
388.263	342.06
388.488	337.06
388.713	359.06
388.938	355.06
389.163	360.06
389.387	359.06
389.612	350.06
389.837	345.06
390.062	349.06
390.287	347.06
390.512	329.06
390.736	345.06
390.961	351.06
391.186	353.06
391.411	365.06
391.636	354.06
391.86	351.06
392.085	358.06
392.31	349.06
392.534	361.06
392.759	346.06
392.984	346.06
393.208	355.06
393.433	370.06
393.658	361.06
393.882	335.06
394.107	347.06
394.331	335.06
394.556	343.06
394.78	348.06
395.005	354.06
395.229	355.06
395.454	351.06
395.678	350.06
395.903	362.06
396.127	392.06
396.352	381.06
396.576	378.06
396.801	350.06
397.025	369.06
397.249	368.06
397.474	370.06
397.698	364.06
397.922	360.06
398.147	386.06
398.371	385.06
398.595	372.06
398.82	371.06
399.044	375.06
399.268	376.06
399.492	404.06
399.717	412.06
399.941	442.06
400.165	462.06
400.389	470.06
400.613	441.06
400.837	407.06
401.062	386.06
401.286	391.06
401.51	390.06
401.734	375.06
401.958	389.06
402.182	378.06
402.406	396.06
402.63	395.06
402.854	388.06
403.078	407.06
403.302	391.06
403.526	388.06
403.75	389.06
403.974	389.06
404.198	406.06
404.422	403.06
404.645	400.06
404.869	386.06
405.093	419.06
405.317	437.06
405.541	483.06
405.765	436.06
405.988	413.06
406.212	430.06
406.436	460.06
406.66	460.06
406.883	443.06
407.107	455.06
407.331	501.06
407.555	511.06
407.778	540.06
408.002	478.06
408.226	457.06
408.449	440.06
408.673	434.06
408.896	477.06
409.12	493.06
409.344	447.06
409.567	425.06
409.791	423.06
410.014	399.06
410.238	389.06
410.461	383.06
410.685	391.06
410.908	409.06
411.132	458.06
411.355	461.06
411.578	456.06
411.802	418.06
412.025	395.06
412.249	388.06
412.472	421.06
412.695	429.06
412.919	427.06
413.142	401.06
413.365	382.06
413.589	388.06
413.812	381.06
414.035	391.06
414.258	378.06
414.482	363.06
414.705	369.06
414.928	383.06
415.151	366.06
415.374	362.06
415.597	380.06
415.821	387.06
416.044	366.06
416.267	383.06
416.49	392.06
416.713	355.06
416.936	379.06
417.159	390.06
417.382	373.06
417.605	383.06
417.828	381.06
418.051	384.06
418.274	395.06
418.497	385.06
418.72	356.06
418.943	360.06
419.166	394.06
419.389	387.06
419.611	381.06
419.834	390.06
420.057	422.06
420.28	394.06
420.503	402.06
420.726	401.06
420.948	422.06
421.171	426.06
421.394	471.06
421.617	425.06
421.839	392.06
422.062	388.06
422.285	413.06
422.507	453.06
422.73	493.06
422.953	479.06
423.175	457.06
423.398	415.06
423.621	391.06
423.843	421.06
424.066	445.06
424.288	437.06
424.511	465.06
424.733	493.06
424.956	543.06
425.178	542.06
425.401	544.06
425.623	543.06
425.846	475.06
426.068	438.06
426.291	426.06
426.513	446.06
426.735	437.06
426.958	479.06
427.18	524.06
427.402	631.06
427.625	705.06
427.847	634.06
428.069	543.06
428.292	497.06
428.514	441.06
428.736	426.06
428.958	409.06
429.181	417.06
429.403	403.06
429.625	431.06
429.847	439.06
430.069	493.06
430.292	500.06
430.514	413.06
430.736	396.06
430.958	402.06
431.18	388.06
431.402	375.06
431.624	392.06
431.846	373.06
432.068	362.06
432.29	379.06
432.512	381.06
432.734	379.06
432.956	379.06
433.178	379.06
433.4	394.06
433.622	376.06
433.844	382.06
434.066	360.06
434.287	365.06
434.509	367.06
434.731	378.06
434.953	384.06
435.175	405.06
435.397	425.06
435.618	434.06
435.84	473.06
436.062	548.06
436.284	595.06
436.505	510.06
436.727	449.06
436.949	427.06
437.17	410.06
437.392	411.06
437.614	418.06
437.835	454.06
438.057	546.06
438.278	593.06
438.5	631.06
438.721	633.06
438.943	654.06
439.165	503.06
439.386	453.06
439.608	465.06
439.829	440.06
440.05	478.06
440.272	510.06
440.493	473.06
440.715	437.06
440.936	404.06
441.158	400.06
441.379	411.06
441.6	402.06
441.822	431.06
442.043	488.06
442.264	543.06
442.486	563.06
442.707	479.06
442.928	439.06
443.149	457.06
443.371	484.06
443.592	520.06
443.813	567.06
444.034	625.06
444.255	521.06
444.476	455.06
444.698	434.06
444.919	436.06
445.14	507.06
445.361	492.06
445.582	484.06
445.803	527.06
446.024	599.06
446.245	615.06
446.466	572.06
446.687	481.06
446.908	457.06
447.129	418.06
447.35	412.06
447.571	406.06
447.792	400.06
448.013	409.06
448.234	446.06
448.455	469.06
448.675	565.06
448.896	643.06
449.117	552.06
449.338	523.06
449.559	614.06
449.779	682.06
450	543.06
450.221	449.06
450.442	394.06
450.662	404.06
450.883	412.06
451.104	446.06
451.324	434.06
451.545	397.06
451.766	384.06
451.986	364.06
452.207	362.06
452.428	351.06
452.648	358.06
452.869	365.06
453.089	357.06
453.31	397.06
453.53	364.06
453.751	351.06
453.971	361.06
454.192	392.06
454.412	378.06
454.633	354.06
454.853	345.06
455.073	348.06
455.294	372.06
455.514	426.06
455.734	425.06
455.955	374.06
456.175	359.06
456.395	346.06
456.616	330.06
456.836	334.06
457.056	307.06
457.276	341.06
457.497	350.06
457.717	321.06
457.937	350.06
458.157	356.06
458.377	342.06
458.598	366.06
458.818	435.06
459.038	473.06
459.258	497.06
459.478	427.06
459.698	398.06
459.918	380.06
460.138	365.06
460.358	349.06
460.578	365.06
460.798	378.06
461.018	365.06
461.238	377.06
461.458	383.06
461.678	379.06
461.898	376.06
462.118	387.06
462.338	376.06
462.558	381.06
462.777	382.06
462.997	383.06
463.217	369.06
463.437	396.06
463.657	382.06
463.876	387.06
464.096	362.06
464.316	385.06
464.536	399.06
464.755	385.06
464.975	402.06
465.195	468.06
465.414	495.06
465.634	441.06
465.854	412.06
466.073	374.06
466.293	371.06
466.512	372.06
466.732	334.06
466.951	365.06
467.171	363.06
467.391	364.06
467.61	389.06
467.829	371.06
468.049	363.06
468.268	359.06
468.488	358.06
468.707	337.06
468.927	361.06
469.146	346.06
469.365	358.06
469.585	346.06
469.804	346.06
470.023	355.06
470.243	372.06
470.462	375.06
470.681	396.06
470.901	413.06
471.12	386.06
471.339	385.06
471.558	386.06
471.777	361.06
471.997	379.06
472.216	369.06
472.435	415.06
472.654	371.06
472.873	349.06
473.092	385.06
473.311	373.06
473.53	385.06
473.749	385.06
473.968	421.06
474.187	482.06
474.406	509.06
474.625	419.06
474.844	389.06
475.063	386.06
475.282	366.06
475.501	375.06
475.72	386.06
475.939	376.06
476.158	378.06
476.377	376.06
476.596	395.06
476.814	381.06
477.033	391.06
477.252	402.06
477.471	387.06
477.69	391.06
477.908	413.06
478.127	400.06
478.346	392.06
478.564	406.06
478.783	392.06
479.002	419.06
479.22	420.06
479.439	441.06
479.658	450.06
479.876	455.06
480.095	431.06
480.313	463.06
480.532	459.06
480.751	435.06
480.969	461.06
481.188	477.06
481.406	497.06
481.624	461.06
481.843	447.06
482.061	433.06
482.28	433.06
482.498	436.06
482.717	418.06
482.935	423.06
483.153	435.06
483.372	439.06
483.59	441.06
483.808	443.06
484.027	445.06
484.245	415.06
484.463	418.06
484.681	432.06
484.9	435.06
485.118	428.06
485.336	453.06
485.554	456.06
485.772	450.06
485.99	430.06
486.209	446.06
486.427	475.06
486.645	455.06
486.863	477.06
487.081	488.06
487.299	459.06
487.517	448.06
487.735	449.06
487.953	454.06
488.171	470.06
488.389	459.06
488.607	467.06
488.825	465.06
489.043	446.06
489.261	468.06
489.479	449.06
489.696	466.06
489.914	466.06
490.132	478.06
490.35	491.06
490.568	466.06
490.786	474.06
491.003	482.06
491.221	508.06
491.439	508.06
491.657	519.06
491.874	525.06
492.092	499.06
492.31	527.06
492.527	522.06
492.745	513.06
492.963	530.06
493.18	519.06
493.398	555.06
493.615	527.06
493.833	541.06
494.05	534.06
494.268	516.06
494.485	540.06
494.703	530.06
494.92	530.06
495.138	542.06
495.355	552.06
495.573	540.06
495.79	529.06
496.008	557.06
496.225	538.06
496.442	558.06
496.66	525.06
496.877	547.06
497.094	548.06
497.312	546.06
497.529	541.06
497.746	546.06
497.963	574.06
498.181	581.06
498.398	587.06
498.615	597.06
498.832	586.06
499.049	597.06
499.267	616.06
499.484	610.06
499.701	617.06
499.918	647.06
500.135	652.06
500.352	660.06
500.569	663.06
500.786	685.06
501.003	669.06
501.22	686.06
501.437	683.06
501.654	649.06
501.871	686.06
502.088	638.06
502.305	641.06
502.522	607.06
502.739	595.06
502.956	582.06
503.172	578.06
503.389	565.06
503.606	593.06
503.823	601.06
504.04	572.06
504.256	564.06
504.473	542.06
504.69	543.06
504.907	546.06
505.123	557.06
505.34	527.06
505.557	543.06
505.773	546.06
505.99	522.06
506.207	530.06
506.423	524.06
506.64	519.06
506.856	524.06
507.073	531.06
507.289	511.06
507.506	518.06
507.722	533.06
507.939	555.06
508.155	521.06
508.372	530.06
508.588	511.06
508.805	513.06
509.021	521.06
509.238	536.06
509.454	525.06
509.67	540.06
509.887	512.06
510.103	527.06
510.319	524.06
510.536	619.06
510.752	1038.06
510.968	806.06
511.184	534.06
511.401	509.06
511.617	494.06
511.833	507.06
512.049	487.06
512.265	493.06
512.481	483.06
512.698	487.06
512.914	468.06
513.13	483.06
513.346	472.06
513.562	488.06
513.778	499.06
513.994	503.06
514.21	498.06
514.426	539.06
514.642	556.06
514.858	592.06
515.074	612.06
515.29	740.06
515.506	1110.06
515.721	905.06
515.937	633.06
516.153	558.06
516.369	520.06
516.585	490.06
516.801	488.06
517.016	487.06
517.232	497.06
517.448	491.06
517.664	504.06
517.879	493.06
518.095	494.06
518.311	487.06
518.527	501.06
518.742	487.06
518.958	481.06
519.173	483.06
519.389	489.06
519.605	484.06
519.82	499.06
520.036	494.06
520.251	523.06
520.467	531.06
520.682	557.06
520.898	548.06
521.113	584.06
521.329	642.06
521.544	689.06
521.76	885.06
521.975	1446.06
522.19	1409.06
522.406	776.06
522.621	570.06
522.836	513.06
523.052	518.06
523.267	459.06
523.482	457.06
523.698	457.06
523.913	458.06
524.128	452.06
524.343	429.06
524.559	449.06
524.774	449.06
524.989	419.06
525.204	427.06
525.419	435.06
525.634	419.06
525.849	403.06
526.064	404.06
526.28	414.06
526.495	402.06
526.71	427.06
526.925	399.06
527.14	414.06
527.355	413.06
527.57	384.06
527.785	421.06
527.999	393.06
528.214	399.06
528.429	398.06
528.644	381.06
528.859	385.06
529.074	412.06
529.289	427.06
529.503	500.06
529.718	459.06
529.933	415.06
530.148	390.06
530.363	410.06
530.577	391.06
530.792	385.06
531.007	394.06
531.221	380.06
531.436	383.06
531.651	393.06
531.865	387.06
532.08	382.06
532.295	374.06
532.509	375.06
532.724	370.06
532.938	374.06
533.153	391.06
533.367	392.06
533.582	386.06
533.796	379.06
534.011	376.06
534.225	367.06
534.44	381.06
534.654	379.06
534.868	375.06
535.083	378.06
535.297	375.06
535.511	378.06
535.726	385.06
535.94	391.06
536.154	383.06
536.369	354.06
536.583	378.06
536.797	369.06
537.011	356.06
537.225	357.06
537.44	352.06
537.654	347.06
537.868	356.06
538.082	362.06
538.296	358.06
538.51	364.06
538.724	370.06
538.938	374.06
539.153	362.06
539.367	376.06
539.581	387.06
539.795	352.06
540.009	358.06
540.222	379.06
540.436	372.06
540.65	393.06
540.864	384.06
541.078	385.06
541.292	374.06
541.506	359.06
541.72	357.06
541.934	362.06
542.147	373.06
542.361	361.06
542.575	350.06
542.789	354.06
543.002	363.06
543.216	367.06
543.43	374.06
543.644	377.06
543.857	369.06
544.071	375.06
544.285	370.06
544.498	360.06
544.712	343.06
544.925	363.06
545.139	356.06
545.352	345.06
545.566	333.06
545.779	343.06
545.993	339.06
546.206	370.06
546.42	354.06
546.633	350.06
546.847	331.06
547.06	342.06
547.274	354.06
547.487	345.06
547.7	326.06
547.914	344.06
548.127	337.06
548.34	341.06
548.554	332.06
548.767	339.06
548.98	325.06
549.193	313.06
549.407	337.06
549.62	330.06
549.833	341.06
550.046	333.06
550.259	335.06
550.473	330.06
550.686	319.06
550.899	311.06
551.112	351.06
551.325	313.06
551.538	311.06
551.751	334.06
551.964	342.06
552.177	328.06
552.39	340.06
552.603	326.06
552.816	330.06
553.029	334.06
553.242	331.06
553.455	312.06
553.667	346.06
553.88	349.06
554.093	349.06
554.306	351.06
554.519	346.06
554.732	340.06
554.944	342.06
555.157	337.06
555.37	315.06
555.583	323.06
555.795	311.06
556.008	312.06
556.221	310.06
556.433	330.06
556.646	309.06
556.859	305.06
557.071	299.06
557.284	292.06
557.496	320.06
557.709	315.06
557.921	317.06
558.134	311.06
558.346	303.06
558.559	309.06
558.771	303.06
558.984	306.06
559.196	310.06
559.409	312.06
559.621	295.06
559.833	300.06
560.046	311.06
560.258	312.06
560.47	315.06
560.683	288.06
560.895	304.06
561.107	313.06
561.32	315.06
561.532	306.06
561.744	303.06
561.956	294.06
562.168	289.06
562.381	312.06
562.593	320.06
562.805	307.06
563.017	300.06
563.229	298.06
563.441	327.06
563.653	302.06
563.865	307.06
564.077	331.06
564.289	303.06
564.501	306.06
564.713	321.06
564.925	309.06
565.137	315.06
565.349	318.06
565.561	311.06
565.773	296.06
565.985	311.06
566.197	339.06
566.408	331.06
566.62	345.06
566.832	337.06
567.044	341.06
567.255	327.06
567.467	339.06
567.679	341.06
567.891	352.06
568.102	331.06
568.314	332.06
568.526	327.06
568.737	335.06
568.949	329.06
569.161	306.06
569.372	309.06
569.584	303.06
569.795	293.06
570.007	302.06
570.218	341.06
570.43	323.06
570.641	287.06
570.853	295.06
571.064	295.06
571.276	287.06
571.487	282.06
571.698	300.06
571.91	275.06
572.121	274.06
572.333	282.06
572.544	285.06
572.755	279.06
572.966	262.06
573.178	293.06
573.389	282.06
573.6	281.06
573.811	278.06
574.023	273.06
574.234	282.06
574.445	262.06
574.656	259.06
574.867	270.06
575.078	281.06
575.289	268.06
575.501	262.06
575.712	271.06
575.923	268.06
576.134	243.06
576.345	248.06
576.556	243.06
576.767	260.06
576.978	258.06
577.188	249.06
577.399	253.06
577.61	254.06
577.821	257.06
578.032	267.06
578.243	313.06
578.454	479.06
578.665	348.06
578.875	273.06
579.086	260.06
579.297	269.06
579.508	237.06
579.718	259.06
579.929	251.06
580.14	232.06
580.35	244.06
580.561	243.06
580.772	252.06
580.982	239.06
581.193	244.06
581.403	235.06
581.614	234.06
581.825	250.06
582.035	232.06
582.246	239.06
582.456	229.06
582.667	223.06
582.877	237.06
583.087	231.06
583.298	225.06
583.508	242.06
583.719	244.06
583.929	248.06
584.139	229.06
584.35	242.06
584.56	230.06
584.77	246.06
584.981	241.06
585.191	251.06
585.401	241.06
585.611	234.06
585.821	243.06
586.032	242.06
586.242	252.06
586.452	222.06
586.662	234.06
586.872	235.06
587.082	232.06
587.292	225.06
587.502	244.06
587.713	236.06
587.923	239.06
588.133	229.06
588.343	245.06
588.553	219.06
588.762	229.06
588.972	229.06
589.182	277.06
589.392	267.06
589.602	222.06
589.812	262.06
590.022	245.06
590.232	246.06
590.441	243.06
590.651	236.06
590.861	219.06
591.071	220.06
591.281	250.06
591.49	234.06
591.7	210.06
591.91	235.06
592.119	232.06
592.329	229.06
592.539	230.06
592.748	254.06
592.958	236.06
593.167	245.06
593.377	222.06
593.587	227.06
593.796	229.06
594.006	232.06
594.215	236.06
594.424	233.06
594.634	214.06
594.843	246.06
595.053	226.06
595.262	219.06
595.472	229.06
595.681	229.06
595.89	235.06
596.1	224.06
596.309	226.06
596.518	217.06
596.727	244.06
596.937	227.06
597.146	215.06
597.355	217.06
597.564	222.06
597.774	232.06
597.983	208.06
598.192	203.06
598.401	226.06
598.61	215.06
598.819	212.06
599.028	204.06
599.237	213.06
599.446	208.06
599.655	206.06
599.864	209.06
600.073	198.06
600.282	200.06
600.491	207.06
600.7	203.06
600.909	204.06
601.118	202.06
601.327	195.06
601.536	189.06
601.745	199.06
601.953	200.06
602.162	198.06
602.371	207.06
602.58	213.06
602.789	194.06
602.997	220.06
603.206	199.06
603.415	195.06
603.623	203.06
603.832	189.06
604.041	201.06
604.249	204.06
604.458	198.06
604.666	205.06
604.875	191.06
605.084	200.06
605.292	199.06
605.501	200.06
605.709	192.06
605.918	194.06
606.126	218.06
606.334	184.06
606.543	195.06
606.751	196.06
606.96	201.06
607.168	193.06
607.376	182.06
607.585	194.06
607.793	192.06
608.001	195.06
608.21	193.06
608.418	203.06
608.626	207.06
608.834	191.06
609.043	200.06
609.251	204.06
609.459	201.06
609.667	196.06
609.875	194.06
610.083	183.06
610.291	211.06
610.499	187.06
610.707	178.06
610.916	200.06
611.124	202.06
611.332	231.06
611.54	207.06
611.748	194.06
611.955	193.06
612.163	165.06
612.371	206.06
612.579	198.06
612.787	209.06
612.995	197.06
613.203	203.06
613.411	201.06
613.618	180.06
613.826	184.06
614.034	191.06
614.242	170.06
614.449	171.06
614.657	188.06
614.865	183.06
615.072	181.06
615.28	192.06
615.488	201.06
615.695	212.06
615.903	190.06
616.111	174.06
616.318	198.06
616.526	182.06
616.733	197.06
616.941	191.06
617.148	175.06
617.356	196.06
617.563	193.06
617.771	190.06
617.978	180.06
618.185	188.06
618.393	192.06
618.6	195.06
618.807	186.06
619.015	196.06
619.222	175.06
619.429	171.06
619.637	182.06
619.844	185.06
620.051	188.06
620.258	187.06
620.466	196.06
620.673	201.06
620.88	178.06
621.087	177.06
621.294	190.06
621.501	179.06
621.708	183.06
621.915	200.06
622.122	165.06
622.329	189.06
622.536	183.06
622.743	180.06
622.95	186.06
623.157	176.06
623.364	193.06
623.571	189.06
623.778	180.06
623.985	178.06
624.192	173.06
624.399	167.06
624.606	172.06
624.812	171.06
625.019	197.06
625.226	187.06
625.433	177.06
625.639	177.06
625.846	175.06
626.053	157.06
626.259	173.06
626.466	173.06
626.673	170.06
626.879	161.06
627.086	168.06
627.293	172.06
627.499	174.06
627.706	157.06
627.912	154.06
628.119	170.06
628.325	173.06
628.532	174.06
628.738	166.06
628.945	165.06
629.151	154.06
629.357	165.06
629.564	168.06
629.77	147.06
629.976	169.06
630.183	158.06
630.389	172.06
630.595	163.06
630.802	171.06
631.008	153.06
631.214	161.06
631.42	172.06
631.627	140.06
631.833	163.06
632.039	171.06
632.245	165.06
632.451	168.06
632.657	170.06
632.863	166.06
633.069	157.06
633.275	148.06
633.481	168.06
633.688	149.06
633.893	147.06
634.099	159.06
634.305	149.06
634.511	151.06
634.717	165.06
634.923	152.06
635.129	149.06
635.335	181.06
635.541	157.06
635.747	154.06
635.952	151.06
636.158	161.06
636.364	169.06
636.57	163.06
636.775	142.06
636.981	152.06
637.187	150.06
637.392	158.06
637.598	148.06
637.804	156.06
638.009	148.06
638.215	151.06
638.421	160.06
638.626	133.06
638.832	151.06
639.037	140.06
639.243	163.06
639.448	155.06
639.654	152.06
639.859	133.06
640.065	139.06
640.27	163.06
640.475	139.06
640.681	144.06
640.886	148.06
641.091	135.06
641.297	154.06
641.502	156.06
641.707	158.06
641.913	158.06
642.118	138.06
642.323	141.06
642.528	148.06
642.733	147.06
642.939	168.06
643.144	147.06
643.349	153.06
643.554	149.06
643.759	149.06
643.964	136.06
644.169	153.06
644.374	138.06
644.579	140.06
644.784	126.06
644.989	129.06
645.194	146.06
645.399	151.06
645.604	136.06
645.809	137.06
646.014	153.06
646.219	152.06
646.423	155.06
646.628	132.06
646.833	147.06
647.038	144.06
647.243	146.06
647.447	134.06
647.652	130.06
647.857	139.06
648.062	148.06
648.266	145.06
648.471	152.06
648.676	151.06
648.88	144.06
649.085	143.06
649.289	142.06
649.494	144.06
649.698	157.06
649.903	154.06
650.107	164.06
650.312	131.06
650.516	141.06
650.721	149.06
650.925	139.06
651.13	126.06
651.334	126.06
651.539	133.06
651.743	122.06
651.947	113.06
652.152	141.06
652.356	121.06
652.56	130.06
652.764	133.06
652.969	132.06
653.173	122.06
653.377	139.06
653.581	141.06
653.785	133.06
653.99	122.06
654.194	125.06
654.398	121.06
654.602	117.06
654.806	137.06
655.01	123.06
655.214	125.06
655.418	143.06
655.622	124.06
655.826	109.06
656.03	104.06
656.234	123.06
656.438	110.06
656.642	126.06
656.846	116.06
657.049	123.06
657.253	117.06
657.457	111.06
657.661	113.06
657.865	101.06
658.068	119.06
658.272	117.06
658.476	108.06
658.68	104.06
658.883	98.06
659.087	106.06
659.291	110.06
659.494	115.06
659.698	93.06
659.901	93.06
660.105	97.06
660.309	92.06
660.512	97.06
660.716	91.06
660.919	106.06
661.123	90.06
661.326	81.06
661.53	75.06
661.733	101.06
661.936	95.06
662.14	77.06
662.343	93.06
662.546	90.06
662.75	83.06
662.953	87.06
663.156	90.06
663.36	91.06
663.563	88.06
663.766	82.06
663.969	82.06
664.173	87.06
664.376	92.06
664.579	88.06
664.782	93.06
664.985	80.06
665.188	87.06
665.391	93.06
665.594	80.06
665.797	92.06
666	98.06
666.203	79.06
666.406	98.06
666.609	74.06
666.812	87.06
667.015	88.06
667.218	100.06
667.421	86.06
667.624	77.06
667.827	78.06
668.03	77.06
668.232	80.06
668.435	87.06
668.638	88.06
668.841	85.06
669.043	75.06
669.246	87.06
669.449	84.06
669.651	71.06
669.854	93.06
670.057	85.06
670.259	92.06
670.462	89.06
670.665	92.06
670.867	89.06
671.07	101.06
671.272	77.06
671.475	90.06
671.677	78.06
671.88	90.06
672.082	79.06
672.284	91.06
672.487	75.06
672.689	84.06
672.892	87.06
