Data from 1981.PennyLincolnUp.Lamp.En5.5.200Scan.071819.P1_HRD10591_16-43-32-960.txt Node
Date: Thu Jul 18 16:43:32 EDT 2019
User: cochatt
Spectrometer: HR+D1059
Trigger mode: 1
Integration Time (sec): 1.000000E-1
Scans to average: 1
Electric dark correction enabled: true
Nonlinearity correction enabled: false
Boxcar width: 0
XAxis mode: Wavelengths
Number of Pixels in Spectrum: 2048
>>>>>Begin Spectral Data<<<<<
223.165	-15.12
223.4	-15.12
223.635	-15.12
223.869	-17.12
224.104	-18.12
224.338	-12.12
224.573	-13.12
224.808	-13.12
225.042	-14.12
225.277	-5.12
225.511	-7.12
225.746	12.88
225.98	6.88
226.215	16.88
226.449	17.88
226.683	6.88
226.918	18.88
227.152	34.88
227.387	22.88
227.621	30.88
227.856	40.88
228.09	66.88
228.324	53.88
228.559	60.88
228.793	76.88
229.027	100.88
229.262	109.88
229.496	123.88
229.73	130.88
229.964	159.88
230.199	130.88
230.433	128.88
230.667	127.88
230.901	117.88
231.136	122.88
231.37	114.88
231.604	115.88
231.838	107.88
232.072	116.88
232.306	111.88
232.541	120.88
232.775	117.88
233.009	111.88
233.243	111.88
233.477	115.88
233.711	123.88
233.945	127.88
234.179	124.88
234.413	118.88
234.647	111.88
234.881	120.88
235.115	119.88
235.349	134.88
235.583	119.88
235.817	114.88
236.051	139.88
236.285	132.88
236.519	127.88
236.753	146.88
236.987	142.88
237.221	200.88
237.455	246.88
237.689	203.88
237.922	164.88
238.156	157.88
238.39	134.88
238.624	123.88
238.858	122.88
239.091	98.88
239.325	114.88
239.559	126.88
239.793	130.88
240.027	132.88
240.26	142.88
240.494	160.88
240.728	169.88
240.961	153.88
241.195	145.88
241.429	134.88
241.662	148.88
241.896	141.88
242.13	128.88
242.363	117.88
242.597	125.88
242.83	120.88
243.064	150.88
243.298	132.88
243.531	142.88
243.765	141.88
243.998	137.88
244.232	153.88
244.465	157.88
244.699	134.88
244.932	145.88
245.166	153.88
245.399	155.88
245.633	136.88
245.866	137.88
246.099	159.88
246.333	160.88
246.566	152.88
246.8	138.88
247.033	166.88
247.266	168.88
247.5	181.88
247.733	168.88
247.966	156.88
248.2	166.88
248.433	192.88
248.666	183.88
248.899	212.88
249.133	207.88
249.366	234.88
249.599	222.88
249.832	207.88
250.066	193.88
250.299	195.88
250.532	188.88
250.765	217.88
250.998	236.88
251.231	234.88
251.465	232.88
251.698	207.88
251.931	209.88
252.164	207.88
252.397	216.88
252.63	218.88
252.863	230.88
253.096	244.88
253.329	252.88
253.562	233.88
253.795	249.88
254.028	246.88
254.261	247.88
254.494	246.88
254.727	279.88
254.96	314.88
255.193	287.88
255.426	280.88
255.659	263.88
255.892	262.88
256.124	248.88
256.357	240.88
256.59	234.88
256.823	228.88
257.056	213.88
257.289	235.88
257.521	233.88
257.754	222.88
257.987	222.88
258.22	222.88
258.452	215.88
258.685	212.88
258.918	244.88
259.151	233.88
259.383	238.88
259.616	249.88
259.849	256.88
260.081	256.88
260.314	266.88
260.547	275.88
260.779	264.88
261.012	266.88
261.244	239.88
261.477	248.88
261.71	228.88
261.942	248.88
262.175	232.88
262.407	244.88
262.64	246.88
262.872	224.88
263.105	221.88
263.337	247.88
263.57	218.88
263.802	216.88
264.035	234.88
264.267	222.88
264.499	206.88
264.732	210.88
264.964	212.88
265.197	227.88
265.429	238.88
265.661	228.88
265.894	217.88
266.126	228.88
266.358	232.88
266.591	221.88
266.823	238.88
267.055	227.88
267.287	221.88
267.52	229.88
267.752	235.88
267.984	236.88
268.216	240.88
268.448	250.88
268.681	255.88
268.913	281.88
269.145	287.88
269.377	297.88
269.609	296.88
269.841	294.88
270.073	289.88
270.306	322.88
270.538	341.88
270.77	351.88
271.002	323.88
271.234	308.88
271.466	327.88
271.698	340.88
271.93	342.88
272.162	328.88
272.394	332.88
272.626	339.88
272.858	304.88
273.09	311.88
273.322	292.88
273.553	275.88
273.785	298.88
274.017	290.88
274.249	298.88
274.481	291.88
274.713	267.88
274.945	271.88
275.176	287.88
275.408	278.88
275.64	262.88
275.872	285.88
276.104	287.88
276.335	279.88
276.567	294.88
276.799	298.88
277.031	298.88
277.262	335.88
277.494	350.88
277.726	318.88
277.957	296.88
278.189	287.88
278.421	294.88
278.652	303.88
278.884	285.88
279.115	280.88
279.347	292.88
279.579	281.88
279.81	278.88
280.042	274.88
280.273	279.88
280.505	282.88
280.736	278.88
280.968	278.88
281.199	254.88
281.431	271.88
281.662	289.88
281.894	280.88
282.125	275.88
282.356	294.88
282.588	316.88
282.819	332.88
283.051	264.88
283.282	267.88
283.513	284.88
283.745	272.88
283.976	277.88
284.207	278.88
284.439	288.88
284.67	300.88
284.901	290.88
285.132	298.88
285.364	287.88
285.595	292.88
285.826	285.88
286.057	295.88
286.288	296.88
286.52	280.88
286.751	285.88
286.982	297.88
287.213	287.88
287.444	308.88
287.675	292.88
287.906	279.88
288.138	286.88
288.369	334.88
288.6	318.88
288.831	322.88
289.062	297.88
289.293	290.88
289.524	284.88
289.755	286.88
289.986	292.88
290.217	298.88
290.448	298.88
290.679	287.88
290.91	295.88
291.141	279.88
291.371	283.88
291.602	284.88
291.833	286.88
292.064	309.88
292.295	288.88
292.526	306.88
292.757	304.88
292.987	289.88
293.218	288.88
293.449	286.88
293.68	296.88
293.91	283.88
294.141	294.88
294.372	284.88
294.603	294.88
294.833	301.88
295.064	300.88
295.295	298.88
295.525	304.88
295.756	308.88
295.987	314.88
296.217	346.88
296.448	333.88
296.679	337.88
296.909	312.88
297.14	284.88
297.37	299.88
297.601	310.88
297.831	302.88
298.062	315.88
298.292	294.88
298.523	313.88
298.753	311.88
298.984	316.88
299.214	306.88
299.445	315.88
299.675	324.88
299.905	334.88
300.136	324.88
300.366	320.88
300.597	302.88
300.827	329.88
301.057	344.88
301.288	316.88
301.518	326.88
301.748	313.88
301.979	316.88
302.209	325.88
302.439	318.88
302.669	335.88
302.9	331.88
303.13	311.88
303.36	329.88
303.59	325.88
303.82	334.88
304.051	341.88
304.281	331.88
304.511	321.88
304.741	311.88
304.971	321.88
305.201	324.88
305.431	307.88
305.661	326.88
305.891	334.88
306.121	339.88
306.352	336.88
306.582	343.88
306.812	339.88
307.042	346.88
307.272	335.88
307.502	343.88
307.731	336.88
307.961	331.88
308.191	327.88
308.421	326.88
308.651	343.88
308.881	359.88
309.111	366.88
309.341	367.88
309.571	354.88
309.8	388.88
310.03	383.88
310.26	398.88
310.49	404.88
310.72	408.88
310.949	421.88
311.179	438.88
311.409	412.88
311.639	390.88
311.868	414.88
312.098	408.88
312.328	420.88
312.557	426.88
312.787	435.88
313.017	407.88
313.246	409.88
313.476	391.88
313.706	418.88
313.935	407.88
314.165	420.88
314.394	415.88
314.624	416.88
314.853	399.88
315.083	395.88
315.312	386.88
315.542	380.88
315.771	387.88
316.001	397.88
316.23	389.88
316.46	379.88
316.689	384.88
316.919	390.88
317.148	400.88
317.377	435.88
317.607	402.88
317.836	402.88
318.065	383.88
318.295	382.88
318.524	376.88
318.753	380.88
318.983	374.88
319.212	378.88
319.441	408.88
319.67	391.88
319.9	403.88
320.129	401.88
320.358	404.88
320.587	403.88
320.816	410.88
321.046	438.88
321.275	413.88
321.504	426.88
321.733	444.88
321.962	438.88
322.191	461.88
322.42	449.88
322.649	500.88
322.878	509.88
323.108	522.88
323.337	550.88
323.566	568.88
323.795	615.88
324.024	655.88
324.253	866.88
324.482	1225.88
324.71	1891.88
324.939	2608.88
325.168	2242.88
325.397	1171.88
325.626	776.88
325.855	677.88
326.084	590.88
326.313	556.88
326.542	571.88
326.77	655.88
326.999	774.88
327.228	1102.88
327.457	1674.88
327.686	1936.88
327.914	1306.88
328.143	850.88
328.372	744.88
328.6	682.88
328.829	630.88
329.058	646.88
329.287	623.88
329.515	615.88
329.744	573.88
329.972	573.88
330.201	601.88
330.43	642.88
330.658	656.88
330.887	679.88
331.115	668.88
331.344	572.88
331.572	528.88
331.801	530.88
332.03	516.88
332.258	481.88
332.486	469.88
332.715	440.88
332.943	477.88
333.172	465.88
333.4	459.88
333.629	436.88
333.857	470.88
334.085	484.88
334.314	532.88
334.542	549.88
334.771	555.88
334.999	508.88
335.227	459.88
335.455	449.88
335.684	455.88
335.912	443.88
336.14	435.88
336.369	442.88
336.597	438.88
336.825	449.88
337.053	422.88
337.281	439.88
337.51	407.88
337.738	429.88
337.966	450.88
338.194	438.88
338.422	431.88
338.65	453.88
338.878	440.88
339.106	430.88
339.334	441.88
339.562	430.88
339.79	430.88
340.018	418.88
340.246	438.88
340.474	436.88
340.702	423.88
340.93	456.88
341.158	426.88
341.386	434.88
341.614	446.88
341.842	419.88
342.07	420.88
342.298	411.88
342.526	387.88
342.754	428.88
342.981	419.88
343.209	409.88
343.437	400.88
343.665	418.88
343.893	410.88
344.12	424.88
344.348	428.88
344.576	423.88
344.804	439.88
345.031	448.88
345.259	443.88
345.487	452.88
345.714	419.88
345.942	423.88
346.17	419.88
346.397	410.88
346.625	434.88
346.853	416.88
347.08	427.88
347.308	406.88
347.535	424.88
347.763	425.88
347.99	411.88
348.218	426.88
348.445	438.88
348.673	454.88
348.9	411.88
349.128	410.88
349.355	402.88
349.583	393.88
349.81	392.88
350.037	410.88
350.265	392.88
350.492	382.88
350.72	404.88
350.947	408.88
351.174	423.88
351.402	414.88
351.629	404.88
351.856	427.88
352.083	427.88
352.311	450.88
352.538	434.88
352.765	435.88
352.992	425.88
353.22	412.88
353.447	401.88
353.674	389.88
353.901	400.88
354.128	371.88
354.355	382.88
354.583	365.88
354.81	376.88
355.037	367.88
355.264	374.88
355.491	354.88
355.718	368.88
355.945	374.88
356.172	367.88
356.399	361.88
356.626	356.88
356.853	380.88
357.08	363.88
357.307	372.88
357.534	356.88
357.761	366.88
357.988	363.88
358.215	383.88
358.441	374.88
358.668	381.88
358.895	378.88
359.122	371.88
359.349	388.88
359.576	415.88
359.802	438.88
360.029	468.88
360.256	475.88
360.483	442.88
360.709	426.88
360.936	426.88
361.163	383.88
361.39	400.88
361.616	413.88
361.843	382.88
362.07	406.88
362.296	398.88
362.523	409.88
362.749	410.88
362.976	382.88
363.203	375.88
363.429	373.88
363.656	383.88
363.882	377.88
364.109	350.88
364.335	366.88
364.562	380.88
364.788	374.88
365.015	367.88
365.241	370.88
365.468	378.88
365.694	377.88
365.92	367.88
366.147	378.88
366.373	366.88
366.599	357.88
366.826	384.88
367.052	365.88
367.278	365.88
367.505	357.88
367.731	356.88
367.957	362.88
368.184	373.88
368.41	374.88
368.636	388.88
368.862	390.88
369.089	384.88
369.315	391.88
369.541	366.88
369.767	376.88
369.993	374.88
370.219	360.88
370.445	353.88
370.672	372.88
370.898	365.88
371.124	353.88
371.35	360.88
371.576	344.88
371.802	358.88
372.028	351.88
372.254	337.88
372.48	343.88
372.706	344.88
372.932	367.88
373.158	361.88
373.384	352.88
373.61	347.88
373.835	342.88
374.061	359.88
374.287	345.88
374.513	354.88
374.739	354.88
374.965	367.88
375.191	358.88
375.416	362.88
375.642	341.88
375.868	362.88
376.094	354.88
376.319	344.88
376.545	357.88
376.771	358.88
376.997	356.88
377.222	342.88
377.448	363.88
377.674	350.88
377.899	356.88
378.125	348.88
378.35	351.88
378.576	356.88
378.802	355.88
379.027	353.88
379.253	347.88
379.478	326.88
379.704	348.88
379.929	360.88
380.155	362.88
380.38	340.88
380.606	348.88
380.831	369.88
381.057	344.88
381.282	362.88
381.507	354.88
381.733	350.88
381.958	338.88
382.184	346.88
382.409	360.88
382.634	354.88
382.86	339.88
383.085	382.88
383.31	359.88
383.535	370.88
383.761	352.88
383.986	373.88
384.211	365.88
384.436	371.88
384.662	352.88
384.887	370.88
385.112	344.88
385.337	358.88
385.562	372.88
385.787	378.88
386.013	367.88
386.238	378.88
386.463	356.88
386.688	366.88
386.913	356.88
387.138	360.88
387.363	362.88
387.588	366.88
387.813	347.88
388.038	366.88
388.263	367.88
388.488	357.88
388.713	370.88
388.938	384.88
389.163	376.88
389.387	373.88
389.612	356.88
389.837	346.88
390.062	359.88
390.287	370.88
390.512	354.88
390.736	359.88
390.961	341.88
391.186	355.88
391.411	372.88
391.636	361.88
391.86	349.88
392.085	368.88
392.31	351.88
392.534	350.88
392.759	367.88
392.984	362.88
393.208	373.88
393.433	371.88
393.658	354.88
393.882	370.88
394.107	362.88
394.331	375.88
394.556	364.88
394.78	352.88
395.005	367.88
395.229	358.88
395.454	351.88
395.678	385.88
395.903	390.88
396.127	400.88
396.352	412.88
396.576	397.88
396.801	382.88
397.025	356.88
397.249	371.88
397.474	370.88
397.698	371.88
397.922	387.88
398.147	412.88
398.371	416.88
398.595	397.88
398.82	408.88
399.044	410.88
399.268	405.88
399.492	426.88
399.717	417.88
399.941	469.88
400.165	482.88
400.389	493.88
400.613	474.88
400.837	431.88
401.062	410.88
401.286	405.88
401.51	417.88
401.734	421.88
401.958	425.88
402.182	411.88
402.406	450.88
402.63	442.88
402.854	426.88
403.078	423.88
403.302	404.88
403.526	400.88
403.75	414.88
403.974	431.88
404.198	403.88
404.422	404.88
404.645	412.88
404.869	443.88
405.093	451.88
405.317	508.88
405.541	514.88
405.765	483.88
405.988	451.88
406.212	463.88
406.436	479.88
406.66	466.88
406.883	463.88
407.107	476.88
407.331	538.88
407.555	556.88
407.778	544.88
408.002	504.88
408.226	469.88
408.449	462.88
408.673	460.88
408.896	481.88
409.12	515.88
409.344	484.88
409.567	435.88
409.791	431.88
410.014	421.88
410.238	419.88
410.461	440.88
410.685	438.88
410.908	436.88
411.132	482.88
411.355	518.88
411.578	485.88
411.802	434.88
412.025	418.88
412.249	452.88
412.472	452.88
412.695	483.88
412.919	504.88
413.142	455.88
413.365	414.88
413.589	415.88
413.812	405.88
414.035	400.88
414.258	398.88
414.482	396.88
414.705	387.88
414.928	386.88
415.151	384.88
415.374	395.88
415.597	387.88
415.821	404.88
416.044	381.88
416.267	394.88
416.49	404.88
416.713	380.88
416.936	392.88
417.159	392.88
417.382	382.88
417.605	392.88
417.828	414.88
418.051	424.88
418.274	406.88
418.497	407.88
418.72	391.88
418.943	389.88
419.166	399.88
419.389	413.88
419.611	402.88
419.834	425.88
420.057	425.88
420.28	415.88
420.503	413.88
420.726	427.88
420.948	431.88
421.171	498.88
421.394	510.88
421.617	464.88
421.839	416.88
422.062	430.88
422.285	440.88
422.507	489.88
422.73	558.88
422.953	559.88
423.175	462.88
423.398	437.88
423.621	429.88
423.843	480.88
424.066	462.88
424.288	454.88
424.511	452.88
424.733	525.88
424.956	612.88
425.178	582.88
425.401	582.88
425.623	588.88
425.846	490.88
426.068	478.88
426.291	463.88
426.513	440.88
426.735	484.88
426.958	551.88
427.18	608.88
427.402	712.88
427.625	771.88
427.847	715.88
428.069	594.88
428.292	525.88
428.514	484.88
428.736	471.88
428.958	444.88
429.181	426.88
429.403	423.88
429.625	431.88
429.847	473.88
430.069	548.88
430.292	531.88
430.514	445.88
430.736	436.88
430.958	436.88
431.18	419.88
431.402	416.88
431.624	402.88
431.846	398.88
432.068	404.88
432.29	412.88
432.512	389.88
432.734	425.88
432.956	412.88
433.178	406.88
433.4	426.88
433.622	427.88
433.844	406.88
434.066	382.88
434.287	411.88
434.509	405.88
434.731	400.88
434.953	421.88
435.175	422.88
435.397	474.88
435.618	468.88
435.84	516.88
436.062	605.88
436.284	660.88
436.505	547.88
436.727	500.88
436.949	468.88
437.17	428.88
437.392	438.88
437.614	446.88
437.835	480.88
438.057	582.88
438.278	658.88
438.5	657.88
438.721	708.88
438.943	689.88
439.165	571.88
439.386	480.88
439.608	511.88
439.829	506.88
440.05	519.88
440.272	598.88
440.493	545.88
440.715	499.88
440.936	434.88
441.158	444.88
441.379	438.88
441.6	455.88
441.822	492.88
442.043	478.88
442.264	593.88
442.486	592.88
442.707	551.88
442.928	504.88
443.149	486.88
443.371	509.88
443.592	550.88
443.813	647.88
444.034	694.88
444.255	535.88
444.476	493.88
444.698	464.88
444.919	459.88
445.14	566.88
445.361	534.88
445.582	499.88
445.803	586.88
446.024	670.88
446.245	685.88
446.466	642.88
446.687	522.88
446.908	477.88
447.129	459.88
447.35	447.88
447.571	448.88
447.792	437.88
448.013	444.88
448.234	464.88
448.455	537.88
448.675	638.88
448.896	686.88
449.117	593.88
449.338	598.88
449.559	660.88
449.779	748.88
450	606.88
450.221	487.88
450.442	467.88
450.662	436.88
450.883	453.88
451.104	463.88
451.324	448.88
451.545	407.88
451.766	419.88
451.986	403.88
452.207	385.88
452.428	388.88
452.648	383.88
452.869	396.88
453.089	414.88
453.31	418.88
453.53	397.88
453.751	380.88
453.971	420.88
454.192	412.88
454.412	407.88
454.633	394.88
454.853	406.88
455.073	402.88
455.294	417.88
455.514	491.88
455.734	466.88
455.955	384.88
456.175	374.88
456.395	370.88
456.616	362.88
456.836	348.88
457.056	359.88
457.276	350.88
457.497	365.88
457.717	353.88
457.937	378.88
458.157	386.88
458.377	381.88
458.598	399.88
458.818	458.88
459.038	550.88
459.258	550.88
459.478	465.88
459.698	426.88
459.918	414.88
460.138	404.88
460.358	399.88
460.578	383.88
460.798	386.88
461.018	401.88
461.238	381.88
461.458	375.88
461.678	386.88
461.898	373.88
462.118	384.88
462.338	382.88
462.558	381.88
462.777	368.88
462.997	395.88
463.217	388.88
463.437	425.88
463.657	410.88
463.876	396.88
464.096	393.88
464.316	418.88
464.536	414.88
464.755	408.88
464.975	419.88
465.195	463.88
465.414	559.88
465.634	492.88
465.854	464.88
466.073	423.88
466.293	394.88
466.512	395.88
466.732	367.88
466.951	378.88
467.171	376.88
467.391	391.88
467.61	398.88
467.829	393.88
468.049	386.88
468.268	395.88
468.488	378.88
468.707	397.88
468.927	386.88
469.146	373.88
469.365	389.88
469.585	356.88
469.804	388.88
470.023	382.88
470.243	384.88
470.462	392.88
470.681	418.88
470.901	413.88
471.12	399.88
471.339	386.88
471.558	400.88
471.777	406.88
471.997	390.88
472.216	410.88
472.435	426.88
472.654	427.88
472.873	391.88
473.092	376.88
473.311	399.88
473.53	412.88
473.749	418.88
473.968	451.88
474.187	572.88
474.406	578.88
474.625	462.88
474.844	428.88
475.063	406.88
475.282	395.88
475.501	406.88
475.72	422.88
475.939	421.88
476.158	401.88
476.377	405.88
476.596	397.88
476.814	417.88
477.033	425.88
477.252	416.88
477.471	432.88
477.69	418.88
477.908	420.88
478.127	442.88
478.346	441.88
478.564	416.88
478.783	429.88
479.002	424.88
479.22	428.88
479.439	444.88
479.658	466.88
479.876	483.88
480.095	478.88
480.313	522.88
480.532	487.88
480.751	470.88
480.969	486.88
481.188	558.88
481.406	584.88
481.624	515.88
481.843	489.88
482.061	484.88
482.28	483.88
482.498	488.88
482.717	470.88
482.935	454.88
483.153	440.88
483.372	468.88
483.59	456.88
483.808	482.88
484.027	475.88
484.245	460.88
484.463	484.88
484.681	486.88
484.9	472.88
485.118	487.88
485.336	451.88
485.554	490.88
485.772	476.88
485.99	491.88
486.209	472.88
486.427	482.88
486.645	490.88
486.863	499.88
487.081	509.88
487.299	507.88
487.517	506.88
487.735	492.88
487.953	472.88
488.171	516.88
488.389	505.88
488.607	488.88
488.825	481.88
489.043	508.88
489.261	497.88
489.479	508.88
489.696	498.88
489.914	506.88
490.132	529.88
490.35	523.88
490.568	529.88
490.786	536.88
491.003	557.88
491.221	566.88
491.439	554.88
491.657	547.88
491.874	582.88
492.092	560.88
492.31	582.88
492.527	585.88
492.745	584.88
492.963	563.88
493.18	598.88
493.398	591.88
493.615	597.88
493.833	597.88
494.05	587.88
494.268	588.88
494.485	597.88
494.703	584.88
494.92	602.88
495.138	589.88
495.355	576.88
495.573	587.88
495.79	586.88
496.008	594.88
496.225	582.88
496.442	602.88
496.66	603.88
496.877	590.88
497.094	582.88
497.312	604.88
497.529	619.88
497.746	598.88
497.963	621.88
498.181	648.88
498.398	641.88
498.615	625.88
498.832	642.88
499.049	630.88
499.267	670.88
499.484	648.88
499.701	663.88
499.918	670.88
500.135	714.88
500.352	713.88
500.569	745.88
500.786	728.88
501.003	727.88
501.22	700.88
501.437	708.88
501.654	711.88
501.871	723.88
502.088	699.88
502.305	669.88
502.522	655.88
502.739	617.88
502.956	652.88
503.172	615.88
503.389	608.88
503.606	631.88
503.823	620.88
504.04	596.88
504.256	618.88
504.473	602.88
504.69	587.88
504.907	588.88
505.123	594.88
505.34	611.88
505.557	573.88
505.773	576.88
505.99	580.88
506.207	604.88
506.423	584.88
506.64	583.88
506.856	581.88
507.073	580.88
507.289	575.88
507.506	552.88
507.722	594.88
507.939	606.88
508.155	576.88
508.372	558.88
508.588	555.88
508.805	560.88
509.021	549.88
509.238	584.88
509.454	590.88
509.67	583.88
509.887	588.88
510.103	556.88
510.319	596.88
510.536	691.88
510.752	1132.88
510.968	928.88
511.184	594.88
511.401	546.88
511.617	559.88
511.833	564.88
512.049	580.88
512.265	532.88
512.481	568.88
512.698	525.88
512.914	529.88
513.13	511.88
513.346	516.88
513.562	538.88
513.778	537.88
513.994	551.88
514.21	547.88
514.426	592.88
514.642	619.88
514.858	686.88
515.074	715.88
515.29	848.88
515.506	1283.88
515.721	1018.88
515.937	679.88
516.153	623.88
516.369	588.88
516.585	575.88
516.801	562.88
517.016	528.88
517.232	535.88
517.448	542.88
517.664	544.88
517.879	520.88
518.095	515.88
518.311	531.88
518.527	509.88
518.742	524.88
518.958	514.88
519.173	508.88
519.389	542.88
519.605	510.88
519.82	546.88
520.036	560.88
520.251	575.88
520.467	616.88
520.682	606.88
520.898	607.88
521.113	632.88
521.329	680.88
521.544	804.88
521.76	1065.88
521.975	1739.88
522.19	1628.88
522.406	882.88
522.621	662.88
522.836	558.88
523.052	562.88
523.267	521.88
523.482	516.88
523.698	495.88
523.913	516.88
524.128	504.88
524.343	496.88
524.559	485.88
524.774	462.88
524.989	470.88
525.204	463.88
525.419	464.88
525.634	459.88
525.849	459.88
526.064	455.88
526.28	438.88
526.495	440.88
526.71	433.88
526.925	422.88
527.14	425.88
527.355	428.88
527.57	418.88
527.785	428.88
527.999	436.88
528.214	410.88
528.429	429.88
528.644	413.88
528.859	415.88
529.074	440.88
529.289	446.88
529.503	541.88
529.718	517.88
529.933	463.88
530.148	440.88
530.363	444.88
530.577	431.88
530.792	424.88
531.007	423.88
531.221	419.88
531.436	412.88
531.651	415.88
531.865	400.88
532.08	406.88
532.295	400.88
532.509	390.88
532.724	421.88
532.938	396.88
533.153	410.88
533.367	410.88
533.582	382.88
533.796	385.88
534.011	388.88
534.225	406.88
534.44	402.88
534.654	406.88
534.868	356.88
535.083	378.88
535.297	385.88
535.511	406.88
535.726	411.88
535.94	417.88
536.154	412.88
536.369	376.88
536.583	390.88
536.797	382.88
537.011	390.88
537.225	378.88
537.44	382.88
537.654	377.88
537.868	372.88
538.082	386.88
538.296	391.88
538.51	390.88
538.724	423.88
538.938	401.88
539.153	383.88
539.367	403.88
539.581	406.88
539.795	394.88
540.009	413.88
540.222	386.88
540.436	390.88
540.65	394.88
540.864	387.88
541.078	400.88
541.292	400.88
541.506	395.88
541.72	386.88
541.934	405.88
542.147	371.88
542.361	376.88
542.575	374.88
542.789	370.88
543.002	391.88
543.216	382.88
543.43	386.88
543.644	368.88
543.857	378.88
544.071	388.88
544.285	404.88
544.498	390.88
544.712	360.88
544.925	390.88
545.139	393.88
545.352	367.88
545.566	364.88
545.779	358.88
545.993	367.88
546.206	382.88
546.42	371.88
546.633	363.88
546.847	366.88
547.06	356.88
547.274	358.88
547.487	340.88
547.7	368.88
547.914	353.88
548.127	362.88
548.34	374.88
548.554	351.88
548.767	354.88
548.98	366.88
549.193	363.88
549.407	337.88
549.62	329.88
549.833	363.88
550.046	344.88
550.259	358.88
550.473	346.88
550.686	366.88
550.899	353.88
551.112	357.88
551.325	360.88
551.538	326.88
551.751	336.88
551.964	347.88
552.177	347.88
552.39	336.88
552.603	351.88
552.816	366.88
553.029	358.88
553.242	353.88
553.455	349.88
553.667	379.88
553.88	388.88
554.093	362.88
554.306	357.88
554.519	338.88
554.732	355.88
554.944	346.88
555.157	354.88
555.37	334.88
555.583	351.88
555.795	344.88
556.008	329.88
556.221	314.88
556.433	312.88
556.646	317.88
556.859	360.88
557.071	316.88
557.284	318.88
557.496	339.88
557.709	323.88
557.921	317.88
558.134	339.88
558.346	343.88
558.559	323.88
558.771	315.88
558.984	308.88
559.196	311.88
559.409	327.88
559.621	322.88
559.833	325.88
560.046	330.88
560.258	337.88
560.47	330.88
560.683	308.88
560.895	326.88
561.107	325.88
561.32	318.88
561.532	316.88
561.744	313.88
561.956	318.88
562.168	318.88
562.381	316.88
562.593	326.88
562.805	318.88
563.017	312.88
563.229	329.88
563.441	320.88
563.653	314.88
563.865	331.88
564.077	320.88
564.289	320.88
564.501	300.88
564.713	320.88
564.925	325.88
565.137	324.88
565.349	338.88
565.561	314.88
565.773	322.88
565.985	350.88
566.197	339.88
566.408	343.88
566.62	327.88
566.832	349.88
567.044	326.88
567.255	363.88
567.467	344.88
567.679	358.88
567.891	377.88
568.102	372.88
568.314	350.88
568.526	352.88
568.737	347.88
568.949	329.88
569.161	321.88
569.372	312.88
569.584	312.88
569.795	327.88
570.007	315.88
570.218	345.88
570.43	349.88
570.641	315.88
570.853	308.88
571.064	290.88
571.276	296.88
571.487	291.88
571.698	297.88
571.91	294.88
572.121	291.88
572.333	282.88
572.544	284.88
572.755	276.88
572.966	283.88
573.178	284.88
573.389	287.88
573.6	293.88
573.811	274.88
574.023	274.88
574.234	286.88
574.445	268.88
574.656	255.88
574.867	283.88
575.078	261.88
575.289	254.88
575.501	272.88
575.712	266.88
575.923	264.88
576.134	283.88
576.345	270.88
576.556	281.88
576.767	278.88
576.978	271.88
577.188	283.88
577.399	266.88
577.61	267.88
577.821	292.88
578.032	271.88
578.243	327.88
578.454	534.88
578.665	392.88
578.875	283.88
579.086	290.88
579.297	275.88
579.508	277.88
579.718	260.88
579.929	257.88
580.14	251.88
580.35	260.88
580.561	268.88
580.772	269.88
580.982	243.88
581.193	248.88
581.403	239.88
581.614	242.88
581.825	257.88
582.035	271.88
582.246	262.88
582.456	247.88
582.667	248.88
582.877	255.88
583.087	235.88
583.298	248.88
583.508	237.88
583.719	252.88
583.929	235.88
584.139	250.88
584.35	250.88
584.56	254.88
584.77	262.88
584.981	256.88
585.191	256.88
585.401	235.88
585.611	243.88
585.821	250.88
586.032	242.88
586.242	236.88
586.452	259.88
586.662	248.88
586.872	252.88
587.082	256.88
587.292	232.88
587.502	252.88
587.713	231.88
587.923	236.88
588.133	247.88
588.343	266.88
588.553	236.88
588.762	224.88
588.972	246.88
589.182	258.88
589.392	244.88
589.602	214.88
589.812	245.88
590.022	220.88
590.232	249.88
590.441	239.88
590.651	238.88
590.861	224.88
591.071	248.88
591.281	230.88
591.49	229.88
591.7	236.88
591.91	229.88
592.119	238.88
592.329	224.88
592.539	245.88
592.748	262.88
592.958	237.88
593.167	241.88
593.377	228.88
593.587	254.88
593.796	239.88
594.006	239.88
594.215	249.88
594.424	248.88
594.634	230.88
594.843	216.88
595.053	236.88
595.262	232.88
595.472	235.88
595.681	228.88
595.89	230.88
596.1	227.88
596.309	231.88
596.518	224.88
596.727	220.88
596.937	225.88
597.146	226.88
597.355	222.88
597.564	212.88
597.774	221.88
597.983	196.88
598.192	209.88
598.401	214.88
598.61	218.88
598.819	230.88
599.028	220.88
599.237	227.88
599.446	227.88
599.655	242.88
599.864	198.88
600.073	214.88
600.282	225.88
600.491	214.88
600.7	237.88
600.909	216.88
601.118	216.88
601.327	230.88
601.536	220.88
601.745	215.88
601.953	218.88
602.162	211.88
602.371	230.88
602.58	213.88
602.789	208.88
602.997	215.88
603.206	227.88
603.415	208.88
603.623	220.88
603.832	202.88
604.041	186.88
604.249	207.88
604.458	219.88
604.666	207.88
604.875	214.88
605.084	195.88
605.292	219.88
605.501	210.88
605.709	202.88
605.918	205.88
606.126	201.88
606.334	208.88
606.543	202.88
606.751	204.88
606.96	201.88
607.168	199.88
607.376	217.88
607.585	202.88
607.793	212.88
608.001	211.88
608.21	221.88
608.418	199.88
608.626	211.88
608.834	198.88
609.043	211.88
609.251	206.88
609.459	189.88
609.667	208.88
609.875	210.88
610.083	201.88
610.291	202.88
610.499	196.88
610.707	192.88
610.916	195.88
611.124	211.88
611.332	213.88
611.54	210.88
611.748	204.88
611.955	208.88
612.163	188.88
612.371	193.88
612.579	208.88
612.787	208.88
612.995	198.88
613.203	195.88
613.411	193.88
613.618	196.88
613.826	203.88
614.034	199.88
614.242	190.88
614.449	194.88
614.657	198.88
614.865	199.88
615.072	190.88
615.28	210.88
615.488	182.88
615.695	200.88
615.903	189.88
616.111	190.88
616.318	199.88
616.526	185.88
616.733	205.88
616.941	197.88
617.148	191.88
617.356	201.88
617.563	195.88
617.771	195.88
617.978	197.88
618.185	184.88
618.393	184.88
618.6	204.88
618.807	179.88
619.015	197.88
619.222	199.88
619.429	220.88
619.637	175.88
619.844	189.88
620.051	199.88
620.258	183.88
620.466	186.88
620.673	179.88
620.88	198.88
621.087	190.88
621.294	190.88
621.501	184.88
621.708	184.88
621.915	192.88
622.122	192.88
622.329	191.88
622.536	189.88
622.743	184.88
622.95	194.88
623.157	203.88
623.364	192.88
623.571	183.88
623.778	180.88
623.985	192.88
624.192	174.88
624.399	172.88
624.606	182.88
624.812	181.88
625.019	175.88
625.226	167.88
625.433	181.88
625.639	188.88
625.846	179.88
626.053	168.88
626.259	169.88
626.466	178.88
626.673	190.88
626.879	171.88
627.086	183.88
627.293	187.88
627.499	171.88
627.706	169.88
627.912	166.88
628.119	162.88
628.325	177.88
628.532	160.88
628.738	154.88
628.945	170.88
629.151	167.88
629.357	157.88
629.564	168.88
629.77	184.88
629.976	164.88
630.183	178.88
630.389	171.88
630.595	166.88
630.802	171.88
631.008	165.88
631.214	164.88
631.42	164.88
631.627	181.88
631.833	158.88
632.039	176.88
632.245	163.88
632.451	150.88
632.657	166.88
632.863	163.88
633.069	165.88
633.275	170.88
633.481	171.88
633.688	160.88
633.893	157.88
634.099	168.88
634.305	183.88
634.511	165.88
634.717	162.88
634.923	147.88
635.129	170.88
635.335	164.88
635.541	158.88
635.747	162.88
635.952	155.88
636.158	147.88
636.364	164.88
636.57	150.88
636.775	159.88
636.981	162.88
637.187	158.88
637.392	155.88
637.598	166.88
637.804	162.88
638.009	146.88
638.215	150.88
638.421	144.88
638.626	164.88
638.832	138.88
639.037	140.88
639.243	157.88
639.448	158.88
639.654	162.88
639.859	160.88
640.065	159.88
640.27	153.88
640.475	163.88
640.681	160.88
640.886	156.88
641.091	143.88
641.297	160.88
641.502	155.88
641.707	161.88
641.913	134.88
642.118	154.88
642.323	154.88
642.528	154.88
642.733	148.88
642.939	157.88
643.144	167.88
643.349	148.88
643.554	151.88
643.759	153.88
643.964	152.88
644.169	152.88
644.374	145.88
644.579	155.88
644.784	158.88
644.989	143.88
645.194	146.88
645.399	152.88
645.604	154.88
645.809	162.88
646.014	155.88
646.219	150.88
646.423	142.88
646.628	145.88
646.833	159.88
647.038	151.88
647.243	138.88
647.447	145.88
647.652	138.88
647.857	139.88
648.062	152.88
648.266	156.88
648.471	140.88
648.676	164.88
648.88	144.88
649.085	148.88
649.289	152.88
649.494	154.88
649.698	162.88
649.903	175.88
650.107	160.88
650.312	139.88
650.516	142.88
650.721	143.88
650.925	143.88
651.13	144.88
651.334	156.88
651.539	145.88
651.743	132.88
651.947	137.88
652.152	136.88
652.356	120.88
652.56	119.88
652.764	122.88
652.969	124.88
653.173	120.88
653.377	131.88
653.581	130.88
653.785	118.88
653.99	128.88
654.194	128.88
654.398	119.88
654.602	126.88
654.806	128.88
655.01	139.88
655.214	137.88
655.418	121.88
655.622	124.88
655.826	126.88
656.03	118.88
656.234	124.88
656.438	124.88
656.642	142.88
656.846	115.88
657.049	118.88
657.253	110.88
657.457	113.88
657.661	123.88
657.865	109.88
658.068	104.88
658.272	113.88
658.476	100.88
658.68	104.88
658.883	112.88
659.087	96.88
659.291	100.88
659.494	98.88
659.698	103.88
659.901	94.88
660.105	95.88
660.309	106.88
660.512	101.88
660.716	101.88
660.919	91.88
661.123	88.88
661.326	92.88
661.53	95.88
661.733	98.88
661.936	94.88
662.14	95.88
662.343	90.88
662.546	90.88
662.75	87.88
662.953	80.88
663.156	91.88
663.36	90.88
663.563	87.88
663.766	94.88
663.969	81.88
664.173	80.88
664.376	86.88
664.579	90.88
664.782	82.88
664.985	85.88
665.188	93.88
665.391	76.88
665.594	90.88
665.797	90.88
666	94.88
666.203	87.88
666.406	88.88
666.609	84.88
666.812	75.88
667.015	73.88
667.218	78.88
667.421	81.88
667.624	77.88
667.827	83.88
668.03	94.88
668.232	88.88
668.435	85.88
668.638	90.88
668.841	88.88
669.043	87.88
669.246	87.88
669.449	84.88
669.651	103.88
669.854	83.88
670.057	91.88
670.259	83.88
670.462	83.88
670.665	84.88
670.867	90.88
671.07	86.88
671.272	74.88
671.475	77.88
671.677	73.88
671.88	93.88
672.082	85.88
672.284	82.88
672.487	70.88
672.689	73.88
672.892	72.88
