Data from 1981.PennyLincolnUp.Lamp.En5.5.200Scan.071819.P1_HRD10591_16-42-53-959.txt Node
Date: Thu Jul 18 16:42:53 EDT 2019
User: cochatt
Spectrometer: HR+D1059
Trigger mode: 1
Integration Time (sec): 1.000000E-1
Scans to average: 1
Electric dark correction enabled: true
Nonlinearity correction enabled: false
Boxcar width: 0
XAxis mode: Wavelengths
Number of Pixels in Spectrum: 2048
>>>>>Begin Spectral Data<<<<<
223.165	-12.19
223.4	-12.19
223.635	-12.19
223.869	-19.19
224.104	-16.19
224.338	-7.19
224.573	-23.19
224.808	-9.19
225.042	-11.19
225.277	-9.19
225.511	-2.19
225.746	0.81
225.98	9.81
226.215	3.81
226.449	1.81
226.683	31.81
226.918	24.81
227.152	36.81
227.387	47.81
227.621	27.81
227.856	35.81
228.09	34.81
228.324	55.81
228.559	51.81
228.793	69.81
229.027	106.81
229.262	106.81
229.496	116.81
229.73	150.81
229.964	170.81
230.199	134.81
230.433	109.81
230.667	120.81
230.901	124.81
231.136	111.81
231.37	105.81
231.604	125.81
231.838	113.81
232.072	123.81
232.306	115.81
232.541	109.81
232.775	131.81
233.009	105.81
233.243	114.81
233.477	125.81
233.711	113.81
233.945	110.81
234.179	127.81
234.413	106.81
234.647	98.81
234.881	103.81
235.115	99.81
235.349	118.81
235.583	129.81
235.817	109.81
236.051	129.81
236.285	116.81
236.519	135.81
236.753	141.81
236.987	142.81
237.221	190.81
237.455	247.81
237.689	189.81
237.922	158.81
238.156	149.81
238.39	130.81
238.624	121.81
238.858	119.81
239.091	124.81
239.325	115.81
239.559	138.81
239.793	129.81
240.027	137.81
240.26	139.81
240.494	153.81
240.728	171.81
240.961	154.81
241.195	154.81
241.429	147.81
241.662	139.81
241.896	137.81
242.13	136.81
242.363	135.81
242.597	147.81
242.83	125.81
243.064	140.81
243.298	153.81
243.531	141.81
243.765	135.81
243.998	138.81
244.232	134.81
244.465	146.81
244.699	151.81
244.932	146.81
245.166	149.81
245.399	146.81
245.633	147.81
245.866	153.81
246.099	158.81
246.333	149.81
246.566	142.81
246.8	150.81
247.033	187.81
247.266	161.81
247.5	157.81
247.733	165.81
247.966	187.81
248.2	181.81
248.433	170.81
248.666	180.81
248.899	201.81
249.133	204.81
249.366	234.81
249.599	212.81
249.832	201.81
250.066	210.81
250.299	188.81
250.532	213.81
250.765	216.81
250.998	247.81
251.231	233.81
251.465	239.81
251.698	216.81
251.931	224.81
252.164	223.81
252.397	205.81
252.63	220.81
252.863	236.81
253.096	226.81
253.329	248.81
253.562	246.81
253.795	230.81
254.028	234.81
254.261	239.81
254.494	249.81
254.727	287.81
254.96	311.81
255.193	299.81
255.426	259.81
255.659	250.81
255.892	246.81
256.124	247.81
256.357	254.81
256.59	234.81
256.823	233.81
257.056	238.81
257.289	222.81
257.521	219.81
257.754	236.81
257.987	214.81
258.22	226.81
258.452	220.81
258.685	220.81
258.918	221.81
259.151	229.81
259.383	235.81
259.616	233.81
259.849	235.81
260.081	239.81
260.314	270.81
260.547	277.81
260.779	270.81
261.012	261.81
261.244	235.81
261.477	242.81
261.71	254.81
261.942	231.81
262.175	264.81
262.407	259.81
262.64	246.81
262.872	234.81
263.105	207.81
263.337	241.81
263.57	221.81
263.802	238.81
264.035	211.81
264.267	219.81
264.499	215.81
264.732	223.81
264.964	241.81
265.197	217.81
265.429	208.81
265.661	216.81
265.894	221.81
266.126	227.81
266.358	229.81
266.591	230.81
266.823	253.81
267.055	252.81
267.287	233.81
267.52	227.81
267.752	245.81
267.984	241.81
268.216	217.81
268.448	244.81
268.681	229.81
268.913	255.81
269.145	293.81
269.377	321.81
269.609	285.81
269.841	270.81
270.073	298.81
270.306	315.81
270.538	350.81
270.77	334.81
271.002	344.81
271.234	325.81
271.466	339.81
271.698	316.81
271.93	360.81
272.162	330.81
272.394	359.81
272.626	317.81
272.858	322.81
273.09	300.81
273.322	308.81
273.553	273.81
273.785	284.81
274.017	281.81
274.249	286.81
274.481	289.81
274.713	281.81
274.945	295.81
275.176	304.81
275.408	297.81
275.64	280.81
275.872	302.81
276.104	286.81
276.335	274.81
276.567	297.81
276.799	300.81
277.031	340.81
277.262	364.81
277.494	359.81
277.726	335.81
277.957	322.81
278.189	310.81
278.421	269.81
278.652	290.81
278.884	313.81
279.115	291.81
279.347	290.81
279.579	296.81
279.81	271.81
280.042	271.81
280.273	281.81
280.505	273.81
280.736	265.81
280.968	287.81
281.199	264.81
281.431	270.81
281.662	264.81
281.894	272.81
282.125	278.81
282.356	305.81
282.588	331.81
282.819	324.81
283.051	287.81
283.282	281.81
283.513	279.81
283.745	281.81
283.976	286.81
284.207	284.81
284.439	294.81
284.67	283.81
284.901	286.81
285.132	274.81
285.364	282.81
285.595	284.81
285.826	281.81
286.057	287.81
286.288	284.81
286.52	301.81
286.751	291.81
286.982	300.81
287.213	289.81
287.444	295.81
287.675	303.81
287.906	303.81
288.138	309.81
288.369	301.81
288.6	307.81
288.831	322.81
289.062	309.81
289.293	289.81
289.524	284.81
289.755	295.81
289.986	283.81
290.217	296.81
290.448	286.81
290.679	316.81
290.91	291.81
291.141	288.81
291.371	304.81
291.602	290.81
291.833	297.81
292.064	290.81
292.295	290.81
292.526	298.81
292.757	283.81
292.987	297.81
293.218	295.81
293.449	297.81
293.68	296.81
293.91	295.81
294.141	305.81
294.372	295.81
294.603	297.81
294.833	295.81
295.064	311.81
295.295	313.81
295.525	290.81
295.756	305.81
295.987	311.81
296.217	322.81
296.448	346.81
296.679	339.81
296.909	310.81
297.14	301.81
297.37	303.81
297.601	287.81
297.831	300.81
298.062	305.81
298.292	297.81
298.523	320.81
298.753	315.81
298.984	335.81
299.214	302.81
299.445	327.81
299.675	310.81
299.905	336.81
300.136	323.81
300.366	335.81
300.597	327.81
300.827	331.81
301.057	319.81
301.288	351.81
301.518	338.81
301.748	325.81
301.979	332.81
302.209	339.81
302.439	346.81
302.669	331.81
302.9	325.81
303.13	353.81
303.36	359.81
303.59	322.81
303.82	334.81
304.051	331.81
304.281	324.81
304.511	334.81
304.741	319.81
304.971	323.81
305.201	336.81
305.431	344.81
305.661	350.81
305.891	322.81
306.121	321.81
306.352	318.81
306.582	359.81
306.812	341.81
307.042	350.81
307.272	324.81
307.502	339.81
307.731	345.81
307.961	360.81
308.191	344.81
308.421	361.81
308.651	343.81
308.881	358.81
309.111	355.81
309.341	363.81
309.571	375.81
309.8	378.81
310.03	398.81
310.26	389.81
310.49	405.81
310.72	403.81
310.949	417.81
311.179	426.81
311.409	396.81
311.639	406.81
311.868	398.81
312.098	388.81
312.328	407.81
312.557	404.81
312.787	436.81
313.017	410.81
313.246	416.81
313.476	394.81
313.706	404.81
313.935	414.81
314.165	418.81
314.394	422.81
314.624	409.81
314.853	404.81
315.083	413.81
315.312	404.81
315.542	398.81
315.771	383.81
316.001	386.81
316.23	390.81
316.46	385.81
316.689	394.81
316.919	397.81
317.148	409.81
317.377	419.81
317.607	400.81
317.836	410.81
318.065	382.81
318.295	396.81
318.524	403.81
318.753	407.81
318.983	386.81
319.212	403.81
319.441	421.81
319.67	417.81
319.9	415.81
320.129	406.81
320.358	377.81
320.587	389.81
320.816	397.81
321.046	407.81
321.275	427.81
321.504	420.81
321.733	418.81
321.962	432.81
322.191	444.81
322.42	482.81
322.649	493.81
322.878	493.81
323.108	511.81
323.337	559.81
323.566	544.81
323.795	601.81
324.024	689.81
324.253	872.81
324.482	1245.81
324.71	1877.81
324.939	2579.81
325.168	2205.81
325.397	1141.81
325.626	771.81
325.855	641.81
326.084	608.81
326.313	587.81
326.542	588.81
326.77	632.81
326.999	799.81
327.228	1092.81
327.457	1623.81
327.686	1894.81
327.914	1269.81
328.143	836.81
328.372	740.81
328.6	683.81
328.829	633.81
329.058	659.81
329.287	647.81
329.515	609.81
329.744	578.81
329.972	561.81
330.201	567.81
330.43	643.81
330.658	651.81
330.887	680.81
331.115	647.81
331.344	564.81
331.572	539.81
331.801	528.81
332.03	513.81
332.258	513.81
332.486	482.81
332.715	478.81
332.943	461.81
333.172	453.81
333.4	474.81
333.629	506.81
333.857	489.81
334.085	517.81
334.314	524.81
334.542	519.81
334.771	548.81
334.999	520.81
335.227	476.81
335.455	473.81
335.684	462.81
335.912	433.81
336.14	455.81
336.369	464.81
336.597	458.81
336.825	462.81
337.053	448.81
337.281	433.81
337.51	434.81
337.738	445.81
337.966	457.81
338.194	461.81
338.422	441.81
338.65	437.81
338.878	448.81
339.106	431.81
339.334	422.81
339.562	417.81
339.79	426.81
340.018	443.81
340.246	427.81
340.474	430.81
340.702	426.81
340.93	416.81
341.158	421.81
341.386	451.81
341.614	441.81
341.842	437.81
342.07	437.81
342.298	407.81
342.526	422.81
342.754	416.81
342.981	406.81
343.209	417.81
343.437	407.81
343.665	421.81
343.893	415.81
344.12	428.81
344.348	430.81
344.576	442.81
344.804	451.81
345.031	445.81
345.259	452.81
345.487	423.81
345.714	433.81
345.942	425.81
346.17	418.81
346.397	431.81
346.625	408.81
346.853	410.81
347.08	417.81
347.308	435.81
347.535	423.81
347.763	437.81
347.99	436.81
348.218	428.81
348.445	455.81
348.673	441.81
348.9	413.81
349.128	410.81
349.355	398.81
349.583	397.81
349.81	389.81
350.037	420.81
350.265	385.81
350.492	400.81
350.72	395.81
350.947	411.81
351.174	402.81
351.402	422.81
351.629	428.81
351.856	415.81
352.083	418.81
352.311	421.81
352.538	444.81
352.765	436.81
352.992	453.81
353.22	410.81
353.447	415.81
353.674	387.81
353.901	400.81
354.128	400.81
354.355	390.81
354.583	391.81
354.81	378.81
355.037	383.81
355.264	382.81
355.491	353.81
355.718	376.81
355.945	373.81
356.172	362.81
356.399	375.81
356.626	358.81
356.853	363.81
357.08	355.81
357.307	373.81
357.534	379.81
357.761	400.81
357.988	389.81
358.215	358.81
358.441	389.81
358.668	373.81
358.895	378.81
359.122	373.81
359.349	403.81
359.576	400.81
359.802	453.81
360.029	489.81
360.256	494.81
360.483	450.81
360.709	438.81
360.936	415.81
361.163	403.81
361.39	415.81
361.616	425.81
361.843	387.81
362.07	389.81
362.296	409.81
362.523	397.81
362.749	380.81
362.976	397.81
363.203	377.81
363.429	386.81
363.656	400.81
363.882	381.81
364.109	391.81
364.335	374.81
364.562	382.81
364.788	347.81
365.015	377.81
365.241	364.81
365.468	405.81
365.694	377.81
365.92	382.81
366.147	354.81
366.373	378.81
366.599	381.81
366.826	379.81
367.052	373.81
367.278	390.81
367.505	386.81
367.731	386.81
367.957	381.81
368.184	375.81
368.41	369.81
368.636	382.81
368.862	419.81
369.089	393.81
369.315	376.81
369.541	377.81
369.767	382.81
369.993	375.81
370.219	366.81
370.445	363.81
370.672	367.81
370.898	370.81
371.124	357.81
371.35	361.81
371.576	372.81
371.802	372.81
372.028	354.81
372.254	385.81
372.48	357.81
372.706	383.81
372.932	373.81
373.158	376.81
373.384	373.81
373.61	366.81
373.835	347.81
374.061	357.81
374.287	361.81
374.513	363.81
374.739	359.81
374.965	376.81
375.191	373.81
375.416	358.81
375.642	343.81
375.868	370.81
376.094	349.81
376.319	367.81
376.545	339.81
376.771	349.81
376.997	377.81
377.222	354.81
377.448	357.81
377.674	356.81
377.899	350.81
378.125	338.81
378.35	339.81
378.576	358.81
378.802	361.81
379.027	355.81
379.253	361.81
379.478	369.81
379.704	359.81
379.929	351.81
380.155	343.81
380.38	346.81
380.606	379.81
380.831	357.81
381.057	365.81
381.282	358.81
381.507	350.81
381.733	347.81
381.958	375.81
382.184	368.81
382.409	358.81
382.634	349.81
382.86	357.81
383.085	354.81
383.31	378.81
383.535	371.81
383.761	350.81
383.986	357.81
384.211	359.81
384.436	394.81
384.662	356.81
384.887	355.81
385.112	371.81
385.337	371.81
385.562	388.81
385.787	376.81
386.013	395.81
386.238	385.81
386.463	381.81
386.688	382.81
386.913	362.81
387.138	359.81
387.363	375.81
387.588	390.81
387.813	371.81
388.038	388.81
388.263	371.81
388.488	381.81
388.713	364.81
388.938	363.81
389.163	376.81
389.387	371.81
389.612	366.81
389.837	373.81
390.062	369.81
390.287	381.81
390.512	375.81
390.736	385.81
390.961	366.81
391.186	370.81
391.411	377.81
391.636	379.81
391.86	379.81
392.085	389.81
392.31	353.81
392.534	369.81
392.759	375.81
392.984	353.81
393.208	378.81
393.433	362.81
393.658	381.81
393.882	381.81
394.107	379.81
394.331	388.81
394.556	383.81
394.78	380.81
395.005	370.81
395.229	376.81
395.454	396.81
395.678	381.81
395.903	400.81
396.127	410.81
396.352	418.81
396.576	376.81
396.801	413.81
397.025	367.81
397.249	371.81
397.474	393.81
397.698	397.81
397.922	419.81
398.147	407.81
398.371	406.81
398.595	397.81
398.82	398.81
399.044	393.81
399.268	408.81
399.492	437.81
399.717	457.81
399.941	472.81
400.165	494.81
400.389	511.81
400.613	476.81
400.837	452.81
401.062	443.81
401.286	414.81
401.51	423.81
401.734	415.81
401.958	427.81
402.182	428.81
402.406	447.81
402.63	417.81
402.854	428.81
403.078	417.81
403.302	432.81
403.526	448.81
403.75	433.81
403.974	429.81
404.198	421.81
404.422	433.81
404.645	453.81
404.869	422.81
405.093	461.81
405.317	474.81
405.541	540.81
405.765	478.81
405.988	476.81
406.212	455.81
406.436	469.81
406.66	486.81
406.883	488.81
407.107	481.81
407.331	528.81
407.555	594.81
407.778	567.81
408.002	513.81
408.226	478.81
408.449	479.81
408.673	485.81
408.896	515.81
409.12	531.81
409.344	509.81
409.567	447.81
409.791	446.81
410.014	454.81
410.238	415.81
410.461	445.81
410.685	439.81
410.908	463.81
411.132	461.81
411.355	526.81
411.578	481.81
411.802	451.81
412.025	453.81
412.249	441.81
412.472	463.81
412.695	491.81
412.919	491.81
413.142	463.81
413.365	420.81
413.589	403.81
413.812	394.81
414.035	419.81
414.258	405.81
414.482	413.81
414.705	390.81
414.928	386.81
415.151	387.81
415.374	413.81
415.597	395.81
415.821	426.81
416.044	411.81
416.267	420.81
416.49	405.81
416.713	406.81
416.936	407.81
417.159	406.81
417.382	408.81
417.605	428.81
417.828	417.81
418.051	425.81
418.274	425.81
418.497	415.81
418.72	395.81
418.943	382.81
419.166	411.81
419.389	433.81
419.611	450.81
419.834	424.81
420.057	451.81
420.28	441.81
420.503	437.81
420.726	441.81
420.948	443.81
421.171	502.81
421.394	526.81
421.617	454.81
421.839	435.81
422.062	440.81
422.285	452.81
422.507	493.81
422.73	565.81
422.953	529.81
423.175	489.81
423.398	445.81
423.621	459.81
423.843	485.81
424.066	465.81
424.288	470.81
424.511	477.81
424.733	554.81
424.956	608.81
425.178	591.81
425.401	595.81
425.623	603.81
425.846	529.81
426.068	483.81
426.291	475.81
426.513	466.81
426.735	495.81
426.958	523.81
427.18	599.81
427.402	733.81
427.625	786.81
427.847	711.81
428.069	618.81
428.292	530.81
428.514	477.81
428.736	485.81
428.958	435.81
429.181	444.81
429.403	433.81
429.625	454.81
429.847	492.81
430.069	548.81
430.292	553.81
430.514	473.81
430.736	423.81
430.958	420.81
431.18	419.81
431.402	418.81
431.624	404.81
431.846	412.81
432.068	401.81
432.29	406.81
432.512	419.81
432.734	411.81
432.956	405.81
433.178	433.81
433.4	445.81
433.622	442.81
433.844	405.81
434.066	407.81
434.287	405.81
434.509	414.81
434.731	410.81
434.953	425.81
435.175	432.81
435.397	466.81
435.618	495.81
435.84	536.81
436.062	622.81
436.284	646.81
436.505	555.81
436.727	517.81
436.949	449.81
437.17	436.81
437.392	443.81
437.614	476.81
437.835	529.81
438.057	595.81
438.278	695.81
438.5	661.81
438.721	726.81
438.943	697.81
439.165	555.81
439.386	491.81
439.608	507.81
439.829	515.81
440.05	531.81
440.272	579.81
440.493	550.81
440.715	524.81
440.936	452.81
441.158	430.81
441.379	456.81
441.6	451.81
441.822	475.81
442.043	525.81
442.264	593.81
442.486	641.81
442.707	526.81
442.928	489.81
443.149	493.81
443.371	535.81
443.592	550.81
443.813	645.81
444.034	689.81
444.255	582.81
444.476	492.81
444.698	493.81
444.919	484.81
445.14	571.81
445.361	541.81
445.582	553.81
445.803	594.81
446.024	711.81
446.245	687.81
446.466	634.81
446.687	542.81
446.908	499.81
447.129	452.81
447.35	451.81
447.571	466.81
447.792	456.81
448.013	467.81
448.234	472.81
448.455	551.81
448.675	630.81
448.896	699.81
449.117	631.81
449.338	579.81
449.559	672.81
449.779	739.81
450	598.81
450.221	509.81
450.442	465.81
450.662	449.81
450.883	444.81
451.104	471.81
451.324	433.81
451.545	433.81
451.766	392.81
451.986	421.81
452.207	408.81
452.428	398.81
452.648	403.81
452.869	377.81
453.089	428.81
453.31	415.81
453.53	389.81
453.751	397.81
453.971	421.81
454.192	402.81
454.412	413.81
454.633	426.81
454.853	406.81
455.073	405.81
455.294	442.81
455.514	495.81
455.734	495.81
455.955	395.81
456.175	379.81
456.395	357.81
456.616	369.81
456.836	371.81
457.056	374.81
457.276	376.81
457.497	371.81
457.717	359.81
457.937	389.81
458.157	382.81
458.377	387.81
458.598	425.81
458.818	475.81
459.038	533.81
459.258	569.81
459.478	465.81
459.698	431.81
459.918	415.81
460.138	409.81
460.358	381.81
460.578	403.81
460.798	408.81
461.018	410.81
461.238	408.81
461.458	396.81
461.678	386.81
461.898	373.81
462.118	408.81
462.338	393.81
462.558	389.81
462.777	396.81
462.997	411.81
463.217	427.81
463.437	422.81
463.657	417.81
463.876	410.81
464.096	429.81
464.316	403.81
464.536	423.81
464.755	442.81
464.975	433.81
465.195	501.81
465.414	557.81
465.634	489.81
465.854	444.81
466.073	423.81
466.293	407.81
466.512	411.81
466.732	386.81
466.951	382.81
467.171	393.81
467.391	395.81
467.61	420.81
467.829	407.81
468.049	400.81
468.268	392.81
468.488	392.81
468.707	403.81
468.927	369.81
469.146	372.81
469.365	359.81
469.585	393.81
469.804	401.81
470.023	408.81
470.243	402.81
470.462	394.81
470.681	437.81
470.901	413.81
471.12	395.81
471.339	397.81
471.558	405.81
471.777	426.81
471.997	389.81
472.216	416.81
472.435	437.81
472.654	422.81
472.873	401.81
473.092	415.81
473.311	398.81
473.53	427.81
473.749	410.81
473.968	446.81
474.187	570.81
474.406	580.81
474.625	471.81
474.844	414.81
475.063	423.81
475.282	422.81
475.501	407.81
475.72	438.81
475.939	405.81
476.158	414.81
476.377	415.81
476.596	401.81
476.814	429.81
477.033	444.81
477.252	422.81
477.471	433.81
477.69	409.81
477.908	414.81
478.127	419.81
478.346	409.81
478.564	425.81
478.783	415.81
479.002	450.81
479.22	437.81
479.439	473.81
479.658	470.81
479.876	470.81
480.095	491.81
480.313	513.81
480.532	493.81
480.751	492.81
480.969	510.81
481.188	559.81
481.406	580.81
481.624	538.81
481.843	491.81
482.061	470.81
482.28	483.81
482.498	471.81
482.717	462.81
482.935	461.81
483.153	495.81
483.372	472.81
483.59	472.81
483.808	492.81
484.027	474.81
484.245	461.81
484.463	481.81
484.681	470.81
484.9	475.81
485.118	463.81
485.336	462.81
485.554	463.81
485.772	493.81
485.99	486.81
486.209	504.81
486.427	480.81
486.645	479.81
486.863	524.81
487.081	516.81
487.299	517.81
487.517	518.81
487.735	505.81
487.953	486.81
488.171	500.81
488.389	498.81
488.607	500.81
488.825	520.81
489.043	501.81
489.261	514.81
489.479	532.81
489.696	521.81
489.914	542.81
490.132	520.81
490.35	525.81
490.568	524.81
490.786	554.81
491.003	535.81
491.221	574.81
491.439	575.81
491.657	584.81
491.874	576.81
492.092	589.81
492.31	598.81
492.527	582.81
492.745	596.81
492.963	597.81
493.18	582.81
493.398	599.81
493.615	589.81
493.833	607.81
494.05	602.81
494.268	612.81
494.485	616.81
494.703	605.81
494.92	615.81
495.138	579.81
495.355	606.81
495.573	575.81
495.79	643.81
496.008	614.81
496.225	615.81
496.442	601.81
496.66	598.81
496.877	604.81
497.094	601.81
497.312	620.81
497.529	618.81
497.746	619.81
497.963	653.81
498.181	649.81
498.398	642.81
498.615	666.81
498.832	657.81
499.049	643.81
499.267	678.81
499.484	665.81
499.701	685.81
499.918	709.81
500.135	690.81
500.352	723.81
500.569	740.81
500.786	744.81
501.003	741.81
501.22	747.81
501.437	692.81
501.654	718.81
501.871	722.81
502.088	722.81
502.305	682.81
502.522	641.81
502.739	650.81
502.956	645.81
503.172	623.81
503.389	613.81
503.606	625.81
503.823	622.81
504.04	618.81
504.256	589.81
504.473	603.81
504.69	600.81
504.907	611.81
505.123	610.81
505.34	587.81
505.557	591.81
505.773	579.81
505.99	618.81
506.207	586.81
506.423	585.81
506.64	589.81
506.856	586.81
507.073	575.81
507.289	591.81
507.506	585.81
507.722	591.81
507.939	622.81
508.155	607.81
508.372	575.81
508.588	582.81
508.805	563.81
509.021	570.81
509.238	600.81
509.454	560.81
509.67	605.81
509.887	569.81
510.103	583.81
510.319	579.81
510.536	682.81
510.752	1162.81
510.968	929.81
511.184	597.81
511.401	583.81
511.617	556.81
511.833	554.81
512.049	547.81
512.265	549.81
512.481	527.81
512.698	533.81
512.914	545.81
513.13	544.81
513.346	535.81
513.562	545.81
513.778	571.81
513.994	566.81
514.21	564.81
514.426	581.81
514.642	631.81
514.858	654.81
515.074	706.81
515.29	886.81
515.506	1296.81
515.721	1025.81
515.937	695.81
516.153	629.81
516.369	597.81
516.585	576.81
516.801	548.81
517.016	549.81
517.232	540.81
517.448	545.81
517.664	547.81
517.879	556.81
518.095	562.81
518.311	535.81
518.527	538.81
518.742	528.81
518.958	524.81
519.173	537.81
519.389	552.81
519.605	536.81
519.82	541.81
520.036	563.81
520.251	564.81
520.467	612.81
520.682	620.81
520.898	633.81
521.113	633.81
521.329	703.81
521.544	810.81
521.76	1042.81
521.975	1719.81
522.19	1657.81
522.406	894.81
522.621	665.81
522.836	586.81
523.052	539.81
523.267	541.81
523.482	529.81
523.698	519.81
523.913	494.81
524.128	521.81
524.343	471.81
524.559	497.81
524.774	474.81
524.989	465.81
525.204	473.81
525.419	485.81
525.634	476.81
525.849	458.81
526.064	450.81
526.28	455.81
526.495	439.81
526.71	450.81
526.925	440.81
527.14	439.81
527.355	437.81
527.57	420.81
527.785	433.81
527.999	424.81
528.214	426.81
528.429	427.81
528.644	438.81
528.859	456.81
529.074	469.81
529.289	477.81
529.503	540.81
529.718	522.81
529.933	470.81
530.148	471.81
530.363	445.81
530.577	437.81
530.792	412.81
531.007	413.81
531.221	429.81
531.436	391.81
531.651	431.81
531.865	434.81
532.08	399.81
532.295	413.81
532.509	415.81
532.724	405.81
532.938	411.81
533.153	416.81
533.367	414.81
533.582	392.81
533.796	411.81
534.011	403.81
534.225	387.81
534.44	397.81
534.654	402.81
534.868	387.81
535.083	390.81
535.297	386.81
535.511	411.81
535.726	407.81
535.94	397.81
536.154	390.81
536.369	393.81
536.583	413.81
536.797	407.81
537.011	394.81
537.225	390.81
537.44	403.81
537.654	399.81
537.868	377.81
538.082	395.81
538.296	410.81
538.51	402.81
538.724	410.81
538.938	390.81
539.153	403.81
539.367	397.81
539.581	409.81
539.795	386.81
540.009	389.81
540.222	407.81
540.436	412.81
540.65	401.81
540.864	423.81
541.078	425.81
541.292	389.81
541.506	381.81
541.72	408.81
541.934	395.81
542.147	374.81
542.361	396.81
542.575	397.81
542.789	378.81
543.002	388.81
543.216	399.81
543.43	381.81
543.644	375.81
543.857	393.81
544.071	411.81
544.285	397.81
544.498	381.81
544.712	394.81
544.925	382.81
545.139	365.81
545.352	375.81
545.566	371.81
545.779	360.81
545.993	381.81
546.206	373.81
546.42	362.81
546.633	368.81
546.847	362.81
547.06	367.81
547.274	364.81
547.487	370.81
547.7	354.81
547.914	381.81
548.127	365.81
548.34	366.81
548.554	354.81
548.767	351.81
548.98	355.81
549.193	352.81
549.407	371.81
549.62	360.81
549.833	371.81
550.046	355.81
550.259	347.81
550.473	346.81
550.686	347.81
550.899	339.81
551.112	360.81
551.325	352.81
551.538	355.81
551.751	355.81
551.964	339.81
552.177	362.81
552.39	361.81
552.603	348.81
552.816	351.81
553.029	348.81
553.242	356.81
553.455	372.81
553.667	381.81
553.88	354.81
554.093	360.81
554.306	379.81
554.519	359.81
554.732	357.81
554.944	351.81
555.157	345.81
555.37	346.81
555.583	361.81
555.795	350.81
556.008	343.81
556.221	342.81
556.433	341.81
556.646	356.81
556.859	330.81
557.071	341.81
557.284	325.81
557.496	335.81
557.709	333.81
557.921	332.81
558.134	317.81
558.346	315.81
558.559	323.81
558.771	327.81
558.984	326.81
559.196	309.81
559.409	316.81
559.621	316.81
559.833	330.81
560.046	324.81
560.258	323.81
560.47	323.81
560.683	322.81
560.895	317.81
561.107	317.81
561.32	331.81
561.532	315.81
561.744	325.81
561.956	336.81
562.168	316.81
562.381	320.81
562.593	311.81
562.805	318.81
563.017	317.81
563.229	321.81
563.441	335.81
563.653	337.81
563.865	335.81
564.077	322.81
564.289	332.81
564.501	321.81
564.713	344.81
564.925	332.81
565.137	342.81
565.349	331.81
565.561	360.81
565.773	336.81
565.985	343.81
566.197	349.81
566.408	347.81
566.62	364.81
566.832	367.81
567.044	389.81
567.255	363.81
567.467	371.81
567.679	356.81
567.891	375.81
568.102	387.81
568.314	363.81
568.526	374.81
568.737	343.81
568.949	324.81
569.161	317.81
569.372	329.81
569.584	327.81
569.795	332.81
570.007	326.81
570.218	382.81
570.43	374.81
570.641	309.81
570.853	314.81
571.064	295.81
571.276	301.81
571.487	292.81
571.698	298.81
571.91	311.81
572.121	290.81
572.333	298.81
572.544	300.81
572.755	283.81
572.966	284.81
573.178	290.81
573.389	288.81
573.6	297.81
573.811	280.81
574.023	282.81
574.234	303.81
574.445	270.81
574.656	296.81
574.867	293.81
575.078	276.81
575.289	271.81
575.501	289.81
575.712	281.81
575.923	293.81
576.134	275.81
576.345	269.81
576.556	284.81
576.767	274.81
576.978	278.81
577.188	287.81
577.399	273.81
577.61	282.81
577.821	265.81
578.032	290.81
578.243	339.81
578.454	545.81
578.665	401.81
578.875	283.81
579.086	278.81
579.297	269.81
579.508	260.81
579.718	267.81
579.929	259.81
580.14	267.81
580.35	257.81
580.561	240.81
580.772	269.81
580.982	264.81
581.193	244.81
581.403	264.81
581.614	275.81
581.825	250.81
582.035	255.81
582.246	261.81
582.456	252.81
582.667	255.81
582.877	245.81
583.087	260.81
583.298	252.81
583.508	258.81
583.719	238.81
583.929	251.81
584.139	243.81
584.35	247.81
584.56	244.81
584.77	227.81
584.981	252.81
585.191	251.81
585.401	248.81
585.611	265.81
585.821	231.81
586.032	237.81
586.242	264.81
586.452	244.81
586.662	242.81
586.872	251.81
587.082	249.81
587.292	273.81
587.502	234.81
587.713	257.81
587.923	269.81
588.133	249.81
588.343	259.81
588.553	234.81
588.762	270.81
588.972	254.81
589.182	244.81
589.392	255.81
589.602	248.81
589.812	250.81
590.022	243.81
590.232	245.81
590.441	245.81
590.651	271.81
590.861	242.81
591.071	228.81
591.281	232.81
591.49	255.81
591.7	263.81
591.91	257.81
592.119	235.81
592.329	248.81
592.539	245.81
592.748	269.81
592.958	261.81
593.167	236.81
593.377	245.81
593.587	268.81
593.796	259.81
594.006	258.81
594.215	252.81
594.424	241.81
594.634	232.81
594.843	238.81
595.053	240.81
595.262	238.81
595.472	237.81
595.681	231.81
595.89	235.81
596.1	233.81
596.309	231.81
596.518	220.81
596.727	236.81
596.937	233.81
597.146	232.81
597.355	238.81
597.564	231.81
597.774	226.81
597.983	211.81
598.192	225.81
598.401	193.81
598.61	208.81
598.819	230.81
599.028	231.81
599.237	224.81
599.446	230.81
599.655	220.81
599.864	218.81
600.073	228.81
600.282	228.81
600.491	215.81
600.7	233.81
600.909	207.81
601.118	223.81
601.327	218.81
601.536	224.81
601.745	217.81
601.953	234.81
602.162	212.81
602.371	224.81
602.58	222.81
602.789	201.81
602.997	215.81
603.206	202.81
603.415	216.81
603.623	218.81
603.832	210.81
604.041	206.81
604.249	222.81
604.458	200.81
604.666	200.81
604.875	213.81
605.084	214.81
605.292	216.81
605.501	201.81
605.709	207.81
605.918	215.81
606.126	223.81
606.334	187.81
606.543	202.81
606.751	198.81
606.96	201.81
607.168	205.81
607.376	199.81
607.585	210.81
607.793	211.81
608.001	213.81
608.21	198.81
608.418	206.81
608.626	197.81
608.834	211.81
609.043	199.81
609.251	212.81
609.459	190.81
609.667	215.81
609.875	183.81
610.083	207.81
610.291	196.81
610.499	217.81
610.707	213.81
610.916	207.81
611.124	201.81
611.332	218.81
611.54	218.81
611.748	213.81
611.955	226.81
612.163	199.81
612.371	201.81
612.579	202.81
612.787	202.81
612.995	213.81
613.203	217.81
613.411	206.81
613.618	181.81
613.826	202.81
614.034	201.81
614.242	213.81
614.449	193.81
614.657	182.81
614.865	206.81
615.072	215.81
615.28	182.81
615.488	204.81
615.695	212.81
615.903	211.81
616.111	185.81
616.318	204.81
616.526	201.81
616.733	210.81
616.941	209.81
617.148	190.81
617.356	197.81
617.563	196.81
617.771	201.81
617.978	204.81
618.185	190.81
618.393	202.81
618.6	198.81
618.807	203.81
619.015	190.81
619.222	189.81
619.429	199.81
619.637	193.81
619.844	196.81
620.051	185.81
620.258	187.81
620.466	191.81
620.673	184.81
620.88	174.81
621.087	196.81
621.294	190.81
621.501	215.81
621.708	185.81
621.915	197.81
622.122	197.81
622.329	192.81
622.536	189.81
622.743	191.81
622.95	187.81
623.157	196.81
623.364	187.81
623.571	205.81
623.778	180.81
623.985	186.81
624.192	187.81
624.399	196.81
624.606	179.81
624.812	195.81
625.019	178.81
625.226	169.81
625.433	181.81
625.639	167.81
625.846	181.81
626.053	174.81
626.259	186.81
626.466	169.81
626.673	173.81
626.879	183.81
627.086	187.81
627.293	181.81
627.499	173.81
627.706	177.81
627.912	176.81
628.119	168.81
628.325	204.81
628.532	179.81
628.738	176.81
628.945	174.81
629.151	177.81
629.357	172.81
629.564	174.81
629.77	163.81
629.976	165.81
630.183	161.81
630.389	180.81
630.595	169.81
630.802	173.81
631.008	173.81
631.214	168.81
631.42	166.81
631.627	174.81
631.833	163.81
632.039	172.81
632.245	150.81
632.451	171.81
632.657	158.81
632.863	162.81
633.069	167.81
633.275	172.81
633.481	150.81
633.688	165.81
633.893	167.81
634.099	172.81
634.305	163.81
634.511	159.81
634.717	159.81
634.923	169.81
635.129	160.81
635.335	156.81
635.541	150.81
635.747	159.81
635.952	161.81
636.158	146.81
636.364	175.81
636.57	181.81
636.775	165.81
636.981	168.81
637.187	161.81
637.392	172.81
637.598	161.81
637.804	158.81
638.009	146.81
638.215	163.81
638.421	138.81
638.626	154.81
638.832	167.81
639.037	137.81
639.243	167.81
639.448	158.81
639.654	149.81
639.859	161.81
640.065	146.81
640.27	158.81
640.475	158.81
640.681	156.81
640.886	162.81
641.091	160.81
641.297	161.81
641.502	136.81
641.707	150.81
641.913	161.81
642.118	163.81
642.323	153.81
642.528	150.81
642.733	149.81
642.939	150.81
643.144	136.81
643.349	168.81
643.554	159.81
643.759	151.81
643.964	147.81
644.169	148.81
644.374	143.81
644.579	155.81
644.784	155.81
644.989	141.81
645.194	153.81
645.399	147.81
645.604	135.81
645.809	133.81
646.014	143.81
646.219	147.81
646.423	168.81
646.628	158.81
646.833	149.81
647.038	151.81
647.243	162.81
647.447	158.81
647.652	152.81
647.857	131.81
648.062	159.81
648.266	151.81
648.471	154.81
648.676	127.81
648.88	151.81
649.085	161.81
649.289	144.81
649.494	145.81
649.698	172.81
649.903	174.81
650.107	162.81
650.312	139.81
650.516	147.81
650.721	138.81
650.925	135.81
651.13	153.81
651.334	156.81
651.539	147.81
651.743	131.81
651.947	143.81
652.152	144.81
652.356	144.81
652.56	140.81
652.764	131.81
652.969	139.81
653.173	121.81
653.377	137.81
653.581	140.81
653.785	138.81
653.99	140.81
654.194	142.81
654.398	125.81
654.602	143.81
654.806	116.81
655.01	117.81
655.214	135.81
655.418	137.81
655.622	122.81
655.826	115.81
656.03	120.81
656.234	108.81
656.438	120.81
656.642	125.81
656.846	109.81
657.049	123.81
657.253	129.81
657.457	117.81
657.661	115.81
657.865	108.81
658.068	124.81
658.272	112.81
658.476	101.81
658.68	121.81
658.883	102.81
659.087	96.81
659.291	97.81
659.494	83.81
659.698	92.81
659.901	99.81
660.105	92.81
660.309	97.81
660.512	86.81
660.716	97.81
660.919	102.81
661.123	83.81
661.326	94.81
661.53	94.81
661.733	95.81
661.936	90.81
662.14	85.81
662.343	79.81
662.546	78.81
662.75	86.81
662.953	78.81
663.156	69.81
663.36	91.81
663.563	83.81
663.766	79.81
663.969	85.81
664.173	82.81
664.376	101.81
664.579	77.81
664.782	90.81
664.985	70.81
665.188	97.81
665.391	93.81
665.594	84.81
665.797	81.81
666	88.81
666.203	84.81
666.406	94.81
666.609	86.81
666.812	89.81
667.015	88.81
667.218	86.81
667.421	79.81
667.624	89.81
667.827	94.81
668.03	69.81
668.232	95.81
668.435	100.81
668.638	87.81
668.841	89.81
669.043	76.81
669.246	82.81
669.449	72.81
669.651	89.81
669.854	85.81
670.057	71.81
670.259	75.81
670.462	74.81
670.665	89.81
670.867	82.81
671.07	81.81
671.272	73.81
671.475	97.81
671.677	69.81
671.88	89.81
672.082	71.81
672.284	75.81
672.487	79.81
672.689	88.81
672.892	96.81
