Data from 1981.PennyLincolnUp.Lamp.En5.5.200Scan.071819.P1_HRD10591_16-40-41-958.txt Node
Date: Thu Jul 18 16:40:41 EDT 2019
User: cochatt
Spectrometer: HR+D1059
Trigger mode: 1
Integration Time (sec): 1.000000E-1
Scans to average: 1
Electric dark correction enabled: true
Nonlinearity correction enabled: false
Boxcar width: 0
XAxis mode: Wavelengths
Number of Pixels in Spectrum: 2048
>>>>>Begin Spectral Data<<<<<
223.165	-21.12
223.4	-21.12
223.635	-21.12
223.869	-12.12
224.104	-4.12
224.338	-17.12
224.573	-21.12
224.808	-0.12
225.042	-6.12
225.277	-9.12
225.511	-17.12
225.746	7.88
225.98	11.88
226.215	4.88
226.449	9.88
226.683	13.88
226.918	21.88
227.152	37.88
227.387	39.88
227.621	29.88
227.856	41.88
228.09	37.88
228.324	49.88
228.559	47.88
228.793	55.88
229.027	87.88
229.262	97.88
229.496	101.88
229.73	135.88
229.964	160.88
230.199	129.88
230.433	131.88
230.667	105.88
230.901	101.88
231.136	95.88
231.37	110.88
231.604	88.88
231.838	109.88
232.072	118.88
232.306	94.88
232.541	116.88
232.775	108.88
233.009	106.88
233.243	109.88
233.477	115.88
233.711	109.88
233.945	121.88
234.179	100.88
234.413	112.88
234.647	111.88
234.881	101.88
235.115	112.88
235.349	113.88
235.583	110.88
235.817	123.88
236.051	118.88
236.285	110.88
236.519	116.88
236.753	119.88
236.987	123.88
237.221	177.88
237.455	209.88
237.689	148.88
237.922	129.88
238.156	139.88
238.39	130.88
238.624	123.88
238.858	127.88
239.091	130.88
239.325	117.88
239.559	117.88
239.793	121.88
240.027	134.88
240.26	135.88
240.494	146.88
240.728	143.88
240.961	134.88
241.195	133.88
241.429	132.88
241.662	127.88
241.896	124.88
242.13	125.88
242.363	120.88
242.597	122.88
242.83	134.88
243.064	133.88
243.298	129.88
243.531	142.88
243.765	146.88
243.998	139.88
244.232	134.88
244.465	149.88
244.699	142.88
244.932	131.88
245.166	142.88
245.399	137.88
245.633	138.88
245.866	129.88
246.099	135.88
246.333	144.88
246.566	149.88
246.8	142.88
247.033	153.88
247.266	145.88
247.5	158.88
247.733	158.88
247.966	168.88
248.2	161.88
248.433	158.88
248.666	155.88
248.899	154.88
249.133	174.88
249.366	181.88
249.599	186.88
249.832	166.88
250.066	191.88
250.299	169.88
250.532	171.88
250.765	187.88
250.998	208.88
251.231	210.88
251.465	206.88
251.698	196.88
251.931	188.88
252.164	176.88
252.397	190.88
252.63	208.88
252.863	194.88
253.096	210.88
253.329	224.88
253.562	208.88
253.795	211.88
254.028	186.88
254.261	205.88
254.494	214.88
254.727	242.88
254.96	256.88
255.193	254.88
255.426	246.88
255.659	221.88
255.892	213.88
256.124	201.88
256.357	201.88
256.59	209.88
256.823	214.88
257.056	207.88
257.289	199.88
257.521	207.88
257.754	189.88
257.987	195.88
258.22	192.88
258.452	206.88
258.685	206.88
258.918	212.88
259.151	191.88
259.383	198.88
259.616	202.88
259.849	209.88
260.081	210.88
260.314	212.88
260.547	254.88
260.779	245.88
261.012	228.88
261.244	217.88
261.477	226.88
261.71	214.88
261.942	204.88
262.175	212.88
262.407	207.88
262.64	212.88
262.872	207.88
263.105	203.88
263.337	203.88
263.57	194.88
263.802	187.88
264.035	198.88
264.267	202.88
264.499	197.88
264.732	206.88
264.964	200.88
265.197	205.88
265.429	210.88
265.661	190.88
265.894	210.88
266.126	199.88
266.358	206.88
266.591	203.88
266.823	213.88
267.055	222.88
267.287	217.88
267.52	217.88
267.752	217.88
267.984	218.88
268.216	212.88
268.448	218.88
268.681	208.88
268.913	232.88
269.145	255.88
269.377	253.88
269.609	244.88
269.841	236.88
270.073	245.88
270.306	274.88
270.538	287.88
270.77	300.88
271.002	261.88
271.234	270.88
271.466	278.88
271.698	276.88
271.93	285.88
272.162	297.88
272.394	295.88
272.626	291.88
272.858	273.88
273.09	274.88
273.322	266.88
273.553	241.88
273.785	246.88
274.017	255.88
274.249	225.88
274.481	245.88
274.713	251.88
274.945	250.88
275.176	253.88
275.408	270.88
275.64	241.88
275.872	244.88
276.104	254.88
276.335	252.88
276.567	248.88
276.799	239.88
277.031	278.88
277.262	296.88
277.494	318.88
277.726	281.88
277.957	255.88
278.189	257.88
278.421	253.88
278.652	243.88
278.884	251.88
279.115	250.88
279.347	229.88
279.579	261.88
279.81	260.88
280.042	239.88
280.273	235.88
280.505	236.88
280.736	234.88
280.968	243.88
281.199	238.88
281.431	253.88
281.662	240.88
281.894	254.88
282.125	257.88
282.356	257.88
282.588	288.88
282.819	282.88
283.051	263.88
283.282	252.88
283.513	243.88
283.745	255.88
283.976	270.88
284.207	255.88
284.439	268.88
284.67	272.88
284.901	241.88
285.132	251.88
285.364	238.88
285.595	234.88
285.826	260.88
286.057	265.88
286.288	234.88
286.52	257.88
286.751	228.88
286.982	245.88
287.213	258.88
287.444	271.88
287.675	257.88
287.906	264.88
288.138	250.88
288.369	269.88
288.6	284.88
288.831	273.88
289.062	274.88
289.293	259.88
289.524	245.88
289.755	262.88
289.986	254.88
290.217	265.88
290.448	242.88
290.679	268.88
290.91	252.88
291.141	270.88
291.371	277.88
291.602	267.88
291.833	255.88
292.064	270.88
292.295	254.88
292.526	258.88
292.757	251.88
292.987	257.88
293.218	261.88
293.449	263.88
293.68	263.88
293.91	246.88
294.141	247.88
294.372	263.88
294.603	264.88
294.833	284.88
295.064	273.88
295.295	284.88
295.525	267.88
295.756	273.88
295.987	271.88
296.217	305.88
296.448	306.88
296.679	267.88
296.909	275.88
297.14	262.88
297.37	273.88
297.601	265.88
297.831	279.88
298.062	282.88
298.292	264.88
298.523	282.88
298.753	289.88
298.984	297.88
299.214	266.88
299.445	269.88
299.675	268.88
299.905	284.88
300.136	279.88
300.366	271.88
300.597	275.88
300.827	268.88
301.057	300.88
301.288	278.88
301.518	283.88
301.748	278.88
301.979	284.88
302.209	295.88
302.439	277.88
302.669	285.88
302.9	285.88
303.13	285.88
303.36	301.88
303.59	298.88
303.82	305.88
304.051	300.88
304.281	298.88
304.511	289.88
304.741	281.88
304.971	303.88
305.201	274.88
305.431	302.88
305.661	289.88
305.891	292.88
306.121	290.88
306.352	300.88
306.582	294.88
306.812	317.88
307.042	295.88
307.272	287.88
307.502	299.88
307.731	323.88
307.961	286.88
308.191	293.88
308.421	277.88
308.651	305.88
308.881	312.88
309.111	306.88
309.341	287.88
309.571	319.88
309.8	328.88
310.03	347.88
310.26	340.88
310.49	329.88
310.72	311.88
310.949	350.88
311.179	347.88
311.409	345.88
311.639	332.88
311.868	327.88
312.098	347.88
312.328	341.88
312.557	355.88
312.787	356.88
313.017	370.88
313.246	358.88
313.476	347.88
313.706	337.88
313.935	342.88
314.165	350.88
314.394	360.88
314.624	371.88
314.853	355.88
315.083	352.88
315.312	344.88
315.542	342.88
315.771	350.88
316.001	318.88
316.23	340.88
316.46	340.88
316.689	349.88
316.919	357.88
317.148	349.88
317.377	363.88
317.607	344.88
317.836	353.88
318.065	353.88
318.295	332.88
318.524	339.88
318.753	336.88
318.983	330.88
319.212	346.88
319.441	348.88
319.67	348.88
319.9	345.88
320.129	338.88
320.358	355.88
320.587	369.88
320.816	342.88
321.046	336.88
321.275	371.88
321.504	349.88
321.733	366.88
321.962	377.88
322.191	375.88
322.42	384.88
322.649	405.88
322.878	405.88
323.108	393.88
323.337	421.88
323.566	443.88
323.795	492.88
324.024	535.88
324.253	641.88
324.482	932.88
324.71	1377.88
324.939	1890.88
325.168	1591.88
325.397	851.88
325.626	596.88
325.855	497.88
326.084	481.88
326.313	454.88
326.542	469.88
326.77	501.88
326.999	614.88
327.228	813.88
327.457	1205.88
327.686	1395.88
327.914	945.88
328.143	633.88
328.372	557.88
328.6	521.88
328.829	491.88
329.058	507.88
329.287	523.88
329.515	486.88
329.744	457.88
329.972	435.88
330.201	446.88
330.43	475.88
330.658	508.88
330.887	504.88
331.115	523.88
331.344	464.88
331.572	442.88
331.801	423.88
332.03	413.88
332.258	425.88
332.486	399.88
332.715	379.88
332.943	382.88
333.172	402.88
333.4	394.88
333.629	414.88
333.857	423.88
334.085	407.88
334.314	415.88
334.542	429.88
334.771	429.88
334.999	419.88
335.227	389.88
335.455	384.88
335.684	389.88
335.912	378.88
336.14	383.88
336.369	391.88
336.597	399.88
336.825	387.88
337.053	375.88
337.281	379.88
337.51	384.88
337.738	372.88
337.966	382.88
338.194	397.88
338.422	403.88
338.65	376.88
338.878	381.88
339.106	355.88
339.334	385.88
339.562	371.88
339.79	374.88
340.018	384.88
340.246	377.88
340.474	363.88
340.702	369.88
340.93	366.88
341.158	389.88
341.386	369.88
341.614	365.88
341.842	373.88
342.07	366.88
342.298	379.88
342.526	366.88
342.754	363.88
342.981	361.88
343.209	367.88
343.437	349.88
343.665	360.88
343.893	370.88
344.12	364.88
344.348	374.88
344.576	365.88
344.804	374.88
345.031	387.88
345.259	389.88
345.487	371.88
345.714	383.88
345.942	379.88
346.17	350.88
346.397	348.88
346.625	352.88
346.853	371.88
347.08	349.88
347.308	362.88
347.535	369.88
347.763	380.88
347.99	378.88
348.218	374.88
348.445	366.88
348.673	360.88
348.9	346.88
349.128	360.88
349.355	347.88
349.583	343.88
349.81	347.88
350.037	364.88
350.265	352.88
350.492	342.88
350.72	357.88
350.947	351.88
351.174	366.88
351.402	350.88
351.629	372.88
351.856	358.88
352.083	372.88
352.311	365.88
352.538	383.88
352.765	369.88
352.992	370.88
353.22	361.88
353.447	351.88
353.674	347.88
353.901	336.88
354.128	341.88
354.355	334.88
354.583	346.88
354.81	343.88
355.037	342.88
355.264	315.88
355.491	336.88
355.718	330.88
355.945	328.88
356.172	329.88
356.399	305.88
356.626	321.88
356.853	349.88
357.08	342.88
357.307	341.88
357.534	333.88
357.761	338.88
357.988	342.88
358.215	341.88
358.441	329.88
358.668	322.88
358.895	343.88
359.122	354.88
359.349	336.88
359.576	355.88
359.802	382.88
360.029	409.88
360.256	407.88
360.483	382.88
360.709	378.88
360.936	348.88
361.163	369.88
361.39	375.88
361.616	366.88
361.843	349.88
362.07	365.88
362.296	362.88
362.523	337.88
362.749	350.88
362.976	362.88
363.203	366.88
363.429	329.88
363.656	349.88
363.882	342.88
364.109	353.88
364.335	322.88
364.562	330.88
364.788	334.88
365.015	329.88
365.241	336.88
365.468	356.88
365.694	341.88
365.92	354.88
366.147	336.88
366.373	325.88
366.599	335.88
366.826	315.88
367.052	332.88
367.278	313.88
367.505	328.88
367.731	350.88
367.957	327.88
368.184	328.88
368.41	331.88
368.636	343.88
368.862	353.88
369.089	339.88
369.315	318.88
369.541	321.88
369.767	342.88
369.993	342.88
370.219	339.88
370.445	343.88
370.672	325.88
370.898	313.88
371.124	336.88
371.35	337.88
371.576	324.88
371.802	333.88
372.028	323.88
372.254	329.88
372.48	330.88
372.706	308.88
372.932	337.88
373.158	330.88
373.384	335.88
373.61	347.88
373.835	337.88
374.061	338.88
374.287	322.88
374.513	336.88
374.739	325.88
374.965	349.88
375.191	318.88
375.416	333.88
375.642	316.88
375.868	332.88
376.094	346.88
376.319	333.88
376.545	321.88
376.771	314.88
376.997	323.88
377.222	328.88
377.448	326.88
377.674	326.88
377.899	310.88
378.125	326.88
378.35	303.88
378.576	325.88
378.802	303.88
379.027	329.88
379.253	315.88
379.478	319.88
379.704	315.88
379.929	321.88
380.155	340.88
380.38	327.88
380.606	330.88
380.831	313.88
381.057	343.88
381.282	320.88
381.507	325.88
381.733	335.88
381.958	323.88
382.184	331.88
382.409	330.88
382.634	329.88
382.86	337.88
383.085	332.88
383.31	339.88
383.535	331.88
383.761	336.88
383.986	311.88
384.211	336.88
384.436	340.88
384.662	319.88
384.887	349.88
385.112	331.88
385.337	332.88
385.562	326.88
385.787	337.88
386.013	365.88
386.238	338.88
386.463	327.88
386.688	346.88
386.913	331.88
387.138	334.88
387.363	332.88
387.588	345.88
387.813	346.88
388.038	350.88
388.263	329.88
388.488	339.88
388.713	348.88
388.938	346.88
389.163	355.88
389.387	336.88
389.612	338.88
389.837	337.88
390.062	327.88
390.287	335.88
390.512	330.88
390.736	333.88
390.961	338.88
391.186	324.88
391.411	329.88
391.636	344.88
391.86	355.88
392.085	342.88
392.31	334.88
392.534	356.88
392.759	350.88
392.984	335.88
393.208	328.88
393.433	341.88
393.658	343.88
393.882	328.88
394.107	328.88
394.331	341.88
394.556	340.88
394.78	340.88
395.005	350.88
395.229	347.88
395.454	347.88
395.678	349.88
395.903	354.88
396.127	371.88
396.352	381.88
396.576	362.88
396.801	356.88
397.025	357.88
397.249	342.88
397.474	362.88
397.698	371.88
397.922	360.88
398.147	389.88
398.371	395.88
398.595	374.88
398.82	379.88
399.044	397.88
399.268	383.88
399.492	415.88
399.717	436.88
399.941	428.88
400.165	440.88
400.389	464.88
400.613	423.88
400.837	393.88
401.062	370.88
401.286	387.88
401.51	379.88
401.734	382.88
401.958	372.88
402.182	377.88
402.406	382.88
402.63	406.88
402.854	375.88
403.078	382.88
403.302	396.88
403.526	380.88
403.75	388.88
403.974	371.88
404.198	376.88
404.422	354.88
404.645	380.88
404.869	396.88
405.093	401.88
405.317	437.88
405.541	474.88
405.765	423.88
405.988	394.88
406.212	394.88
406.436	411.88
406.66	454.88
406.883	422.88
407.107	453.88
407.331	461.88
407.555	523.88
407.778	521.88
408.002	484.88
408.226	435.88
408.449	443.88
408.673	429.88
408.896	446.88
409.12	470.88
409.344	461.88
409.567	409.88
409.791	405.88
410.014	400.88
410.238	405.88
410.461	403.88
410.685	388.88
410.908	391.88
411.132	428.88
411.355	458.88
411.578	414.88
411.802	401.88
412.025	379.88
412.249	381.88
412.472	407.88
412.695	436.88
412.919	411.88
413.142	372.88
413.365	389.88
413.589	369.88
413.812	378.88
414.035	373.88
414.258	396.88
414.482	360.88
414.705	363.88
414.928	358.88
415.151	368.88
415.374	357.88
415.597	361.88
415.821	362.88
416.044	374.88
416.267	372.88
416.49	372.88
416.713	361.88
416.936	343.88
417.159	361.88
417.382	364.88
417.605	365.88
417.828	395.88
418.051	389.88
418.274	386.88
418.497	363.88
418.72	369.88
418.943	357.88
419.166	363.88
419.389	385.88
419.611	399.88
419.834	374.88
420.057	395.88
420.28	398.88
420.503	374.88
420.726	378.88
420.948	398.88
421.171	411.88
421.394	450.88
421.617	395.88
421.839	359.88
422.062	410.88
422.285	382.88
422.507	434.88
422.73	490.88
422.953	482.88
423.175	419.88
423.398	417.88
423.621	408.88
423.843	429.88
424.066	418.88
424.288	407.88
424.511	428.88
424.733	480.88
424.956	528.88
425.178	521.88
425.401	508.88
425.623	520.88
425.846	471.88
426.068	445.88
426.291	423.88
426.513	431.88
426.735	423.88
426.958	471.88
427.18	527.88
427.402	603.88
427.625	691.88
427.847	591.88
428.069	497.88
428.292	434.88
428.514	424.88
428.736	393.88
428.958	409.88
429.181	381.88
429.403	394.88
429.625	387.88
429.847	428.88
430.069	465.88
430.292	473.88
430.514	419.88
430.736	389.88
430.958	388.88
431.18	362.88
431.402	356.88
431.624	358.88
431.846	354.88
432.068	370.88
432.29	364.88
432.512	373.88
432.734	373.88
432.956	365.88
433.178	393.88
433.4	385.88
433.622	373.88
433.844	357.88
434.066	377.88
434.287	368.88
434.509	364.88
434.731	373.88
434.953	391.88
435.175	383.88
435.397	417.88
435.618	422.88
435.84	450.88
436.062	536.88
436.284	545.88
436.505	464.88
436.727	416.88
436.949	412.88
437.17	385.88
437.392	389.88
437.614	399.88
437.835	449.88
438.057	513.88
438.278	570.88
438.5	588.88
438.721	652.88
438.943	602.88
439.165	503.88
439.386	437.88
439.608	435.88
439.829	444.88
440.05	461.88
440.272	494.88
440.493	470.88
440.715	427.88
440.936	413.88
441.158	409.88
441.379	399.88
441.6	392.88
441.822	394.88
442.043	426.88
442.264	500.88
442.486	534.88
442.707	481.88
442.928	427.88
443.149	430.88
443.371	437.88
443.592	470.88
443.813	533.88
444.034	586.88
444.255	484.88
444.476	431.88
444.698	418.88
444.919	417.88
445.14	490.88
445.361	464.88
445.582	425.88
445.803	511.88
446.024	577.88
446.245	577.88
446.466	551.88
446.687	463.88
446.908	428.88
447.129	405.88
447.35	401.88
447.571	382.88
447.792	397.88
448.013	404.88
448.234	413.88
448.455	453.88
448.675	555.88
448.896	610.88
449.117	523.88
449.338	518.88
449.559	593.88
449.779	651.88
450	541.88
450.221	445.88
450.442	408.88
450.662	408.88
450.883	400.88
451.104	393.88
451.324	412.88
451.545	373.88
451.766	346.88
451.986	351.88
452.207	347.88
452.428	341.88
452.648	339.88
452.869	350.88
453.089	362.88
453.31	390.88
453.53	353.88
453.751	338.88
453.971	361.88
454.192	371.88
454.412	371.88
454.633	343.88
454.853	364.88
455.073	341.88
455.294	367.88
455.514	430.88
455.734	407.88
455.955	359.88
456.175	321.88
456.395	311.88
456.616	332.88
456.836	338.88
457.056	347.88
457.276	339.88
457.497	333.88
457.717	319.88
457.937	328.88
458.157	343.88
458.377	344.88
458.598	343.88
458.818	395.88
459.038	472.88
459.258	485.88
459.478	411.88
459.698	375.88
459.918	370.88
460.138	364.88
460.358	360.88
460.578	341.88
460.798	351.88
461.018	358.88
461.238	355.88
461.458	353.88
461.678	369.88
461.898	365.88
462.118	349.88
462.338	355.88
462.558	374.88
462.777	365.88
462.997	376.88
463.217	377.88
463.437	398.88
463.657	386.88
463.876	391.88
464.096	371.88
464.316	399.88
464.536	375.88
464.755	366.88
464.975	399.88
465.195	425.88
465.414	494.88
465.634	419.88
465.854	396.88
466.073	376.88
466.293	361.88
466.512	356.88
466.732	343.88
466.951	369.88
467.171	356.88
467.391	354.88
467.61	362.88
467.829	360.88
468.049	361.88
468.268	350.88
468.488	341.88
468.707	352.88
468.927	344.88
469.146	352.88
469.365	349.88
469.585	349.88
469.804	355.88
470.023	342.88
470.243	343.88
470.462	351.88
470.681	374.88
470.901	387.88
471.12	360.88
471.339	349.88
471.558	358.88
471.777	365.88
471.997	376.88
472.216	358.88
472.435	375.88
472.654	379.88
472.873	353.88
473.092	362.88
473.311	361.88
473.53	344.88
473.749	372.88
473.968	411.88
474.187	480.88
474.406	497.88
474.625	402.88
474.844	389.88
475.063	360.88
475.282	371.88
475.501	369.88
475.72	374.88
475.939	355.88
476.158	373.88
476.377	371.88
476.596	344.88
476.814	388.88
477.033	377.88
477.252	375.88
477.471	387.88
477.69	378.88
477.908	374.88
478.127	405.88
478.346	372.88
478.564	389.88
478.783	388.88
479.002	403.88
479.22	404.88
479.439	415.88
479.658	407.88
479.876	420.88
480.095	423.88
480.313	454.88
480.532	422.88
480.751	429.88
480.969	429.88
481.188	463.88
481.406	473.88
481.624	445.88
481.843	433.88
482.061	441.88
482.28	413.88
482.498	426.88
482.717	415.88
482.935	405.88
483.153	408.88
483.372	439.88
483.59	426.88
483.808	426.88
484.027	413.88
484.245	434.88
484.463	415.88
484.681	422.88
484.9	429.88
485.118	428.88
485.336	421.88
485.554	420.88
485.772	434.88
485.99	438.88
486.209	437.88
486.427	434.88
486.645	457.88
486.863	443.88
487.081	453.88
487.299	443.88
487.517	449.88
487.735	443.88
487.953	455.88
488.171	462.88
488.389	441.88
488.607	453.88
488.825	465.88
489.043	457.88
489.261	452.88
489.479	487.88
489.696	454.88
489.914	439.88
490.132	474.88
490.35	482.88
490.568	459.88
490.786	473.88
491.003	465.88
491.221	491.88
491.439	501.88
491.657	506.88
491.874	486.88
492.092	520.88
492.31	490.88
492.527	492.88
492.745	517.88
492.963	509.88
493.18	501.88
493.398	516.88
493.615	511.88
493.833	507.88
494.05	489.88
494.268	501.88
494.485	528.88
494.703	541.88
494.92	528.88
495.138	525.88
495.355	543.88
495.573	522.88
495.79	535.88
496.008	525.88
496.225	532.88
496.442	541.88
496.66	526.88
496.877	530.88
497.094	542.88
497.312	530.88
497.529	526.88
497.746	547.88
497.963	528.88
498.181	585.88
498.398	550.88
498.615	586.88
498.832	579.88
499.049	582.88
499.267	603.88
499.484	609.88
499.701	600.88
499.918	606.88
500.135	653.88
500.352	666.88
500.569	682.88
500.786	673.88
501.003	672.88
501.22	646.88
501.437	646.88
501.654	654.88
501.871	669.88
502.088	620.88
502.305	614.88
502.522	605.88
502.739	565.88
502.956	572.88
503.172	586.88
503.389	545.88
503.606	569.88
503.823	564.88
504.04	553.88
504.256	548.88
504.473	545.88
504.69	535.88
504.907	532.88
505.123	525.88
505.34	519.88
505.557	497.88
505.773	526.88
505.99	517.88
506.207	531.88
506.423	511.88
506.64	501.88
506.856	505.88
507.073	524.88
507.289	494.88
507.506	521.88
507.722	503.88
507.939	531.88
508.155	518.88
508.372	463.88
508.588	451.88
508.805	482.88
509.021	509.88
509.238	507.88
509.454	532.88
509.67	498.88
509.887	509.88
510.103	494.88
510.319	511.88
510.536	574.88
510.752	935.88
510.968	761.88
511.184	509.88
511.401	475.88
511.617	478.88
511.833	476.88
512.049	467.88
512.265	478.88
512.481	472.88
512.698	476.88
512.914	475.88
513.13	469.88
513.346	477.88
513.562	487.88
513.778	497.88
513.994	494.88
514.21	480.88
514.426	518.88
514.642	535.88
514.858	562.88
515.074	587.88
515.29	702.88
515.506	987.88
515.721	848.88
515.937	579.88
516.153	506.88
516.369	483.88
516.585	482.88
516.801	480.88
517.016	488.88
517.232	489.88
517.448	490.88
517.664	474.88
517.879	465.88
518.095	468.88
518.311	466.88
518.527	471.88
518.742	489.88
518.958	449.88
519.173	446.88
519.389	473.88
519.605	447.88
519.82	469.88
520.036	478.88
520.251	505.88
520.467	524.88
520.682	519.88
520.898	522.88
521.113	543.88
521.329	553.88
521.544	647.88
521.76	829.88
521.975	1337.88
522.19	1285.88
522.406	741.88
522.621	554.88
522.836	492.88
523.052	475.88
523.267	460.88
523.482	430.88
523.698	443.88
523.913	441.88
524.128	435.88
524.343	423.88
524.559	427.88
524.774	392.88
524.989	406.88
525.204	398.88
525.419	413.88
525.634	399.88
525.849	418.88
526.064	407.88
526.28	394.88
526.495	402.88
526.71	378.88
526.925	393.88
527.14	392.88
527.355	388.88
527.57	411.88
527.785	397.88
527.999	400.88
528.214	385.88
528.429	392.88
528.644	375.88
528.859	395.88
529.074	378.88
529.289	406.88
529.503	470.88
529.718	446.88
529.933	418.88
530.148	406.88
530.363	403.88
530.577	383.88
530.792	387.88
531.007	389.88
531.221	378.88
531.436	375.88
531.651	366.88
531.865	361.88
532.08	378.88
532.295	379.88
532.509	366.88
532.724	365.88
532.938	376.88
533.153	358.88
533.367	345.88
533.582	365.88
533.796	358.88
534.011	346.88
534.225	352.88
534.44	356.88
534.654	375.88
534.868	364.88
535.083	341.88
535.297	359.88
535.511	355.88
535.726	375.88
535.94	369.88
536.154	358.88
536.369	347.88
536.583	360.88
536.797	341.88
537.011	336.88
537.225	345.88
537.44	346.88
537.654	356.88
537.868	351.88
538.082	352.88
538.296	349.88
538.51	351.88
538.724	370.88
538.938	353.88
539.153	371.88
539.367	375.88
539.581	371.88
539.795	353.88
540.009	344.88
540.222	363.88
540.436	354.88
540.65	366.88
540.864	362.88
541.078	364.88
541.292	359.88
541.506	350.88
541.72	355.88
541.934	354.88
542.147	363.88
542.361	354.88
542.575	348.88
542.789	363.88
543.002	355.88
543.216	359.88
543.43	350.88
543.644	361.88
543.857	346.88
544.071	334.88
544.285	349.88
544.498	358.88
544.712	359.88
544.925	377.88
545.139	339.88
545.352	346.88
545.566	343.88
545.779	331.88
545.993	332.88
546.206	367.88
546.42	340.88
546.633	349.88
546.847	350.88
547.06	333.88
547.274	335.88
547.487	334.88
547.7	322.88
547.914	347.88
548.127	329.88
548.34	337.88
548.554	325.88
548.767	343.88
548.98	321.88
549.193	316.88
549.407	336.88
549.62	333.88
549.833	331.88
550.046	316.88
550.259	314.88
550.473	330.88
550.686	333.88
550.899	319.88
551.112	338.88
551.325	320.88
551.538	325.88
551.751	345.88
551.964	329.88
552.177	342.88
552.39	345.88
552.603	320.88
552.816	318.88
553.029	317.88
553.242	330.88
553.455	324.88
553.667	335.88
553.88	333.88
554.093	341.88
554.306	323.88
554.519	327.88
554.732	327.88
554.944	325.88
555.157	323.88
555.37	325.88
555.583	310.88
555.795	322.88
556.008	308.88
556.221	302.88
556.433	306.88
556.646	302.88
556.859	302.88
557.071	318.88
557.284	311.88
557.496	300.88
557.709	281.88
557.921	295.88
558.134	291.88
558.346	295.88
558.559	315.88
558.771	294.88
558.984	294.88
559.196	289.88
559.409	287.88
559.621	287.88
559.833	296.88
560.046	302.88
560.258	287.88
560.47	293.88
560.683	281.88
560.895	282.88
561.107	288.88
561.32	290.88
561.532	306.88
561.744	291.88
561.956	286.88
562.168	307.88
562.381	296.88
562.593	302.88
562.805	302.88
563.017	301.88
563.229	293.88
563.441	302.88
563.653	295.88
563.865	297.88
564.077	293.88
564.289	312.88
564.501	317.88
564.713	303.88
564.925	302.88
565.137	339.88
565.349	325.88
565.561	289.88
565.773	324.88
565.985	313.88
566.197	335.88
566.408	320.88
566.62	333.88
566.832	338.88
567.044	334.88
567.255	330.88
567.467	330.88
567.679	343.88
567.891	339.88
568.102	326.88
568.314	329.88
568.526	340.88
568.737	330.88
568.949	323.88
569.161	307.88
569.372	287.88
569.584	312.88
569.795	323.88
570.007	313.88
570.218	330.88
570.43	325.88
570.641	289.88
570.853	293.88
571.064	297.88
571.276	288.88
571.487	291.88
571.698	271.88
571.91	290.88
572.121	282.88
572.333	279.88
572.544	284.88
572.755	263.88
572.966	280.88
573.178	266.88
573.389	271.88
573.6	265.88
573.811	280.88
574.023	238.88
574.234	247.88
574.445	248.88
574.656	262.88
574.867	268.88
575.078	257.88
575.289	271.88
575.501	269.88
575.712	266.88
575.923	253.88
576.134	267.88
576.345	250.88
576.556	245.88
576.767	258.88
576.978	262.88
577.188	244.88
577.399	242.88
577.61	252.88
577.821	263.88
578.032	255.88
578.243	278.88
578.454	465.88
578.665	337.88
578.875	263.88
579.086	248.88
579.297	253.88
579.508	257.88
579.718	259.88
579.929	251.88
580.14	243.88
580.35	223.88
580.561	241.88
580.772	241.88
580.982	237.88
581.193	238.88
581.403	231.88
581.614	251.88
581.825	250.88
582.035	252.88
582.246	248.88
582.456	225.88
582.667	237.88
582.877	238.88
583.087	238.88
583.298	233.88
583.508	243.88
583.719	227.88
583.929	248.88
584.139	246.88
584.35	236.88
584.56	234.88
584.77	243.88
584.981	237.88
585.191	224.88
585.401	239.88
585.611	238.88
585.821	253.88
586.032	217.88
586.242	224.88
586.452	227.88
586.662	222.88
586.872	214.88
587.082	249.88
587.292	229.88
587.502	234.88
587.713	221.88
587.923	243.88
588.133	230.88
588.343	229.88
588.553	225.88
588.762	228.88
588.972	249.88
589.182	286.88
589.392	271.88
589.602	257.88
589.812	276.88
590.022	254.88
590.232	216.88
590.441	207.88
590.651	212.88
590.861	204.88
591.071	216.88
591.281	223.88
591.49	218.88
591.7	213.88
591.91	229.88
592.119	220.88
592.329	227.88
592.539	254.88
592.748	224.88
592.958	212.88
593.167	234.88
593.377	249.88
593.587	249.88
593.796	234.88
594.006	237.88
594.215	227.88
594.424	232.88
594.634	230.88
594.843	217.88
595.053	224.88
595.262	242.88
595.472	229.88
595.681	234.88
595.89	219.88
596.1	229.88
596.309	201.88
596.518	216.88
596.727	222.88
596.937	212.88
597.146	215.88
597.355	214.88
597.564	213.88
597.774	213.88
597.983	218.88
598.192	199.88
598.401	207.88
598.61	196.88
598.819	217.88
599.028	198.88
599.237	220.88
599.446	214.88
599.655	218.88
599.864	197.88
600.073	203.88
600.282	200.88
600.491	205.88
600.7	202.88
600.909	197.88
601.118	194.88
601.327	190.88
601.536	205.88
601.745	204.88
601.953	206.88
602.162	196.88
602.371	204.88
602.58	211.88
602.789	216.88
602.997	208.88
603.206	212.88
603.415	179.88
603.623	209.88
603.832	211.88
604.041	184.88
604.249	190.88
604.458	206.88
604.666	197.88
604.875	193.88
605.084	204.88
605.292	195.88
605.501	201.88
605.709	207.88
605.918	204.88
606.126	199.88
606.334	202.88
606.543	193.88
606.751	191.88
606.96	191.88
607.168	199.88
607.376	201.88
607.585	199.88
607.793	182.88
608.001	174.88
608.21	198.88
608.418	178.88
608.626	188.88
608.834	197.88
609.043	190.88
609.251	174.88
609.459	196.88
609.667	196.88
609.875	207.88
610.083	192.88
610.291	198.88
610.499	191.88
610.707	185.88
610.916	188.88
611.124	205.88
611.332	204.88
611.54	213.88
611.748	185.88
611.955	206.88
612.163	206.88
612.371	191.88
612.579	196.88
612.787	187.88
612.995	199.88
613.203	193.88
613.411	203.88
613.618	184.88
613.826	177.88
614.034	184.88
614.242	190.88
614.449	197.88
614.657	199.88
614.865	177.88
615.072	196.88
615.28	197.88
615.488	202.88
615.695	190.88
615.903	179.88
616.111	195.88
616.318	185.88
616.526	191.88
616.733	177.88
616.941	188.88
617.148	201.88
617.356	169.88
617.563	193.88
617.771	177.88
617.978	196.88
618.185	189.88
618.393	174.88
618.6	179.88
618.807	175.88
619.015	181.88
619.222	185.88
619.429	180.88
619.637	185.88
619.844	183.88
620.051	181.88
620.258	186.88
620.466	171.88
620.673	165.88
620.88	174.88
621.087	178.88
621.294	163.88
621.501	180.88
621.708	195.88
621.915	171.88
622.122	190.88
622.329	177.88
622.536	175.88
622.743	183.88
622.95	173.88
623.157	165.88
623.364	172.88
623.571	201.88
623.778	178.88
623.985	189.88
624.192	183.88
624.399	178.88
624.606	174.88
624.812	173.88
625.019	188.88
625.226	156.88
625.433	177.88
625.639	163.88
625.846	163.88
626.053	169.88
626.259	171.88
626.466	175.88
626.673	178.88
626.879	174.88
627.086	165.88
627.293	167.88
627.499	177.88
627.706	178.88
627.912	171.88
628.119	145.88
628.325	178.88
628.532	160.88
628.738	172.88
628.945	159.88
629.151	167.88
629.357	159.88
629.564	160.88
629.77	166.88
629.976	167.88
630.183	170.88
630.389	163.88
630.595	170.88
630.802	160.88
631.008	159.88
631.214	173.88
631.42	163.88
631.627	179.88
631.833	155.88
632.039	169.88
632.245	162.88
632.451	158.88
632.657	171.88
632.863	162.88
633.069	161.88
633.275	156.88
633.481	141.88
633.688	161.88
633.893	159.88
634.099	178.88
634.305	158.88
634.511	164.88
634.717	155.88
634.923	145.88
635.129	170.88
635.335	148.88
635.541	153.88
635.747	145.88
635.952	158.88
636.158	147.88
636.364	157.88
636.57	142.88
636.775	157.88
636.981	164.88
637.187	149.88
637.392	154.88
637.598	159.88
637.804	156.88
638.009	145.88
638.215	151.88
638.421	134.88
638.626	127.88
638.832	153.88
639.037	143.88
639.243	145.88
639.448	156.88
639.654	147.88
639.859	153.88
640.065	134.88
640.27	143.88
640.475	156.88
640.681	133.88
640.886	143.88
641.091	144.88
641.297	153.88
641.502	134.88
641.707	152.88
641.913	149.88
642.118	131.88
642.323	145.88
642.528	149.88
642.733	145.88
642.939	151.88
643.144	131.88
643.349	139.88
643.554	147.88
643.759	148.88
643.964	134.88
644.169	147.88
644.374	136.88
644.579	148.88
644.784	129.88
644.989	147.88
645.194	144.88
645.399	143.88
645.604	133.88
645.809	131.88
646.014	152.88
646.219	137.88
646.423	141.88
646.628	140.88
646.833	137.88
647.038	133.88
647.243	148.88
647.447	144.88
647.652	138.88
647.857	130.88
648.062	133.88
648.266	137.88
648.471	129.88
648.676	143.88
648.88	137.88
649.085	143.88
649.289	159.88
649.494	133.88
649.698	155.88
649.903	167.88
650.107	142.88
650.312	135.88
650.516	142.88
650.721	143.88
650.925	129.88
651.13	113.88
651.334	130.88
651.539	124.88
651.743	126.88
651.947	134.88
652.152	121.88
652.356	127.88
652.56	120.88
652.764	129.88
652.969	136.88
653.173	137.88
653.377	119.88
653.581	134.88
653.785	101.88
653.99	120.88
654.194	124.88
654.398	123.88
654.602	131.88
654.806	115.88
655.01	124.88
655.214	135.88
655.418	120.88
655.622	129.88
655.826	108.88
656.03	118.88
656.234	131.88
656.438	123.88
656.642	125.88
656.846	109.88
657.049	117.88
657.253	131.88
657.457	119.88
657.661	120.88
657.865	113.88
658.068	105.88
658.272	111.88
658.476	104.88
658.68	101.88
658.883	103.88
659.087	99.88
659.291	100.88
659.494	105.88
659.698	98.88
659.901	103.88
660.105	92.88
660.309	92.88
660.512	106.88
660.716	92.88
660.919	95.88
661.123	85.88
661.326	75.88
661.53	79.88
661.733	94.88
661.936	90.88
662.14	83.88
662.343	94.88
662.546	89.88
662.75	94.88
662.953	98.88
663.156	80.88
663.36	87.88
663.563	86.88
663.766	78.88
663.969	71.88
664.173	62.88
664.376	86.88
664.579	73.88
664.782	82.88
664.985	94.88
665.188	65.88
665.391	79.88
665.594	72.88
665.797	81.88
666	75.88
666.203	95.88
666.406	85.88
666.609	91.88
666.812	84.88
667.015	66.88
667.218	83.88
667.421	82.88
667.624	82.88
667.827	83.88
668.03	78.88
668.232	94.88
668.435	91.88
668.638	93.88
668.841	86.88
669.043	69.88
669.246	73.88
669.449	87.88
669.651	77.88
669.854	98.88
670.057	89.88
670.259	78.88
670.462	78.88
670.665	85.88
670.867	84.88
671.07	83.88
671.272	80.88
671.475	86.88
671.677	88.88
671.88	84.88
672.082	76.88
672.284	99.88
672.487	85.88
672.689	85.88
672.892	76.88
