Data from 1981.PennyLincolnUp.Lamp.En5.5.200Scan.071819.P1_HRD10591_16-41-43-959.txt Node
Date: Thu Jul 18 16:41:43 EDT 2019
User: cochatt
Spectrometer: HR+D1059
Trigger mode: 1
Integration Time (sec): 1.000000E-1
Scans to average: 1
Electric dark correction enabled: true
Nonlinearity correction enabled: false
Boxcar width: 0
XAxis mode: Wavelengths
Number of Pixels in Spectrum: 2048
>>>>>Begin Spectral Data<<<<<
223.165	-3.62
223.4	-3.62
223.635	-3.62
223.869	-13.62
224.104	-32.62
224.338	-13.62
224.573	-0.62
224.808	-2.62
225.042	-12.62
225.277	-8.62
225.511	-0.62
225.746	9.38
225.98	14.38
226.215	0.38
226.449	10.38
226.683	20.38
226.918	16.38
227.152	17.38
227.387	31.38
227.621	32.38
227.856	45.38
228.09	44.38
228.324	57.38
228.559	51.38
228.793	61.38
229.027	95.38
229.262	104.38
229.496	110.38
229.73	120.38
229.964	145.38
230.199	131.38
230.433	121.38
230.667	124.38
230.901	102.38
231.136	96.38
231.37	113.38
231.604	103.38
231.838	124.38
232.072	116.38
232.306	109.38
232.541	102.38
232.775	110.38
233.009	98.38
233.243	121.38
233.477	99.38
233.711	98.38
233.945	113.38
234.179	96.38
234.413	101.38
234.647	113.38
234.881	127.38
235.115	121.38
235.349	97.38
235.583	101.38
235.817	116.38
236.051	121.38
236.285	122.38
236.519	117.38
236.753	126.38
236.987	144.38
237.221	180.38
237.455	226.38
237.689	182.38
237.922	134.38
238.156	106.38
238.39	126.38
238.624	124.38
238.858	118.38
239.091	112.38
239.325	122.38
239.559	114.38
239.793	127.38
240.027	140.38
240.26	136.38
240.494	152.38
240.728	153.38
240.961	142.38
241.195	151.38
241.429	129.38
241.662	144.38
241.896	137.38
242.13	133.38
242.363	136.38
242.597	128.38
242.83	121.38
243.064	121.38
243.298	122.38
243.531	130.38
243.765	133.38
243.998	138.38
244.232	144.38
244.465	142.38
244.699	142.38
244.932	160.38
245.166	156.38
245.399	148.38
245.633	142.38
245.866	132.38
246.099	142.38
246.333	160.38
246.566	151.38
246.8	137.38
247.033	150.38
247.266	158.38
247.5	158.38
247.733	160.38
247.966	169.38
248.2	159.38
248.433	179.38
248.666	175.38
248.899	187.38
249.133	198.38
249.366	197.38
249.599	201.38
249.832	183.38
250.066	178.38
250.299	189.38
250.532	187.38
250.765	194.38
250.998	227.38
251.231	232.38
251.465	210.38
251.698	205.38
251.931	211.38
252.164	198.38
252.397	192.38
252.63	183.38
252.863	207.38
253.096	199.38
253.329	243.38
253.562	222.38
253.795	223.38
254.028	230.38
254.261	228.38
254.494	243.38
254.727	254.38
254.96	278.38
255.193	280.38
255.426	266.38
255.659	244.38
255.892	241.38
256.124	252.38
256.357	232.38
256.59	232.38
256.823	221.38
257.056	212.38
257.289	223.38
257.521	210.38
257.754	207.38
257.987	197.38
258.22	203.38
258.452	217.38
258.685	196.38
258.918	208.38
259.151	201.38
259.383	231.38
259.616	229.38
259.849	222.38
260.081	231.38
260.314	250.38
260.547	266.38
260.779	242.38
261.012	242.38
261.244	237.38
261.477	216.38
261.71	218.38
261.942	225.38
262.175	245.38
262.407	238.38
262.64	244.38
262.872	216.38
263.105	218.38
263.337	204.38
263.57	192.38
263.802	198.38
264.035	192.38
264.267	187.38
264.499	202.38
264.732	213.38
264.964	210.38
265.197	214.38
265.429	210.38
265.661	204.38
265.894	201.38
266.126	209.38
266.358	213.38
266.591	231.38
266.823	233.38
267.055	231.38
267.287	221.38
267.52	208.38
267.752	215.38
267.984	221.38
268.216	207.38
268.448	208.38
268.681	226.38
268.913	250.38
269.145	279.38
269.377	279.38
269.609	265.38
269.841	278.38
270.073	287.38
270.306	302.38
270.538	317.38
270.77	317.38
271.002	289.38
271.234	306.38
271.466	311.38
271.698	288.38
271.93	320.38
272.162	332.38
272.394	330.38
272.626	316.38
272.858	281.38
273.09	282.38
273.322	300.38
273.553	270.38
273.785	242.38
274.017	266.38
274.249	279.38
274.481	270.38
274.713	267.38
274.945	262.38
275.176	293.38
275.408	279.38
275.64	267.38
275.872	258.38
276.104	228.38
276.335	253.38
276.567	252.38
276.799	301.38
277.031	312.38
277.262	313.38
277.494	333.38
277.726	308.38
277.957	304.38
278.189	280.38
278.421	278.38
278.652	283.38
278.884	276.38
279.115	268.38
279.347	284.38
279.579	264.38
279.81	266.38
280.042	265.38
280.273	261.38
280.505	265.38
280.736	244.38
280.968	264.38
281.199	224.38
281.431	259.38
281.662	252.38
281.894	256.38
282.125	257.38
282.356	286.38
282.588	307.38
282.819	282.38
283.051	261.38
283.282	258.38
283.513	275.38
283.745	275.38
283.976	278.38
284.207	278.38
284.439	280.38
284.67	274.38
284.901	261.38
285.132	280.38
285.364	272.38
285.595	293.38
285.826	270.38
286.057	276.38
286.288	279.38
286.52	278.38
286.751	268.38
286.982	278.38
287.213	279.38
287.444	264.38
287.675	276.38
287.906	279.38
288.138	282.38
288.369	308.38
288.6	301.38
288.831	286.38
289.062	285.38
289.293	281.38
289.524	276.38
289.755	284.38
289.986	276.38
290.217	267.38
290.448	284.38
290.679	277.38
290.91	278.38
291.141	279.38
291.371	270.38
291.602	284.38
291.833	271.38
292.064	271.38
292.295	279.38
292.526	269.38
292.757	270.38
292.987	259.38
293.218	293.38
293.449	277.38
293.68	277.38
293.91	282.38
294.141	283.38
294.372	288.38
294.603	272.38
294.833	281.38
295.064	293.38
295.295	280.38
295.525	282.38
295.756	293.38
295.987	289.38
296.217	306.38
296.448	330.38
296.679	294.38
296.909	298.38
297.14	274.38
297.37	295.38
297.601	294.38
297.831	275.38
298.062	304.38
298.292	295.38
298.523	288.38
298.753	280.38
298.984	283.38
299.214	311.38
299.445	276.38
299.675	300.38
299.905	307.38
300.136	293.38
300.366	310.38
300.597	301.38
300.827	303.38
301.057	293.38
301.288	308.38
301.518	310.38
301.748	314.38
301.979	308.38
302.209	313.38
302.439	313.38
302.669	291.38
302.9	314.38
303.13	304.38
303.36	312.38
303.59	322.38
303.82	323.38
304.051	345.38
304.281	316.38
304.511	317.38
304.741	303.38
304.971	310.38
305.201	300.38
305.431	325.38
305.661	328.38
305.891	319.38
306.121	310.38
306.352	313.38
306.582	333.38
306.812	324.38
307.042	313.38
307.272	339.38
307.502	308.38
307.731	325.38
307.961	315.38
308.191	329.38
308.421	320.38
308.651	336.38
308.881	335.38
309.111	335.38
309.341	327.38
309.571	341.38
309.8	342.38
310.03	356.38
310.26	383.38
310.49	384.38
310.72	372.38
310.949	386.38
311.179	395.38
311.409	376.38
311.639	369.38
311.868	365.38
312.098	366.38
312.328	392.38
312.557	384.38
312.787	420.38
313.017	407.38
313.246	374.38
313.476	367.38
313.706	351.38
313.935	386.38
314.165	390.38
314.394	393.38
314.624	372.38
314.853	385.38
315.083	380.38
315.312	362.38
315.542	359.38
315.771	362.38
316.001	356.38
316.23	368.38
316.46	358.38
316.689	368.38
316.919	390.38
317.148	376.38
317.377	383.38
317.607	386.38
317.836	375.38
318.065	388.38
318.295	384.38
318.524	359.38
318.753	366.38
318.983	368.38
319.212	378.38
319.441	369.38
319.67	370.38
319.9	389.38
320.129	378.38
320.358	373.38
320.587	365.38
320.816	393.38
321.046	392.38
321.275	391.38
321.504	415.38
321.733	398.38
321.962	408.38
322.191	422.38
322.42	423.38
322.649	458.38
322.878	465.38
323.108	468.38
323.337	492.38
323.566	501.38
323.795	563.38
324.024	613.38
324.253	733.38
324.482	1086.38
324.71	1629.38
324.939	2207.38
325.168	1906.38
325.397	986.38
325.626	719.38
325.855	595.38
326.084	544.38
326.313	514.38
326.542	527.38
326.77	586.38
326.999	703.38
327.228	945.38
327.457	1418.38
327.686	1639.38
327.914	1143.38
328.143	751.38
328.372	644.38
328.6	621.38
328.829	581.38
329.058	590.38
329.287	601.38
329.515	559.38
329.744	528.38
329.972	526.38
330.201	513.38
330.43	553.38
330.658	605.38
330.887	617.38
331.115	577.38
331.344	532.38
331.572	473.38
331.801	498.38
332.03	495.38
332.258	456.38
332.486	438.38
332.715	455.38
332.943	444.38
333.172	450.38
333.4	436.38
333.629	428.38
333.857	466.38
334.085	458.38
334.314	478.38
334.542	510.38
334.771	492.38
334.999	461.38
335.227	419.38
335.455	450.38
335.684	425.38
335.912	432.38
336.14	419.38
336.369	414.38
336.597	431.38
336.825	410.38
337.053	397.38
337.281	414.38
337.51	414.38
337.738	429.38
337.966	416.38
338.194	414.38
338.422	418.38
338.65	426.38
338.878	422.38
339.106	389.38
339.334	403.38
339.562	417.38
339.79	400.38
340.018	411.38
340.246	386.38
340.474	413.38
340.702	416.38
340.93	406.38
341.158	403.38
341.386	409.38
341.614	419.38
341.842	413.38
342.07	403.38
342.298	408.38
342.526	371.38
342.754	395.38
342.981	384.38
343.209	392.38
343.437	386.38
343.665	396.38
343.893	412.38
344.12	391.38
344.348	404.38
344.576	396.38
344.804	394.38
345.031	410.38
345.259	403.38
345.487	417.38
345.714	405.38
345.942	403.38
346.17	387.38
346.397	389.38
346.625	400.38
346.853	389.38
347.08	395.38
347.308	392.38
347.535	386.38
347.763	404.38
347.99	395.38
348.218	408.38
348.445	411.38
348.673	406.38
348.9	399.38
349.128	386.38
349.355	387.38
349.583	400.38
349.81	386.38
350.037	398.38
350.265	378.38
350.492	377.38
350.72	360.38
350.947	387.38
351.174	385.38
351.402	392.38
351.629	398.38
351.856	409.38
352.083	404.38
352.311	416.38
352.538	416.38
352.765	403.38
352.992	400.38
353.22	393.38
353.447	389.38
353.674	391.38
353.901	384.38
354.128	375.38
354.355	338.38
354.583	340.38
354.81	363.38
355.037	354.38
355.264	345.38
355.491	367.38
355.718	342.38
355.945	372.38
356.172	377.38
356.399	374.38
356.626	356.38
356.853	351.38
357.08	354.38
357.307	336.38
357.534	357.38
357.761	352.38
357.988	364.38
358.215	367.38
358.441	349.38
358.668	359.38
358.895	357.38
359.122	367.38
359.349	378.38
359.576	384.38
359.802	392.38
360.029	422.38
360.256	433.38
360.483	412.38
360.709	389.38
360.936	385.38
361.163	392.38
361.39	388.38
361.616	378.38
361.843	395.38
362.07	390.38
362.296	384.38
362.523	398.38
362.749	377.38
362.976	355.38
363.203	371.38
363.429	356.38
363.656	384.38
363.882	358.38
364.109	364.38
364.335	337.38
364.562	363.38
364.788	364.38
365.015	359.38
365.241	357.38
365.468	367.38
365.694	362.38
365.92	364.38
366.147	363.38
366.373	353.38
366.599	346.38
366.826	346.38
367.052	345.38
367.278	354.38
367.505	353.38
367.731	371.38
367.957	356.38
368.184	366.38
368.41	357.38
368.636	354.38
368.862	370.38
369.089	361.38
369.315	366.38
369.541	328.38
369.767	340.38
369.993	348.38
370.219	374.38
370.445	336.38
370.672	347.38
370.898	358.38
371.124	348.38
371.35	348.38
371.576	350.38
371.802	343.38
372.028	347.38
372.254	343.38
372.48	348.38
372.706	337.38
372.932	354.38
373.158	361.38
373.384	349.38
373.61	339.38
373.835	342.38
374.061	358.38
374.287	338.38
374.513	347.38
374.739	352.38
374.965	368.38
375.191	370.38
375.416	344.38
375.642	334.38
375.868	348.38
376.094	325.38
376.319	318.38
376.545	342.38
376.771	338.38
376.997	329.38
377.222	323.38
377.448	333.38
377.674	344.38
377.899	328.38
378.125	339.38
378.35	336.38
378.576	333.38
378.802	325.38
379.027	330.38
379.253	330.38
379.478	337.38
379.704	344.38
379.929	339.38
380.155	337.38
380.38	337.38
380.606	337.38
380.831	353.38
381.057	321.38
381.282	349.38
381.507	351.38
381.733	348.38
381.958	328.38
382.184	349.38
382.409	341.38
382.634	333.38
382.86	332.38
383.085	342.38
383.31	350.38
383.535	360.38
383.761	349.38
383.986	353.38
384.211	337.38
384.436	347.38
384.662	366.38
384.887	366.38
385.112	347.38
385.337	362.38
385.562	345.38
385.787	352.38
386.013	370.38
386.238	362.38
386.463	351.38
386.688	368.38
386.913	344.38
387.138	360.38
387.363	360.38
387.588	351.38
387.813	348.38
388.038	359.38
388.263	359.38
388.488	365.38
388.713	340.38
388.938	371.38
389.163	361.38
389.387	369.38
389.612	348.38
389.837	359.38
390.062	352.38
390.287	355.38
390.512	367.38
390.736	346.38
390.961	357.38
391.186	370.38
391.411	348.38
391.636	345.38
391.86	370.38
392.085	350.38
392.31	364.38
392.534	364.38
392.759	351.38
392.984	338.38
393.208	359.38
393.433	353.38
393.658	355.38
393.882	354.38
394.107	340.38
394.331	347.38
394.556	347.38
394.78	354.38
395.005	341.38
395.229	353.38
395.454	351.38
395.678	369.38
395.903	384.38
396.127	408.38
396.352	390.38
396.576	390.38
396.801	369.38
397.025	365.38
397.249	383.38
397.474	369.38
397.698	372.38
397.922	365.38
398.147	407.38
398.371	385.38
398.595	385.38
398.82	388.38
399.044	390.38
399.268	376.38
399.492	419.38
399.717	426.38
399.941	460.38
400.165	469.38
400.389	490.38
400.613	459.38
400.837	421.38
401.062	398.38
401.286	407.38
401.51	401.38
401.734	405.38
401.958	393.38
402.182	420.38
402.406	414.38
402.63	416.38
402.854	394.38
403.078	389.38
403.302	394.38
403.526	394.38
403.75	401.38
403.974	406.38
404.198	390.38
404.422	415.38
404.645	391.38
404.869	420.38
405.093	454.38
405.317	486.38
405.541	510.38
405.765	462.38
405.988	426.38
406.212	452.38
406.436	455.38
406.66	458.38
406.883	454.38
407.107	454.38
407.331	515.38
407.555	553.38
407.778	536.38
408.002	505.38
408.226	478.38
408.449	443.38
408.673	468.38
408.896	446.38
409.12	499.38
409.344	487.38
409.567	444.38
409.791	422.38
410.014	421.38
410.238	419.38
410.461	392.38
410.685	405.38
410.908	430.38
411.132	453.38
411.355	470.38
411.578	470.38
411.802	422.38
412.025	413.38
412.249	416.38
412.472	453.38
412.695	476.38
412.919	456.38
413.142	426.38
413.365	401.38
413.589	392.38
413.812	392.38
414.035	382.38
414.258	381.38
414.482	394.38
414.705	384.38
414.928	383.38
415.151	392.38
415.374	371.38
415.597	375.38
415.821	377.38
416.044	375.38
416.267	386.38
416.49	376.38
416.713	373.38
416.936	390.38
417.159	391.38
417.382	376.38
417.605	372.38
417.828	389.38
418.051	405.38
418.274	407.38
418.497	387.38
418.72	395.38
418.943	388.38
419.166	407.38
419.389	412.38
419.611	401.38
419.834	407.38
420.057	408.38
420.28	400.38
420.503	418.38
420.726	413.38
420.948	423.38
421.171	464.38
421.394	486.38
421.617	411.38
421.839	433.38
422.062	409.38
422.285	419.38
422.507	474.38
422.73	533.38
422.953	508.38
423.175	455.38
423.398	438.38
423.621	411.38
423.843	423.38
424.066	461.38
424.288	415.38
424.511	447.38
424.733	532.38
424.956	577.38
425.178	542.38
425.401	561.38
425.623	556.38
425.846	464.38
426.068	443.38
426.291	443.38
426.513	422.38
426.735	448.38
426.958	480.38
427.18	560.38
427.402	669.38
427.625	744.38
427.847	644.38
428.069	562.38
428.292	506.38
428.514	430.38
428.736	446.38
428.958	433.38
429.181	430.38
429.403	400.38
429.625	415.38
429.847	435.38
430.069	487.38
430.292	508.38
430.514	441.38
430.736	419.38
430.958	404.38
431.18	380.38
431.402	406.38
431.624	383.38
431.846	381.38
432.068	426.38
432.29	388.38
432.512	381.38
432.734	405.38
432.956	380.38
433.178	377.38
433.4	426.38
433.622	390.38
433.844	376.38
434.066	380.38
434.287	380.38
434.509	375.38
434.731	374.38
434.953	400.38
435.175	432.38
435.397	446.38
435.618	456.38
435.84	496.38
436.062	570.38
436.284	607.38
436.505	499.38
436.727	456.38
436.949	433.38
437.17	434.38
437.392	427.38
437.614	426.38
437.835	464.38
438.057	559.38
438.278	651.38
438.5	625.38
438.721	659.38
438.943	651.38
439.165	527.38
439.386	511.38
439.608	479.38
439.829	473.38
440.05	492.38
440.272	554.38
440.493	496.38
440.715	474.38
440.936	440.38
441.158	411.38
441.379	400.38
441.6	431.38
441.822	445.38
442.043	482.38
442.264	551.38
442.486	605.38
442.707	507.38
442.928	471.38
443.149	477.38
443.371	482.38
443.592	525.38
443.813	620.38
444.034	656.38
444.255	572.38
444.476	454.38
444.698	464.38
444.919	449.38
445.14	574.38
445.361	535.38
445.582	499.38
445.803	533.38
446.024	656.38
446.245	643.38
446.466	586.38
446.687	514.38
446.908	456.38
447.129	436.38
447.35	424.38
447.571	407.38
447.792	425.38
448.013	436.38
448.234	453.38
448.455	493.38
448.675	608.38
448.896	652.38
449.117	551.38
449.338	542.38
449.559	641.38
449.779	678.38
450	577.38
450.221	492.38
450.442	457.38
450.662	428.38
450.883	433.38
451.104	424.38
451.324	413.38
451.545	408.38
451.766	407.38
451.986	381.38
452.207	376.38
452.428	397.38
452.648	388.38
452.869	374.38
453.089	385.38
453.31	386.38
453.53	369.38
453.751	379.38
453.971	394.38
454.192	419.38
454.412	396.38
454.633	380.38
454.853	366.38
455.073	364.38
455.294	392.38
455.514	466.38
455.734	437.38
455.955	396.38
456.175	352.38
456.395	343.38
456.616	341.38
456.836	344.38
457.056	368.38
457.276	331.38
457.497	337.38
457.717	343.38
457.937	346.38
458.157	360.38
458.377	371.38
458.598	402.38
458.818	448.38
459.038	518.38
459.258	519.38
459.478	441.38
459.698	402.38
459.918	366.38
460.138	371.38
460.358	375.38
460.578	372.38
460.798	398.38
461.018	382.38
461.238	376.38
461.458	369.38
461.678	364.38
461.898	376.38
462.118	372.38
462.338	382.38
462.558	388.38
462.777	383.38
462.997	367.38
463.217	382.38
463.437	393.38
463.657	392.38
463.876	378.38
464.096	386.38
464.316	378.38
464.536	410.38
464.755	406.38
464.975	406.38
465.195	461.38
465.414	512.38
465.634	464.38
465.854	435.38
466.073	410.38
466.293	403.38
466.512	386.38
466.732	360.38
466.951	376.38
467.171	370.38
467.391	370.38
467.61	371.38
467.829	386.38
468.049	379.38
468.268	369.38
468.488	370.38
468.707	373.38
468.927	372.38
469.146	352.38
469.365	362.38
469.585	367.38
469.804	394.38
470.023	384.38
470.243	382.38
470.462	372.38
470.681	394.38
470.901	384.38
471.12	374.38
471.339	375.38
471.558	371.38
471.777	378.38
471.997	372.38
472.216	387.38
472.435	412.38
472.654	386.38
472.873	383.38
473.092	369.38
473.311	388.38
473.53	406.38
473.749	384.38
473.968	425.38
474.187	551.38
474.406	558.38
474.625	432.38
474.844	386.38
475.063	418.38
475.282	395.38
475.501	388.38
475.72	390.38
475.939	401.38
476.158	388.38
476.377	396.38
476.596	366.38
476.814	384.38
477.033	397.38
477.252	382.38
477.471	394.38
477.69	422.38
477.908	420.38
478.127	407.38
478.346	419.38
478.564	409.38
478.783	418.38
479.002	416.38
479.22	432.38
479.439	430.38
479.658	458.38
479.876	441.38
480.095	449.38
480.313	504.38
480.532	462.38
480.751	459.38
480.969	457.38
481.188	509.38
481.406	534.38
481.624	497.38
481.843	479.38
482.061	451.38
482.28	436.38
482.498	456.38
482.717	439.38
482.935	468.38
483.153	445.38
483.372	451.38
483.59	451.38
483.808	431.38
484.027	430.38
484.245	460.38
484.463	444.38
484.681	453.38
484.9	476.38
485.118	479.38
485.336	445.38
485.554	465.38
485.772	444.38
485.99	456.38
486.209	449.38
486.427	478.38
486.645	487.38
486.863	485.38
487.081	489.38
487.299	463.38
487.517	468.38
487.735	471.38
487.953	464.38
488.171	449.38
488.389	490.38
488.607	466.38
488.825	487.38
489.043	481.38
489.261	496.38
489.479	493.38
489.696	477.38
489.914	482.38
490.132	492.38
490.35	510.38
490.568	498.38
490.786	507.38
491.003	540.38
491.221	525.38
491.439	561.38
491.657	529.38
491.874	531.38
492.092	553.38
492.31	567.38
492.527	556.38
492.745	565.38
492.963	565.38
493.18	557.38
493.398	569.38
493.615	561.38
493.833	556.38
494.05	550.38
494.268	561.38
494.485	551.38
494.703	562.38
494.92	581.38
495.138	591.38
495.355	569.38
495.573	561.38
495.79	589.38
496.008	579.38
496.225	572.38
496.442	569.38
496.66	566.38
496.877	564.38
497.094	573.38
497.312	587.38
497.529	583.38
497.746	614.38
497.963	602.38
498.181	647.38
498.398	634.38
498.615	617.38
498.832	633.38
499.049	628.38
499.267	646.38
499.484	629.38
499.701	638.38
499.918	660.38
500.135	670.38
500.352	703.38
500.569	691.38
500.786	700.38
501.003	695.38
501.22	682.38
501.437	704.38
501.654	684.38
501.871	691.38
502.088	681.38
502.305	632.38
502.522	668.38
502.739	614.38
502.956	600.38
503.172	613.38
503.389	591.38
503.606	612.38
503.823	610.38
504.04	599.38
504.256	580.38
504.473	596.38
504.69	548.38
504.907	566.38
505.123	566.38
505.34	542.38
505.557	542.38
505.773	559.38
505.99	542.38
506.207	554.38
506.423	572.38
506.64	570.38
506.856	520.38
507.073	546.38
507.289	526.38
507.506	540.38
507.722	552.38
507.939	567.38
508.155	588.38
508.372	535.38
508.588	530.38
508.805	529.38
509.021	552.38
509.238	568.38
509.454	552.38
509.67	549.38
509.887	532.38
510.103	545.38
510.319	558.38
510.536	617.38
510.752	1060.38
510.968	867.38
511.184	584.38
511.401	534.38
511.617	545.38
511.833	515.38
512.049	517.38
512.265	519.38
512.481	513.38
512.698	486.38
512.914	512.38
513.13	500.38
513.346	497.38
513.562	514.38
513.778	525.38
513.994	530.38
514.21	513.38
514.426	542.38
514.642	593.38
514.858	615.38
515.074	643.38
515.29	766.38
515.506	1166.38
515.721	904.38
515.937	631.38
516.153	560.38
516.369	554.38
516.585	542.38
516.801	522.38
517.016	528.38
517.232	520.38
517.448	522.38
517.664	510.38
517.879	511.38
518.095	485.38
518.311	496.38
518.527	515.38
518.742	519.38
518.958	504.38
519.173	492.38
519.389	530.38
519.605	505.38
519.82	519.38
520.036	498.38
520.251	549.38
520.467	581.38
520.682	550.38
520.898	598.38
521.113	596.38
521.329	628.38
521.544	741.38
521.76	930.38
521.975	1553.38
522.19	1457.38
522.406	809.38
522.621	607.38
522.836	534.38
523.052	474.38
523.267	472.38
523.482	457.38
523.698	481.38
523.913	467.38
524.128	464.38
524.343	470.38
524.559	440.38
524.774	451.38
524.989	436.38
525.204	462.38
525.419	462.38
525.634	419.38
525.849	425.38
526.064	422.38
526.28	425.38
526.495	407.38
526.71	406.38
526.925	412.38
527.14	403.38
527.355	404.38
527.57	414.38
527.785	397.38
527.999	420.38
528.214	418.38
528.429	400.38
528.644	410.38
528.859	413.38
529.074	402.38
529.289	425.38
529.503	532.38
529.718	479.38
529.933	433.38
530.148	422.38
530.363	433.38
530.577	406.38
530.792	412.38
531.007	397.38
531.221	404.38
531.436	401.38
531.651	412.38
531.865	390.38
532.08	396.38
532.295	384.38
532.509	391.38
532.724	365.38
532.938	390.38
533.153	407.38
533.367	383.38
533.582	391.38
533.796	378.38
534.011	366.38
534.225	371.38
534.44	370.38
534.654	400.38
534.868	363.38
535.083	373.38
535.297	377.38
535.511	370.38
535.726	389.38
535.94	392.38
536.154	386.38
536.369	393.38
536.583	357.38
536.797	388.38
537.011	384.38
537.225	379.38
537.44	384.38
537.654	382.38
537.868	375.38
538.082	379.38
538.296	358.38
538.51	370.38
538.724	370.38
538.938	387.38
539.153	400.38
539.367	403.38
539.581	381.38
539.795	391.38
540.009	378.38
540.222	393.38
540.436	367.38
540.65	374.38
540.864	388.38
541.078	388.38
541.292	365.38
541.506	369.38
541.72	400.38
541.934	374.38
542.147	378.38
542.361	382.38
542.575	366.38
542.789	370.38
543.002	376.38
543.216	398.38
543.43	371.38
543.644	376.38
543.857	377.38
544.071	369.38
544.285	375.38
544.498	356.38
544.712	360.38
544.925	374.38
545.139	364.38
545.352	366.38
545.566	349.38
545.779	366.38
545.993	364.38
546.206	346.38
546.42	363.38
546.633	360.38
546.847	352.38
547.06	366.38
547.274	350.38
547.487	344.38
547.7	360.38
547.914	354.38
548.127	359.38
548.34	354.38
548.554	346.38
548.767	352.38
548.98	359.38
549.193	354.38
549.407	333.38
549.62	356.38
549.833	341.38
550.046	323.38
550.259	323.38
550.473	320.38
550.686	337.38
550.899	335.38
551.112	340.38
551.325	331.38
551.538	360.38
551.751	334.38
551.964	326.38
552.177	350.38
552.39	339.38
552.603	337.38
552.816	330.38
553.029	340.38
553.242	327.38
553.455	350.38
553.667	352.38
553.88	358.38
554.093	352.38
554.306	348.38
554.519	344.38
554.732	323.38
554.944	336.38
555.157	317.38
555.37	348.38
555.583	337.38
555.795	322.38
556.008	325.38
556.221	319.38
556.433	336.38
556.646	326.38
556.859	329.38
557.071	313.38
557.284	312.38
557.496	319.38
557.709	332.38
557.921	312.38
558.134	313.38
558.346	290.38
558.559	301.38
558.771	305.38
558.984	302.38
559.196	316.38
559.409	302.38
559.621	318.38
559.833	298.38
560.046	317.38
560.258	306.38
560.47	320.38
560.683	324.38
560.895	307.38
561.107	288.38
561.32	297.38
561.532	299.38
561.744	310.38
561.956	322.38
562.168	298.38
562.381	304.38
562.593	321.38
562.805	315.38
563.017	287.38
563.229	295.38
563.441	321.38
563.653	303.38
563.865	312.38
564.077	312.38
564.289	302.38
564.501	312.38
564.713	316.38
564.925	311.38
565.137	335.38
565.349	337.38
565.561	318.38
565.773	317.38
565.985	341.38
566.197	334.38
566.408	329.38
566.62	326.38
566.832	340.38
567.044	345.38
567.255	337.38
567.467	338.38
567.679	347.38
567.891	351.38
568.102	339.38
568.314	349.38
568.526	351.38
568.737	352.38
568.949	343.38
569.161	325.38
569.372	338.38
569.584	328.38
569.795	309.38
570.007	318.38
570.218	371.38
570.43	329.38
570.641	296.38
570.853	298.38
571.064	296.38
571.276	310.38
571.487	302.38
571.698	280.38
571.91	290.38
572.121	273.38
572.333	289.38
572.544	284.38
572.755	278.38
572.966	292.38
573.178	271.38
573.389	276.38
573.6	284.38
573.811	280.38
574.023	276.38
574.234	272.38
574.445	280.38
574.656	273.38
574.867	288.38
575.078	254.38
575.289	265.38
575.501	260.38
575.712	250.38
575.923	261.38
576.134	267.38
576.345	273.38
576.556	265.38
576.767	262.38
576.978	259.38
577.188	280.38
577.399	266.38
577.61	276.38
577.821	258.38
578.032	270.38
578.243	316.38
578.454	483.38
578.665	360.38
578.875	266.38
579.086	253.38
579.297	252.38
579.508	253.38
579.718	248.38
579.929	249.38
580.14	253.38
580.35	254.38
580.561	249.38
580.772	258.38
580.982	240.38
581.193	250.38
581.403	259.38
581.614	252.38
581.825	221.38
582.035	245.38
582.246	264.38
582.456	254.38
582.667	250.38
582.877	247.38
583.087	248.38
583.298	224.38
583.508	244.38
583.719	244.38
583.929	258.38
584.139	227.38
584.35	225.38
584.56	232.38
584.77	237.38
584.981	236.38
585.191	232.38
585.401	242.38
585.611	248.38
585.821	253.38
586.032	230.38
586.242	260.38
586.452	244.38
586.662	236.38
586.872	239.38
587.082	252.38
587.292	238.38
587.502	245.38
587.713	242.38
587.923	244.38
588.133	254.38
588.343	247.38
588.553	226.38
588.762	238.38
588.972	252.38
589.182	258.38
589.392	244.38
589.602	223.38
589.812	247.38
590.022	254.38
590.232	232.38
590.441	215.38
590.651	215.38
590.861	229.38
591.071	229.38
591.281	236.38
591.49	222.38
591.7	220.38
591.91	225.38
592.119	230.38
592.329	245.38
592.539	226.38
592.748	234.38
592.958	245.38
593.167	242.38
593.377	222.38
593.587	256.38
593.796	240.38
594.006	243.38
594.215	241.38
594.424	234.38
594.634	230.38
594.843	239.38
595.053	242.38
595.262	225.38
595.472	216.38
595.681	217.38
595.89	229.38
596.1	225.38
596.309	219.38
596.518	231.38
596.727	221.38
596.937	222.38
597.146	213.38
597.355	221.38
597.564	211.38
597.774	209.38
597.983	217.38
598.192	208.38
598.401	204.38
598.61	210.38
598.819	225.38
599.028	203.38
599.237	215.38
599.446	220.38
599.655	226.38
599.864	209.38
600.073	217.38
600.282	217.38
600.491	196.38
600.7	201.38
600.909	196.38
601.118	210.38
601.327	215.38
601.536	206.38
601.745	201.38
601.953	211.38
602.162	219.38
602.371	207.38
602.58	192.38
602.789	205.38
602.997	202.38
603.206	222.38
603.415	208.38
603.623	208.38
603.832	205.38
604.041	200.38
604.249	209.38
604.458	193.38
604.666	201.38
604.875	211.38
605.084	205.38
605.292	211.38
605.501	196.38
605.709	216.38
605.918	192.38
606.126	214.38
606.334	205.38
606.543	197.38
606.751	205.38
606.96	201.38
607.168	199.38
607.376	202.38
607.585	212.38
607.793	192.38
608.001	190.38
608.21	187.38
608.418	230.38
608.626	218.38
608.834	185.38
609.043	195.38
609.251	188.38
609.459	206.38
609.667	197.38
609.875	185.38
610.083	193.38
610.291	195.38
610.499	189.38
610.707	184.38
610.916	206.38
611.124	197.38
611.332	198.38
611.54	197.38
611.748	207.38
611.955	197.38
612.163	198.38
612.371	178.38
612.579	194.38
612.787	194.38
612.995	191.38
613.203	196.38
613.411	193.38
613.618	202.38
613.826	202.38
614.034	193.38
614.242	212.38
614.449	192.38
614.657	196.38
614.865	198.38
615.072	198.38
615.28	209.38
615.488	208.38
615.695	194.38
615.903	203.38
616.111	208.38
616.318	202.38
616.526	188.38
616.733	186.38
616.941	193.38
617.148	184.38
617.356	183.38
617.563	201.38
617.771	184.38
617.978	176.38
618.185	194.38
618.393	181.38
618.6	192.38
618.807	201.38
619.015	198.38
619.222	170.38
619.429	176.38
619.637	195.38
619.844	182.38
620.051	181.38
620.258	192.38
620.466	180.38
620.673	199.38
620.88	178.38
621.087	191.38
621.294	182.38
621.501	176.38
621.708	186.38
621.915	203.38
622.122	176.38
622.329	196.38
622.536	184.38
622.743	186.38
622.95	177.38
623.157	168.38
623.364	169.38
623.571	181.38
623.778	173.38
623.985	197.38
624.192	181.38
624.399	181.38
624.606	158.38
624.812	174.38
625.019	181.38
625.226	163.38
625.433	164.38
625.639	166.38
625.846	178.38
626.053	168.38
626.259	190.38
626.466	179.38
626.673	163.38
626.879	173.38
627.086	159.38
627.293	175.38
627.499	168.38
627.706	169.38
627.912	169.38
628.119	161.38
628.325	180.38
628.532	176.38
628.738	168.38
628.945	176.38
629.151	148.38
629.357	166.38
629.564	160.38
629.77	150.38
629.976	170.38
630.183	171.38
630.389	169.38
630.595	169.38
630.802	148.38
631.008	154.38
631.214	172.38
631.42	150.38
631.627	177.38
631.833	165.38
632.039	146.38
632.245	161.38
632.451	153.38
632.657	142.38
632.863	159.38
633.069	156.38
633.275	164.38
633.481	144.38
633.688	150.38
633.893	148.38
634.099	163.38
634.305	161.38
634.511	154.38
634.717	165.38
634.923	149.38
635.129	153.38
635.335	139.38
635.541	152.38
635.747	147.38
635.952	140.38
636.158	165.38
636.364	158.38
636.57	157.38
636.775	156.38
636.981	144.38
637.187	168.38
637.392	156.38
637.598	146.38
637.804	158.38
638.009	149.38
638.215	168.38
638.421	160.38
638.626	141.38
638.832	158.38
639.037	156.38
639.243	152.38
639.448	152.38
639.654	142.38
639.859	156.38
640.065	158.38
640.27	158.38
640.475	173.38
640.681	161.38
640.886	166.38
641.091	158.38
641.297	134.38
641.502	145.38
641.707	145.38
641.913	147.38
642.118	142.38
642.323	153.38
642.528	138.38
642.733	148.38
642.939	140.38
643.144	150.38
643.349	118.38
643.554	152.38
643.759	141.38
643.964	131.38
644.169	132.38
644.374	142.38
644.579	140.38
644.784	151.38
644.989	163.38
645.194	153.38
645.399	151.38
645.604	150.38
645.809	142.38
646.014	133.38
646.219	150.38
646.423	132.38
646.628	146.38
646.833	134.38
647.038	146.38
647.243	140.38
647.447	134.38
647.652	144.38
647.857	143.38
648.062	146.38
648.266	145.38
648.471	161.38
648.676	149.38
648.88	142.38
649.085	138.38
649.289	138.38
649.494	139.38
649.698	168.38
649.903	161.38
650.107	156.38
650.312	143.38
650.516	137.38
650.721	126.38
650.925	129.38
651.13	129.38
651.334	118.38
651.539	122.38
651.743	135.38
651.947	138.38
652.152	144.38
652.356	134.38
652.56	130.38
652.764	124.38
652.969	128.38
653.173	134.38
653.377	124.38
653.581	118.38
653.785	125.38
653.99	133.38
654.194	124.38
654.398	130.38
654.602	119.38
654.806	122.38
655.01	129.38
655.214	136.38
655.418	130.38
655.622	129.38
655.826	126.38
656.03	117.38
656.234	122.38
656.438	117.38
656.642	137.38
656.846	112.38
657.049	115.38
657.253	106.38
657.457	95.38
657.661	95.38
657.865	103.38
658.068	116.38
658.272	108.38
658.476	96.38
658.68	108.38
658.883	112.38
659.087	80.38
659.291	87.38
659.494	103.38
659.698	89.38
659.901	91.38
660.105	105.38
660.309	87.38
660.512	100.38
660.716	98.38
660.919	76.38
661.123	83.38
661.326	97.38
661.53	89.38
661.733	83.38
661.936	86.38
662.14	92.38
662.343	92.38
662.546	80.38
662.75	90.38
662.953	93.38
663.156	73.38
663.36	80.38
663.563	81.38
663.766	85.38
663.969	77.38
664.173	104.38
664.376	84.38
664.579	74.38
664.782	82.38
664.985	78.38
665.188	80.38
665.391	74.38
665.594	72.38
665.797	73.38
666	78.38
666.203	73.38
666.406	74.38
666.609	69.38
666.812	85.38
667.015	87.38
667.218	89.38
667.421	81.38
667.624	76.38
667.827	70.38
668.03	74.38
668.232	80.38
668.435	76.38
668.638	78.38
668.841	86.38
669.043	65.38
669.246	67.38
669.449	76.38
669.651	79.38
669.854	89.38
670.057	81.38
670.259	78.38
670.462	85.38
670.665	82.38
670.867	81.38
671.07	80.38
671.272	79.38
671.475	83.38
671.677	73.38
671.88	72.38
672.082	82.38
672.284	87.38
672.487	77.38
672.689	65.38
672.892	71.38
