Data from 1981.PennyLincolnUp.Lamp.En5.5.200Scan.071819.P1_HRD10591_16-43-39-960.txt Node
Date: Thu Jul 18 16:43:39 EDT 2019
User: cochatt
Spectrometer: HR+D1059
Trigger mode: 1
Integration Time (sec): 1.000000E-1
Scans to average: 1
Electric dark correction enabled: true
Nonlinearity correction enabled: false
Boxcar width: 0
XAxis mode: Wavelengths
Number of Pixels in Spectrum: 2048
>>>>>Begin Spectral Data<<<<<
223.165	-23.31
223.4	-23.31
223.635	-23.31
223.869	-14.31
224.104	-16.31
224.338	-25.31
224.573	-21.31
224.808	-7.31
225.042	3.69
225.277	-17.31
225.511	4.69
225.746	11.69
225.98	4.69
226.215	21.69
226.449	11.69
226.683	13.69
226.918	26.69
227.152	26.69
227.387	37.69
227.621	35.69
227.856	38.69
228.09	39.69
228.324	45.69
228.559	52.69
228.793	74.69
229.027	99.69
229.262	111.69
229.496	115.69
229.73	134.69
229.964	154.69
230.199	140.69
230.433	113.69
230.667	122.69
230.901	113.69
231.136	109.69
231.37	106.69
231.604	116.69
231.838	119.69
232.072	99.69
232.306	122.69
232.541	109.69
232.775	109.69
233.009	104.69
233.243	102.69
233.477	120.69
233.711	107.69
233.945	131.69
234.179	118.69
234.413	106.69
234.647	117.69
234.881	112.69
235.115	109.69
235.349	113.69
235.583	127.69
235.817	106.69
236.051	127.69
236.285	122.69
236.519	143.69
236.753	143.69
236.987	137.69
237.221	169.69
237.455	241.69
237.689	208.69
237.922	141.69
238.156	147.69
238.39	129.69
238.624	121.69
238.858	125.69
239.091	112.69
239.325	122.69
239.559	107.69
239.793	118.69
240.027	124.69
240.26	140.69
240.494	163.69
240.728	152.69
240.961	149.69
241.195	136.69
241.429	138.69
241.662	135.69
241.896	149.69
242.13	137.69
242.363	141.69
242.597	129.69
242.83	135.69
243.064	118.69
243.298	137.69
243.531	156.69
243.765	133.69
243.998	143.69
244.232	137.69
244.465	142.69
244.699	160.69
244.932	141.69
245.166	143.69
245.399	151.69
245.633	153.69
245.866	151.69
246.099	152.69
246.333	150.69
246.566	155.69
246.8	169.69
247.033	160.69
247.266	159.69
247.5	159.69
247.733	181.69
247.966	185.69
248.2	178.69
248.433	185.69
248.666	192.69
248.899	180.69
249.133	197.69
249.366	233.69
249.599	215.69
249.832	196.69
250.066	180.69
250.299	204.69
250.532	198.69
250.765	207.69
250.998	226.69
251.231	223.69
251.465	227.69
251.698	221.69
251.931	193.69
252.164	215.69
252.397	200.69
252.63	212.69
252.863	228.69
253.096	235.69
253.329	235.69
253.562	240.69
253.795	255.69
254.028	232.69
254.261	236.69
254.494	259.69
254.727	267.69
254.96	290.69
255.193	289.69
255.426	248.69
255.659	268.69
255.892	255.69
256.124	264.69
256.357	252.69
256.59	235.69
256.823	243.69
257.056	218.69
257.289	227.69
257.521	235.69
257.754	227.69
257.987	215.69
258.22	232.69
258.452	207.69
258.685	214.69
258.918	229.69
259.151	220.69
259.383	230.69
259.616	242.69
259.849	247.69
260.081	252.69
260.314	277.69
260.547	285.69
260.779	261.69
261.012	242.69
261.244	240.69
261.477	215.69
261.71	239.69
261.942	243.69
262.175	250.69
262.407	255.69
262.64	232.69
262.872	232.69
263.105	218.69
263.337	226.69
263.57	214.69
263.802	203.69
264.035	215.69
264.267	212.69
264.499	206.69
264.732	227.69
264.964	221.69
265.197	218.69
265.429	201.69
265.661	213.69
265.894	208.69
266.126	236.69
266.358	226.69
266.591	226.69
266.823	239.69
267.055	253.69
267.287	226.69
267.52	217.69
267.752	230.69
267.984	242.69
268.216	248.69
268.448	249.69
268.681	232.69
268.913	263.69
269.145	284.69
269.377	273.69
269.609	280.69
269.841	284.69
270.073	286.69
270.306	319.69
270.538	340.69
270.77	340.69
271.002	331.69
271.234	323.69
271.466	340.69
271.698	343.69
271.93	349.69
272.162	346.69
272.394	356.69
272.626	338.69
272.858	314.69
273.09	297.69
273.322	280.69
273.553	312.69
273.785	289.69
274.017	285.69
274.249	296.69
274.481	285.69
274.713	282.69
274.945	266.69
275.176	291.69
275.408	283.69
275.64	292.69
275.872	273.69
276.104	276.69
276.335	253.69
276.567	282.69
276.799	314.69
277.031	337.69
277.262	345.69
277.494	330.69
277.726	326.69
277.957	314.69
278.189	304.69
278.421	280.69
278.652	284.69
278.884	282.69
279.115	274.69
279.347	277.69
279.579	270.69
279.81	269.69
280.042	281.69
280.273	286.69
280.505	270.69
280.736	292.69
280.968	291.69
281.199	265.69
281.431	283.69
281.662	291.69
281.894	286.69
282.125	299.69
282.356	282.69
282.588	301.69
282.819	311.69
283.051	275.69
283.282	267.69
283.513	301.69
283.745	300.69
283.976	293.69
284.207	287.69
284.439	290.69
284.67	273.69
284.901	289.69
285.132	288.69
285.364	287.69
285.595	290.69
285.826	298.69
286.057	290.69
286.288	291.69
286.52	288.69
286.751	269.69
286.982	305.69
287.213	302.69
287.444	299.69
287.675	309.69
287.906	303.69
288.138	313.69
288.369	317.69
288.6	308.69
288.831	315.69
289.062	322.69
289.293	307.69
289.524	307.69
289.755	279.69
289.986	297.69
290.217	288.69
290.448	280.69
290.679	303.69
290.91	299.69
291.141	293.69
291.371	296.69
291.602	305.69
291.833	281.69
292.064	282.69
292.295	298.69
292.526	299.69
292.757	293.69
292.987	295.69
293.218	294.69
293.449	288.69
293.68	290.69
293.91	286.69
294.141	300.69
294.372	287.69
294.603	291.69
294.833	293.69
295.064	284.69
295.295	295.69
295.525	297.69
295.756	297.69
295.987	297.69
296.217	353.69
296.448	338.69
296.679	320.69
296.909	296.69
297.14	291.69
297.37	308.69
297.601	305.69
297.831	311.69
298.062	321.69
298.292	299.69
298.523	310.69
298.753	324.69
298.984	305.69
299.214	315.69
299.445	307.69
299.675	310.69
299.905	312.69
300.136	311.69
300.366	307.69
300.597	312.69
300.827	332.69
301.057	315.69
301.288	330.69
301.518	320.69
301.748	325.69
301.979	332.69
302.209	336.69
302.439	324.69
302.669	353.69
302.9	330.69
303.13	338.69
303.36	348.69
303.59	339.69
303.82	342.69
304.051	357.69
304.281	341.69
304.511	315.69
304.741	328.69
304.971	328.69
305.201	343.69
305.431	324.69
305.661	336.69
305.891	331.69
306.121	339.69
306.352	312.69
306.582	347.69
306.812	341.69
307.042	331.69
307.272	337.69
307.502	335.69
307.731	344.69
307.961	352.69
308.191	333.69
308.421	355.69
308.651	340.69
308.881	340.69
309.111	343.69
309.341	353.69
309.571	372.69
309.8	367.69
310.03	369.69
310.26	400.69
310.49	396.69
310.72	403.69
310.949	426.69
311.179	412.69
311.409	412.69
311.639	389.69
311.868	382.69
312.098	387.69
312.328	400.69
312.557	449.69
312.787	452.69
313.017	442.69
313.246	413.69
313.476	398.69
313.706	381.69
313.935	383.69
314.165	420.69
314.394	412.69
314.624	414.69
314.853	409.69
315.083	400.69
315.312	392.69
315.542	390.69
315.771	385.69
316.001	406.69
316.23	385.69
316.46	386.69
316.689	388.69
316.919	383.69
317.148	403.69
317.377	398.69
317.607	408.69
317.836	420.69
318.065	405.69
318.295	395.69
318.524	389.69
318.753	402.69
318.983	386.69
319.212	404.69
319.441	404.69
319.67	424.69
319.9	397.69
320.129	388.69
320.358	390.69
320.587	402.69
320.816	422.69
321.046	407.69
321.275	403.69
321.504	427.69
321.733	420.69
321.962	454.69
322.191	454.69
322.42	463.69
322.649	471.69
322.878	478.69
323.108	511.69
323.337	548.69
323.566	556.69
323.795	607.69
324.024	679.69
324.253	827.69
324.482	1223.69
324.71	1869.69
324.939	2589.69
325.168	2197.69
325.397	1138.69
325.626	771.69
325.855	636.69
326.084	577.69
326.313	577.69
326.542	574.69
326.77	636.69
326.999	756.69
327.228	1113.69
327.457	1580.69
327.686	1837.69
327.914	1259.69
328.143	839.69
328.372	715.69
328.6	655.69
328.829	643.69
329.058	657.69
329.287	662.69
329.515	612.69
329.744	574.69
329.972	556.69
330.201	594.69
330.43	646.69
330.658	655.69
330.887	672.69
331.115	643.69
331.344	580.69
331.572	505.69
331.801	525.69
332.03	525.69
332.258	482.69
332.486	475.69
332.715	455.69
332.943	442.69
333.172	472.69
333.4	458.69
333.629	477.69
333.857	490.69
334.085	487.69
334.314	492.69
334.542	531.69
334.771	558.69
334.999	531.69
335.227	497.69
335.455	486.69
335.684	468.69
335.912	451.69
336.14	449.69
336.369	439.69
336.597	455.69
336.825	448.69
337.053	459.69
337.281	445.69
337.51	421.69
337.738	426.69
337.966	452.69
338.194	461.69
338.422	447.69
338.65	452.69
338.878	461.69
339.106	437.69
339.334	409.69
339.562	408.69
339.79	431.69
340.018	416.69
340.246	428.69
340.474	447.69
340.702	434.69
340.93	425.69
341.158	417.69
341.386	428.69
341.614	436.69
341.842	403.69
342.07	438.69
342.298	436.69
342.526	417.69
342.754	414.69
342.981	412.69
343.209	413.69
343.437	417.69
343.665	444.69
343.893	425.69
344.12	416.69
344.348	417.69
344.576	420.69
344.804	431.69
345.031	414.69
345.259	445.69
345.487	438.69
345.714	435.69
345.942	408.69
346.17	412.69
346.397	407.69
346.625	415.69
346.853	395.69
347.08	395.69
347.308	425.69
347.535	446.69
347.763	447.69
347.99	423.69
348.218	428.69
348.445	436.69
348.673	432.69
348.9	414.69
349.128	415.69
349.355	408.69
349.583	411.69
349.81	411.69
350.037	402.69
350.265	408.69
350.492	368.69
350.72	399.69
350.947	407.69
351.174	426.69
351.402	425.69
351.629	436.69
351.856	431.69
352.083	423.69
352.311	419.69
352.538	412.69
352.765	424.69
352.992	445.69
353.22	413.69
353.447	423.69
353.674	407.69
353.901	395.69
354.128	387.69
354.355	380.69
354.583	392.69
354.81	375.69
355.037	377.69
355.264	372.69
355.491	381.69
355.718	356.69
355.945	382.69
356.172	389.69
356.399	386.69
356.626	372.69
356.853	365.69
357.08	364.69
357.307	347.69
357.534	372.69
357.761	363.69
357.988	360.69
358.215	367.69
358.441	380.69
358.668	377.69
358.895	400.69
359.122	383.69
359.349	391.69
359.576	409.69
359.802	435.69
360.029	463.69
360.256	483.69
360.483	448.69
360.709	420.69
360.936	421.69
361.163	420.69
361.39	406.69
361.616	409.69
361.843	379.69
362.07	414.69
362.296	425.69
362.523	413.69
362.749	419.69
362.976	404.69
363.203	393.69
363.429	365.69
363.656	385.69
363.882	372.69
364.109	393.69
364.335	383.69
364.562	387.69
364.788	383.69
365.015	388.69
365.241	371.69
365.468	389.69
365.694	387.69
365.92	377.69
366.147	379.69
366.373	370.69
366.599	361.69
366.826	383.69
367.052	365.69
367.278	377.69
367.505	384.69
367.731	363.69
367.957	375.69
368.184	373.69
368.41	397.69
368.636	392.69
368.862	408.69
369.089	387.69
369.315	369.69
369.541	371.69
369.767	370.69
369.993	370.69
370.219	359.69
370.445	366.69
370.672	361.69
370.898	375.69
371.124	356.69
371.35	382.69
371.576	355.69
371.802	349.69
372.028	361.69
372.254	375.69
372.48	361.69
372.706	364.69
372.932	353.69
373.158	362.69
373.384	352.69
373.61	350.69
373.835	363.69
374.061	389.69
374.287	387.69
374.513	352.69
374.739	353.69
374.965	373.69
375.191	376.69
375.416	372.69
375.642	349.69
375.868	365.69
376.094	376.69
376.319	362.69
376.545	359.69
376.771	362.69
376.997	352.69
377.222	354.69
377.448	353.69
377.674	364.69
377.899	344.69
378.125	362.69
378.35	339.69
378.576	339.69
378.802	357.69
379.027	345.69
379.253	346.69
379.478	358.69
379.704	355.69
379.929	347.69
380.155	377.69
380.38	346.69
380.606	364.69
380.831	361.69
381.057	356.69
381.282	349.69
381.507	345.69
381.733	346.69
381.958	343.69
382.184	324.69
382.409	356.69
382.634	352.69
382.86	368.69
383.085	369.69
383.31	375.69
383.535	356.69
383.761	383.69
383.986	380.69
384.211	363.69
384.436	365.69
384.662	367.69
384.887	360.69
385.112	367.69
385.337	381.69
385.562	371.69
385.787	399.69
386.013	374.69
386.238	388.69
386.463	392.69
386.688	383.69
386.913	367.69
387.138	364.69
387.363	364.69
387.588	391.69
387.813	361.69
388.038	370.69
388.263	377.69
388.488	379.69
388.713	364.69
388.938	371.69
389.163	377.69
389.387	387.69
389.612	383.69
389.837	360.69
390.062	372.69
390.287	367.69
390.512	373.69
390.736	363.69
390.961	367.69
391.186	369.69
391.411	381.69
391.636	369.69
391.86	372.69
392.085	376.69
392.31	375.69
392.534	369.69
392.759	369.69
392.984	365.69
393.208	379.69
393.433	363.69
393.658	363.69
393.882	368.69
394.107	359.69
394.331	379.69
394.556	362.69
394.78	367.69
395.005	368.69
395.229	362.69
395.454	373.69
395.678	395.69
395.903	373.69
396.127	395.69
396.352	413.69
396.576	374.69
396.801	391.69
397.025	392.69
397.249	376.69
397.474	386.69
397.698	395.69
397.922	389.69
398.147	414.69
398.371	420.69
398.595	395.69
398.82	412.69
399.044	402.69
399.268	417.69
399.492	436.69
399.717	437.69
399.941	467.69
400.165	505.69
400.389	526.69
400.613	468.69
400.837	442.69
401.062	449.69
401.286	417.69
401.51	412.69
401.734	421.69
401.958	418.69
402.182	421.69
402.406	411.69
402.63	413.69
402.854	399.69
403.078	427.69
403.302	421.69
403.526	426.69
403.75	460.69
403.974	412.69
404.198	411.69
404.422	424.69
404.645	428.69
404.869	446.69
405.093	477.69
405.317	482.69
405.541	536.69
405.765	488.69
405.988	454.69
406.212	465.69
406.436	487.69
406.66	482.69
406.883	449.69
407.107	514.69
407.331	515.69
407.555	575.69
407.778	572.69
408.002	522.69
408.226	485.69
408.449	487.69
408.673	487.69
408.896	510.69
409.12	536.69
409.344	511.69
409.567	457.69
409.791	441.69
410.014	440.69
410.238	436.69
410.461	414.69
410.685	433.69
410.908	463.69
411.132	487.69
411.355	537.69
411.578	495.69
411.802	458.69
412.025	412.69
412.249	453.69
412.472	472.69
412.695	497.69
412.919	486.69
413.142	445.69
413.365	424.69
413.589	426.69
413.812	408.69
414.035	393.69
414.258	397.69
414.482	393.69
414.705	397.69
414.928	411.69
415.151	392.69
415.374	396.69
415.597	393.69
415.821	395.69
416.044	406.69
416.267	426.69
416.49	397.69
416.713	387.69
416.936	394.69
417.159	397.69
417.382	400.69
417.605	412.69
417.828	431.69
418.051	420.69
418.274	403.69
418.497	401.69
418.72	417.69
418.943	410.69
419.166	417.69
419.389	409.69
419.611	422.69
419.834	428.69
420.057	419.69
420.28	433.69
420.503	421.69
420.726	416.69
420.948	452.69
421.171	482.69
421.394	513.69
421.617	456.69
421.839	415.69
422.062	409.69
422.285	459.69
422.507	489.69
422.73	563.69
422.953	553.69
423.175	487.69
423.398	436.69
423.621	457.69
423.843	474.69
424.066	464.69
424.288	485.69
424.511	476.69
424.733	521.69
424.956	604.69
425.178	583.69
425.401	575.69
425.623	621.69
425.846	520.69
426.068	484.69
426.291	491.69
426.513	473.69
426.735	508.69
426.958	528.69
427.18	604.69
427.402	704.69
427.625	802.69
427.847	716.69
428.069	598.69
428.292	563.69
428.514	491.69
428.736	472.69
428.958	467.69
429.181	425.69
429.403	449.69
429.625	455.69
429.847	510.69
430.069	533.69
430.292	534.69
430.514	461.69
430.736	433.69
430.958	418.69
431.18	398.69
431.402	398.69
431.624	406.69
431.846	393.69
432.068	410.69
432.29	416.69
432.512	394.69
432.734	433.69
432.956	415.69
433.178	423.69
433.4	432.69
433.622	413.69
433.844	417.69
434.066	416.69
434.287	398.69
434.509	399.69
434.731	414.69
434.953	417.69
435.175	444.69
435.397	472.69
435.618	476.69
435.84	500.69
436.062	597.69
436.284	674.69
436.505	547.69
436.727	495.69
436.949	473.69
437.17	422.69
437.392	436.69
437.614	457.69
437.835	496.69
438.057	588.69
438.278	657.69
438.5	675.69
438.721	715.69
438.943	681.69
439.165	550.69
439.386	527.69
439.608	485.69
439.829	495.69
440.05	523.69
440.272	575.69
440.493	537.69
440.715	469.69
440.936	447.69
441.158	432.69
441.379	436.69
441.6	436.69
441.822	472.69
442.043	521.69
442.264	600.69
442.486	639.69
442.707	519.69
442.928	485.69
443.149	494.69
443.371	523.69
443.592	554.69
443.813	642.69
444.034	671.69
444.255	551.69
444.476	488.69
444.698	481.69
444.919	469.69
445.14	565.69
445.361	523.69
445.582	516.69
445.803	579.69
446.024	676.69
446.245	697.69
446.466	632.69
446.687	511.69
446.908	473.69
447.129	464.69
447.35	456.69
447.571	447.69
447.792	427.69
448.013	433.69
448.234	472.69
448.455	530.69
448.675	611.69
448.896	719.69
449.117	608.69
449.338	602.69
449.559	694.69
449.779	755.69
450	597.69
450.221	524.69
450.442	459.69
450.662	453.69
450.883	444.69
451.104	445.69
451.324	437.69
451.545	419.69
451.766	406.69
451.986	418.69
452.207	390.69
452.428	393.69
452.648	385.69
452.869	397.69
453.089	402.69
453.31	410.69
453.53	413.69
453.751	421.69
453.971	394.69
454.192	440.69
454.412	407.69
454.633	388.69
454.853	388.69
455.073	399.69
455.294	413.69
455.514	487.69
455.734	469.69
455.955	405.69
456.175	377.69
456.395	371.69
456.616	373.69
456.836	377.69
457.056	363.69
457.276	341.69
457.497	357.69
457.717	362.69
457.937	368.69
458.157	365.69
458.377	381.69
458.598	392.69
458.818	455.69
459.038	540.69
459.258	551.69
459.478	459.69
459.698	419.69
459.918	395.69
460.138	406.69
460.358	414.69
460.578	409.69
460.798	412.69
461.018	388.69
461.238	400.69
461.458	398.69
461.678	391.69
461.898	385.69
462.118	377.69
462.338	410.69
462.558	409.69
462.777	417.69
462.997	421.69
463.217	423.69
463.437	422.69
463.657	416.69
463.876	412.69
464.096	406.69
464.316	406.69
464.536	425.69
464.755	424.69
464.975	428.69
465.195	482.69
465.414	540.69
465.634	490.69
465.854	441.69
466.073	409.69
466.293	410.69
466.512	404.69
466.732	392.69
466.951	402.69
467.171	398.69
467.391	380.69
467.61	392.69
467.829	417.69
468.049	417.69
468.268	402.69
468.488	375.69
468.707	372.69
468.927	393.69
469.146	381.69
469.365	379.69
469.585	372.69
469.804	389.69
470.023	389.69
470.243	401.69
470.462	402.69
470.681	414.69
470.901	408.69
471.12	418.69
471.339	399.69
471.558	384.69
471.777	395.69
471.997	403.69
472.216	397.69
472.435	459.69
472.654	413.69
472.873	405.69
473.092	383.69
473.311	393.69
473.53	385.69
473.749	431.69
473.968	453.69
474.187	565.69
474.406	595.69
474.625	463.69
474.844	424.69
475.063	410.69
475.282	407.69
475.501	416.69
475.72	409.69
475.939	410.69
476.158	427.69
476.377	421.69
476.596	414.69
476.814	427.69
477.033	428.69
477.252	432.69
477.471	436.69
477.69	431.69
477.908	432.69
478.127	428.69
478.346	425.69
478.564	441.69
478.783	422.69
479.002	433.69
479.22	457.69
479.439	464.69
479.658	477.69
479.876	510.69
480.095	492.69
480.313	518.69
480.532	501.69
480.751	474.69
480.969	498.69
481.188	554.69
481.406	588.69
481.624	509.69
481.843	501.69
482.061	471.69
482.28	476.69
482.498	467.69
482.717	444.69
482.935	479.69
483.153	466.69
483.372	449.69
483.59	460.69
483.808	460.69
484.027	480.69
484.245	463.69
484.463	448.69
484.681	474.69
484.9	475.69
485.118	491.69
485.336	470.69
485.554	450.69
485.772	478.69
485.99	476.69
486.209	484.69
486.427	474.69
486.645	511.69
486.863	519.69
487.081	512.69
487.299	506.69
487.517	495.69
487.735	485.69
487.953	513.69
488.171	510.69
488.389	489.69
488.607	510.69
488.825	484.69
489.043	503.69
489.261	505.69
489.479	524.69
489.696	504.69
489.914	510.69
490.132	525.69
490.35	535.69
490.568	525.69
490.786	519.69
491.003	547.69
491.221	532.69
491.439	566.69
491.657	583.69
491.874	564.69
492.092	551.69
492.31	587.69
492.527	595.69
492.745	594.69
492.963	578.69
493.18	599.69
493.398	602.69
493.615	589.69
493.833	595.69
494.05	593.69
494.268	597.69
494.485	577.69
494.703	598.69
494.92	611.69
495.138	595.69
495.355	586.69
495.573	616.69
495.79	604.69
496.008	609.69
496.225	610.69
496.442	592.69
496.66	604.69
496.877	581.69
497.094	599.69
497.312	596.69
497.529	612.69
497.746	607.69
497.963	643.69
498.181	644.69
498.398	651.69
498.615	658.69
498.832	658.69
499.049	650.69
499.267	639.69
499.484	641.69
499.701	676.69
499.918	711.69
500.135	694.69
500.352	732.69
500.569	727.69
500.786	743.69
501.003	711.69
501.22	728.69
501.437	737.69
501.654	716.69
501.871	712.69
502.088	703.69
502.305	673.69
502.522	665.69
502.739	630.69
502.956	626.69
503.172	644.69
503.389	618.69
503.606	635.69
503.823	653.69
504.04	626.69
504.256	578.69
504.473	599.69
504.69	589.69
504.907	611.69
505.123	575.69
505.34	601.69
505.557	572.69
505.773	601.69
505.99	576.69
506.207	582.69
506.423	578.69
506.64	570.69
506.856	589.69
507.073	604.69
507.289	587.69
507.506	563.69
507.722	597.69
507.939	608.69
508.155	590.69
508.372	567.69
508.588	559.69
508.805	573.69
509.021	570.69
509.238	599.69
509.454	564.69
509.67	570.69
509.887	585.69
510.103	576.69
510.319	589.69
510.536	680.69
510.752	1145.69
510.968	928.69
511.184	603.69
511.401	565.69
511.617	563.69
511.833	540.69
512.049	533.69
512.265	556.69
512.481	548.69
512.698	523.69
512.914	539.69
513.13	542.69
513.346	541.69
513.562	531.69
513.778	565.69
513.994	536.69
514.21	550.69
514.426	580.69
514.642	620.69
514.858	653.69
515.074	689.69
515.29	857.69
515.506	1250.69
515.721	1043.69
515.937	668.69
516.153	626.69
516.369	591.69
516.585	567.69
516.801	565.69
517.016	533.69
517.232	556.69
517.448	543.69
517.664	543.69
517.879	531.69
518.095	534.69
518.311	528.69
518.527	541.69
518.742	538.69
518.958	529.69
519.173	520.69
519.389	523.69
519.605	531.69
519.82	573.69
520.036	546.69
520.251	575.69
520.467	599.69
520.682	621.69
520.898	639.69
521.113	645.69
521.329	704.69
521.544	795.69
521.76	984.69
521.975	1707.69
522.19	1621.69
522.406	905.69
522.621	662.69
522.836	586.69
523.052	552.69
523.267	515.69
523.482	524.69
523.698	511.69
523.913	512.69
524.128	496.69
524.343	476.69
524.559	477.69
524.774	455.69
524.989	445.69
525.204	471.69
525.419	488.69
525.634	449.69
525.849	468.69
526.064	440.69
526.28	460.69
526.495	447.69
526.71	419.69
526.925	428.69
527.14	438.69
527.355	437.69
527.57	421.69
527.785	408.69
527.999	430.69
528.214	436.69
528.429	427.69
528.644	419.69
528.859	432.69
529.074	424.69
529.289	452.69
529.503	542.69
529.718	523.69
529.933	458.69
530.148	452.69
530.363	448.69
530.577	446.69
530.792	426.69
531.007	405.69
531.221	409.69
531.436	408.69
531.651	394.69
531.865	393.69
532.08	385.69
532.295	405.69
532.509	409.69
532.724	413.69
532.938	406.69
533.153	392.69
533.367	423.69
533.582	393.69
533.796	384.69
534.011	412.69
534.225	408.69
534.44	401.69
534.654	405.69
534.868	390.69
535.083	403.69
535.297	386.69
535.511	391.69
535.726	393.69
535.94	407.69
536.154	420.69
536.369	409.69
536.583	387.69
536.797	379.69
537.011	387.69
537.225	386.69
537.44	397.69
537.654	407.69
537.868	386.69
538.082	397.69
538.296	383.69
538.51	387.69
538.724	397.69
538.938	395.69
539.153	386.69
539.367	423.69
539.581	399.69
539.795	411.69
540.009	411.69
540.222	380.69
540.436	402.69
540.65	406.69
540.864	397.69
541.078	385.69
541.292	397.69
541.506	384.69
541.72	399.69
541.934	378.69
542.147	405.69
542.361	392.69
542.575	374.69
542.789	377.69
543.002	375.69
543.216	391.69
543.43	385.69
543.644	407.69
543.857	393.69
544.071	385.69
544.285	405.69
544.498	397.69
544.712	368.69
544.925	377.69
545.139	391.69
545.352	389.69
545.566	378.69
545.779	346.69
545.993	365.69
546.206	372.69
546.42	363.69
546.633	379.69
546.847	358.69
547.06	373.69
547.274	350.69
547.487	367.69
547.7	358.69
547.914	354.69
548.127	364.69
548.34	349.69
548.554	340.69
548.767	367.69
548.98	364.69
549.193	365.69
549.407	355.69
549.62	340.69
549.833	355.69
550.046	371.69
550.259	346.69
550.473	347.69
550.686	362.69
550.899	344.69
551.112	338.69
551.325	329.69
551.538	346.69
551.751	360.69
551.964	321.69
552.177	344.69
552.39	362.69
552.603	372.69
552.816	361.69
553.029	365.69
553.242	345.69
553.455	351.69
553.667	372.69
553.88	352.69
554.093	360.69
554.306	355.69
554.519	356.69
554.732	347.69
554.944	365.69
555.157	333.69
555.37	345.69
555.583	352.69
555.795	371.69
556.008	358.69
556.221	339.69
556.433	339.69
556.646	342.69
556.859	314.69
557.071	329.69
557.284	332.69
557.496	316.69
557.709	312.69
557.921	320.69
558.134	323.69
558.346	308.69
558.559	324.69
558.771	320.69
558.984	319.69
559.196	314.69
559.409	314.69
559.621	337.69
559.833	307.69
560.046	296.69
560.258	334.69
560.47	316.69
560.683	326.69
560.895	313.69
561.107	319.69
561.32	325.69
561.532	296.69
561.744	303.69
561.956	315.69
562.168	326.69
562.381	314.69
562.593	313.69
562.805	324.69
563.017	327.69
563.229	312.69
563.441	318.69
563.653	303.69
563.865	328.69
564.077	332.69
564.289	322.69
564.501	328.69
564.713	335.69
564.925	326.69
565.137	346.69
565.349	348.69
565.561	366.69
565.773	335.69
565.985	339.69
566.197	337.69
566.408	346.69
566.62	343.69
566.832	353.69
567.044	360.69
567.255	357.69
567.467	343.69
567.679	354.69
567.891	358.69
568.102	371.69
568.314	353.69
568.526	343.69
568.737	341.69
568.949	348.69
569.161	327.69
569.372	331.69
569.584	327.69
569.795	315.69
570.007	320.69
570.218	341.69
570.43	359.69
570.641	309.69
570.853	305.69
571.064	323.69
571.276	319.69
571.487	300.69
571.698	303.69
571.91	313.69
572.121	303.69
572.333	298.69
572.544	286.69
572.755	288.69
572.966	295.69
573.178	285.69
573.389	269.69
573.6	301.69
573.811	288.69
574.023	277.69
574.234	270.69
574.445	273.69
574.656	277.69
574.867	273.69
575.078	269.69
575.289	275.69
575.501	285.69
575.712	279.69
575.923	294.69
576.134	283.69
576.345	268.69
576.556	285.69
576.767	292.69
576.978	275.69
577.188	267.69
577.399	288.69
577.61	274.69
577.821	251.69
578.032	279.69
578.243	296.69
578.454	528.69
578.665	379.69
578.875	293.69
579.086	277.69
579.297	256.69
579.508	272.69
579.718	246.69
579.929	267.69
580.14	261.69
580.35	242.69
580.561	266.69
580.772	266.69
580.982	250.69
581.193	259.69
581.403	257.69
581.614	267.69
581.825	263.69
582.035	241.69
582.246	247.69
582.456	250.69
582.667	245.69
582.877	259.69
583.087	236.69
583.298	269.69
583.508	235.69
583.719	268.69
583.929	245.69
584.139	255.69
584.35	258.69
584.56	257.69
584.77	252.69
584.981	260.69
585.191	255.69
585.401	243.69
585.611	255.69
585.821	250.69
586.032	257.69
586.242	247.69
586.452	241.69
586.662	240.69
586.872	261.69
587.082	234.69
587.292	244.69
587.502	246.69
587.713	245.69
587.923	236.69
588.133	245.69
588.343	245.69
588.553	242.69
588.762	242.69
588.972	259.69
589.182	244.69
589.392	231.69
589.602	243.69
589.812	251.69
590.022	245.69
590.232	263.69
590.441	239.69
590.651	237.69
590.861	258.69
591.071	243.69
591.281	227.69
591.49	243.69
591.7	255.69
591.91	243.69
592.119	244.69
592.329	254.69
592.539	261.69
592.748	259.69
592.958	256.69
593.167	239.69
593.377	253.69
593.587	253.69
593.796	251.69
594.006	231.69
594.215	259.69
594.424	247.69
594.634	241.69
594.843	259.69
595.053	247.69
595.262	235.69
595.472	243.69
595.681	232.69
595.89	252.69
596.1	256.69
596.309	248.69
596.518	243.69
596.727	242.69
596.937	244.69
597.146	228.69
597.355	219.69
597.564	231.69
597.774	234.69
597.983	224.69
598.192	231.69
598.401	235.69
598.61	223.69
598.819	243.69
599.028	219.69
599.237	222.69
599.446	219.69
599.655	223.69
599.864	209.69
600.073	211.69
600.282	210.69
600.491	218.69
600.7	218.69
600.909	209.69
601.118	207.69
601.327	228.69
601.536	221.69
601.745	202.69
601.953	202.69
602.162	215.69
602.371	193.69
602.58	212.69
602.789	220.69
602.997	207.69
603.206	219.69
603.415	225.69
603.623	203.69
603.832	227.69
604.041	205.69
604.249	200.69
604.458	220.69
604.666	214.69
604.875	207.69
605.084	220.69
605.292	213.69
605.501	215.69
605.709	191.69
605.918	210.69
606.126	194.69
606.334	203.69
606.543	208.69
606.751	208.69
606.96	209.69
607.168	196.69
607.376	205.69
607.585	211.69
607.793	217.69
608.001	204.69
608.21	209.69
608.418	204.69
608.626	194.69
608.834	191.69
609.043	200.69
609.251	194.69
609.459	199.69
609.667	196.69
609.875	215.69
610.083	219.69
610.291	200.69
610.499	205.69
610.707	211.69
610.916	209.69
611.124	206.69
611.332	206.69
611.54	196.69
611.748	196.69
611.955	208.69
612.163	205.69
612.371	191.69
612.579	217.69
612.787	205.69
612.995	197.69
613.203	199.69
613.411	198.69
613.618	204.69
613.826	193.69
614.034	202.69
614.242	204.69
614.449	205.69
614.657	192.69
614.865	204.69
615.072	205.69
615.28	192.69
615.488	195.69
615.695	197.69
615.903	185.69
616.111	214.69
616.318	197.69
616.526	208.69
616.733	209.69
616.941	191.69
617.148	194.69
617.356	201.69
617.563	205.69
617.771	195.69
617.978	205.69
618.185	199.69
618.393	189.69
618.6	190.69
618.807	195.69
619.015	208.69
619.222	191.69
619.429	210.69
619.637	188.69
619.844	197.69
620.051	192.69
620.258	192.69
620.466	176.69
620.673	177.69
620.88	192.69
621.087	196.69
621.294	195.69
621.501	195.69
621.708	192.69
621.915	197.69
622.122	203.69
622.329	179.69
622.536	184.69
622.743	198.69
622.95	184.69
623.157	188.69
623.364	180.69
623.571	179.69
623.778	185.69
623.985	186.69
624.192	172.69
624.399	179.69
624.606	185.69
624.812	172.69
625.019	191.69
625.226	183.69
625.433	184.69
625.639	189.69
625.846	180.69
626.053	180.69
626.259	181.69
626.466	195.69
626.673	170.69
626.879	190.69
627.086	169.69
627.293	170.69
627.499	171.69
627.706	183.69
627.912	173.69
628.119	164.69
628.325	170.69
628.532	185.69
628.738	165.69
628.945	168.69
629.151	172.69
629.357	157.69
629.564	151.69
629.77	177.69
629.976	162.69
630.183	164.69
630.389	177.69
630.595	154.69
630.802	161.69
631.008	171.69
631.214	167.69
631.42	192.69
631.627	172.69
631.833	150.69
632.039	176.69
632.245	164.69
632.451	171.69
632.657	163.69
632.863	172.69
633.069	166.69
633.275	168.69
633.481	165.69
633.688	168.69
633.893	164.69
634.099	149.69
634.305	154.69
634.511	157.69
634.717	169.69
634.923	164.69
635.129	161.69
635.335	140.69
635.541	167.69
635.747	160.69
635.952	135.69
636.158	158.69
636.364	181.69
636.57	158.69
636.775	162.69
636.981	152.69
637.187	138.69
637.392	164.69
637.598	158.69
637.804	155.69
638.009	165.69
638.215	165.69
638.421	148.69
638.626	147.69
638.832	142.69
639.037	158.69
639.243	151.69
639.448	160.69
639.654	162.69
639.859	151.69
640.065	158.69
640.27	161.69
640.475	167.69
640.681	146.69
640.886	151.69
641.091	148.69
641.297	165.69
641.502	147.69
641.707	161.69
641.913	149.69
642.118	161.69
642.323	138.69
642.528	149.69
642.733	156.69
642.939	138.69
643.144	147.69
643.349	163.69
643.554	152.69
643.759	133.69
643.964	143.69
644.169	141.69
644.374	147.69
644.579	140.69
644.784	165.69
644.989	138.69
645.194	149.69
645.399	156.69
645.604	143.69
645.809	147.69
646.014	136.69
646.219	149.69
646.423	147.69
646.628	145.69
646.833	139.69
647.038	141.69
647.243	131.69
647.447	152.69
647.652	152.69
647.857	141.69
648.062	157.69
648.266	154.69
648.471	154.69
648.676	138.69
648.88	140.69
649.085	146.69
649.289	144.69
649.494	148.69
649.698	177.69
649.903	174.69
650.107	160.69
650.312	148.69
650.516	146.69
650.721	131.69
650.925	135.69
651.13	138.69
651.334	122.69
651.539	127.69
651.743	134.69
651.947	129.69
652.152	130.69
652.356	148.69
652.56	133.69
652.764	143.69
652.969	125.69
653.173	115.69
653.377	127.69
653.581	131.69
653.785	127.69
653.99	130.69
654.194	125.69
654.398	129.69
654.602	129.69
654.806	131.69
655.01	147.69
655.214	132.69
655.418	141.69
655.622	142.69
655.826	122.69
656.03	110.69
656.234	127.69
656.438	128.69
656.642	126.69
656.846	131.69
657.049	125.69
657.253	106.69
657.457	112.69
657.661	108.69
657.865	108.69
658.068	108.69
658.272	115.69
658.476	102.69
658.68	91.69
658.883	100.69
659.087	104.69
659.291	99.69
659.494	82.69
659.698	102.69
659.901	103.69
660.105	91.69
660.309	89.69
660.512	84.69
660.716	91.69
660.919	85.69
661.123	76.69
661.326	93.69
661.53	96.69
661.733	83.69
661.936	95.69
662.14	80.69
662.343	78.69
662.546	85.69
662.75	106.69
662.953	74.69
663.156	80.69
663.36	89.69
663.563	85.69
663.766	83.69
663.969	83.69
664.173	76.69
664.376	96.69
664.579	78.69
664.782	94.69
664.985	89.69
665.188	96.69
665.391	79.69
665.594	78.69
665.797	80.69
666	92.69
666.203	89.69
666.406	80.69
666.609	83.69
666.812	94.69
667.015	82.69
667.218	89.69
667.421	82.69
667.624	80.69
667.827	83.69
668.03	86.69
668.232	85.69
668.435	78.69
668.638	85.69
668.841	73.69
669.043	83.69
669.246	83.69
669.449	69.69
669.651	72.69
669.854	82.69
670.057	76.69
670.259	92.69
670.462	83.69
670.665	80.69
670.867	79.69
671.07	81.69
671.272	79.69
671.475	78.69
671.677	83.69
671.88	89.69
672.082	73.69
672.284	97.69
672.487	90.69
672.689	87.69
672.892	95.69
