Data from 1981.PennyLincolnUp.Lamp.En5.5.200Scan.071819.P1_HRD10591_16-43-22-959.txt Node
Date: Thu Jul 18 16:43:22 EDT 2019
User: cochatt
Spectrometer: HR+D1059
Trigger mode: 1
Integration Time (sec): 1.000000E-1
Scans to average: 1
Electric dark correction enabled: true
Nonlinearity correction enabled: false
Boxcar width: 0
XAxis mode: Wavelengths
Number of Pixels in Spectrum: 2048
>>>>>Begin Spectral Data<<<<<
223.165	-17.25
223.4	-17.25
223.635	-17.25
223.869	-23.25
224.104	-17.25
224.338	-19.25
224.573	-27.25
224.808	-9.25
225.042	6.75
225.277	-1.25
225.511	-1.25
225.746	13.75
225.98	2.75
226.215	8.75
226.449	25.75
226.683	17.75
226.918	13.75
227.152	26.75
227.387	26.75
227.621	43.75
227.856	32.75
228.09	52.75
228.324	49.75
228.559	48.75
228.793	68.75
229.027	109.75
229.262	95.75
229.496	103.75
229.73	122.75
229.964	146.75
230.199	141.75
230.433	121.75
230.667	110.75
230.901	122.75
231.136	95.75
231.37	110.75
231.604	109.75
231.838	111.75
232.072	101.75
232.306	120.75
232.541	118.75
232.775	122.75
233.009	140.75
233.243	111.75
233.477	119.75
233.711	119.75
233.945	114.75
234.179	122.75
234.413	115.75
234.647	116.75
234.881	104.75
235.115	117.75
235.349	123.75
235.583	120.75
235.817	134.75
236.051	121.75
236.285	138.75
236.519	125.75
236.753	141.75
236.987	134.75
237.221	194.75
237.455	257.75
237.689	204.75
237.922	136.75
238.156	143.75
238.39	122.75
238.624	116.75
238.858	130.75
239.091	108.75
239.325	119.75
239.559	146.75
239.793	138.75
240.027	124.75
240.26	138.75
240.494	157.75
240.728	142.75
240.961	169.75
241.195	160.75
241.429	139.75
241.662	147.75
241.896	130.75
242.13	150.75
242.363	138.75
242.597	136.75
242.83	142.75
243.064	142.75
243.298	139.75
243.531	136.75
243.765	152.75
243.998	134.75
244.232	134.75
244.465	136.75
244.699	132.75
244.932	166.75
245.166	143.75
245.399	143.75
245.633	158.75
245.866	151.75
246.099	165.75
246.333	157.75
246.566	141.75
246.8	142.75
247.033	160.75
247.266	159.75
247.5	191.75
247.733	169.75
247.966	188.75
248.2	178.75
248.433	184.75
248.666	181.75
248.899	186.75
249.133	212.75
249.366	226.75
249.599	219.75
249.832	208.75
250.066	210.75
250.299	192.75
250.532	204.75
250.765	207.75
250.998	223.75
251.231	245.75
251.465	235.75
251.698	225.75
251.931	206.75
252.164	228.75
252.397	222.75
252.63	224.75
252.863	207.75
253.096	258.75
253.329	227.75
253.562	226.75
253.795	247.75
254.028	238.75
254.261	231.75
254.494	245.75
254.727	267.75
254.96	302.75
255.193	292.75
255.426	280.75
255.659	275.75
255.892	258.75
256.124	259.75
256.357	258.75
256.59	237.75
256.823	231.75
257.056	231.75
257.289	205.75
257.521	214.75
257.754	213.75
257.987	228.75
258.22	229.75
258.452	221.75
258.685	222.75
258.918	233.75
259.151	204.75
259.383	217.75
259.616	217.75
259.849	236.75
260.081	233.75
260.314	278.75
260.547	267.75
260.779	258.75
261.012	251.75
261.244	228.75
261.477	237.75
261.71	219.75
261.942	233.75
262.175	238.75
262.407	243.75
262.64	198.75
262.872	221.75
263.105	239.75
263.337	221.75
263.57	230.75
263.802	224.75
264.035	209.75
264.267	228.75
264.499	213.75
264.732	218.75
264.964	223.75
265.197	223.75
265.429	211.75
265.661	222.75
265.894	216.75
266.126	224.75
266.358	223.75
266.591	215.75
266.823	231.75
267.055	248.75
267.287	235.75
267.52	239.75
267.752	245.75
267.984	256.75
268.216	234.75
268.448	249.75
268.681	252.75
268.913	252.75
269.145	275.75
269.377	295.75
269.609	290.75
269.841	276.75
270.073	276.75
270.306	291.75
270.538	346.75
270.77	330.75
271.002	325.75
271.234	310.75
271.466	316.75
271.698	351.75
271.93	334.75
272.162	338.75
272.394	323.75
272.626	318.75
272.858	313.75
273.09	314.75
273.322	277.75
273.553	292.75
273.785	303.75
274.017	299.75
274.249	290.75
274.481	282.75
274.713	288.75
274.945	302.75
275.176	278.75
275.408	280.75
275.64	301.75
275.872	291.75
276.104	282.75
276.335	282.75
276.567	282.75
276.799	309.75
277.031	318.75
277.262	339.75
277.494	332.75
277.726	319.75
277.957	326.75
278.189	301.75
278.421	309.75
278.652	274.75
278.884	291.75
279.115	296.75
279.347	272.75
279.579	271.75
279.81	269.75
280.042	279.75
280.273	281.75
280.505	271.75
280.736	271.75
280.968	276.75
281.199	258.75
281.431	276.75
281.662	269.75
281.894	282.75
282.125	265.75
282.356	297.75
282.588	296.75
282.819	325.75
283.051	292.75
283.282	264.75
283.513	278.75
283.745	275.75
283.976	284.75
284.207	298.75
284.439	275.75
284.67	282.75
284.901	290.75
285.132	277.75
285.364	276.75
285.595	290.75
285.826	278.75
286.057	279.75
286.288	284.75
286.52	281.75
286.751	285.75
286.982	302.75
287.213	282.75
287.444	282.75
287.675	299.75
287.906	311.75
288.138	304.75
288.369	314.75
288.6	310.75
288.831	278.75
289.062	309.75
289.293	304.75
289.524	292.75
289.755	319.75
289.986	270.75
290.217	284.75
290.448	282.75
290.679	278.75
290.91	294.75
291.141	284.75
291.371	309.75
291.602	276.75
291.833	293.75
292.064	301.75
292.295	303.75
292.526	287.75
292.757	290.75
292.987	306.75
293.218	291.75
293.449	286.75
293.68	301.75
293.91	286.75
294.141	291.75
294.372	291.75
294.603	290.75
294.833	282.75
295.064	292.75
295.295	286.75
295.525	303.75
295.756	318.75
295.987	316.75
296.217	322.75
296.448	343.75
296.679	318.75
296.909	292.75
297.14	292.75
297.37	295.75
297.601	287.75
297.831	288.75
298.062	317.75
298.292	295.75
298.523	295.75
298.753	302.75
298.984	323.75
299.214	315.75
299.445	315.75
299.675	318.75
299.905	306.75
300.136	335.75
300.366	318.75
300.597	325.75
300.827	318.75
301.057	326.75
301.288	348.75
301.518	317.75
301.748	330.75
301.979	327.75
302.209	330.75
302.439	329.75
302.669	335.75
302.9	317.75
303.13	317.75
303.36	330.75
303.59	331.75
303.82	337.75
304.051	346.75
304.281	323.75
304.511	317.75
304.741	347.75
304.971	336.75
305.201	332.75
305.431	322.75
305.661	330.75
305.891	336.75
306.121	342.75
306.352	331.75
306.582	338.75
306.812	318.75
307.042	329.75
307.272	342.75
307.502	342.75
307.731	341.75
307.961	347.75
308.191	328.75
308.421	331.75
308.651	348.75
308.881	339.75
309.111	352.75
309.341	357.75
309.571	364.75
309.8	393.75
310.03	388.75
310.26	382.75
310.49	392.75
310.72	386.75
310.949	424.75
311.179	440.75
311.409	416.75
311.639	386.75
311.868	389.75
312.098	390.75
312.328	415.75
312.557	431.75
312.787	419.75
313.017	405.75
313.246	401.75
313.476	402.75
313.706	400.75
313.935	386.75
314.165	410.75
314.394	418.75
314.624	421.75
314.853	410.75
315.083	374.75
315.312	397.75
315.542	379.75
315.771	390.75
316.001	386.75
316.23	385.75
316.46	396.75
316.689	388.75
316.919	387.75
317.148	419.75
317.377	419.75
317.607	389.75
317.836	382.75
318.065	385.75
318.295	382.75
318.524	373.75
318.753	383.75
318.983	415.75
319.212	392.75
319.441	376.75
319.67	394.75
319.9	407.75
320.129	396.75
320.358	390.75
320.587	395.75
320.816	410.75
321.046	412.75
321.275	423.75
321.504	407.75
321.733	424.75
321.962	438.75
322.191	438.75
322.42	490.75
322.649	494.75
322.878	503.75
323.108	517.75
323.337	550.75
323.566	563.75
323.795	608.75
324.024	688.75
324.253	811.75
324.482	1220.75
324.71	1818.75
324.939	2518.75
325.168	2139.75
325.397	1101.75
325.626	760.75
325.855	630.75
326.084	582.75
326.313	558.75
326.542	578.75
326.77	624.75
326.999	746.75
327.228	1070.75
327.457	1576.75
327.686	1839.75
327.914	1250.75
328.143	827.75
328.372	718.75
328.6	641.75
328.829	619.75
329.058	629.75
329.287	644.75
329.515	593.75
329.744	542.75
329.972	547.75
330.201	570.75
330.43	627.75
330.658	629.75
330.887	649.75
331.115	615.75
331.344	578.75
331.572	512.75
331.801	512.75
332.03	524.75
332.258	484.75
332.486	468.75
332.715	474.75
332.943	455.75
333.172	469.75
333.4	456.75
333.629	454.75
333.857	477.75
334.085	498.75
334.314	517.75
334.542	533.75
334.771	550.75
334.999	504.75
335.227	456.75
335.455	443.75
335.684	460.75
335.912	450.75
336.14	449.75
336.369	444.75
336.597	464.75
336.825	434.75
337.053	453.75
337.281	441.75
337.51	433.75
337.738	452.75
337.966	444.75
338.194	449.75
338.422	445.75
338.65	425.75
338.878	430.75
339.106	443.75
339.334	422.75
339.562	429.75
339.79	424.75
340.018	443.75
340.246	436.75
340.474	431.75
340.702	420.75
340.93	437.75
341.158	418.75
341.386	412.75
341.614	421.75
341.842	424.75
342.07	424.75
342.298	408.75
342.526	411.75
342.754	397.75
342.981	392.75
343.209	405.75
343.437	390.75
343.665	412.75
343.893	404.75
344.12	431.75
344.348	419.75
344.576	392.75
344.804	434.75
345.031	438.75
345.259	431.75
345.487	450.75
345.714	421.75
345.942	415.75
346.17	417.75
346.397	412.75
346.625	406.75
346.853	415.75
347.08	419.75
347.308	430.75
347.535	415.75
347.763	413.75
347.99	424.75
348.218	426.75
348.445	430.75
348.673	424.75
348.9	424.75
349.128	415.75
349.355	404.75
349.583	400.75
349.81	399.75
350.037	408.75
350.265	402.75
350.492	408.75
350.72	414.75
350.947	387.75
351.174	418.75
351.402	416.75
351.629	403.75
351.856	430.75
352.083	438.75
352.311	440.75
352.538	435.75
352.765	439.75
352.992	405.75
353.22	408.75
353.447	412.75
353.674	386.75
353.901	408.75
354.128	387.75
354.355	390.75
354.583	397.75
354.81	365.75
355.037	361.75
355.264	377.75
355.491	374.75
355.718	374.75
355.945	374.75
356.172	349.75
356.399	364.75
356.626	347.75
356.853	376.75
357.08	348.75
357.307	353.75
357.534	348.75
357.761	369.75
357.988	343.75
358.215	367.75
358.441	362.75
358.668	357.75
358.895	393.75
359.122	376.75
359.349	396.75
359.576	408.75
359.802	424.75
360.029	449.75
360.256	452.75
360.483	453.75
360.709	416.75
360.936	397.75
361.163	400.75
361.39	415.75
361.616	417.75
361.843	403.75
362.07	383.75
362.296	379.75
362.523	403.75
362.749	398.75
362.976	402.75
363.203	384.75
363.429	375.75
363.656	397.75
363.882	401.75
364.109	376.75
364.335	370.75
364.562	378.75
364.788	376.75
365.015	377.75
365.241	374.75
365.468	389.75
365.694	391.75
365.92	396.75
366.147	399.75
366.373	385.75
366.599	390.75
366.826	382.75
367.052	366.75
367.278	364.75
367.505	371.75
367.731	364.75
367.957	363.75
368.184	360.75
368.41	372.75
368.636	391.75
368.862	384.75
369.089	382.75
369.315	375.75
369.541	349.75
369.767	369.75
369.993	361.75
370.219	360.75
370.445	371.75
370.672	365.75
370.898	356.75
371.124	344.75
371.35	372.75
371.576	370.75
371.802	367.75
372.028	359.75
372.254	355.75
372.48	351.75
372.706	371.75
372.932	369.75
373.158	360.75
373.384	355.75
373.61	368.75
373.835	377.75
374.061	374.75
374.287	355.75
374.513	365.75
374.739	377.75
374.965	365.75
375.191	362.75
375.416	370.75
375.642	348.75
375.868	355.75
376.094	352.75
376.319	332.75
376.545	358.75
376.771	371.75
376.997	348.75
377.222	352.75
377.448	354.75
377.674	344.75
377.899	334.75
378.125	357.75
378.35	350.75
378.576	336.75
378.802	348.75
379.027	343.75
379.253	339.75
379.478	350.75
379.704	346.75
379.929	342.75
380.155	350.75
380.38	344.75
380.606	355.75
380.831	349.75
381.057	352.75
381.282	360.75
381.507	347.75
381.733	348.75
381.958	355.75
382.184	350.75
382.409	331.75
382.634	359.75
382.86	347.75
383.085	362.75
383.31	351.75
383.535	362.75
383.761	350.75
383.986	343.75
384.211	366.75
384.436	380.75
384.662	365.75
384.887	365.75
385.112	358.75
385.337	365.75
385.562	351.75
385.787	362.75
386.013	379.75
386.238	394.75
386.463	383.75
386.688	390.75
386.913	351.75
387.138	373.75
387.363	370.75
387.588	377.75
387.813	368.75
388.038	382.75
388.263	340.75
388.488	374.75
388.713	362.75
388.938	374.75
389.163	372.75
389.387	368.75
389.612	374.75
389.837	363.75
390.062	327.75
390.287	372.75
390.512	373.75
390.736	381.75
390.961	371.75
391.186	370.75
391.411	350.75
391.636	387.75
391.86	354.75
392.085	369.75
392.31	362.75
392.534	361.75
392.759	354.75
392.984	369.75
393.208	376.75
393.433	346.75
393.658	374.75
393.882	366.75
394.107	364.75
394.331	348.75
394.556	365.75
394.78	381.75
395.005	368.75
395.229	365.75
395.454	373.75
395.678	382.75
395.903	377.75
396.127	410.75
396.352	390.75
396.576	393.75
396.801	375.75
397.025	378.75
397.249	386.75
397.474	386.75
397.698	373.75
397.922	386.75
398.147	407.75
398.371	407.75
398.595	387.75
398.82	387.75
399.044	413.75
399.268	393.75
399.492	424.75
399.717	452.75
399.941	476.75
400.165	485.75
400.389	491.75
400.613	467.75
400.837	419.75
401.062	408.75
401.286	416.75
401.51	407.75
401.734	430.75
401.958	418.75
402.182	407.75
402.406	416.75
402.63	426.75
402.854	412.75
403.078	418.75
403.302	410.75
403.526	440.75
403.75	444.75
403.974	414.75
404.198	423.75
404.422	434.75
404.645	411.75
404.869	424.75
405.093	460.75
405.317	516.75
405.541	518.75
405.765	482.75
405.988	440.75
406.212	453.75
406.436	466.75
406.66	503.75
406.883	470.75
407.107	488.75
407.331	495.75
407.555	576.75
407.778	580.75
408.002	532.75
408.226	502.75
408.449	473.75
408.673	487.75
408.896	485.75
409.12	531.75
409.344	491.75
409.567	438.75
409.791	432.75
410.014	406.75
410.238	422.75
410.461	393.75
410.685	429.75
410.908	436.75
411.132	485.75
411.355	498.75
411.578	496.75
411.802	408.75
412.025	415.75
412.249	447.75
412.472	469.75
412.695	477.75
412.919	496.75
413.142	431.75
413.365	431.75
413.589	424.75
413.812	399.75
414.035	393.75
414.258	386.75
414.482	389.75
414.705	398.75
414.928	395.75
415.151	382.75
415.374	398.75
415.597	388.75
415.821	401.75
416.044	409.75
416.267	400.75
416.49	386.75
416.713	388.75
416.936	387.75
417.159	383.75
417.382	391.75
417.605	394.75
417.828	426.75
418.051	435.75
418.274	412.75
418.497	424.75
418.72	400.75
418.943	427.75
419.166	408.75
419.389	429.75
419.611	424.75
419.834	426.75
420.057	428.75
420.28	428.75
420.503	411.75
420.726	426.75
420.948	434.75
421.171	468.75
421.394	510.75
421.617	443.75
421.839	418.75
422.062	436.75
422.285	426.75
422.507	484.75
422.73	552.75
422.953	527.75
423.175	479.75
423.398	453.75
423.621	458.75
423.843	468.75
424.066	458.75
424.288	440.75
424.511	492.75
424.733	542.75
424.956	586.75
425.178	559.75
425.401	566.75
425.623	599.75
425.846	490.75
426.068	479.75
426.291	479.75
426.513	476.75
426.735	495.75
426.958	510.75
427.18	584.75
427.402	702.75
427.625	798.75
427.847	692.75
428.069	597.75
428.292	542.75
428.514	463.75
428.736	449.75
428.958	455.75
429.181	437.75
429.403	424.75
429.625	452.75
429.847	484.75
430.069	553.75
430.292	536.75
430.514	464.75
430.736	444.75
430.958	427.75
431.18	418.75
431.402	416.75
431.624	379.75
431.846	390.75
432.068	393.75
432.29	401.75
432.512	382.75
432.734	393.75
432.956	400.75
433.178	412.75
433.4	436.75
433.622	404.75
433.844	398.75
434.066	398.75
434.287	400.75
434.509	401.75
434.731	406.75
434.953	413.75
435.175	428.75
435.397	452.75
435.618	455.75
435.84	507.75
436.062	586.75
436.284	660.75
436.505	540.75
436.727	520.75
436.949	472.75
437.17	432.75
437.392	434.75
437.614	454.75
437.835	493.75
438.057	575.75
438.278	668.75
438.5	694.75
438.721	739.75
438.943	690.75
439.165	552.75
439.386	514.75
439.608	492.75
439.829	499.75
440.05	518.75
440.272	588.75
440.493	537.75
440.715	463.75
440.936	462.75
441.158	456.75
441.379	455.75
441.6	463.75
441.822	453.75
442.043	499.75
442.264	590.75
442.486	630.75
442.707	540.75
442.928	471.75
443.149	512.75
443.371	529.75
443.592	553.75
443.813	607.75
444.034	652.75
444.255	568.75
444.476	502.75
444.698	469.75
444.919	478.75
445.14	567.75
445.361	524.75
445.582	524.75
445.803	598.75
446.024	676.75
446.245	670.75
446.466	603.75
446.687	525.75
446.908	473.75
447.129	446.75
447.35	444.75
447.571	427.75
447.792	443.75
448.013	462.75
448.234	490.75
448.455	486.75
448.675	614.75
448.896	717.75
449.117	601.75
449.338	554.75
449.559	650.75
449.779	728.75
450	608.75
450.221	484.75
450.442	461.75
450.662	427.75
450.883	452.75
451.104	449.75
451.324	438.75
451.545	411.75
451.766	409.75
451.986	404.75
452.207	388.75
452.428	393.75
452.648	388.75
452.869	408.75
453.089	424.75
453.31	396.75
453.53	408.75
453.751	385.75
453.971	404.75
454.192	415.75
454.412	402.75
454.633	388.75
454.853	403.75
455.073	387.75
455.294	400.75
455.514	485.75
455.734	471.75
455.955	403.75
456.175	370.75
456.395	378.75
456.616	374.75
456.836	361.75
457.056	372.75
457.276	365.75
457.497	334.75
457.717	367.75
457.937	368.75
458.157	368.75
458.377	380.75
458.598	400.75
458.818	453.75
459.038	558.75
459.258	560.75
459.478	477.75
459.698	414.75
459.918	392.75
460.138	375.75
460.358	373.75
460.578	392.75
460.798	417.75
461.018	400.75
461.238	406.75
461.458	403.75
461.678	399.75
461.898	381.75
462.118	386.75
462.338	408.75
462.558	380.75
462.777	407.75
462.997	386.75
463.217	406.75
463.437	428.75
463.657	404.75
463.876	409.75
464.096	392.75
464.316	404.75
464.536	411.75
464.755	434.75
464.975	428.75
465.195	470.75
465.414	558.75
465.634	488.75
465.854	450.75
466.073	400.75
466.293	417.75
466.512	367.75
466.732	404.75
466.951	406.75
467.171	376.75
467.391	398.75
467.61	394.75
467.829	398.75
468.049	382.75
468.268	402.75
468.488	396.75
468.707	368.75
468.927	384.75
469.146	365.75
469.365	358.75
469.585	374.75
469.804	402.75
470.023	406.75
470.243	379.75
470.462	399.75
470.681	416.75
470.901	421.75
471.12	387.75
471.339	408.75
471.558	386.75
471.777	399.75
471.997	391.75
472.216	403.75
472.435	430.75
472.654	420.75
472.873	407.75
473.092	399.75
473.311	379.75
473.53	390.75
473.749	418.75
473.968	476.75
474.187	543.75
474.406	578.75
474.625	466.75
474.844	399.75
475.063	398.75
475.282	397.75
475.501	391.75
475.72	396.75
475.939	398.75
476.158	424.75
476.377	408.75
476.596	400.75
476.814	414.75
477.033	412.75
477.252	416.75
477.471	412.75
477.69	406.75
477.908	419.75
478.127	428.75
478.346	426.75
478.564	432.75
478.783	443.75
479.002	425.75
479.22	436.75
479.439	458.75
479.658	458.75
479.876	464.75
480.095	477.75
480.313	494.75
480.532	505.75
480.751	459.75
480.969	483.75
481.188	546.75
481.406	585.75
481.624	507.75
481.843	503.75
482.061	483.75
482.28	459.75
482.498	457.75
482.717	450.75
482.935	451.75
483.153	454.75
483.372	492.75
483.59	458.75
483.808	447.75
484.027	454.75
484.245	463.75
484.463	468.75
484.681	447.75
484.9	471.75
485.118	462.75
485.336	455.75
485.554	469.75
485.772	483.75
485.99	482.75
486.209	480.75
486.427	485.75
486.645	492.75
486.863	501.75
487.081	526.75
487.299	496.75
487.517	504.75
487.735	501.75
487.953	484.75
488.171	501.75
488.389	491.75
488.607	502.75
488.825	514.75
489.043	484.75
489.261	498.75
489.479	506.75
489.696	484.75
489.914	496.75
490.132	519.75
490.35	507.75
490.568	501.75
490.786	503.75
491.003	547.75
491.221	537.75
491.439	549.75
491.657	568.75
491.874	578.75
492.092	585.75
492.31	558.75
492.527	576.75
492.745	566.75
492.963	581.75
493.18	572.75
493.398	610.75
493.615	588.75
493.833	588.75
494.05	589.75
494.268	598.75
494.485	576.75
494.703	580.75
494.92	578.75
495.138	612.75
495.355	595.75
495.573	602.75
495.79	581.75
496.008	587.75
496.225	585.75
496.442	590.75
496.66	574.75
496.877	597.75
497.094	588.75
497.312	582.75
497.529	603.75
497.746	628.75
497.963	623.75
498.181	624.75
498.398	636.75
498.615	651.75
498.832	624.75
499.049	639.75
499.267	662.75
499.484	664.75
499.701	664.75
499.918	662.75
500.135	680.75
500.352	691.75
500.569	719.75
500.786	720.75
501.003	707.75
501.22	705.75
501.437	717.75
501.654	723.75
501.871	729.75
502.088	674.75
502.305	650.75
502.522	655.75
502.739	644.75
502.956	622.75
503.172	620.75
503.389	605.75
503.606	586.75
503.823	621.75
504.04	611.75
504.256	613.75
504.473	586.75
504.69	594.75
504.907	591.75
505.123	560.75
505.34	576.75
505.557	593.75
505.773	566.75
505.99	584.75
506.207	591.75
506.423	586.75
506.64	592.75
506.856	563.75
507.073	582.75
507.289	568.75
507.506	576.75
507.722	580.75
507.939	595.75
508.155	568.75
508.372	575.75
508.588	552.75
508.805	568.75
509.021	566.75
509.238	566.75
509.454	564.75
509.67	565.75
509.887	553.75
510.103	588.75
510.319	548.75
510.536	662.75
510.752	1116.75
510.968	902.75
511.184	612.75
511.401	578.75
511.617	550.75
511.833	542.75
512.049	545.75
512.265	532.75
512.481	512.75
512.698	536.75
512.914	527.75
513.13	542.75
513.346	522.75
513.562	543.75
513.778	527.75
513.994	542.75
514.21	566.75
514.426	548.75
514.642	626.75
514.858	646.75
515.074	694.75
515.29	840.75
515.506	1228.75
515.721	1019.75
515.937	671.75
516.153	610.75
516.369	536.75
516.585	558.75
516.801	540.75
517.016	546.75
517.232	535.75
517.448	543.75
517.664	535.75
517.879	536.75
518.095	538.75
518.311	552.75
518.527	535.75
518.742	532.75
518.958	513.75
519.173	527.75
519.389	533.75
519.605	539.75
519.82	548.75
520.036	562.75
520.251	568.75
520.467	581.75
520.682	584.75
520.898	615.75
521.113	624.75
521.329	644.75
521.544	794.75
521.76	1002.75
521.975	1672.75
522.19	1579.75
522.406	854.75
522.621	660.75
522.836	548.75
523.052	525.75
523.267	520.75
523.482	492.75
523.698	502.75
523.913	508.75
524.128	495.75
524.343	482.75
524.559	483.75
524.774	438.75
524.989	468.75
525.204	458.75
525.419	468.75
525.634	450.75
525.849	455.75
526.064	426.75
526.28	446.75
526.495	431.75
526.71	447.75
526.925	428.75
527.14	431.75
527.355	410.75
527.57	412.75
527.785	400.75
527.999	418.75
528.214	414.75
528.429	418.75
528.644	420.75
528.859	420.75
529.074	427.75
529.289	444.75
529.503	520.75
529.718	536.75
529.933	455.75
530.148	442.75
530.363	440.75
530.577	429.75
530.792	426.75
531.007	393.75
531.221	437.75
531.436	411.75
531.651	406.75
531.865	392.75
532.08	402.75
532.295	386.75
532.509	400.75
532.724	390.75
532.938	390.75
533.153	393.75
533.367	404.75
533.582	412.75
533.796	392.75
534.011	386.75
534.225	399.75
534.44	408.75
534.654	392.75
534.868	384.75
535.083	385.75
535.297	374.75
535.511	411.75
535.726	404.75
535.94	401.75
536.154	396.75
536.369	392.75
536.583	386.75
536.797	395.75
537.011	375.75
537.225	404.75
537.44	380.75
537.654	381.75
537.868	387.75
538.082	390.75
538.296	406.75
538.51	377.75
538.724	414.75
538.938	398.75
539.153	392.75
539.367	389.75
539.581	400.75
539.795	383.75
540.009	375.75
540.222	390.75
540.436	404.75
540.65	399.75
540.864	396.75
541.078	414.75
541.292	410.75
541.506	407.75
541.72	410.75
541.934	376.75
542.147	396.75
542.361	371.75
542.575	370.75
542.789	386.75
543.002	382.75
543.216	389.75
543.43	380.75
543.644	382.75
543.857	375.75
544.071	392.75
544.285	391.75
544.498	380.75
544.712	376.75
544.925	363.75
545.139	372.75
545.352	383.75
545.566	372.75
545.779	360.75
545.993	356.75
546.206	363.75
546.42	356.75
546.633	367.75
546.847	388.75
547.06	354.75
547.274	372.75
547.487	356.75
547.7	344.75
547.914	350.75
548.127	335.75
548.34	350.75
548.554	333.75
548.767	358.75
548.98	356.75
549.193	334.75
549.407	361.75
549.62	356.75
549.833	365.75
550.046	346.75
550.259	329.75
550.473	346.75
550.686	342.75
550.899	355.75
551.112	331.75
551.325	363.75
551.538	361.75
551.751	347.75
551.964	350.75
552.177	336.75
552.39	344.75
552.603	353.75
552.816	351.75
553.029	363.75
553.242	333.75
553.455	339.75
553.667	370.75
553.88	366.75
554.093	353.75
554.306	370.75
554.519	360.75
554.732	358.75
554.944	333.75
555.157	343.75
555.37	345.75
555.583	349.75
555.795	330.75
556.008	334.75
556.221	320.75
556.433	328.75
556.646	334.75
556.859	329.75
557.071	336.75
557.284	325.75
557.496	331.75
557.709	336.75
557.921	332.75
558.134	311.75
558.346	312.75
558.559	340.75
558.771	310.75
558.984	313.75
559.196	306.75
559.409	316.75
559.621	321.75
559.833	320.75
560.046	305.75
560.258	320.75
560.47	312.75
560.683	322.75
560.895	310.75
561.107	302.75
561.32	316.75
561.532	320.75
561.744	314.75
561.956	313.75
562.168	311.75
562.381	316.75
562.593	327.75
562.805	328.75
563.017	327.75
563.229	299.75
563.441	315.75
563.653	328.75
563.865	331.75
564.077	304.75
564.289	310.75
564.501	334.75
564.713	312.75
564.925	316.75
565.137	347.75
565.349	333.75
565.561	329.75
565.773	348.75
565.985	356.75
566.197	343.75
566.408	333.75
566.62	353.75
566.832	356.75
567.044	338.75
567.255	351.75
567.467	359.75
567.679	358.75
567.891	368.75
568.102	346.75
568.314	335.75
568.526	346.75
568.737	347.75
568.949	333.75
569.161	292.75
569.372	308.75
569.584	313.75
569.795	310.75
570.007	332.75
570.218	359.75
570.43	362.75
570.641	310.75
570.853	296.75
571.064	300.75
571.276	288.75
571.487	284.75
571.698	307.75
571.91	287.75
572.121	300.75
572.333	285.75
572.544	286.75
572.755	281.75
572.966	270.75
573.178	272.75
573.389	278.75
573.6	263.75
573.811	286.75
574.023	274.75
574.234	278.75
574.445	260.75
574.656	260.75
574.867	280.75
575.078	287.75
575.289	276.75
575.501	283.75
575.712	279.75
575.923	292.75
576.134	286.75
576.345	263.75
576.556	275.75
576.767	283.75
576.978	282.75
577.188	273.75
577.399	256.75
577.61	282.75
577.821	260.75
578.032	295.75
578.243	298.75
578.454	511.75
578.665	386.75
578.875	298.75
579.086	270.75
579.297	272.75
579.508	290.75
579.718	263.75
579.929	275.75
580.14	265.75
580.35	252.75
580.561	271.75
580.772	260.75
580.982	252.75
581.193	248.75
581.403	248.75
581.614	266.75
581.825	245.75
582.035	240.75
582.246	261.75
582.456	260.75
582.667	246.75
582.877	261.75
583.087	249.75
583.298	271.75
583.508	248.75
583.719	250.75
583.929	237.75
584.139	227.75
584.35	252.75
584.56	237.75
584.77	239.75
584.981	262.75
585.191	249.75
585.401	253.75
585.611	248.75
585.821	256.75
586.032	252.75
586.242	240.75
586.452	236.75
586.662	239.75
586.872	230.75
587.082	246.75
587.292	263.75
587.502	245.75
587.713	248.75
587.923	247.75
588.133	244.75
588.343	242.75
588.553	228.75
588.762	258.75
588.972	244.75
589.182	255.75
589.392	258.75
589.602	250.75
589.812	244.75
590.022	260.75
590.232	244.75
590.441	227.75
590.651	232.75
590.861	222.75
591.071	221.75
591.281	242.75
591.49	248.75
591.7	239.75
591.91	246.75
592.119	225.75
592.329	246.75
592.539	243.75
592.748	244.75
592.958	260.75
593.167	237.75
593.377	246.75
593.587	240.75
593.796	238.75
594.006	231.75
594.215	241.75
594.424	238.75
594.634	247.75
594.843	229.75
595.053	242.75
595.262	248.75
595.472	212.75
595.681	223.75
595.89	233.75
596.1	225.75
596.309	238.75
596.518	229.75
596.727	214.75
596.937	220.75
597.146	228.75
597.355	221.75
597.564	229.75
597.774	242.75
597.983	227.75
598.192	208.75
598.401	209.75
598.61	219.75
598.819	228.75
599.028	228.75
599.237	204.75
599.446	208.75
599.655	238.75
599.864	224.75
600.073	198.75
600.282	208.75
600.491	215.75
600.7	230.75
600.909	219.75
601.118	227.75
601.327	211.75
601.536	211.75
601.745	228.75
601.953	219.75
602.162	231.75
602.371	204.75
602.58	205.75
602.789	193.75
602.997	206.75
603.206	223.75
603.415	214.75
603.623	216.75
603.832	216.75
604.041	224.75
604.249	203.75
604.458	204.75
604.666	221.75
604.875	227.75
605.084	206.75
605.292	203.75
605.501	199.75
605.709	211.75
605.918	208.75
606.126	206.75
606.334	214.75
606.543	204.75
606.751	199.75
606.96	220.75
607.168	210.75
607.376	196.75
607.585	208.75
607.793	204.75
608.001	221.75
608.21	200.75
608.418	211.75
608.626	197.75
608.834	205.75
609.043	206.75
609.251	204.75
609.459	201.75
609.667	210.75
609.875	201.75
610.083	198.75
610.291	203.75
610.499	199.75
610.707	178.75
610.916	211.75
611.124	205.75
611.332	193.75
611.54	215.75
611.748	206.75
611.955	200.75
612.163	199.75
612.371	197.75
612.579	191.75
612.787	190.75
612.995	203.75
613.203	201.75
613.411	210.75
613.618	208.75
613.826	211.75
614.034	199.75
614.242	205.75
614.449	204.75
614.657	197.75
614.865	191.75
615.072	206.75
615.28	179.75
615.488	197.75
615.695	193.75
615.903	192.75
616.111	215.75
616.318	196.75
616.526	203.75
616.733	202.75
616.941	186.75
617.148	188.75
617.356	204.75
617.563	190.75
617.771	204.75
617.978	185.75
618.185	198.75
618.393	211.75
618.6	188.75
618.807	198.75
619.015	194.75
619.222	197.75
619.429	203.75
619.637	189.75
619.844	184.75
620.051	190.75
620.258	195.75
620.466	189.75
620.673	197.75
620.88	169.75
621.087	189.75
621.294	199.75
621.501	194.75
621.708	186.75
621.915	198.75
622.122	180.75
622.329	200.75
622.536	174.75
622.743	187.75
622.95	173.75
623.157	172.75
623.364	181.75
623.571	174.75
623.778	174.75
623.985	175.75
624.192	178.75
624.399	174.75
624.606	176.75
624.812	181.75
625.019	182.75
625.226	183.75
625.433	179.75
625.639	180.75
625.846	191.75
626.053	173.75
626.259	174.75
626.466	163.75
626.673	178.75
626.879	161.75
627.086	168.75
627.293	167.75
627.499	166.75
627.706	181.75
627.912	175.75
628.119	155.75
628.325	156.75
628.532	169.75
628.738	170.75
628.945	171.75
629.151	161.75
629.357	157.75
629.564	172.75
629.77	173.75
629.976	166.75
630.183	187.75
630.389	168.75
630.595	184.75
630.802	183.75
631.008	186.75
631.214	164.75
631.42	176.75
631.627	175.75
631.833	169.75
632.039	164.75
632.245	159.75
632.451	151.75
632.657	163.75
632.863	166.75
633.069	167.75
633.275	163.75
633.481	160.75
633.688	148.75
633.893	154.75
634.099	156.75
634.305	171.75
634.511	148.75
634.717	156.75
634.923	156.75
635.129	150.75
635.335	148.75
635.541	155.75
635.747	169.75
635.952	146.75
636.158	150.75
636.364	159.75
636.57	179.75
636.775	173.75
636.981	147.75
637.187	172.75
637.392	143.75
637.598	164.75
637.804	161.75
638.009	154.75
638.215	143.75
638.421	154.75
638.626	154.75
638.832	159.75
639.037	162.75
639.243	145.75
639.448	152.75
639.654	141.75
639.859	146.75
640.065	167.75
640.27	156.75
640.475	154.75
640.681	134.75
640.886	165.75
641.091	152.75
641.297	154.75
641.502	139.75
641.707	158.75
641.913	164.75
642.118	158.75
642.323	163.75
642.528	171.75
642.733	158.75
642.939	144.75
643.144	141.75
643.349	131.75
643.554	154.75
643.759	141.75
643.964	162.75
644.169	147.75
644.374	148.75
644.579	155.75
644.784	150.75
644.989	131.75
645.194	143.75
645.399	142.75
645.604	145.75
645.809	126.75
646.014	146.75
646.219	157.75
646.423	154.75
646.628	137.75
646.833	141.75
647.038	139.75
647.243	157.75
647.447	135.75
647.652	162.75
647.857	152.75
648.062	139.75
648.266	140.75
648.471	156.75
648.676	154.75
648.88	148.75
649.085	137.75
649.289	152.75
649.494	153.75
649.698	166.75
649.903	165.75
650.107	171.75
650.312	156.75
650.516	148.75
650.721	145.75
650.925	141.75
651.13	133.75
651.334	141.75
651.539	141.75
651.743	138.75
651.947	134.75
652.152	127.75
652.356	124.75
652.56	122.75
652.764	126.75
652.969	121.75
653.173	135.75
653.377	121.75
653.581	127.75
653.785	119.75
653.99	118.75
654.194	140.75
654.398	121.75
654.602	130.75
654.806	126.75
655.01	138.75
655.214	127.75
655.418	132.75
655.622	120.75
655.826	126.75
656.03	134.75
656.234	108.75
656.438	122.75
656.642	134.75
656.846	130.75
657.049	124.75
657.253	111.75
657.457	120.75
657.661	111.75
657.865	111.75
658.068	111.75
658.272	107.75
658.476	103.75
658.68	112.75
658.883	115.75
659.087	102.75
659.291	91.75
659.494	99.75
659.698	98.75
659.901	91.75
660.105	87.75
660.309	91.75
660.512	106.75
660.716	99.75
660.919	95.75
661.123	82.75
661.326	91.75
661.53	89.75
661.733	85.75
661.936	87.75
662.14	95.75
662.343	83.75
662.546	77.75
662.75	99.75
662.953	78.75
663.156	83.75
663.36	97.75
663.563	88.75
663.766	103.75
663.969	84.75
664.173	74.75
664.376	78.75
664.579	89.75
664.782	85.75
664.985	80.75
665.188	76.75
665.391	84.75
665.594	71.75
665.797	75.75
666	92.75
666.203	86.75
666.406	83.75
666.609	80.75
666.812	71.75
667.015	82.75
667.218	79.75
667.421	86.75
667.624	81.75
667.827	69.75
668.03	77.75
668.232	93.75
668.435	89.75
668.638	70.75
668.841	82.75
669.043	88.75
669.246	73.75
669.449	73.75
669.651	88.75
669.854	85.75
670.057	83.75
670.259	78.75
670.462	88.75
670.665	81.75
670.867	79.75
671.07	93.75
671.272	72.75
671.475	81.75
671.677	90.75
671.88	57.75
672.082	74.75
672.284	76.75
672.487	79.75
672.689	77.75
672.892	94.75
