Data from 1981.PennyLincolnUp.Lamp.En5.5.200Scan.071819.P1_HRD10591_16-40-31-958.txt Node
Date: Thu Jul 18 16:40:31 EDT 2019
User: cochatt
Spectrometer: HR+D1059
Trigger mode: 1
Integration Time (sec): 1.000000E-1
Scans to average: 1
Electric dark correction enabled: true
Nonlinearity correction enabled: false
Boxcar width: 0
XAxis mode: Wavelengths
Number of Pixels in Spectrum: 2048
>>>>>Begin Spectral Data<<<<<
223.165	-20.62
223.4	-20.62
223.635	-20.62
223.869	-10.62
224.104	-9.62
224.338	-15.62
224.573	-18.62
224.808	-17.62
225.042	-15.62
225.277	-8.62
225.511	-0.62
225.746	22.38
225.98	9.38
226.215	5.38
226.449	9.38
226.683	18.38
226.918	21.38
227.152	31.38
227.387	42.38
227.621	26.38
227.856	31.38
228.09	54.38
228.324	49.38
228.559	54.38
228.793	62.38
229.027	82.38
229.262	102.38
229.496	98.38
229.73	114.38
229.964	136.38
230.199	112.38
230.433	100.38
230.667	97.38
230.901	100.38
231.136	97.38
231.37	95.38
231.604	107.38
231.838	93.38
232.072	112.38
232.306	86.38
232.541	92.38
232.775	115.38
233.009	105.38
233.243	109.38
233.477	96.38
233.711	98.38
233.945	111.38
234.179	101.38
234.413	96.38
234.647	117.38
234.881	106.38
235.115	106.38
235.349	100.38
235.583	99.38
235.817	98.38
236.051	118.38
236.285	112.38
236.519	115.38
236.753	96.38
236.987	123.38
237.221	139.38
237.455	176.38
237.689	146.38
237.922	125.38
238.156	127.38
238.39	118.38
238.624	119.38
238.858	112.38
239.091	96.38
239.325	119.38
239.559	100.38
239.793	112.38
240.027	135.38
240.26	123.38
240.494	143.38
240.728	122.38
240.961	140.38
241.195	126.38
241.429	113.38
241.662	118.38
241.896	108.38
242.13	128.38
242.363	118.38
242.597	107.38
242.83	116.38
243.064	115.38
243.298	120.38
243.531	115.38
243.765	113.38
243.998	119.38
244.232	119.38
244.465	123.38
244.699	120.38
244.932	136.38
245.166	135.38
245.399	130.38
245.633	118.38
245.866	146.38
246.099	117.38
246.333	133.38
246.566	130.38
246.8	160.38
247.033	138.38
247.266	142.38
247.5	130.38
247.733	138.38
247.966	154.38
248.2	144.38
248.433	156.38
248.666	161.38
248.899	158.38
249.133	168.38
249.366	166.38
249.599	180.38
249.832	169.38
250.066	136.38
250.299	156.38
250.532	161.38
250.765	174.38
250.998	190.38
251.231	190.38
251.465	195.38
251.698	177.38
251.931	185.38
252.164	179.38
252.397	161.38
252.63	158.38
252.863	171.38
253.096	184.38
253.329	185.38
253.562	199.38
253.795	195.38
254.028	169.38
254.261	177.38
254.494	193.38
254.727	208.38
254.96	231.38
255.193	228.38
255.426	215.38
255.659	204.38
255.892	211.38
256.124	180.38
256.357	191.38
256.59	196.38
256.823	183.38
257.056	186.38
257.289	192.38
257.521	184.38
257.754	209.38
257.987	201.38
258.22	174.38
258.452	195.38
258.685	195.38
258.918	185.38
259.151	194.38
259.383	180.38
259.616	184.38
259.849	192.38
260.081	201.38
260.314	201.38
260.547	224.38
260.779	213.38
261.012	193.38
261.244	199.38
261.477	193.38
261.71	193.38
261.942	183.38
262.175	190.38
262.407	198.38
262.64	178.38
262.872	188.38
263.105	188.38
263.337	177.38
263.57	195.38
263.802	180.38
264.035	188.38
264.267	202.38
264.499	192.38
264.732	186.38
264.964	207.38
265.197	190.38
265.429	174.38
265.661	196.38
265.894	203.38
266.126	173.38
266.358	192.38
266.591	185.38
266.823	190.38
267.055	197.38
267.287	203.38
267.52	186.38
267.752	178.38
267.984	193.38
268.216	196.38
268.448	190.38
268.681	201.38
268.913	212.38
269.145	200.38
269.377	210.38
269.609	242.38
269.841	212.38
270.073	232.38
270.306	241.38
270.538	251.38
270.77	263.38
271.002	250.38
271.234	226.38
271.466	235.38
271.698	254.38
271.93	270.38
272.162	259.38
272.394	255.38
272.626	240.38
272.858	238.38
273.09	236.38
273.322	201.38
273.553	214.38
273.785	224.38
274.017	221.38
274.249	241.38
274.481	209.38
274.713	214.38
274.945	222.38
275.176	221.38
275.408	244.38
275.64	235.38
275.872	206.38
276.104	234.38
276.335	234.38
276.567	233.38
276.799	236.38
277.031	226.38
277.262	259.38
277.494	260.38
277.726	247.38
277.957	252.38
278.189	228.38
278.421	242.38
278.652	228.38
278.884	234.38
279.115	237.38
279.347	232.38
279.579	215.38
279.81	211.38
280.042	240.38
280.273	222.38
280.505	222.38
280.736	211.38
280.968	214.38
281.199	224.38
281.431	224.38
281.662	207.38
281.894	218.38
282.125	218.38
282.356	219.38
282.588	246.38
282.819	238.38
283.051	234.38
283.282	225.38
283.513	223.38
283.745	229.38
283.976	218.38
284.207	209.38
284.439	231.38
284.67	228.38
284.901	235.38
285.132	224.38
285.364	223.38
285.595	219.38
285.826	233.38
286.057	239.38
286.288	258.38
286.52	230.38
286.751	231.38
286.982	238.38
287.213	246.38
287.444	234.38
287.675	230.38
287.906	236.38
288.138	243.38
288.369	221.38
288.6	237.38
288.831	224.38
289.062	226.38
289.293	239.38
289.524	228.38
289.755	264.38
289.986	245.38
290.217	238.38
290.448	234.38
290.679	221.38
290.91	223.38
291.141	235.38
291.371	229.38
291.602	248.38
291.833	229.38
292.064	233.38
292.295	228.38
292.526	243.38
292.757	235.38
292.987	246.38
293.218	255.38
293.449	243.38
293.68	248.38
293.91	251.38
294.141	249.38
294.372	241.38
294.603	243.38
294.833	242.38
295.064	249.38
295.295	226.38
295.525	226.38
295.756	256.38
295.987	260.38
296.217	251.38
296.448	263.38
296.679	258.38
296.909	256.38
297.14	244.38
297.37	234.38
297.601	243.38
297.831	235.38
298.062	229.38
298.292	254.38
298.523	240.38
298.753	243.38
298.984	269.38
299.214	228.38
299.445	240.38
299.675	229.38
299.905	268.38
300.136	248.38
300.366	249.38
300.597	267.38
300.827	257.38
301.057	265.38
301.288	267.38
301.518	276.38
301.748	274.38
301.979	266.38
302.209	287.38
302.439	261.38
302.669	258.38
302.9	256.38
303.13	258.38
303.36	286.38
303.59	273.38
303.82	269.38
304.051	283.38
304.281	275.38
304.511	264.38
304.741	267.38
304.971	260.38
305.201	274.38
305.431	259.38
305.661	268.38
305.891	258.38
306.121	257.38
306.352	271.38
306.582	295.38
306.812	262.38
307.042	261.38
307.272	266.38
307.502	277.38
307.731	264.38
307.961	277.38
308.191	272.38
308.421	251.38
308.651	290.38
308.881	281.38
309.111	278.38
309.341	293.38
309.571	287.38
309.8	293.38
310.03	302.38
310.26	292.38
310.49	297.38
310.72	303.38
310.949	332.38
311.179	330.38
311.409	313.38
311.639	293.38
311.868	307.38
312.098	308.38
312.328	302.38
312.557	310.38
312.787	312.38
313.017	303.38
313.246	312.38
313.476	295.38
313.706	306.38
313.935	314.38
314.165	320.38
314.394	337.38
314.624	324.38
314.853	311.38
315.083	313.38
315.312	299.38
315.542	288.38
315.771	299.38
316.001	295.38
316.23	319.38
316.46	300.38
316.689	307.38
316.919	292.38
317.148	327.38
317.377	308.38
317.607	324.38
317.836	307.38
318.065	299.38
318.295	290.38
318.524	302.38
318.753	309.38
318.983	314.38
319.212	325.38
319.441	302.38
319.67	309.38
319.9	311.38
320.129	310.38
320.358	314.38
320.587	319.38
320.816	318.38
321.046	336.38
321.275	323.38
321.504	308.38
321.733	324.38
321.962	343.38
322.191	314.38
322.42	335.38
322.649	349.38
322.878	354.38
323.108	361.38
323.337	377.38
323.566	404.38
323.795	416.38
324.024	446.38
324.253	529.38
324.482	790.38
324.71	1116.38
324.939	1553.38
325.168	1322.38
325.397	693.38
325.626	515.38
325.855	424.38
326.084	408.38
326.313	392.38
326.542	399.38
326.77	454.38
326.999	505.38
327.228	697.38
327.457	992.38
327.686	1145.38
327.914	754.38
328.143	538.38
328.372	471.38
328.6	446.38
328.829	446.38
329.058	431.38
329.287	427.38
329.515	400.38
329.744	395.38
329.972	378.38
330.201	395.38
330.43	421.38
330.658	418.38
330.887	440.38
331.115	430.38
331.344	408.38
331.572	391.38
331.801	370.38
332.03	378.38
332.258	372.38
332.486	344.38
332.715	342.38
332.943	349.38
333.172	360.38
333.4	362.38
333.629	369.38
333.857	355.38
334.085	366.38
334.314	377.38
334.542	386.38
334.771	381.38
334.999	374.38
335.227	371.38
335.455	370.38
335.684	341.38
335.912	347.38
336.14	345.38
336.369	362.38
336.597	351.38
336.825	352.38
337.053	342.38
337.281	337.38
337.51	335.38
337.738	330.38
337.966	346.38
338.194	346.38
338.422	339.38
338.65	336.38
338.878	361.38
339.106	326.38
339.334	337.38
339.562	326.38
339.79	330.38
340.018	330.38
340.246	348.38
340.474	345.38
340.702	339.38
340.93	326.38
341.158	334.38
341.386	339.38
341.614	332.38
341.842	334.38
342.07	334.38
342.298	340.38
342.526	330.38
342.754	324.38
342.981	324.38
343.209	326.38
343.437	344.38
343.665	336.38
343.893	353.38
344.12	352.38
344.348	356.38
344.576	321.38
344.804	344.38
345.031	344.38
345.259	361.38
345.487	345.38
345.714	361.38
345.942	352.38
346.17	337.38
346.397	318.38
346.625	324.38
346.853	328.38
347.08	319.38
347.308	331.38
347.535	335.38
347.763	314.38
347.99	328.38
348.218	340.38
348.445	338.38
348.673	346.38
348.9	336.38
349.128	308.38
349.355	326.38
349.583	309.38
349.81	310.38
350.037	340.38
350.265	333.38
350.492	322.38
350.72	315.38
350.947	314.38
351.174	321.38
351.402	305.38
351.629	316.38
351.856	318.38
352.083	325.38
352.311	332.38
352.538	305.38
352.765	343.38
352.992	323.38
353.22	332.38
353.447	327.38
353.674	320.38
353.901	331.38
354.128	310.38
354.355	306.38
354.583	314.38
354.81	303.38
355.037	313.38
355.264	329.38
355.491	299.38
355.718	316.38
355.945	324.38
356.172	292.38
356.399	308.38
356.626	299.38
356.853	296.38
357.08	309.38
357.307	291.38
357.534	300.38
357.761	297.38
357.988	291.38
358.215	297.38
358.441	301.38
358.668	284.38
358.895	309.38
359.122	324.38
359.349	314.38
359.576	307.38
359.802	335.38
360.029	333.38
360.256	345.38
360.483	335.38
360.709	335.38
360.936	337.38
361.163	327.38
361.39	312.38
361.616	322.38
361.843	315.38
362.07	314.38
362.296	324.38
362.523	315.38
362.749	300.38
362.976	286.38
363.203	323.38
363.429	304.38
363.656	302.38
363.882	299.38
364.109	309.38
364.335	317.38
364.562	294.38
364.788	313.38
365.015	306.38
365.241	296.38
365.468	302.38
365.694	293.38
365.92	302.38
366.147	311.38
366.373	294.38
366.599	306.38
366.826	302.38
367.052	323.38
367.278	295.38
367.505	302.38
367.731	296.38
367.957	289.38
368.184	293.38
368.41	294.38
368.636	312.38
368.862	323.38
369.089	301.38
369.315	290.38
369.541	307.38
369.767	302.38
369.993	300.38
370.219	304.38
370.445	306.38
370.672	305.38
370.898	308.38
371.124	316.38
371.35	292.38
371.576	312.38
371.802	317.38
372.028	316.38
372.254	300.38
372.48	313.38
372.706	308.38
372.932	310.38
373.158	304.38
373.384	282.38
373.61	288.38
373.835	306.38
374.061	314.38
374.287	306.38
374.513	312.38
374.739	312.38
374.965	308.38
375.191	297.38
375.416	320.38
375.642	293.38
375.868	291.38
376.094	315.38
376.319	313.38
376.545	279.38
376.771	302.38
376.997	280.38
377.222	307.38
377.448	286.38
377.674	299.38
377.899	300.38
378.125	285.38
378.35	298.38
378.576	286.38
378.802	290.38
379.027	308.38
379.253	292.38
379.478	308.38
379.704	285.38
379.929	291.38
380.155	303.38
380.38	299.38
380.606	291.38
380.831	296.38
381.057	313.38
381.282	304.38
381.507	314.38
381.733	309.38
381.958	292.38
382.184	286.38
382.409	298.38
382.634	302.38
382.86	314.38
383.085	294.38
383.31	326.38
383.535	298.38
383.761	288.38
383.986	297.38
384.211	312.38
384.436	318.38
384.662	296.38
384.887	304.38
385.112	318.38
385.337	315.38
385.562	326.38
385.787	331.38
386.013	323.38
386.238	297.38
386.463	308.38
386.688	318.38
386.913	312.38
387.138	322.38
387.363	320.38
387.588	335.38
387.813	321.38
388.038	328.38
388.263	318.38
388.488	309.38
388.713	306.38
388.938	330.38
389.163	329.38
389.387	321.38
389.612	312.38
389.837	310.38
390.062	329.38
390.287	304.38
390.512	322.38
390.736	323.38
390.961	323.38
391.186	320.38
391.411	325.38
391.636	313.38
391.86	299.38
392.085	319.38
392.31	304.38
392.534	319.38
392.759	331.38
392.984	319.38
393.208	319.38
393.433	319.38
393.658	325.38
393.882	315.38
394.107	326.38
394.331	304.38
394.556	300.38
394.78	320.38
395.005	322.38
395.229	314.38
395.454	338.38
395.678	310.38
395.903	329.38
396.127	314.38
396.352	338.38
396.576	338.38
396.801	326.38
397.025	326.38
397.249	311.38
397.474	318.38
397.698	339.38
397.922	344.38
398.147	358.38
398.371	345.38
398.595	329.38
398.82	344.38
399.044	345.38
399.268	353.38
399.492	354.38
399.717	371.38
399.941	402.38
400.165	408.38
400.389	426.38
400.613	403.38
400.837	386.38
401.062	362.38
401.286	348.38
401.51	355.38
401.734	342.38
401.958	331.38
402.182	359.38
402.406	352.38
402.63	369.38
402.854	355.38
403.078	347.38
403.302	362.38
403.526	354.38
403.75	353.38
403.974	355.38
404.198	368.38
404.422	353.38
404.645	374.38
404.869	366.38
405.093	370.38
405.317	376.38
405.541	414.38
405.765	382.38
405.988	363.38
406.212	377.38
406.436	386.38
406.66	393.38
406.883	402.38
407.107	402.38
407.331	425.38
407.555	463.38
407.778	466.38
408.002	428.38
408.226	400.38
408.449	394.38
408.673	395.38
408.896	415.38
409.12	430.38
409.344	412.38
409.567	348.38
409.791	355.38
410.014	353.38
410.238	341.38
410.461	344.38
410.685	377.38
410.908	383.38
411.132	390.38
411.355	401.38
411.578	406.38
411.802	366.38
412.025	355.38
412.249	336.38
412.472	375.38
412.695	407.38
412.919	387.38
413.142	341.38
413.365	331.38
413.589	331.38
413.812	335.38
414.035	306.38
414.258	336.38
414.482	336.38
414.705	344.38
414.928	326.38
415.151	341.38
415.374	335.38
415.597	339.38
415.821	327.38
416.044	339.38
416.267	310.38
416.49	346.38
416.713	326.38
416.936	327.38
417.159	341.38
417.382	347.38
417.605	343.38
417.828	329.38
418.051	359.38
418.274	361.38
418.497	341.38
418.72	331.38
418.943	324.38
419.166	346.38
419.389	349.38
419.611	348.38
419.834	345.38
420.057	339.38
420.28	346.38
420.503	338.38
420.726	331.38
420.948	358.38
421.171	388.38
421.394	412.38
421.617	369.38
421.839	366.38
422.062	354.38
422.285	357.38
422.507	386.38
422.73	444.38
422.953	442.38
423.175	383.38
423.398	363.38
423.621	368.38
423.843	365.38
424.066	396.38
424.288	370.38
424.511	377.38
424.733	434.38
424.956	465.38
425.178	451.38
425.401	455.38
425.623	465.38
425.846	411.38
426.068	375.38
426.291	376.38
426.513	392.38
426.735	380.38
426.958	424.38
427.18	471.38
427.402	602.38
427.625	601.38
427.847	505.38
428.069	457.38
428.292	403.38
428.514	395.38
428.736	372.38
428.958	361.38
429.181	376.38
429.403	357.38
429.625	370.38
429.847	376.38
430.069	430.38
430.292	431.38
430.514	354.38
430.736	330.38
430.958	345.38
431.18	320.38
431.402	346.38
431.624	340.38
431.846	324.38
432.068	315.38
432.29	332.38
432.512	320.38
432.734	363.38
432.956	340.38
433.178	343.38
433.4	336.38
433.622	316.38
433.844	322.38
434.066	320.38
434.287	325.38
434.509	343.38
434.731	332.38
434.953	349.38
435.175	364.38
435.397	358.38
435.618	374.38
435.84	417.38
436.062	472.38
436.284	508.38
436.505	441.38
436.727	390.38
436.949	372.38
437.17	348.38
437.392	345.38
437.614	382.38
437.835	384.38
438.057	440.38
438.278	530.38
438.5	554.38
438.721	569.38
438.943	537.38
439.165	436.38
439.386	388.38
439.608	387.38
439.829	366.38
440.05	410.38
440.272	442.38
440.493	395.38
440.715	361.38
440.936	368.38
441.158	343.38
441.379	362.38
441.6	366.38
441.822	366.38
442.043	395.38
442.264	454.38
442.486	476.38
442.707	424.38
442.928	401.38
443.149	404.38
443.371	405.38
443.592	452.38
443.813	506.38
444.034	557.38
444.255	447.38
444.476	406.38
444.698	374.38
444.919	366.38
445.14	474.38
445.361	444.38
445.582	407.38
445.803	446.38
446.024	509.38
446.245	531.38
446.466	483.38
446.687	410.38
446.908	376.38
447.129	382.38
447.35	347.38
447.571	336.38
447.792	352.38
448.013	355.38
448.234	380.38
448.455	393.38
448.675	491.38
448.896	563.38
449.117	485.38
449.338	463.38
449.559	533.38
449.779	596.38
450	465.38
450.221	401.38
450.442	368.38
450.662	357.38
450.883	355.38
451.104	348.38
451.324	367.38
451.545	348.38
451.766	316.38
451.986	323.38
452.207	325.38
452.428	319.38
452.648	311.38
452.869	299.38
453.089	318.38
453.31	331.38
453.53	311.38
453.751	308.38
453.971	314.38
454.192	329.38
454.412	329.38
454.633	320.38
454.853	315.38
455.073	323.38
455.294	335.38
455.514	396.38
455.734	359.38
455.955	329.38
456.175	309.38
456.395	302.38
456.616	299.38
456.836	298.38
457.056	309.38
457.276	314.38
457.497	296.38
457.717	319.38
457.937	297.38
458.157	304.38
458.377	304.38
458.598	327.38
458.818	366.38
459.038	408.38
459.258	417.38
459.478	380.38
459.698	350.38
459.918	336.38
460.138	342.38
460.358	319.38
460.578	326.38
460.798	326.38
461.018	342.38
461.238	343.38
461.458	347.38
461.678	337.38
461.898	349.38
462.118	318.38
462.338	338.38
462.558	343.38
462.777	340.38
462.997	337.38
463.217	357.38
463.437	362.38
463.657	344.38
463.876	345.38
464.096	357.38
464.316	354.38
464.536	336.38
464.755	352.38
464.975	344.38
465.195	377.38
465.414	416.38
465.634	374.38
465.854	362.38
466.073	347.38
466.293	336.38
466.512	337.38
466.732	322.38
466.951	312.38
467.171	324.38
467.391	329.38
467.61	333.38
467.829	345.38
468.049	325.38
468.268	331.38
468.488	325.38
468.707	313.38
468.927	318.38
469.146	301.38
469.365	321.38
469.585	307.38
469.804	319.38
470.023	328.38
470.243	319.38
470.462	339.38
470.681	339.38
470.901	334.38
471.12	327.38
471.339	319.38
471.558	339.38
471.777	318.38
471.997	325.38
472.216	329.38
472.435	337.38
472.654	335.38
472.873	337.38
473.092	323.38
473.311	318.38
473.53	332.38
473.749	344.38
473.968	376.38
474.187	416.38
474.406	437.38
474.625	370.38
474.844	327.38
475.063	350.38
475.282	340.38
475.501	319.38
475.72	332.38
475.939	338.38
476.158	327.38
476.377	331.38
476.596	330.38
476.814	348.38
477.033	347.38
477.252	342.38
477.471	359.38
477.69	333.38
477.908	359.38
478.127	368.38
478.346	357.38
478.564	342.38
478.783	363.38
479.002	378.38
479.22	354.38
479.439	361.38
479.658	402.38
479.876	390.38
480.095	386.38
480.313	422.38
480.532	378.38
480.751	383.38
480.969	395.38
481.188	423.38
481.406	418.38
481.624	398.38
481.843	384.38
482.061	374.38
482.28	380.38
482.498	384.38
482.717	404.38
482.935	399.38
483.153	358.38
483.372	374.38
483.59	376.38
483.808	386.38
484.027	385.38
484.245	407.38
484.463	372.38
484.681	380.38
484.9	400.38
485.118	404.38
485.336	393.38
485.554	396.38
485.772	402.38
485.99	406.38
486.209	393.38
486.427	384.38
486.645	408.38
486.863	403.38
487.081	415.38
487.299	432.38
487.517	419.38
487.735	412.38
487.953	409.38
488.171	412.38
488.389	411.38
488.607	431.38
488.825	403.38
489.043	416.38
489.261	426.38
489.479	427.38
489.696	430.38
489.914	414.38
490.132	416.38
490.35	438.38
490.568	432.38
490.786	427.38
491.003	454.38
491.221	427.38
491.439	457.38
491.657	443.38
491.874	441.38
492.092	450.38
492.31	475.38
492.527	443.38
492.745	453.38
492.963	454.38
493.18	471.38
493.398	479.38
493.615	457.38
493.833	461.38
494.05	474.38
494.268	474.38
494.485	469.38
494.703	473.38
494.92	467.38
495.138	458.38
495.355	455.38
495.573	460.38
495.79	462.38
496.008	471.38
496.225	467.38
496.442	466.38
496.66	472.38
496.877	499.38
497.094	483.38
497.312	491.38
497.529	484.38
497.746	512.38
497.963	515.38
498.181	518.38
498.398	519.38
498.615	536.38
498.832	527.38
499.049	529.38
499.267	536.38
499.484	564.38
499.701	577.38
499.918	594.38
500.135	595.38
500.352	606.38
500.569	588.38
500.786	620.38
501.003	633.38
501.22	595.38
501.437	590.38
501.654	588.38
501.871	581.38
502.088	569.38
502.305	574.38
502.522	546.38
502.739	529.38
502.956	518.38
503.172	520.38
503.389	495.38
503.606	523.38
503.823	514.38
504.04	483.38
504.256	487.38
504.473	482.38
504.69	487.38
504.907	479.38
505.123	487.38
505.34	477.38
505.557	458.38
505.773	473.38
505.99	489.38
506.207	443.38
506.423	489.38
506.64	467.38
506.856	452.38
507.073	450.38
507.289	468.38
507.506	446.38
507.722	437.38
507.939	460.38
508.155	446.38
508.372	442.38
508.588	449.38
508.805	426.38
509.021	460.38
509.238	452.38
509.454	468.38
509.67	444.38
509.887	444.38
510.103	439.38
510.319	449.38
510.536	507.38
510.752	799.38
510.968	659.38
511.184	461.38
511.401	431.38
511.617	436.38
511.833	430.38
512.049	433.38
512.265	411.38
512.481	410.38
512.698	422.38
512.914	418.38
513.13	417.38
513.346	427.38
513.562	425.38
513.778	432.38
513.994	418.38
514.21	438.38
514.426	445.38
514.642	459.38
514.858	489.38
515.074	515.38
515.29	613.38
515.506	825.38
515.721	672.38
515.937	483.38
516.153	460.38
516.369	448.38
516.585	431.38
516.801	453.38
517.016	438.38
517.232	434.38
517.448	437.38
517.664	441.38
517.879	435.38
518.095	415.38
518.311	425.38
518.527	429.38
518.742	411.38
518.958	406.38
519.173	397.38
519.389	435.38
519.605	432.38
519.82	436.38
520.036	416.38
520.251	441.38
520.467	471.38
520.682	449.38
520.898	474.38
521.113	464.38
521.329	467.38
521.544	558.38
521.76	658.38
521.975	1071.38
522.19	1028.38
522.406	603.38
522.621	466.38
522.836	429.38
523.052	407.38
523.267	396.38
523.482	406.38
523.698	386.38
523.913	387.38
524.128	376.38
524.343	380.38
524.559	388.38
524.774	370.38
524.989	363.38
525.204	378.38
525.419	375.38
525.634	352.38
525.849	383.38
526.064	363.38
526.28	363.38
526.495	368.38
526.71	363.38
526.925	374.38
527.14	356.38
527.355	347.38
527.57	351.38
527.785	371.38
527.999	336.38
528.214	338.38
528.429	356.38
528.644	338.38
528.859	340.38
529.074	351.38
529.289	345.38
529.503	411.38
529.718	392.38
529.933	377.38
530.148	354.38
530.363	351.38
530.577	350.38
530.792	346.38
531.007	344.38
531.221	343.38
531.436	328.38
531.651	346.38
531.865	347.38
532.08	331.38
532.295	341.38
532.509	331.38
532.724	317.38
532.938	355.38
533.153	335.38
533.367	334.38
533.582	325.38
533.796	345.38
534.011	349.38
534.225	346.38
534.44	339.38
534.654	337.38
534.868	320.38
535.083	336.38
535.297	338.38
535.511	354.38
535.726	349.38
535.94	339.38
536.154	360.38
536.369	309.38
536.583	319.38
536.797	339.38
537.011	326.38
537.225	332.38
537.44	314.38
537.654	325.38
537.868	326.38
538.082	324.38
538.296	345.38
538.51	325.38
538.724	336.38
538.938	345.38
539.153	324.38
539.367	335.38
539.581	350.38
539.795	317.38
540.009	324.38
540.222	326.38
540.436	297.38
540.65	322.38
540.864	332.38
541.078	320.38
541.292	310.38
541.506	339.38
541.72	322.38
541.934	331.38
542.147	324.38
542.361	323.38
542.575	332.38
542.789	332.38
543.002	315.38
543.216	330.38
543.43	324.38
543.644	321.38
543.857	331.38
544.071	315.38
544.285	288.38
544.498	320.38
544.712	332.38
544.925	309.38
545.139	332.38
545.352	327.38
545.566	280.38
545.779	305.38
545.993	317.38
546.206	313.38
546.42	315.38
546.633	310.38
546.847	318.38
547.06	322.38
547.274	297.38
547.487	309.38
547.7	322.38
547.914	324.38
548.127	310.38
548.34	324.38
548.554	299.38
548.767	307.38
548.98	298.38
549.193	300.38
549.407	321.38
549.62	306.38
549.833	304.38
550.046	311.38
550.259	291.38
550.473	291.38
550.686	296.38
550.899	286.38
551.112	299.38
551.325	291.38
551.538	315.38
551.751	315.38
551.964	286.38
552.177	300.38
552.39	314.38
552.603	325.38
552.816	319.38
553.029	325.38
553.242	300.38
553.455	298.38
553.667	320.38
553.88	303.38
554.093	315.38
554.306	302.38
554.519	307.38
554.732	297.38
554.944	297.38
555.157	292.38
555.37	304.38
555.583	299.38
555.795	298.38
556.008	295.38
556.221	303.38
556.433	276.38
556.646	281.38
556.859	295.38
557.071	280.38
557.284	299.38
557.496	293.38
557.709	287.38
557.921	274.38
558.134	285.38
558.346	278.38
558.559	266.38
558.771	260.38
558.984	268.38
559.196	272.38
559.409	263.38
559.621	266.38
559.833	280.38
560.046	276.38
560.258	258.38
560.47	253.38
560.683	282.38
560.895	272.38
561.107	286.38
561.32	272.38
561.532	272.38
561.744	294.38
561.956	282.38
562.168	279.38
562.381	279.38
562.593	300.38
562.805	280.38
563.017	297.38
563.229	288.38
563.441	268.38
563.653	286.38
563.865	282.38
564.077	289.38
564.289	274.38
564.501	289.38
564.713	279.38
564.925	295.38
565.137	298.38
565.349	294.38
565.561	283.38
565.773	292.38
565.985	290.38
566.197	298.38
566.408	302.38
566.62	294.38
566.832	329.38
567.044	337.38
567.255	336.38
567.467	318.38
567.679	334.38
567.891	322.38
568.102	323.38
568.314	320.38
568.526	315.38
568.737	303.38
568.949	290.38
569.161	288.38
569.372	278.38
569.584	274.38
569.795	286.38
570.007	284.38
570.218	318.38
570.43	310.38
570.641	268.38
570.853	272.38
571.064	278.38
571.276	279.38
571.487	249.38
571.698	270.38
571.91	247.38
572.121	241.38
572.333	241.38
572.544	243.38
572.755	248.38
572.966	268.38
573.178	274.38
573.389	248.38
573.6	254.38
573.811	247.38
574.023	247.38
574.234	238.38
574.445	243.38
574.656	232.38
574.867	229.38
575.078	259.38
575.289	242.38
575.501	247.38
575.712	226.38
575.923	241.38
576.134	228.38
576.345	228.38
576.556	241.38
576.767	244.38
576.978	244.38
577.188	253.38
577.399	243.38
577.61	248.38
577.821	260.38
578.032	242.38
578.243	275.38
578.454	397.38
578.665	301.38
578.875	232.38
579.086	252.38
579.297	234.38
579.508	233.38
579.718	229.38
579.929	230.38
580.14	226.38
580.35	230.38
580.561	232.38
580.772	215.38
580.982	233.38
581.193	234.38
581.403	225.38
581.614	226.38
581.825	220.38
582.035	218.38
582.246	221.38
582.456	224.38
582.667	225.38
582.877	212.38
583.087	216.38
583.298	212.38
583.508	234.38
583.719	235.38
583.929	224.38
584.139	232.38
584.35	219.38
584.56	231.38
584.77	214.38
584.981	222.38
585.191	226.38
585.401	213.38
585.611	214.38
585.821	213.38
586.032	207.38
586.242	218.38
586.452	212.38
586.662	211.38
586.872	212.38
587.082	210.38
587.292	211.38
587.502	215.38
587.713	227.38
587.923	217.38
588.133	227.38
588.343	206.38
588.553	213.38
588.762	225.38
588.972	227.38
589.182	280.38
589.392	293.38
589.602	230.38
589.812	268.38
590.022	249.38
590.232	204.38
590.441	235.38
590.651	205.38
590.861	214.38
591.071	197.38
591.281	193.38
591.49	222.38
591.7	196.38
591.91	213.38
592.119	217.38
592.329	219.38
592.539	212.38
592.748	232.38
592.958	217.38
593.167	216.38
593.377	216.38
593.587	238.38
593.796	222.38
594.006	220.38
594.215	225.38
594.424	225.38
594.634	223.38
594.843	197.38
595.053	232.38
595.262	219.38
595.472	212.38
595.681	218.38
595.89	210.38
596.1	205.38
596.309	218.38
596.518	216.38
596.727	205.38
596.937	207.38
597.146	206.38
597.355	210.38
597.564	193.38
597.774	195.38
597.983	196.38
598.192	212.38
598.401	194.38
598.61	206.38
598.819	223.38
599.028	194.38
599.237	194.38
599.446	177.38
599.655	200.38
599.864	194.38
600.073	201.38
600.282	186.38
600.491	205.38
600.7	192.38
600.909	208.38
601.118	204.38
601.327	190.38
601.536	188.38
601.745	194.38
601.953	192.38
602.162	193.38
602.371	177.38
602.58	179.38
602.789	198.38
602.997	177.38
603.206	196.38
603.415	199.38
603.623	170.38
603.832	200.38
604.041	183.38
604.249	192.38
604.458	186.38
604.666	190.38
604.875	192.38
605.084	180.38
605.292	176.38
605.501	183.38
605.709	182.38
605.918	175.38
606.126	187.38
606.334	182.38
606.543	184.38
606.751	188.38
606.96	187.38
607.168	180.38
607.376	174.38
607.585	184.38
607.793	176.38
608.001	184.38
608.21	191.38
608.418	179.38
608.626	181.38
608.834	198.38
609.043	192.38
609.251	178.38
609.459	178.38
609.667	199.38
609.875	179.38
610.083	189.38
610.291	180.38
610.499	176.38
610.707	183.38
610.916	170.38
611.124	170.38
611.332	192.38
611.54	182.38
611.748	189.38
611.955	185.38
612.163	197.38
612.371	192.38
612.579	186.38
612.787	170.38
612.995	181.38
613.203	178.38
613.411	174.38
613.618	179.38
613.826	184.38
614.034	178.38
614.242	183.38
614.449	172.38
614.657	168.38
614.865	181.38
615.072	174.38
615.28	185.38
615.488	190.38
615.695	178.38
615.903	183.38
616.111	155.38
616.318	184.38
616.526	204.38
616.733	182.38
616.941	170.38
617.148	195.38
617.356	178.38
617.563	170.38
617.771	167.38
617.978	152.38
618.185	179.38
618.393	175.38
618.6	169.38
618.807	169.38
619.015	184.38
619.222	174.38
619.429	173.38
619.637	174.38
619.844	185.38
620.051	183.38
620.258	166.38
620.466	165.38
620.673	154.38
620.88	160.38
621.087	166.38
621.294	150.38
621.501	172.38
621.708	160.38
621.915	178.38
622.122	174.38
622.329	178.38
622.536	173.38
622.743	169.38
622.95	172.38
623.157	169.38
623.364	159.38
623.571	169.38
623.778	178.38
623.985	182.38
624.192	171.38
624.399	171.38
624.606	179.38
624.812	165.38
625.019	160.38
625.226	160.38
625.433	179.38
625.639	158.38
625.846	169.38
626.053	166.38
626.259	158.38
626.466	158.38
626.673	158.38
626.879	159.38
627.086	160.38
627.293	149.38
627.499	165.38
627.706	158.38
627.912	152.38
628.119	174.38
628.325	147.38
628.532	158.38
628.738	149.38
628.945	146.38
629.151	169.38
629.357	150.38
629.564	155.38
629.77	166.38
629.976	153.38
630.183	140.38
630.389	159.38
630.595	146.38
630.802	168.38
631.008	142.38
631.214	141.38
631.42	148.38
631.627	151.38
631.833	159.38
632.039	153.38
632.245	148.38
632.451	146.38
632.657	156.38
632.863	167.38
633.069	152.38
633.275	159.38
633.481	147.38
633.688	150.38
633.893	148.38
634.099	155.38
634.305	149.38
634.511	144.38
634.717	146.38
634.923	148.38
635.129	159.38
635.335	148.38
635.541	149.38
635.747	144.38
635.952	122.38
636.158	134.38
636.364	146.38
636.57	135.38
636.775	144.38
636.981	147.38
637.187	147.38
637.392	165.38
637.598	144.38
637.804	148.38
638.009	158.38
638.215	135.38
638.421	134.38
638.626	140.38
638.832	133.38
639.037	149.38
639.243	135.38
639.448	142.38
639.654	135.38
639.859	146.38
640.065	144.38
640.27	147.38
640.475	134.38
640.681	143.38
640.886	130.38
641.091	146.38
641.297	155.38
641.502	129.38
641.707	131.38
641.913	144.38
642.118	152.38
642.323	138.38
642.528	139.38
642.733	117.38
642.939	141.38
643.144	148.38
643.349	133.38
643.554	134.38
643.759	145.38
643.964	130.38
644.169	134.38
644.374	151.38
644.579	143.38
644.784	140.38
644.989	140.38
645.194	135.38
645.399	126.38
645.604	138.38
645.809	139.38
646.014	129.38
646.219	150.38
646.423	126.38
646.628	130.38
646.833	139.38
647.038	132.38
647.243	146.38
647.447	141.38
647.652	129.38
647.857	139.38
648.062	153.38
648.266	135.38
648.471	140.38
648.676	140.38
648.88	121.38
649.085	132.38
649.289	151.38
649.494	133.38
649.698	140.38
649.903	148.38
650.107	133.38
650.312	132.38
650.516	139.38
650.721	124.38
650.925	141.38
651.13	130.38
651.334	134.38
651.539	137.38
651.743	124.38
651.947	125.38
652.152	140.38
652.356	114.38
652.56	133.38
652.764	131.38
652.969	136.38
653.173	125.38
653.377	128.38
653.581	122.38
653.785	134.38
653.99	122.38
654.194	122.38
654.398	108.38
654.602	113.38
654.806	107.38
655.01	136.38
655.214	127.38
655.418	122.38
655.622	120.38
655.826	130.38
656.03	104.38
656.234	119.38
656.438	106.38
656.642	122.38
656.846	121.38
657.049	117.38
657.253	107.38
657.457	104.38
657.661	106.38
657.865	110.38
658.068	92.38
658.272	106.38
658.476	104.38
658.68	90.38
658.883	99.38
659.087	95.38
659.291	106.38
659.494	110.38
659.698	85.38
659.901	95.38
660.105	88.38
660.309	95.38
660.512	95.38
660.716	86.38
660.919	80.38
661.123	83.38
661.326	80.38
661.53	88.38
661.733	89.38
661.936	86.38
662.14	77.38
662.343	82.38
662.546	96.38
662.75	76.38
662.953	77.38
663.156	75.38
663.36	83.38
663.563	75.38
663.766	92.38
663.969	88.38
664.173	86.38
664.376	92.38
664.579	77.38
664.782	80.38
664.985	75.38
665.188	83.38
665.391	86.38
665.594	79.38
665.797	90.38
666	66.38
666.203	76.38
666.406	67.38
666.609	75.38
666.812	78.38
667.015	85.38
667.218	89.38
667.421	76.38
667.624	95.38
667.827	81.38
668.03	89.38
668.232	92.38
668.435	95.38
668.638	92.38
668.841	78.38
669.043	86.38
669.246	71.38
669.449	84.38
669.651	85.38
669.854	83.38
670.057	87.38
670.259	78.38
670.462	84.38
670.665	86.38
670.867	95.38
671.07	83.38
671.272	77.38
671.475	86.38
671.677	84.38
671.88	87.38
672.082	82.38
672.284	58.38
672.487	83.38
672.689	88.38
672.892	86.38
