Data from 1981.PennyLincolnUp.Lamp.En5.5.200Scan.071819.P1_HRD10591_16-43-01-961.txt Node
Date: Thu Jul 18 16:43:01 EDT 2019
User: cochatt
Spectrometer: HR+D1059
Trigger mode: 1
Integration Time (sec): 1.000000E-1
Scans to average: 1
Electric dark correction enabled: true
Nonlinearity correction enabled: false
Boxcar width: 0
XAxis mode: Wavelengths
Number of Pixels in Spectrum: 2048
>>>>>Begin Spectral Data<<<<<
223.165	-18.62
223.4	-18.62
223.635	-18.62
223.869	-10.62
224.104	-3.62
224.338	-22.62
224.573	-22.62
224.808	-12.62
225.042	-18.62
225.277	-8.62
225.511	-0.62
225.746	-12.62
225.98	6.38
226.215	18.38
226.449	16.38
226.683	32.38
226.918	26.38
227.152	31.38
227.387	31.38
227.621	37.38
227.856	47.38
228.09	53.38
228.324	59.38
228.559	70.38
228.793	55.38
229.027	76.38
229.262	102.38
229.496	128.38
229.73	132.38
229.964	148.38
230.199	139.38
230.433	102.38
230.667	120.38
230.901	113.38
231.136	121.38
231.37	111.38
231.604	121.38
231.838	114.38
232.072	104.38
232.306	114.38
232.541	118.38
232.775	109.38
233.009	107.38
233.243	111.38
233.477	115.38
233.711	107.38
233.945	102.38
234.179	108.38
234.413	111.38
234.647	111.38
234.881	128.38
235.115	136.38
235.349	107.38
235.583	117.38
235.817	118.38
236.051	126.38
236.285	125.38
236.519	118.38
236.753	145.38
236.987	155.38
237.221	187.38
237.455	234.38
237.689	191.38
237.922	137.38
238.156	130.38
238.39	121.38
238.624	115.38
238.858	130.38
239.091	120.38
239.325	125.38
239.559	142.38
239.793	126.38
240.027	130.38
240.26	125.38
240.494	159.38
240.728	143.38
240.961	152.38
241.195	139.38
241.429	128.38
241.662	132.38
241.896	134.38
242.13	128.38
242.363	123.38
242.597	129.38
242.83	125.38
243.064	136.38
243.298	134.38
243.531	138.38
243.765	129.38
243.998	152.38
244.232	135.38
244.465	146.38
244.699	148.38
244.932	146.38
245.166	145.38
245.399	150.38
245.633	140.38
245.866	146.38
246.099	139.38
246.333	154.38
246.566	157.38
246.8	147.38
247.033	164.38
247.266	163.38
247.5	169.38
247.733	168.38
247.966	173.38
248.2	170.38
248.433	167.38
248.666	184.38
248.899	185.38
249.133	207.38
249.366	211.38
249.599	199.38
249.832	181.38
250.066	189.38
250.299	195.38
250.532	188.38
250.765	200.38
250.998	224.38
251.231	248.38
251.465	226.38
251.698	229.38
251.931	211.38
252.164	207.38
252.397	206.38
252.63	197.38
252.863	216.38
253.096	226.38
253.329	233.38
253.562	230.38
253.795	228.38
254.028	241.38
254.261	225.38
254.494	256.38
254.727	271.38
254.96	289.38
255.193	308.38
255.426	293.38
255.659	259.38
255.892	247.38
256.124	240.38
256.357	250.38
256.59	257.38
256.823	222.38
257.056	207.38
257.289	210.38
257.521	231.38
257.754	209.38
257.987	220.38
258.22	244.38
258.452	218.38
258.685	208.38
258.918	224.38
259.151	204.38
259.383	239.38
259.616	227.38
259.849	240.38
260.081	242.38
260.314	266.38
260.547	287.38
260.779	271.38
261.012	258.38
261.244	244.38
261.477	228.38
261.71	229.38
261.942	223.38
262.175	245.38
262.407	242.38
262.64	214.38
262.872	210.38
263.105	212.38
263.337	225.38
263.57	230.38
263.802	224.38
264.035	203.38
264.267	215.38
264.499	210.38
264.732	210.38
264.964	215.38
265.197	208.38
265.429	206.38
265.661	193.38
265.894	205.38
266.126	234.38
266.358	236.38
266.591	216.38
266.823	226.38
267.055	225.38
267.287	253.38
267.52	225.38
267.752	239.38
267.984	236.38
268.216	236.38
268.448	244.38
268.681	253.38
268.913	257.38
269.145	272.38
269.377	281.38
269.609	280.38
269.841	280.38
270.073	275.38
270.306	305.38
270.538	336.38
270.77	337.38
271.002	325.38
271.234	303.38
271.466	319.38
271.698	319.38
271.93	329.38
272.162	346.38
272.394	331.38
272.626	311.38
272.858	296.38
273.09	301.38
273.322	292.38
273.553	309.38
273.785	275.38
274.017	292.38
274.249	285.38
274.481	290.38
274.713	276.38
274.945	284.38
275.176	249.38
275.408	285.38
275.64	290.38
275.872	271.38
276.104	263.38
276.335	265.38
276.567	291.38
276.799	305.38
277.031	328.38
277.262	339.38
277.494	344.38
277.726	308.38
277.957	284.38
278.189	288.38
278.421	295.38
278.652	280.38
278.884	273.38
279.115	266.38
279.347	272.38
279.579	274.38
279.81	259.38
280.042	256.38
280.273	290.38
280.505	260.38
280.736	278.38
280.968	247.38
281.199	284.38
281.431	281.38
281.662	259.38
281.894	281.38
282.125	269.38
282.356	275.38
282.588	309.38
282.819	323.38
283.051	310.38
283.282	290.38
283.513	295.38
283.745	277.38
283.976	289.38
284.207	285.38
284.439	282.38
284.67	277.38
284.901	271.38
285.132	269.38
285.364	276.38
285.595	290.38
285.826	284.38
286.057	283.38
286.288	276.38
286.52	276.38
286.751	251.38
286.982	292.38
287.213	284.38
287.444	277.38
287.675	296.38
287.906	294.38
288.138	303.38
288.369	306.38
288.6	316.38
288.831	295.38
289.062	280.38
289.293	283.38
289.524	281.38
289.755	285.38
289.986	296.38
290.217	307.38
290.448	299.38
290.679	295.38
290.91	291.38
291.141	292.38
291.371	274.38
291.602	282.38
291.833	279.38
292.064	298.38
292.295	269.38
292.526	293.38
292.757	296.38
292.987	273.38
293.218	275.38
293.449	283.38
293.68	292.38
293.91	276.38
294.141	268.38
294.372	287.38
294.603	305.38
294.833	297.38
295.064	289.38
295.295	301.38
295.525	294.38
295.756	308.38
295.987	312.38
296.217	338.38
296.448	338.38
296.679	306.38
296.909	306.38
297.14	290.38
297.37	300.38
297.601	294.38
297.831	291.38
298.062	296.38
298.292	285.38
298.523	311.38
298.753	307.38
298.984	286.38
299.214	291.38
299.445	305.38
299.675	312.38
299.905	295.38
300.136	310.38
300.366	306.38
300.597	304.38
300.827	328.38
301.057	330.38
301.288	328.38
301.518	321.38
301.748	315.38
301.979	325.38
302.209	325.38
302.439	336.38
302.669	333.38
302.9	333.38
303.13	329.38
303.36	333.38
303.59	327.38
303.82	340.38
304.051	344.38
304.281	334.38
304.511	332.38
304.741	325.38
304.971	321.38
305.201	297.38
305.431	308.38
305.661	319.38
305.891	316.38
306.121	341.38
306.352	332.38
306.582	330.38
306.812	336.38
307.042	319.38
307.272	329.38
307.502	317.38
307.731	327.38
307.961	323.38
308.191	328.38
308.421	333.38
308.651	321.38
308.881	333.38
309.111	352.38
309.341	352.38
309.571	351.38
309.8	361.38
310.03	385.38
310.26	403.38
310.49	392.38
310.72	417.38
310.949	423.38
311.179	398.38
311.409	407.38
311.639	402.38
311.868	376.38
312.098	371.38
312.328	383.38
312.557	406.38
312.787	424.38
313.017	415.38
313.246	388.38
313.476	392.38
313.706	380.38
313.935	395.38
314.165	400.38
314.394	403.38
314.624	407.38
314.853	384.38
315.083	403.38
315.312	381.38
315.542	385.38
315.771	398.38
316.001	374.38
316.23	375.38
316.46	369.38
316.689	374.38
316.919	363.38
317.148	391.38
317.377	423.38
317.607	392.38
317.836	392.38
318.065	368.38
318.295	375.38
318.524	395.38
318.753	382.38
318.983	381.38
319.212	389.38
319.441	371.38
319.67	408.38
319.9	411.38
320.129	398.38
320.358	385.38
320.587	403.38
320.816	433.38
321.046	402.38
321.275	419.38
321.504	378.38
321.733	414.38
321.962	428.38
322.191	422.38
322.42	438.38
322.649	475.38
322.878	473.38
323.108	509.38
323.337	521.38
323.566	556.38
323.795	597.38
324.024	666.38
324.253	840.38
324.482	1211.38
324.71	1823.38
324.939	2510.38
325.168	2137.38
325.397	1153.38
325.626	765.38
325.855	631.38
326.084	564.38
326.313	555.38
326.542	569.38
326.77	636.38
326.999	744.38
327.228	1047.38
327.457	1585.38
327.686	1866.38
327.914	1257.38
328.143	833.38
328.372	703.38
328.6	628.38
328.829	628.38
329.058	639.38
329.287	643.38
329.515	579.38
329.744	561.38
329.972	556.38
330.201	552.38
330.43	607.38
330.658	635.38
330.887	648.38
331.115	641.38
331.344	542.38
331.572	511.38
331.801	493.38
332.03	504.38
332.258	491.38
332.486	459.38
332.715	459.38
332.943	449.38
333.172	483.38
333.4	478.38
333.629	479.38
333.857	487.38
334.085	458.38
334.314	515.38
334.542	540.38
334.771	515.38
334.999	496.38
335.227	476.38
335.455	439.38
335.684	450.38
335.912	440.38
336.14	437.38
336.369	425.38
336.597	429.38
336.825	442.38
337.053	435.38
337.281	431.38
337.51	427.38
337.738	419.38
337.966	423.38
338.194	435.38
338.422	427.38
338.65	418.38
338.878	423.38
339.106	411.38
339.334	419.38
339.562	401.38
339.79	411.38
340.018	418.38
340.246	421.38
340.474	435.38
340.702	415.38
340.93	404.38
341.158	412.38
341.386	425.38
341.614	420.38
341.842	420.38
342.07	409.38
342.298	396.38
342.526	411.38
342.754	402.38
342.981	400.38
343.209	379.38
343.437	390.38
343.665	410.38
343.893	423.38
344.12	407.38
344.348	421.38
344.576	412.38
344.804	435.38
345.031	431.38
345.259	429.38
345.487	442.38
345.714	420.38
345.942	420.38
346.17	406.38
346.397	380.38
346.625	399.38
346.853	403.38
347.08	418.38
347.308	417.38
347.535	411.38
347.763	420.38
347.99	417.38
348.218	424.38
348.445	420.38
348.673	413.38
348.9	403.38
349.128	410.38
349.355	362.38
349.583	401.38
349.81	393.38
350.037	401.38
350.265	399.38
350.492	386.38
350.72	397.38
350.947	388.38
351.174	410.38
351.402	380.38
351.629	422.38
351.856	406.38
352.083	424.38
352.311	409.38
352.538	417.38
352.765	425.38
352.992	417.38
353.22	419.38
353.447	401.38
353.674	407.38
353.901	373.38
354.128	394.38
354.355	368.38
354.583	379.38
354.81	379.38
355.037	380.38
355.264	361.38
355.491	371.38
355.718	365.38
355.945	364.38
356.172	351.38
356.399	358.38
356.626	350.38
356.853	360.38
357.08	357.38
357.307	373.38
357.534	349.38
357.761	372.38
357.988	353.38
358.215	356.38
358.441	360.38
358.668	368.38
358.895	371.38
359.122	381.38
359.349	383.38
359.576	418.38
359.802	439.38
360.029	442.38
360.256	453.38
360.483	437.38
360.709	397.38
360.936	395.38
361.163	407.38
361.39	388.38
361.616	399.38
361.843	403.38
362.07	394.38
362.296	404.38
362.523	392.38
362.749	389.38
362.976	389.38
363.203	379.38
363.429	377.38
363.656	392.38
363.882	372.38
364.109	373.38
364.335	359.38
364.562	353.38
364.788	372.38
365.015	391.38
365.241	363.38
365.468	369.38
365.694	386.38
365.92	381.38
366.147	396.38
366.373	361.38
366.599	376.38
366.826	361.38
367.052	367.38
367.278	381.38
367.505	375.38
367.731	381.38
367.957	361.38
368.184	368.38
368.41	364.38
368.636	384.38
368.862	381.38
369.089	369.38
369.315	373.38
369.541	370.38
369.767	354.38
369.993	380.38
370.219	364.38
370.445	357.38
370.672	356.38
370.898	343.38
371.124	343.38
371.35	358.38
371.576	357.38
371.802	359.38
372.028	349.38
372.254	345.38
372.48	333.38
372.706	336.38
372.932	349.38
373.158	337.38
373.384	368.38
373.61	351.38
373.835	359.38
374.061	365.38
374.287	357.38
374.513	339.38
374.739	364.38
374.965	361.38
375.191	361.38
375.416	343.38
375.642	347.38
375.868	345.38
376.094	351.38
376.319	344.38
376.545	329.38
376.771	340.38
376.997	341.38
377.222	332.38
377.448	331.38
377.674	333.38
377.899	355.38
378.125	339.38
378.35	339.38
378.576	342.38
378.802	336.38
379.027	331.38
379.253	327.38
379.478	340.38
379.704	328.38
379.929	342.38
380.155	343.38
380.38	338.38
380.606	346.38
380.831	344.38
381.057	357.38
381.282	351.38
381.507	352.38
381.733	345.38
381.958	332.38
382.184	343.38
382.409	345.38
382.634	349.38
382.86	359.38
383.085	361.38
383.31	341.38
383.535	345.38
383.761	369.38
383.986	339.38
384.211	362.38
384.436	343.38
384.662	351.38
384.887	336.38
385.112	351.38
385.337	366.38
385.562	361.38
385.787	377.38
386.013	371.38
386.238	368.38
386.463	379.38
386.688	368.38
386.913	363.38
387.138	351.38
387.363	344.38
387.588	351.38
387.813	356.38
388.038	341.38
388.263	346.38
388.488	372.38
388.713	361.38
388.938	351.38
389.163	353.38
389.387	365.38
389.612	374.38
389.837	369.38
390.062	352.38
390.287	356.38
390.512	371.38
390.736	359.38
390.961	375.38
391.186	354.38
391.411	352.38
391.636	346.38
391.86	347.38
392.085	348.38
392.31	358.38
392.534	364.38
392.759	357.38
392.984	351.38
393.208	351.38
393.433	364.38
393.658	361.38
393.882	347.38
394.107	375.38
394.331	338.38
394.556	381.38
394.78	363.38
395.005	368.38
395.229	340.38
395.454	342.38
395.678	377.38
395.903	379.38
396.127	398.38
396.352	385.38
396.576	374.38
396.801	372.38
397.025	376.38
397.249	357.38
397.474	352.38
397.698	348.38
397.922	409.38
398.147	403.38
398.371	402.38
398.595	400.38
398.82	392.38
399.044	397.38
399.268	400.38
399.492	425.38
399.717	446.38
399.941	450.38
400.165	478.38
400.389	492.38
400.613	450.38
400.837	435.38
401.062	405.38
401.286	420.38
401.51	394.38
401.734	404.38
401.958	414.38
402.182	411.38
402.406	417.38
402.63	417.38
402.854	411.38
403.078	425.38
403.302	424.38
403.526	412.38
403.75	420.38
403.974	405.38
404.198	392.38
404.422	411.38
404.645	417.38
404.869	413.38
405.093	471.38
405.317	460.38
405.541	502.38
405.765	469.38
405.988	448.38
406.212	449.38
406.436	475.38
406.66	475.38
406.883	432.38
407.107	480.38
407.331	504.38
407.555	571.38
407.778	575.38
408.002	519.38
408.226	475.38
408.449	480.38
408.673	456.38
408.896	481.38
409.12	530.38
409.344	497.38
409.567	437.38
409.791	418.38
410.014	425.38
410.238	405.38
410.461	410.38
410.685	436.38
410.908	443.38
411.132	469.38
411.355	499.38
411.578	461.38
411.802	439.38
412.025	418.38
412.249	439.38
412.472	450.38
412.695	489.38
412.919	458.38
413.142	435.38
413.365	418.38
413.589	398.38
413.812	384.38
414.035	392.38
414.258	377.38
414.482	399.38
414.705	386.38
414.928	393.38
415.151	381.38
415.374	373.38
415.597	400.38
415.821	373.38
416.044	392.38
416.267	417.38
416.49	404.38
416.713	396.38
416.936	386.38
417.159	418.38
417.382	387.38
417.605	401.38
417.828	417.38
418.051	427.38
418.274	407.38
418.497	397.38
418.72	419.38
418.943	395.38
419.166	415.38
419.389	392.38
419.611	409.38
419.834	410.38
420.057	424.38
420.28	433.38
420.503	424.38
420.726	407.38
420.948	428.38
421.171	474.38
421.394	513.38
421.617	417.38
421.839	435.38
422.062	420.38
422.285	409.38
422.507	475.38
422.73	557.38
422.953	541.38
423.175	463.38
423.398	439.38
423.621	449.38
423.843	445.38
424.066	462.38
424.288	463.38
424.511	499.38
424.733	536.38
424.956	601.38
425.178	590.38
425.401	567.38
425.623	590.38
425.846	489.38
426.068	458.38
426.291	458.38
426.513	463.38
426.735	488.38
426.958	524.38
427.18	591.38
427.402	673.38
427.625	765.38
427.847	672.38
428.069	568.38
428.292	537.38
428.514	502.38
428.736	459.38
428.958	434.38
429.181	432.38
429.403	435.38
429.625	427.38
429.847	460.38
430.069	519.38
430.292	509.38
430.514	453.38
430.736	417.38
430.958	419.38
431.18	405.38
431.402	393.38
431.624	396.38
431.846	391.38
432.068	393.38
432.29	405.38
432.512	385.38
432.734	396.38
432.956	395.38
433.178	424.38
433.4	418.38
433.622	396.38
433.844	417.38
434.066	389.38
434.287	386.38
434.509	415.38
434.731	402.38
434.953	403.38
435.175	419.38
435.397	465.38
435.618	474.38
435.84	525.38
436.062	581.38
436.284	644.38
436.505	544.38
436.727	484.38
436.949	448.38
437.17	432.38
437.392	432.38
437.614	454.38
437.835	490.38
438.057	581.38
438.278	665.38
438.5	645.38
438.721	698.38
438.943	675.38
439.165	549.38
439.386	467.38
439.608	492.38
439.829	481.38
440.05	530.38
440.272	556.38
440.493	522.38
440.715	490.38
440.936	459.38
441.158	437.38
441.379	448.38
441.6	440.38
441.822	435.38
442.043	508.38
442.264	567.38
442.486	599.38
442.707	521.38
442.928	464.38
443.149	496.38
443.371	499.38
443.592	540.38
443.813	616.38
444.034	636.38
444.255	546.38
444.476	490.38
444.698	459.38
444.919	479.38
445.14	543.38
445.361	531.38
445.582	504.38
445.803	577.38
446.024	678.38
446.245	649.38
446.466	614.38
446.687	526.38
446.908	484.38
447.129	443.38
447.35	436.38
447.571	445.38
447.792	433.38
448.013	427.38
448.234	467.38
448.455	515.38
448.675	600.38
448.896	693.38
449.117	607.38
449.338	569.38
449.559	667.38
449.779	743.38
450	578.38
450.221	508.38
450.442	440.38
450.662	419.38
450.883	446.38
451.104	445.38
451.324	419.38
451.545	426.38
451.766	392.38
451.986	398.38
452.207	371.38
452.428	376.38
452.648	373.38
452.869	397.38
453.089	408.38
453.31	404.38
453.53	413.38
453.751	385.38
453.971	382.38
454.192	420.38
454.412	402.38
454.633	377.38
454.853	394.38
455.073	375.38
455.294	411.38
455.514	488.38
455.734	481.38
455.955	383.38
456.175	379.38
456.395	359.38
456.616	345.38
456.836	344.38
457.056	348.38
457.276	356.38
457.497	373.38
457.717	337.38
457.937	373.38
458.157	363.38
458.377	367.38
458.598	385.38
458.818	451.38
459.038	537.38
459.258	561.38
459.478	463.38
459.698	401.38
459.918	413.38
460.138	386.38
460.358	371.38
460.578	363.38
460.798	371.38
461.018	396.38
461.238	385.38
461.458	374.38
461.678	363.38
461.898	395.38
462.118	385.38
462.338	385.38
462.558	404.38
462.777	398.38
462.997	384.38
463.217	393.38
463.437	416.38
463.657	392.38
463.876	384.38
464.096	405.38
464.316	391.38
464.536	413.38
464.755	437.38
464.975	416.38
465.195	463.38
465.414	535.38
465.634	485.38
465.854	434.38
466.073	422.38
466.293	425.38
466.512	390.38
466.732	407.38
466.951	373.38
467.171	377.38
467.391	380.38
467.61	407.38
467.829	420.38
468.049	405.38
468.268	401.38
468.488	378.38
468.707	387.38
468.927	376.38
469.146	348.38
469.365	375.38
469.585	387.38
469.804	376.38
470.023	381.38
470.243	379.38
470.462	378.38
470.681	412.38
470.901	414.38
471.12	401.38
471.339	377.38
471.558	378.38
471.777	400.38
471.997	389.38
472.216	403.38
472.435	440.38
472.654	415.38
472.873	397.38
473.092	408.38
473.311	390.38
473.53	375.38
473.749	414.38
473.968	470.38
474.187	559.38
474.406	586.38
474.625	451.38
474.844	408.38
475.063	412.38
475.282	369.38
475.501	394.38
475.72	421.38
475.939	399.38
476.158	407.38
476.377	395.38
476.596	389.38
476.814	402.38
477.033	417.38
477.252	426.38
477.471	417.38
477.69	393.38
477.908	416.38
478.127	406.38
478.346	416.38
478.564	442.38
478.783	433.38
479.002	413.38
479.22	435.38
479.439	448.38
479.658	482.38
479.876	461.38
480.095	477.38
480.313	513.38
480.532	503.38
480.751	475.38
480.969	482.38
481.188	547.38
481.406	598.38
481.624	513.38
481.843	484.38
482.061	475.38
482.28	461.38
482.498	455.38
482.717	465.38
482.935	476.38
483.153	462.38
483.372	452.38
483.59	473.38
483.808	456.38
484.027	466.38
484.245	464.38
484.463	449.38
484.681	489.38
484.9	479.38
485.118	447.38
485.336	481.38
485.554	475.38
485.772	487.38
485.99	476.38
486.209	464.38
486.427	491.38
486.645	494.38
486.863	520.38
487.081	497.38
487.299	489.38
487.517	477.38
487.735	467.38
487.953	481.38
488.171	480.38
488.389	491.38
488.607	510.38
488.825	488.38
489.043	457.38
489.261	479.38
489.479	496.38
489.696	481.38
489.914	495.38
490.132	508.38
490.35	499.38
490.568	527.38
490.786	515.38
491.003	544.38
491.221	551.38
491.439	542.38
491.657	551.38
491.874	547.38
492.092	575.38
492.31	553.38
492.527	578.38
492.745	593.38
492.963	556.38
493.18	579.38
493.398	579.38
493.615	580.38
493.833	583.38
494.05	572.38
494.268	583.38
494.485	575.38
494.703	580.38
494.92	609.38
495.138	604.38
495.355	595.38
495.573	594.38
495.79	572.38
496.008	582.38
496.225	596.38
496.442	611.38
496.66	600.38
496.877	584.38
497.094	590.38
497.312	602.38
497.529	587.38
497.746	628.38
497.963	614.38
498.181	631.38
498.398	615.38
498.615	632.38
498.832	625.38
499.049	610.38
499.267	633.38
499.484	637.38
499.701	650.38
499.918	667.38
500.135	689.38
500.352	707.38
500.569	699.38
500.786	713.38
501.003	702.38
501.22	704.38
501.437	716.38
501.654	722.38
501.871	693.38
502.088	685.38
502.305	648.38
502.522	649.38
502.739	622.38
502.956	628.38
503.172	603.38
503.389	616.38
503.606	613.38
503.823	616.38
504.04	600.38
504.256	598.38
504.473	590.38
504.69	581.38
504.907	605.38
505.123	561.38
505.34	561.38
505.557	539.38
505.773	580.38
505.99	573.38
506.207	571.38
506.423	552.38
506.64	569.38
506.856	550.38
507.073	557.38
507.289	564.38
507.506	569.38
507.722	588.38
507.939	621.38
508.155	586.38
508.372	570.38
508.588	540.38
508.805	544.38
509.021	557.38
509.238	568.38
509.454	564.38
509.67	557.38
509.887	569.38
510.103	569.38
510.319	549.38
510.536	675.38
510.752	1140.38
510.968	895.38
511.184	584.38
511.401	547.38
511.617	540.38
511.833	517.38
512.049	534.38
512.265	543.38
512.481	532.38
512.698	537.38
512.914	513.38
513.13	512.38
513.346	530.38
513.562	525.38
513.778	527.38
513.994	540.38
514.21	548.38
514.426	582.38
514.642	623.38
514.858	611.38
515.074	680.38
515.29	836.38
515.506	1249.38
515.721	1015.38
515.937	695.38
516.153	586.38
516.369	545.38
516.585	565.38
516.801	531.38
517.016	515.38
517.232	526.38
517.448	533.38
517.664	528.38
517.879	526.38
518.095	509.38
518.311	530.38
518.527	519.38
518.742	519.38
518.958	524.38
519.173	513.38
519.389	511.38
519.605	536.38
519.82	534.38
520.036	569.38
520.251	579.38
520.467	613.38
520.682	625.38
520.898	618.38
521.113	647.38
521.329	689.38
521.544	797.38
521.76	1011.38
521.975	1662.38
522.19	1606.38
522.406	882.38
522.621	630.38
522.836	589.38
523.052	537.38
523.267	508.38
523.482	495.38
523.698	506.38
523.913	513.38
524.128	489.38
524.343	486.38
524.559	479.38
524.774	449.38
524.989	463.38
525.204	452.38
525.419	464.38
525.634	472.38
525.849	465.38
526.064	420.38
526.28	419.38
526.495	436.38
526.71	415.38
526.925	427.38
527.14	428.38
527.355	435.38
527.57	427.38
527.785	407.38
527.999	401.38
528.214	406.38
528.429	409.38
528.644	427.38
528.859	432.38
529.074	423.38
529.289	449.38
529.503	546.38
529.718	495.38
529.933	458.38
530.148	453.38
530.363	429.38
530.577	423.38
530.792	415.38
531.007	405.38
531.221	398.38
531.436	410.38
531.651	395.38
531.865	420.38
532.08	397.38
532.295	383.38
532.509	389.38
532.724	408.38
532.938	389.38
533.153	387.38
533.367	417.38
533.582	386.38
533.796	392.38
534.011	381.38
534.225	371.38
534.44	373.38
534.654	390.38
534.868	369.38
535.083	391.38
535.297	387.38
535.511	400.38
535.726	391.38
535.94	392.38
536.154	406.38
536.369	412.38
536.583	362.38
536.797	383.38
537.011	373.38
537.225	363.38
537.44	392.38
537.654	379.38
537.868	370.38
538.082	379.38
538.296	388.38
538.51	377.38
538.724	373.38
538.938	391.38
539.153	388.38
539.367	411.38
539.581	402.38
539.795	381.38
540.009	372.38
540.222	385.38
540.436	364.38
540.65	375.38
540.864	387.38
541.078	377.38
541.292	392.38
541.506	395.38
541.72	371.38
541.934	387.38
542.147	384.38
542.361	385.38
542.575	367.38
542.789	380.38
543.002	357.38
543.216	379.38
543.43	377.38
543.644	380.38
543.857	373.38
544.071	397.38
544.285	394.38
544.498	369.38
544.712	373.38
544.925	368.38
545.139	364.38
545.352	360.38
545.566	374.38
545.779	360.38
545.993	370.38
546.206	390.38
546.42	353.38
546.633	361.38
546.847	366.38
547.06	353.38
547.274	348.38
547.487	339.38
547.7	360.38
547.914	354.38
548.127	333.38
548.34	361.38
548.554	332.38
548.767	361.38
548.98	339.38
549.193	361.38
549.407	347.38
549.62	345.38
549.833	336.38
550.046	332.38
550.259	337.38
550.473	345.38
550.686	344.38
550.899	345.38
551.112	344.38
551.325	337.38
551.538	333.38
551.751	340.38
551.964	339.38
552.177	347.38
552.39	361.38
552.603	339.38
552.816	367.38
553.029	345.38
553.242	339.38
553.455	349.38
553.667	349.38
553.88	361.38
554.093	352.38
554.306	349.38
554.519	352.38
554.732	339.38
554.944	352.38
555.157	335.38
555.37	316.38
555.583	320.38
555.795	337.38
556.008	324.38
556.221	317.38
556.433	331.38
556.646	323.38
556.859	312.38
557.071	311.38
557.284	305.38
557.496	325.38
557.709	316.38
557.921	320.38
558.134	292.38
558.346	320.38
558.559	323.38
558.771	308.38
558.984	325.38
559.196	324.38
559.409	310.38
559.621	303.38
559.833	310.38
560.046	312.38
560.258	320.38
560.47	314.38
560.683	322.38
560.895	323.38
561.107	321.38
561.32	312.38
561.532	298.38
561.744	308.38
561.956	303.38
562.168	311.38
562.381	321.38
562.593	300.38
562.805	300.38
563.017	323.38
563.229	309.38
563.441	307.38
563.653	307.38
563.865	323.38
564.077	305.38
564.289	320.38
564.501	324.38
564.713	316.38
564.925	317.38
565.137	337.38
565.349	331.38
565.561	313.38
565.773	332.38
565.985	350.38
566.197	332.38
566.408	348.38
566.62	333.38
566.832	337.38
567.044	335.38
567.255	337.38
567.467	358.38
567.679	351.38
567.891	356.38
568.102	363.38
568.314	364.38
568.526	345.38
568.737	342.38
568.949	317.38
569.161	320.38
569.372	324.38
569.584	311.38
569.795	299.38
570.007	315.38
570.218	374.38
570.43	343.38
570.641	311.38
570.853	298.38
571.064	303.38
571.276	287.38
571.487	295.38
571.698	294.38
571.91	304.38
572.121	277.38
572.333	287.38
572.544	297.38
572.755	278.38
572.966	291.38
573.178	266.38
573.389	264.38
573.6	285.38
573.811	300.38
574.023	261.38
574.234	265.38
574.445	287.38
574.656	250.38
574.867	266.38
575.078	274.38
575.289	281.38
575.501	272.38
575.712	296.38
575.923	259.38
576.134	266.38
576.345	288.38
576.556	267.38
576.767	259.38
576.978	267.38
577.188	265.38
577.399	274.38
577.61	259.38
577.821	272.38
578.032	280.38
578.243	295.38
578.454	504.38
578.665	387.38
578.875	298.38
579.086	268.38
579.297	277.38
579.508	265.38
579.718	262.38
579.929	266.38
580.14	260.38
580.35	255.38
580.561	263.38
580.772	249.38
580.982	244.38
581.193	263.38
581.403	253.38
581.614	257.38
581.825	234.38
582.035	249.38
582.246	245.38
582.456	227.38
582.667	243.38
582.877	264.38
583.087	244.38
583.298	252.38
583.508	251.38
583.719	228.38
583.929	249.38
584.139	244.38
584.35	250.38
584.56	223.38
584.77	244.38
584.981	232.38
585.191	242.38
585.401	241.38
585.611	243.38
585.821	238.38
586.032	237.38
586.242	242.38
586.452	228.38
586.662	236.38
586.872	259.38
587.082	232.38
587.292	247.38
587.502	239.38
587.713	232.38
587.923	235.38
588.133	233.38
588.343	232.38
588.553	248.38
588.762	261.38
588.972	235.38
589.182	231.38
589.392	252.38
589.602	253.38
589.812	253.38
590.022	260.38
590.232	241.38
590.441	245.38
590.651	242.38
590.861	240.38
591.071	224.38
591.281	245.38
591.49	240.38
591.7	251.38
591.91	239.38
592.119	240.38
592.329	231.38
592.539	250.38
592.748	250.38
592.958	244.38
593.167	236.38
593.377	228.38
593.587	241.38
593.796	246.38
594.006	255.38
594.215	230.38
594.424	234.38
594.634	235.38
594.843	240.38
595.053	249.38
595.262	241.38
595.472	233.38
595.681	226.38
595.89	213.38
596.1	225.38
596.309	244.38
596.518	229.38
596.727	220.38
596.937	227.38
597.146	237.38
597.355	245.38
597.564	230.38
597.774	231.38
597.983	225.38
598.192	213.38
598.401	211.38
598.61	213.38
598.819	226.38
599.028	228.38
599.237	218.38
599.446	219.38
599.655	233.38
599.864	224.38
600.073	204.38
600.282	210.38
600.491	206.38
600.7	234.38
600.909	207.38
601.118	213.38
601.327	211.38
601.536	198.38
601.745	201.38
601.953	216.38
602.162	203.38
602.371	216.38
602.58	210.38
602.789	205.38
602.997	218.38
603.206	210.38
603.415	207.38
603.623	208.38
603.832	211.38
604.041	199.38
604.249	205.38
604.458	188.38
604.666	199.38
604.875	201.38
605.084	215.38
605.292	218.38
605.501	208.38
605.709	205.38
605.918	210.38
606.126	209.38
606.334	196.38
606.543	224.38
606.751	197.38
606.96	200.38
607.168	203.38
607.376	201.38
607.585	214.38
607.793	204.38
608.001	203.38
608.21	208.38
608.418	204.38
608.626	204.38
608.834	215.38
609.043	202.38
609.251	183.38
609.459	202.38
609.667	200.38
609.875	179.38
610.083	201.38
610.291	205.38
610.499	191.38
610.707	207.38
610.916	210.38
611.124	203.38
611.332	203.38
611.54	208.38
611.748	191.38
611.955	199.38
612.163	193.38
612.371	200.38
612.579	207.38
612.787	198.38
612.995	209.38
613.203	210.38
613.411	223.38
613.618	196.38
613.826	183.38
614.034	200.38
614.242	190.38
614.449	189.38
614.657	193.38
614.865	191.38
615.072	193.38
615.28	191.38
615.488	192.38
615.695	198.38
615.903	188.38
616.111	199.38
616.318	213.38
616.526	204.38
616.733	200.38
616.941	189.38
617.148	209.38
617.356	192.38
617.563	195.38
617.771	187.38
617.978	182.38
618.185	180.38
618.393	189.38
618.6	187.38
618.807	191.38
619.015	200.38
619.222	200.38
619.429	194.38
619.637	205.38
619.844	200.38
620.051	190.38
620.258	183.38
620.466	181.38
620.673	168.38
620.88	193.38
621.087	190.38
621.294	184.38
621.501	183.38
621.708	184.38
621.915	175.38
622.122	175.38
622.329	192.38
622.536	186.38
622.743	184.38
622.95	163.38
623.157	182.38
623.364	181.38
623.571	181.38
623.778	171.38
623.985	177.38
624.192	185.38
624.399	179.38
624.606	189.38
624.812	151.38
625.019	167.38
625.226	176.38
625.433	187.38
625.639	180.38
625.846	171.38
626.053	183.38
626.259	176.38
626.466	183.38
626.673	161.38
626.879	167.38
627.086	171.38
627.293	176.38
627.499	171.38
627.706	170.38
627.912	170.38
628.119	189.38
628.325	165.38
628.532	177.38
628.738	180.38
628.945	175.38
629.151	168.38
629.357	159.38
629.564	176.38
629.77	171.38
629.976	182.38
630.183	181.38
630.389	174.38
630.595	162.38
630.802	173.38
631.008	166.38
631.214	149.38
631.42	167.38
631.627	178.38
631.833	150.38
632.039	158.38
632.245	168.38
632.451	170.38
632.657	159.38
632.863	153.38
633.069	152.38
633.275	169.38
633.481	159.38
633.688	162.38
633.893	164.38
634.099	179.38
634.305	165.38
634.511	155.38
634.717	167.38
634.923	155.38
635.129	145.38
635.335	156.38
635.541	154.38
635.747	168.38
635.952	159.38
636.158	154.38
636.364	157.38
636.57	163.38
636.775	165.38
636.981	160.38
637.187	149.38
637.392	161.38
637.598	161.38
637.804	171.38
638.009	160.38
638.215	166.38
638.421	153.38
638.626	143.38
638.832	147.38
639.037	139.38
639.243	172.38
639.448	155.38
639.654	162.38
639.859	131.38
640.065	156.38
640.27	155.38
640.475	149.38
640.681	145.38
640.886	147.38
641.091	163.38
641.297	135.38
641.502	146.38
641.707	146.38
641.913	147.38
642.118	147.38
642.323	151.38
642.528	135.38
642.733	125.38
642.939	147.38
643.144	154.38
643.349	147.38
643.554	135.38
643.759	145.38
643.964	150.38
644.169	152.38
644.374	137.38
644.579	140.38
644.784	138.38
644.989	138.38
645.194	148.38
645.399	155.38
645.604	132.38
645.809	156.38
646.014	142.38
646.219	148.38
646.423	162.38
646.628	147.38
646.833	132.38
647.038	134.38
647.243	157.38
647.447	133.38
647.652	132.38
647.857	144.38
648.062	143.38
648.266	133.38
648.471	146.38
648.676	153.38
648.88	147.38
649.085	152.38
649.289	132.38
649.494	159.38
649.698	170.38
649.903	165.38
650.107	143.38
650.312	145.38
650.516	156.38
650.721	141.38
650.925	135.38
651.13	130.38
651.334	131.38
651.539	128.38
651.743	129.38
651.947	127.38
652.152	125.38
652.356	133.38
652.56	128.38
652.764	127.38
652.969	129.38
653.173	128.38
653.377	129.38
653.581	124.38
653.785	131.38
653.99	123.38
654.194	124.38
654.398	119.38
654.602	136.38
654.806	140.38
655.01	124.38
655.214	128.38
655.418	117.38
655.622	103.38
655.826	123.38
656.03	114.38
656.234	119.38
656.438	119.38
656.642	129.38
656.846	120.38
657.049	130.38
657.253	104.38
657.457	111.38
657.661	122.38
657.865	100.38
658.068	113.38
658.272	96.38
658.476	106.38
658.68	103.38
658.883	93.38
659.087	84.38
659.291	88.38
659.494	101.38
659.698	88.38
659.901	100.38
660.105	113.38
660.309	99.38
660.512	89.38
660.716	90.38
660.919	91.38
661.123	92.38
661.326	87.38
661.53	103.38
661.733	95.38
661.936	87.38
662.14	93.38
662.343	81.38
662.546	84.38
662.75	77.38
662.953	77.38
663.156	82.38
663.36	89.38
663.563	80.38
663.766	96.38
663.969	90.38
664.173	101.38
664.376	80.38
664.579	80.38
664.782	74.38
664.985	81.38
665.188	85.38
665.391	91.38
665.594	76.38
665.797	87.38
666	95.38
666.203	94.38
666.406	81.38
666.609	94.38
666.812	89.38
667.015	82.38
667.218	75.38
667.421	85.38
667.624	80.38
667.827	91.38
668.03	91.38
668.232	83.38
668.435	75.38
668.638	84.38
668.841	80.38
669.043	79.38
669.246	92.38
669.449	69.38
669.651	71.38
669.854	72.38
670.057	83.38
670.259	72.38
670.462	87.38
670.665	81.38
670.867	93.38
671.07	79.38
671.272	80.38
671.475	80.38
671.677	84.38
671.88	67.38
672.082	77.38
672.284	73.38
672.487	81.38
672.689	87.38
672.892	76.38
