Data from 1981.PennyLincolnUp.Lamp.En5.5.200Scan.071819.P1_HRD10591_16-43-37-960.txt Node
Date: Thu Jul 18 16:43:37 EDT 2019
User: cochatt
Spectrometer: HR+D1059
Trigger mode: 1
Integration Time (sec): 1.000000E-1
Scans to average: 1
Electric dark correction enabled: true
Nonlinearity correction enabled: false
Boxcar width: 0
XAxis mode: Wavelengths
Number of Pixels in Spectrum: 2048
>>>>>Begin Spectral Data<<<<<
223.165	-15.75
223.4	-15.75
223.635	-15.75
223.869	-16.75
224.104	-16.75
224.338	-10.75
224.573	-14.75
224.808	-4.75
225.042	-5.75
225.277	-8.75
225.511	-2.75
225.746	6.25
225.98	5.25
226.215	0.25
226.449	10.25
226.683	28.25
226.918	21.25
227.152	25.25
227.387	35.25
227.621	35.25
227.856	56.25
228.09	35.25
228.324	54.25
228.559	62.25
228.793	69.25
229.027	90.25
229.262	112.25
229.496	117.25
229.73	139.25
229.964	154.25
230.199	128.25
230.433	128.25
230.667	103.25
230.901	116.25
231.136	112.25
231.37	111.25
231.604	119.25
231.838	112.25
232.072	93.25
232.306	105.25
232.541	118.25
232.775	119.25
233.009	118.25
233.243	118.25
233.477	114.25
233.711	103.25
233.945	118.25
234.179	121.25
234.413	121.25
234.647	123.25
234.881	121.25
235.115	125.25
235.349	115.25
235.583	118.25
235.817	117.25
236.051	121.25
236.285	112.25
236.519	117.25
236.753	138.25
236.987	142.25
237.221	186.25
237.455	245.25
237.689	209.25
237.922	153.25
238.156	138.25
238.39	119.25
238.624	137.25
238.858	125.25
239.091	131.25
239.325	124.25
239.559	140.25
239.793	129.25
240.027	138.25
240.26	128.25
240.494	151.25
240.728	166.25
240.961	149.25
241.195	143.25
241.429	133.25
241.662	126.25
241.896	138.25
242.13	126.25
242.363	146.25
242.597	134.25
242.83	140.25
243.064	140.25
243.298	135.25
243.531	143.25
243.765	130.25
243.998	151.25
244.232	132.25
244.465	156.25
244.699	168.25
244.932	132.25
245.166	155.25
245.399	172.25
245.633	143.25
245.866	150.25
246.099	150.25
246.333	150.25
246.566	157.25
246.8	144.25
247.033	151.25
247.266	164.25
247.5	154.25
247.733	177.25
247.966	183.25
248.2	189.25
248.433	166.25
248.666	173.25
248.899	203.25
249.133	203.25
249.366	203.25
249.599	229.25
249.832	195.25
250.066	182.25
250.299	208.25
250.532	192.25
250.765	207.25
250.998	240.25
251.231	244.25
251.465	230.25
251.698	212.25
251.931	206.25
252.164	212.25
252.397	224.25
252.63	202.25
252.863	208.25
253.096	228.25
253.329	259.25
253.562	256.25
253.795	241.25
254.028	232.25
254.261	219.25
254.494	244.25
254.727	282.25
254.96	308.25
255.193	298.25
255.426	291.25
255.659	248.25
255.892	247.25
256.124	250.25
256.357	266.25
256.59	243.25
256.823	205.25
257.056	227.25
257.289	216.25
257.521	225.25
257.754	226.25
257.987	222.25
258.22	227.25
258.452	224.25
258.685	231.25
258.918	222.25
259.151	230.25
259.383	242.25
259.616	248.25
259.849	235.25
260.081	257.25
260.314	270.25
260.547	285.25
260.779	267.25
261.012	247.25
261.244	234.25
261.477	233.25
261.71	228.25
261.942	243.25
262.175	258.25
262.407	252.25
262.64	234.25
262.872	234.25
263.105	225.25
263.337	238.25
263.57	214.25
263.802	233.25
264.035	225.25
264.267	216.25
264.499	233.25
264.732	217.25
264.964	213.25
265.197	225.25
265.429	229.25
265.661	213.25
265.894	211.25
266.126	229.25
266.358	230.25
266.591	224.25
266.823	237.25
267.055	238.25
267.287	244.25
267.52	251.25
267.752	230.25
267.984	232.25
268.216	235.25
268.448	235.25
268.681	248.25
268.913	260.25
269.145	272.25
269.377	321.25
269.609	284.25
269.841	292.25
270.073	294.25
270.306	322.25
270.538	343.25
270.77	339.25
271.002	338.25
271.234	330.25
271.466	325.25
271.698	305.25
271.93	349.25
272.162	363.25
272.394	342.25
272.626	342.25
272.858	314.25
273.09	292.25
273.322	309.25
273.553	276.25
273.785	291.25
274.017	280.25
274.249	281.25
274.481	286.25
274.713	285.25
274.945	315.25
275.176	288.25
275.408	310.25
275.64	268.25
275.872	281.25
276.104	276.25
276.335	292.25
276.567	293.25
276.799	301.25
277.031	334.25
277.262	326.25
277.494	337.25
277.726	328.25
277.957	301.25
278.189	290.25
278.421	297.25
278.652	285.25
278.884	277.25
279.115	297.25
279.347	263.25
279.579	265.25
279.81	275.25
280.042	272.25
280.273	283.25
280.505	278.25
280.736	293.25
280.968	257.25
281.199	284.25
281.431	282.25
281.662	270.25
281.894	276.25
282.125	292.25
282.356	284.25
282.588	326.25
282.819	330.25
283.051	310.25
283.282	297.25
283.513	286.25
283.745	272.25
283.976	284.25
284.207	292.25
284.439	288.25
284.67	293.25
284.901	278.25
285.132	269.25
285.364	276.25
285.595	294.25
285.826	293.25
286.057	301.25
286.288	292.25
286.52	293.25
286.751	288.25
286.982	273.25
287.213	294.25
287.444	300.25
287.675	305.25
287.906	323.25
288.138	316.25
288.369	302.25
288.6	297.25
288.831	300.25
289.062	289.25
289.293	310.25
289.524	299.25
289.755	289.25
289.986	288.25
290.217	280.25
290.448	301.25
290.679	296.25
290.91	304.25
291.141	299.25
291.371	286.25
291.602	291.25
291.833	281.25
292.064	309.25
292.295	287.25
292.526	282.25
292.757	286.25
292.987	309.25
293.218	300.25
293.449	297.25
293.68	294.25
293.91	306.25
294.141	296.25
294.372	296.25
294.603	295.25
294.833	287.25
295.064	307.25
295.295	303.25
295.525	292.25
295.756	312.25
295.987	308.25
296.217	330.25
296.448	341.25
296.679	318.25
296.909	296.25
297.14	296.25
297.37	302.25
297.601	296.25
297.831	299.25
298.062	298.25
298.292	279.25
298.523	300.25
298.753	304.25
298.984	300.25
299.214	304.25
299.445	312.25
299.675	298.25
299.905	316.25
300.136	308.25
300.366	315.25
300.597	332.25
300.827	334.25
301.057	318.25
301.288	339.25
301.518	304.25
301.748	338.25
301.979	328.25
302.209	329.25
302.439	328.25
302.669	325.25
302.9	327.25
303.13	323.25
303.36	327.25
303.59	335.25
303.82	351.25
304.051	345.25
304.281	340.25
304.511	340.25
304.741	333.25
304.971	329.25
305.201	343.25
305.431	330.25
305.661	328.25
305.891	325.25
306.121	316.25
306.352	346.25
306.582	347.25
306.812	336.25
307.042	334.25
307.272	335.25
307.502	333.25
307.731	342.25
307.961	329.25
308.191	334.25
308.421	334.25
308.651	339.25
308.881	340.25
309.111	348.25
309.341	371.25
309.571	360.25
309.8	378.25
310.03	397.25
310.26	398.25
310.49	384.25
310.72	406.25
310.949	423.25
311.179	411.25
311.409	413.25
311.639	398.25
311.868	402.25
312.098	389.25
312.328	417.25
312.557	410.25
312.787	436.25
313.017	427.25
313.246	424.25
313.476	379.25
313.706	404.25
313.935	403.25
314.165	411.25
314.394	427.25
314.624	434.25
314.853	409.25
315.083	380.25
315.312	396.25
315.542	390.25
315.771	384.25
316.001	406.25
316.23	393.25
316.46	376.25
316.689	413.25
316.919	406.25
317.148	411.25
317.377	419.25
317.607	407.25
317.836	395.25
318.065	420.25
318.295	390.25
318.524	414.25
318.753	373.25
318.983	377.25
319.212	372.25
319.441	388.25
319.67	413.25
319.9	408.25
320.129	397.25
320.358	397.25
320.587	404.25
320.816	412.25
321.046	403.25
321.275	423.25
321.504	429.25
321.733	439.25
321.962	444.25
322.191	449.25
322.42	459.25
322.649	476.25
322.878	485.25
323.108	492.25
323.337	533.25
323.566	566.25
323.795	617.25
324.024	690.25
324.253	847.25
324.482	1220.25
324.71	1911.25
324.939	2576.25
325.168	2233.25
325.397	1144.25
325.626	768.25
325.855	621.25
326.084	603.25
326.313	571.25
326.542	577.25
326.77	640.25
326.999	761.25
327.228	1057.25
327.457	1664.25
327.686	1920.25
327.914	1282.25
328.143	838.25
328.372	732.25
328.6	652.25
328.829	649.25
329.058	652.25
329.287	637.25
329.515	610.25
329.744	576.25
329.972	584.25
330.201	624.25
330.43	644.25
330.658	668.25
330.887	699.25
331.115	640.25
331.344	548.25
331.572	547.25
331.801	542.25
332.03	532.25
332.258	491.25
332.486	471.25
332.715	479.25
332.943	461.25
333.172	456.25
333.4	447.25
333.629	469.25
333.857	479.25
334.085	499.25
334.314	499.25
334.542	539.25
334.771	550.25
334.999	520.25
335.227	465.25
335.455	462.25
335.684	472.25
335.912	457.25
336.14	458.25
336.369	452.25
336.597	444.25
336.825	467.25
337.053	466.25
337.281	440.25
337.51	439.25
337.738	435.25
337.966	427.25
338.194	451.25
338.422	439.25
338.65	412.25
338.878	411.25
339.106	412.25
339.334	414.25
339.562	422.25
339.79	409.25
340.018	437.25
340.246	432.25
340.474	425.25
340.702	412.25
340.93	422.25
341.158	422.25
341.386	420.25
341.614	424.25
341.842	453.25
342.07	428.25
342.298	396.25
342.526	409.25
342.754	410.25
342.981	397.25
343.209	415.25
343.437	418.25
343.665	407.25
343.893	424.25
344.12	403.25
344.348	427.25
344.576	420.25
344.804	421.25
345.031	449.25
345.259	441.25
345.487	445.25
345.714	421.25
345.942	421.25
346.17	432.25
346.397	418.25
346.625	422.25
346.853	403.25
347.08	406.25
347.308	427.25
347.535	430.25
347.763	443.25
347.99	434.25
348.218	440.25
348.445	444.25
348.673	425.25
348.9	408.25
349.128	418.25
349.355	395.25
349.583	425.25
349.81	394.25
350.037	378.25
350.265	385.25
350.492	382.25
350.72	397.25
350.947	397.25
351.174	449.25
351.402	427.25
351.629	416.25
351.856	435.25
352.083	418.25
352.311	420.25
352.538	447.25
352.765	441.25
352.992	468.25
353.22	412.25
353.447	389.25
353.674	404.25
353.901	386.25
354.128	382.25
354.355	388.25
354.583	372.25
354.81	376.25
355.037	386.25
355.264	372.25
355.491	357.25
355.718	358.25
355.945	377.25
356.172	363.25
356.399	352.25
356.626	365.25
356.853	380.25
357.08	362.25
357.307	360.25
357.534	363.25
357.761	371.25
357.988	378.25
358.215	399.25
358.441	386.25
358.668	366.25
358.895	395.25
359.122	376.25
359.349	384.25
359.576	421.25
359.802	440.25
360.029	450.25
360.256	462.25
360.483	454.25
360.709	435.25
360.936	400.25
361.163	413.25
361.39	397.25
361.616	410.25
361.843	390.25
362.07	406.25
362.296	408.25
362.523	403.25
362.749	404.25
362.976	409.25
363.203	419.25
363.429	372.25
363.656	376.25
363.882	369.25
364.109	370.25
364.335	353.25
364.562	382.25
364.788	365.25
365.015	379.25
365.241	372.25
365.468	381.25
365.694	390.25
365.92	404.25
366.147	370.25
366.373	360.25
366.599	358.25
366.826	353.25
367.052	375.25
367.278	346.25
367.505	389.25
367.731	350.25
367.957	354.25
368.184	374.25
368.41	369.25
368.636	380.25
368.862	371.25
369.089	380.25
369.315	347.25
369.541	384.25
369.767	350.25
369.993	365.25
370.219	372.25
370.445	372.25
370.672	362.25
370.898	365.25
371.124	362.25
371.35	357.25
371.576	356.25
371.802	357.25
372.028	355.25
372.254	350.25
372.48	358.25
372.706	360.25
372.932	342.25
373.158	368.25
373.384	361.25
373.61	348.25
373.835	366.25
374.061	356.25
374.287	361.25
374.513	370.25
374.739	367.25
374.965	376.25
375.191	382.25
375.416	347.25
375.642	363.25
375.868	352.25
376.094	349.25
376.319	362.25
376.545	359.25
376.771	373.25
376.997	356.25
377.222	353.25
377.448	364.25
377.674	366.25
377.899	355.25
378.125	331.25
378.35	358.25
378.576	355.25
378.802	346.25
379.027	328.25
379.253	362.25
379.478	357.25
379.704	340.25
379.929	349.25
380.155	340.25
380.38	351.25
380.606	322.25
380.831	356.25
381.057	358.25
381.282	363.25
381.507	368.25
381.733	348.25
381.958	352.25
382.184	347.25
382.409	357.25
382.634	377.25
382.86	345.25
383.085	349.25
383.31	372.25
383.535	364.25
383.761	344.25
383.986	337.25
384.211	374.25
384.436	370.25
384.662	343.25
384.887	378.25
385.112	386.25
385.337	365.25
385.562	355.25
385.787	346.25
386.013	382.25
386.238	370.25
386.463	370.25
386.688	358.25
386.913	365.25
387.138	372.25
387.363	370.25
387.588	371.25
387.813	354.25
388.038	360.25
388.263	374.25
388.488	358.25
388.713	363.25
388.938	365.25
389.163	379.25
389.387	375.25
389.612	357.25
389.837	341.25
390.062	329.25
390.287	364.25
390.512	344.25
390.736	360.25
390.961	381.25
391.186	355.25
391.411	350.25
391.636	365.25
391.86	361.25
392.085	371.25
392.31	360.25
392.534	356.25
392.759	376.25
392.984	375.25
393.208	350.25
393.433	372.25
393.658	348.25
393.882	378.25
394.107	349.25
394.331	357.25
394.556	388.25
394.78	354.25
395.005	340.25
395.229	355.25
395.454	370.25
395.678	358.25
395.903	376.25
396.127	376.25
396.352	403.25
396.576	400.25
396.801	365.25
397.025	376.25
397.249	373.25
397.474	358.25
397.698	392.25
397.922	402.25
398.147	402.25
398.371	400.25
398.595	404.25
398.82	412.25
399.044	413.25
399.268	423.25
399.492	427.25
399.717	424.25
399.941	437.25
400.165	474.25
400.389	508.25
400.613	490.25
400.837	437.25
401.062	408.25
401.286	413.25
401.51	401.25
401.734	404.25
401.958	413.25
402.182	422.25
402.406	433.25
402.63	427.25
402.854	424.25
403.078	442.25
403.302	421.25
403.526	430.25
403.75	428.25
403.974	414.25
404.198	408.25
404.422	436.25
404.645	434.25
404.869	424.25
405.093	451.25
405.317	520.25
405.541	506.25
405.765	462.25
405.988	444.25
406.212	458.25
406.436	464.25
406.66	482.25
406.883	457.25
407.107	472.25
407.331	525.25
407.555	582.25
407.778	575.25
408.002	528.25
408.226	474.25
408.449	442.25
408.673	461.25
408.896	489.25
409.12	538.25
409.344	489.25
409.567	448.25
409.791	438.25
410.014	422.25
410.238	416.25
410.461	407.25
410.685	434.25
410.908	445.25
411.132	464.25
411.355	518.25
411.578	476.25
411.802	421.25
412.025	426.25
412.249	442.25
412.472	457.25
412.695	490.25
412.919	478.25
413.142	439.25
413.365	424.25
413.589	411.25
413.812	416.25
414.035	389.25
414.258	418.25
414.482	405.25
414.705	386.25
414.928	399.25
415.151	393.25
415.374	389.25
415.597	388.25
415.821	396.25
416.044	380.25
416.267	400.25
416.49	382.25
416.713	388.25
416.936	390.25
417.159	410.25
417.382	396.25
417.605	419.25
417.828	383.25
418.051	405.25
418.274	426.25
418.497	407.25
418.72	413.25
418.943	389.25
419.166	405.25
419.389	411.25
419.611	434.25
419.834	391.25
420.057	408.25
420.28	420.25
420.503	409.25
420.726	425.25
420.948	450.25
421.171	483.25
421.394	505.25
421.617	442.25
421.839	419.25
422.062	410.25
422.285	458.25
422.507	498.25
422.73	601.25
422.953	530.25
423.175	447.25
423.398	456.25
423.621	417.25
423.843	441.25
424.066	466.25
424.288	458.25
424.511	484.25
424.733	539.25
424.956	620.25
425.178	566.25
425.401	591.25
425.623	584.25
425.846	505.25
426.068	486.25
426.291	489.25
426.513	465.25
426.735	474.25
426.958	513.25
427.18	572.25
427.402	699.25
427.625	795.25
427.847	702.25
428.069	606.25
428.292	533.25
428.514	465.25
428.736	430.25
428.958	439.25
429.181	441.25
429.403	453.25
429.625	440.25
429.847	452.25
430.069	539.25
430.292	540.25
430.514	458.25
430.736	443.25
430.958	435.25
431.18	411.25
431.402	413.25
431.624	404.25
431.846	387.25
432.068	388.25
432.29	395.25
432.512	418.25
432.734	423.25
432.956	420.25
433.178	399.25
433.4	425.25
433.622	436.25
433.844	416.25
434.066	396.25
434.287	388.25
434.509	388.25
434.731	409.25
434.953	388.25
435.175	427.25
435.397	455.25
435.618	489.25
435.84	517.25
436.062	601.25
436.284	656.25
436.505	564.25
436.727	487.25
436.949	456.25
437.17	431.25
437.392	436.25
437.614	461.25
437.835	486.25
438.057	581.25
438.278	686.25
438.5	676.25
438.721	716.25
438.943	683.25
439.165	548.25
439.386	510.25
439.608	495.25
439.829	496.25
440.05	523.25
440.272	576.25
440.493	536.25
440.715	483.25
440.936	466.25
441.158	450.25
441.379	429.25
441.6	456.25
441.822	476.25
442.043	512.25
442.264	590.25
442.486	625.25
442.707	538.25
442.928	488.25
443.149	507.25
443.371	525.25
443.592	562.25
443.813	619.25
444.034	714.25
444.255	570.25
444.476	483.25
444.698	458.25
444.919	473.25
445.14	557.25
445.361	533.25
445.582	522.25
445.803	582.25
446.024	672.25
446.245	691.25
446.466	611.25
446.687	512.25
446.908	490.25
447.129	470.25
447.35	437.25
447.571	428.25
447.792	452.25
448.013	450.25
448.234	465.25
448.455	525.25
448.675	611.25
448.896	702.25
449.117	620.25
449.338	581.25
449.559	662.25
449.779	718.25
450	595.25
450.221	488.25
450.442	440.25
450.662	442.25
450.883	440.25
451.104	452.25
451.324	435.25
451.545	425.25
451.766	417.25
451.986	401.25
452.207	391.25
452.428	390.25
452.648	380.25
452.869	380.25
453.089	408.25
453.31	410.25
453.53	399.25
453.751	392.25
453.971	387.25
454.192	396.25
454.412	401.25
454.633	394.25
454.853	375.25
455.073	388.25
455.294	423.25
455.514	496.25
455.734	477.25
455.955	384.25
456.175	379.25
456.395	363.25
456.616	374.25
456.836	382.25
457.056	358.25
457.276	363.25
457.497	364.25
457.717	383.25
457.937	374.25
458.157	393.25
458.377	372.25
458.598	386.25
458.818	463.25
459.038	534.25
459.258	558.25
459.478	475.25
459.698	424.25
459.918	405.25
460.138	396.25
460.358	395.25
460.578	403.25
460.798	400.25
461.018	394.25
461.238	382.25
461.458	379.25
461.678	391.25
461.898	404.25
462.118	390.25
462.338	380.25
462.558	391.25
462.777	404.25
462.997	395.25
463.217	381.25
463.437	411.25
463.657	402.25
463.876	398.25
464.096	408.25
464.316	408.25
464.536	437.25
464.755	422.25
464.975	418.25
465.195	475.25
465.414	574.25
465.634	478.25
465.854	432.25
466.073	420.25
466.293	404.25
466.512	394.25
466.732	382.25
466.951	382.25
467.171	403.25
467.391	394.25
467.61	402.25
467.829	404.25
468.049	394.25
468.268	393.25
468.488	393.25
468.707	394.25
468.927	357.25
469.146	368.25
469.365	374.25
469.585	392.25
469.804	405.25
470.023	406.25
470.243	388.25
470.462	389.25
470.681	417.25
470.901	412.25
471.12	394.25
471.339	402.25
471.558	409.25
471.777	418.25
471.997	390.25
472.216	396.25
472.435	431.25
472.654	420.25
472.873	420.25
473.092	414.25
473.311	418.25
473.53	406.25
473.749	411.25
473.968	438.25
474.187	580.25
474.406	578.25
474.625	465.25
474.844	423.25
475.063	410.25
475.282	404.25
475.501	417.25
475.72	416.25
475.939	414.25
476.158	402.25
476.377	410.25
476.596	413.25
476.814	409.25
477.033	406.25
477.252	413.25
477.471	408.25
477.69	411.25
477.908	434.25
478.127	420.25
478.346	427.25
478.564	430.25
478.783	439.25
479.002	448.25
479.22	443.25
479.439	464.25
479.658	477.25
479.876	476.25
480.095	482.25
480.313	506.25
480.532	496.25
480.751	488.25
480.969	487.25
481.188	539.25
481.406	594.25
481.624	534.25
481.843	485.25
482.061	477.25
482.28	465.25
482.498	476.25
482.717	479.25
482.935	477.25
483.153	460.25
483.372	448.25
483.59	454.25
483.808	474.25
484.027	425.25
484.245	469.25
484.463	470.25
484.681	477.25
484.9	454.25
485.118	455.25
485.336	446.25
485.554	465.25
485.772	501.25
485.99	480.25
486.209	467.25
486.427	481.25
486.645	511.25
486.863	497.25
487.081	478.25
487.299	496.25
487.517	503.25
487.735	509.25
487.953	486.25
488.171	508.25
488.389	491.25
488.607	501.25
488.825	485.25
489.043	510.25
489.261	512.25
489.479	510.25
489.696	528.25
489.914	538.25
490.132	524.25
490.35	534.25
490.568	531.25
490.786	574.25
491.003	574.25
491.221	548.25
491.439	552.25
491.657	554.25
491.874	570.25
492.092	589.25
492.31	588.25
492.527	584.25
492.745	563.25
492.963	585.25
493.18	580.25
493.398	579.25
493.615	568.25
493.833	587.25
494.05	598.25
494.268	577.25
494.485	589.25
494.703	607.25
494.92	580.25
495.138	595.25
495.355	593.25
495.573	588.25
495.79	593.25
496.008	585.25
496.225	570.25
496.442	570.25
496.66	610.25
496.877	588.25
497.094	602.25
497.312	605.25
497.529	616.25
497.746	589.25
497.963	630.25
498.181	648.25
498.398	641.25
498.615	652.25
498.832	643.25
499.049	648.25
499.267	646.25
499.484	649.25
499.701	660.25
499.918	670.25
500.135	702.25
500.352	713.25
500.569	720.25
500.786	728.25
501.003	724.25
501.22	712.25
501.437	693.25
501.654	706.25
501.871	713.25
502.088	680.25
502.305	669.25
502.522	640.25
502.739	649.25
502.956	626.25
503.172	614.25
503.389	614.25
503.606	598.25
503.823	587.25
504.04	626.25
504.256	602.25
504.473	576.25
504.69	597.25
504.907	576.25
505.123	582.25
505.34	604.25
505.557	569.25
505.773	582.25
505.99	558.25
506.207	589.25
506.423	600.25
506.64	604.25
506.856	565.25
507.073	572.25
507.289	574.25
507.506	585.25
507.722	594.25
507.939	606.25
508.155	590.25
508.372	569.25
508.588	545.25
508.805	545.25
509.021	568.25
509.238	600.25
509.454	594.25
509.67	575.25
509.887	564.25
510.103	573.25
510.319	590.25
510.536	683.25
510.752	1166.25
510.968	926.25
511.184	602.25
511.401	568.25
511.617	556.25
511.833	541.25
512.049	547.25
512.265	535.25
512.481	540.25
512.698	553.25
512.914	525.25
513.13	511.25
513.346	529.25
513.562	508.25
513.778	548.25
513.994	557.25
514.21	561.25
514.426	566.25
514.642	633.25
514.858	668.25
515.074	715.25
515.29	852.25
515.506	1280.25
515.721	1022.25
515.937	686.25
516.153	618.25
516.369	589.25
516.585	574.25
516.801	549.25
517.016	564.25
517.232	536.25
517.448	536.25
517.664	534.25
517.879	542.25
518.095	525.25
518.311	526.25
518.527	534.25
518.742	515.25
518.958	539.25
519.173	513.25
519.389	532.25
519.605	515.25
519.82	544.25
520.036	551.25
520.251	583.25
520.467	604.25
520.682	611.25
520.898	631.25
521.113	632.25
521.329	686.25
521.544	788.25
521.76	1057.25
521.975	1723.25
522.19	1657.25
522.406	894.25
522.621	652.25
522.836	582.25
523.052	545.25
523.267	530.25
523.482	512.25
523.698	529.25
523.913	498.25
524.128	498.25
524.343	473.25
524.559	456.25
524.774	453.25
524.989	446.25
525.204	469.25
525.419	460.25
525.634	453.25
525.849	456.25
526.064	436.25
526.28	444.25
526.495	413.25
526.71	417.25
526.925	431.25
527.14	436.25
527.355	429.25
527.57	417.25
527.785	423.25
527.999	400.25
528.214	431.25
528.429	443.25
528.644	426.25
528.859	449.25
529.074	436.25
529.289	476.25
529.503	533.25
529.718	499.25
529.933	451.25
530.148	449.25
530.363	429.25
530.577	436.25
530.792	424.25
531.007	402.25
531.221	413.25
531.436	393.25
531.651	398.25
531.865	410.25
532.08	418.25
532.295	401.25
532.509	404.25
532.724	395.25
532.938	407.25
533.153	380.25
533.367	394.25
533.582	393.25
533.796	389.25
534.011	392.25
534.225	386.25
534.44	394.25
534.654	399.25
534.868	388.25
535.083	385.25
535.297	384.25
535.511	403.25
535.726	420.25
535.94	411.25
536.154	399.25
536.369	408.25
536.583	372.25
536.797	397.25
537.011	392.25
537.225	400.25
537.44	381.25
537.654	388.25
537.868	377.25
538.082	382.25
538.296	394.25
538.51	366.25
538.724	400.25
538.938	386.25
539.153	401.25
539.367	396.25
539.581	389.25
539.795	404.25
540.009	387.25
540.222	383.25
540.436	387.25
540.65	395.25
540.864	398.25
541.078	416.25
541.292	398.25
541.506	382.25
541.72	382.25
541.934	393.25
542.147	380.25
542.361	387.25
542.575	380.25
542.789	364.25
543.002	382.25
543.216	396.25
543.43	378.25
543.644	395.25
543.857	378.25
544.071	392.25
544.285	381.25
544.498	376.25
544.712	383.25
544.925	380.25
545.139	364.25
545.352	372.25
545.566	388.25
545.779	401.25
545.993	380.25
546.206	372.25
546.42	355.25
546.633	368.25
546.847	358.25
547.06	360.25
547.274	368.25
547.487	386.25
547.7	365.25
547.914	359.25
548.127	374.25
548.34	359.25
548.554	349.25
548.767	354.25
548.98	361.25
549.193	358.25
549.407	354.25
549.62	349.25
549.833	335.25
550.046	342.25
550.259	352.25
550.473	335.25
550.686	341.25
550.899	341.25
551.112	380.25
551.325	349.25
551.538	343.25
551.751	333.25
551.964	341.25
552.177	349.25
552.39	346.25
552.603	343.25
552.816	331.25
553.029	349.25
553.242	354.25
553.455	350.25
553.667	369.25
553.88	376.25
554.093	370.25
554.306	354.25
554.519	342.25
554.732	364.25
554.944	348.25
555.157	315.25
555.37	328.25
555.583	334.25
555.795	331.25
556.008	341.25
556.221	308.25
556.433	333.25
556.646	344.25
556.859	320.25
557.071	323.25
557.284	317.25
557.496	313.25
557.709	312.25
557.921	321.25
558.134	332.25
558.346	338.25
558.559	326.25
558.771	326.25
558.984	320.25
559.196	325.25
559.409	316.25
559.621	317.25
559.833	326.25
560.046	330.25
560.258	315.25
560.47	302.25
560.683	290.25
560.895	318.25
561.107	313.25
561.32	318.25
561.532	318.25
561.744	312.25
561.956	306.25
562.168	308.25
562.381	306.25
562.593	320.25
562.805	321.25
563.017	322.25
563.229	320.25
563.441	324.25
563.653	304.25
563.865	317.25
564.077	314.25
564.289	334.25
564.501	318.25
564.713	325.25
564.925	329.25
565.137	356.25
565.349	321.25
565.561	344.25
565.773	332.25
565.985	332.25
566.197	316.25
566.408	326.25
566.62	345.25
566.832	358.25
567.044	354.25
567.255	361.25
567.467	365.25
567.679	342.25
567.891	345.25
568.102	352.25
568.314	355.25
568.526	350.25
568.737	325.25
568.949	310.25
569.161	344.25
569.372	332.25
569.584	330.25
569.795	324.25
570.007	318.25
570.218	351.25
570.43	353.25
570.641	298.25
570.853	302.25
571.064	294.25
571.276	305.25
571.487	299.25
571.698	288.25
571.91	306.25
572.121	300.25
572.333	292.25
572.544	272.25
572.755	292.25
572.966	289.25
573.178	276.25
573.389	283.25
573.6	293.25
573.811	272.25
574.023	274.25
574.234	270.25
574.445	260.25
574.656	261.25
574.867	286.25
575.078	281.25
575.289	276.25
575.501	280.25
575.712	266.25
575.923	280.25
576.134	252.25
576.345	256.25
576.556	292.25
576.767	273.25
576.978	280.25
577.188	253.25
577.399	280.25
577.61	280.25
577.821	270.25
578.032	257.25
578.243	314.25
578.454	518.25
578.665	370.25
578.875	288.25
579.086	262.25
579.297	258.25
579.508	263.25
579.718	266.25
579.929	244.25
580.14	252.25
580.35	264.25
580.561	246.25
580.772	260.25
580.982	252.25
581.193	250.25
581.403	252.25
581.614	262.25
581.825	234.25
582.035	241.25
582.246	256.25
582.456	238.25
582.667	270.25
582.877	256.25
583.087	248.25
583.298	242.25
583.508	236.25
583.719	251.25
583.929	249.25
584.139	241.25
584.35	238.25
584.56	258.25
584.77	245.25
584.981	256.25
585.191	260.25
585.401	244.25
585.611	236.25
585.821	246.25
586.032	237.25
586.242	257.25
586.452	248.25
586.662	223.25
586.872	244.25
587.082	247.25
587.292	244.25
587.502	260.25
587.713	241.25
587.923	253.25
588.133	246.25
588.343	229.25
588.553	252.25
588.762	232.25
588.972	261.25
589.182	246.25
589.392	235.25
589.602	233.25
589.812	240.25
590.022	246.25
590.232	234.25
590.441	247.25
590.651	235.25
590.861	233.25
591.071	244.25
591.281	240.25
591.49	235.25
591.7	252.25
591.91	245.25
592.119	247.25
592.329	231.25
592.539	246.25
592.748	259.25
592.958	254.25
593.167	238.25
593.377	237.25
593.587	233.25
593.796	241.25
594.006	237.25
594.215	227.25
594.424	236.25
594.634	267.25
594.843	241.25
595.053	244.25
595.262	226.25
595.472	236.25
595.681	236.25
595.89	242.25
596.1	226.25
596.309	238.25
596.518	233.25
596.727	237.25
596.937	229.25
597.146	223.25
597.355	240.25
597.564	230.25
597.774	228.25
597.983	238.25
598.192	233.25
598.401	227.25
598.61	211.25
598.819	218.25
599.028	225.25
599.237	213.25
599.446	207.25
599.655	214.25
599.864	206.25
600.073	216.25
600.282	225.25
600.491	202.25
600.7	215.25
600.909	196.25
601.118	213.25
601.327	219.25
601.536	216.25
601.745	209.25
601.953	212.25
602.162	212.25
602.371	212.25
602.58	214.25
602.789	219.25
602.997	202.25
603.206	227.25
603.415	228.25
603.623	229.25
603.832	201.25
604.041	206.25
604.249	216.25
604.458	210.25
604.666	215.25
604.875	219.25
605.084	214.25
605.292	203.25
605.501	201.25
605.709	194.25
605.918	193.25
606.126	215.25
606.334	208.25
606.543	202.25
606.751	211.25
606.96	201.25
607.168	193.25
607.376	200.25
607.585	202.25
607.793	186.25
608.001	204.25
608.21	209.25
608.418	214.25
608.626	196.25
608.834	204.25
609.043	205.25
609.251	203.25
609.459	195.25
609.667	203.25
609.875	203.25
610.083	209.25
610.291	217.25
610.499	197.25
610.707	210.25
610.916	209.25
611.124	196.25
611.332	222.25
611.54	208.25
611.748	205.25
611.955	196.25
612.163	179.25
612.371	200.25
612.579	187.25
612.787	195.25
612.995	200.25
613.203	201.25
613.411	197.25
613.618	182.25
613.826	202.25
614.034	197.25
614.242	194.25
614.449	192.25
614.657	198.25
614.865	196.25
615.072	193.25
615.28	197.25
615.488	182.25
615.695	199.25
615.903	194.25
616.111	194.25
616.318	193.25
616.526	209.25
616.733	216.25
616.941	182.25
617.148	200.25
617.356	203.25
617.563	214.25
617.771	196.25
617.978	184.25
618.185	193.25
618.393	200.25
618.6	212.25
618.807	186.25
619.015	190.25
619.222	187.25
619.429	188.25
619.637	162.25
619.844	189.25
620.051	180.25
620.258	197.25
620.466	184.25
620.673	190.25
620.88	171.25
621.087	196.25
621.294	197.25
621.501	196.25
621.708	181.25
621.915	178.25
622.122	205.25
622.329	197.25
622.536	185.25
622.743	184.25
622.95	205.25
623.157	182.25
623.364	171.25
623.571	164.25
623.778	187.25
623.985	176.25
624.192	183.25
624.399	188.25
624.606	174.25
624.812	182.25
625.019	177.25
625.226	185.25
625.433	182.25
625.639	176.25
625.846	182.25
626.053	179.25
626.259	181.25
626.466	178.25
626.673	188.25
626.879	192.25
627.086	167.25
627.293	184.25
627.499	193.25
627.706	165.25
627.912	192.25
628.119	166.25
628.325	179.25
628.532	173.25
628.738	180.25
628.945	170.25
629.151	165.25
629.357	186.25
629.564	177.25
629.77	183.25
629.976	166.25
630.183	167.25
630.389	164.25
630.595	173.25
630.802	156.25
631.008	157.25
631.214	173.25
631.42	165.25
631.627	164.25
631.833	173.25
632.039	161.25
632.245	171.25
632.451	165.25
632.657	168.25
632.863	171.25
633.069	162.25
633.275	173.25
633.481	160.25
633.688	174.25
633.893	157.25
634.099	143.25
634.305	173.25
634.511	165.25
634.717	172.25
634.923	162.25
635.129	162.25
635.335	176.25
635.541	162.25
635.747	168.25
635.952	159.25
636.158	165.25
636.364	179.25
636.57	167.25
636.775	153.25
636.981	165.25
637.187	152.25
637.392	154.25
637.598	158.25
637.804	174.25
638.009	146.25
638.215	161.25
638.421	154.25
638.626	146.25
638.832	163.25
639.037	149.25
639.243	158.25
639.448	146.25
639.654	138.25
639.859	141.25
640.065	151.25
640.27	153.25
640.475	153.25
640.681	152.25
640.886	148.25
641.091	157.25
641.297	159.25
641.502	148.25
641.707	152.25
641.913	135.25
642.118	146.25
642.323	136.25
642.528	152.25
642.733	138.25
642.939	152.25
643.144	137.25
643.349	150.25
643.554	126.25
643.759	151.25
643.964	163.25
644.169	147.25
644.374	140.25
644.579	148.25
644.784	145.25
644.989	145.25
645.194	141.25
645.399	146.25
645.604	138.25
645.809	141.25
646.014	143.25
646.219	147.25
646.423	136.25
646.628	141.25
646.833	153.25
647.038	146.25
647.243	150.25
647.447	156.25
647.652	153.25
647.857	142.25
648.062	138.25
648.266	153.25
648.471	134.25
648.676	134.25
648.88	136.25
649.085	144.25
649.289	152.25
649.494	151.25
649.698	184.25
649.903	171.25
650.107	148.25
650.312	154.25
650.516	137.25
650.721	132.25
650.925	138.25
651.13	139.25
651.334	124.25
651.539	147.25
651.743	143.25
651.947	129.25
652.152	148.25
652.356	152.25
652.56	119.25
652.764	128.25
652.969	124.25
653.173	118.25
653.377	113.25
653.581	120.25
653.785	115.25
653.99	126.25
654.194	114.25
654.398	133.25
654.602	123.25
654.806	134.25
655.01	137.25
655.214	128.25
655.418	125.25
655.622	139.25
655.826	131.25
656.03	114.25
656.234	125.25
656.438	116.25
656.642	128.25
656.846	134.25
657.049	133.25
657.253	120.25
657.457	114.25
657.661	101.25
657.865	121.25
658.068	109.25
658.272	101.25
658.476	100.25
658.68	106.25
658.883	89.25
659.087	84.25
659.291	103.25
659.494	99.25
659.698	98.25
659.901	100.25
660.105	95.25
660.309	81.25
660.512	106.25
660.716	84.25
660.919	89.25
661.123	88.25
661.326	79.25
661.53	87.25
661.733	91.25
661.936	76.25
662.14	77.25
662.343	100.25
662.546	96.25
662.75	84.25
662.953	85.25
663.156	77.25
663.36	80.25
663.563	100.25
663.766	77.25
663.969	86.25
664.173	90.25
664.376	91.25
664.579	89.25
664.782	87.25
664.985	72.25
665.188	72.25
665.391	83.25
665.594	81.25
665.797	76.25
666	79.25
666.203	81.25
666.406	88.25
666.609	70.25
666.812	83.25
667.015	77.25
667.218	87.25
667.421	84.25
667.624	73.25
667.827	85.25
668.03	88.25
668.232	86.25
668.435	85.25
668.638	91.25
668.841	89.25
669.043	76.25
669.246	89.25
669.449	80.25
669.651	76.25
669.854	84.25
670.057	72.25
670.259	63.25
670.462	83.25
670.665	81.25
670.867	90.25
671.07	87.25
671.272	82.25
671.475	88.25
671.677	91.25
671.88	76.25
672.082	71.25
672.284	74.25
672.487	74.25
672.689	71.25
672.892	91.25
