Data from 1981.PennyLincolnUp.Lamp.En5.5.200Scan.071819.P1_HRD10591_16-41-14-959.txt Node
Date: Thu Jul 18 16:41:14 EDT 2019
User: cochatt
Spectrometer: HR+D1059
Trigger mode: 1
Integration Time (sec): 1.000000E-1
Scans to average: 1
Electric dark correction enabled: true
Nonlinearity correction enabled: false
Boxcar width: 0
XAxis mode: Wavelengths
Number of Pixels in Spectrum: 2048
>>>>>Begin Spectral Data<<<<<
223.165	-27.25
223.4	-27.25
223.635	-27.25
223.869	-26.25
224.104	-16.25
224.338	-27.25
224.573	-0.25
224.808	-7.25
225.042	-14.25
225.277	-15.25
225.511	-4.25
225.746	5.75
225.98	5.75
226.215	28.75
226.449	9.75
226.683	22.75
226.918	33.75
227.152	31.75
227.387	39.75
227.621	32.75
227.856	37.75
228.09	55.75
228.324	37.75
228.559	51.75
228.793	54.75
229.027	101.75
229.262	99.75
229.496	101.75
229.73	126.75
229.964	166.75
230.199	114.75
230.433	91.75
230.667	100.75
230.901	119.75
231.136	117.75
231.37	117.75
231.604	105.75
231.838	98.75
232.072	110.75
232.306	92.75
232.541	103.75
232.775	109.75
233.009	118.75
233.243	105.75
233.477	108.75
233.711	117.75
233.945	106.75
234.179	113.75
234.413	114.75
234.647	102.75
234.881	114.75
235.115	123.75
235.349	121.75
235.583	116.75
235.817	116.75
236.051	120.75
236.285	115.75
236.519	120.75
236.753	133.75
236.987	140.75
237.221	170.75
237.455	211.75
237.689	187.75
237.922	148.75
238.156	142.75
238.39	134.75
238.624	122.75
238.858	112.75
239.091	112.75
239.325	131.75
239.559	118.75
239.793	100.75
240.027	133.75
240.26	155.75
240.494	162.75
240.728	154.75
240.961	145.75
241.195	125.75
241.429	137.75
241.662	125.75
241.896	139.75
242.13	142.75
242.363	133.75
242.597	128.75
242.83	143.75
243.064	138.75
243.298	142.75
243.531	134.75
243.765	149.75
243.998	116.75
244.232	123.75
244.465	135.75
244.699	129.75
244.932	133.75
245.166	138.75
245.399	130.75
245.633	155.75
245.866	136.75
246.099	154.75
246.333	149.75
246.566	147.75
246.8	148.75
247.033	151.75
247.266	164.75
247.5	147.75
247.733	167.75
247.966	180.75
248.2	172.75
248.433	145.75
248.666	184.75
248.899	191.75
249.133	189.75
249.366	219.75
249.599	205.75
249.832	188.75
250.066	189.75
250.299	185.75
250.532	182.75
250.765	200.75
250.998	224.75
251.231	207.75
251.465	201.75
251.698	209.75
251.931	191.75
252.164	189.75
252.397	195.75
252.63	213.75
252.863	209.75
253.096	204.75
253.329	216.75
253.562	226.75
253.795	219.75
254.028	224.75
254.261	239.75
254.494	212.75
254.727	275.75
254.96	287.75
255.193	288.75
255.426	243.75
255.659	259.75
255.892	231.75
256.124	235.75
256.357	212.75
256.59	211.75
256.823	205.75
257.056	223.75
257.289	218.75
257.521	213.75
257.754	231.75
257.987	219.75
258.22	217.75
258.452	210.75
258.685	214.75
258.918	219.75
259.151	219.75
259.383	224.75
259.616	225.75
259.849	217.75
260.081	227.75
260.314	253.75
260.547	250.75
260.779	253.75
261.012	246.75
261.244	225.75
261.477	232.75
261.71	217.75
261.942	236.75
262.175	231.75
262.407	241.75
262.64	212.75
262.872	207.75
263.105	209.75
263.337	210.75
263.57	205.75
263.802	209.75
264.035	210.75
264.267	224.75
264.499	218.75
264.732	216.75
264.964	205.75
265.197	205.75
265.429	211.75
265.661	197.75
265.894	204.75
266.126	205.75
266.358	208.75
266.591	215.75
266.823	220.75
267.055	218.75
267.287	234.75
267.52	233.75
267.752	212.75
267.984	213.75
268.216	229.75
268.448	220.75
268.681	235.75
268.913	241.75
269.145	251.75
269.377	276.75
269.609	277.75
269.841	275.75
270.073	280.75
270.306	293.75
270.538	309.75
270.77	318.75
271.002	309.75
271.234	299.75
271.466	298.75
271.698	299.75
271.93	312.75
272.162	323.75
272.394	338.75
272.626	330.75
272.858	295.75
273.09	281.75
273.322	284.75
273.553	257.75
273.785	243.75
274.017	260.75
274.249	273.75
274.481	269.75
274.713	273.75
274.945	257.75
275.176	273.75
275.408	264.75
275.64	257.75
275.872	258.75
276.104	279.75
276.335	267.75
276.567	262.75
276.799	273.75
277.031	321.75
277.262	303.75
277.494	298.75
277.726	292.75
277.957	300.75
278.189	278.75
278.421	277.75
278.652	297.75
278.884	268.75
279.115	278.75
279.347	273.75
279.579	269.75
279.81	267.75
280.042	252.75
280.273	260.75
280.505	278.75
280.736	277.75
280.968	247.75
281.199	255.75
281.431	264.75
281.662	264.75
281.894	262.75
282.125	259.75
282.356	288.75
282.588	309.75
282.819	314.75
283.051	289.75
283.282	263.75
283.513	269.75
283.745	282.75
283.976	254.75
284.207	265.75
284.439	256.75
284.67	266.75
284.901	278.75
285.132	278.75
285.364	256.75
285.595	265.75
285.826	267.75
286.057	286.75
286.288	261.75
286.52	288.75
286.751	269.75
286.982	272.75
287.213	273.75
287.444	272.75
287.675	273.75
287.906	268.75
288.138	275.75
288.369	300.75
288.6	303.75
288.831	287.75
289.062	276.75
289.293	270.75
289.524	275.75
289.755	275.75
289.986	292.75
290.217	295.75
290.448	276.75
290.679	297.75
290.91	297.75
291.141	278.75
291.371	263.75
291.602	268.75
291.833	282.75
292.064	256.75
292.295	271.75
292.526	285.75
292.757	311.75
292.987	285.75
293.218	263.75
293.449	269.75
293.68	279.75
293.91	290.75
294.141	277.75
294.372	269.75
294.603	293.75
294.833	291.75
295.064	282.75
295.295	271.75
295.525	267.75
295.756	293.75
295.987	291.75
296.217	305.75
296.448	310.75
296.679	300.75
296.909	274.75
297.14	276.75
297.37	288.75
297.601	295.75
297.831	272.75
298.062	279.75
298.292	295.75
298.523	290.75
298.753	312.75
298.984	282.75
299.214	307.75
299.445	295.75
299.675	287.75
299.905	309.75
300.136	309.75
300.366	302.75
300.597	305.75
300.827	314.75
301.057	308.75
301.288	338.75
301.518	292.75
301.748	303.75
301.979	321.75
302.209	300.75
302.439	316.75
302.669	307.75
302.9	300.75
303.13	299.75
303.36	332.75
303.59	327.75
303.82	322.75
304.051	327.75
304.281	310.75
304.511	315.75
304.741	306.75
304.971	297.75
305.201	309.75
305.431	317.75
305.661	314.75
305.891	337.75
306.121	323.75
306.352	317.75
306.582	328.75
306.812	327.75
307.042	301.75
307.272	297.75
307.502	296.75
307.731	323.75
307.961	330.75
308.191	327.75
308.421	323.75
308.651	315.75
308.881	322.75
309.111	325.75
309.341	317.75
309.571	334.75
309.8	365.75
310.03	360.75
310.26	364.75
310.49	375.75
310.72	369.75
310.949	383.75
311.179	394.75
311.409	360.75
311.639	369.75
311.868	366.75
312.098	370.75
312.328	377.75
312.557	389.75
312.787	389.75
313.017	387.75
313.246	379.75
313.476	358.75
313.706	379.75
313.935	396.75
314.165	382.75
314.394	420.75
314.624	390.75
314.853	383.75
315.083	381.75
315.312	360.75
315.542	373.75
315.771	344.75
316.001	359.75
316.23	358.75
316.46	363.75
316.689	387.75
316.919	378.75
317.148	384.75
317.377	377.75
317.607	363.75
317.836	379.75
318.065	380.75
318.295	380.75
318.524	359.75
318.753	377.75
318.983	371.75
319.212	379.75
319.441	377.75
319.67	393.75
319.9	379.75
320.129	373.75
320.358	374.75
320.587	379.75
320.816	393.75
321.046	398.75
321.275	381.75
321.504	408.75
321.733	392.75
321.962	420.75
322.191	418.75
322.42	431.75
322.649	443.75
322.878	464.75
323.108	461.75
323.337	470.75
323.566	529.75
323.795	553.75
324.024	609.75
324.253	763.75
324.482	1068.75
324.71	1636.75
324.939	2237.75
325.168	1901.75
325.397	1032.75
325.626	703.75
325.855	594.75
326.084	529.75
326.313	510.75
326.542	509.75
326.77	595.75
326.999	695.75
327.228	960.75
327.457	1409.75
327.686	1661.75
327.914	1123.75
328.143	728.75
328.372	637.75
328.6	606.75
328.829	593.75
329.058	585.75
329.287	567.75
329.515	547.75
329.744	533.75
329.972	517.75
330.201	537.75
330.43	561.75
330.658	600.75
330.887	593.75
331.115	582.75
331.344	507.75
331.572	496.75
331.801	493.75
332.03	479.75
332.258	456.75
332.486	439.75
332.715	417.75
332.943	422.75
333.172	411.75
333.4	434.75
333.629	427.75
333.857	455.75
334.085	450.75
334.314	477.75
334.542	491.75
334.771	504.75
334.999	468.75
335.227	441.75
335.455	434.75
335.684	443.75
335.912	428.75
336.14	416.75
336.369	407.75
336.597	428.75
336.825	440.75
337.053	431.75
337.281	419.75
337.51	411.75
337.738	417.75
337.966	417.75
338.194	438.75
338.422	433.75
338.65	408.75
338.878	388.75
339.106	407.75
339.334	396.75
339.562	415.75
339.79	404.75
340.018	398.75
340.246	392.75
340.474	403.75
340.702	393.75
340.93	391.75
341.158	404.75
341.386	409.75
341.614	407.75
341.842	387.75
342.07	421.75
342.298	407.75
342.526	404.75
342.754	399.75
342.981	385.75
343.209	398.75
343.437	383.75
343.665	409.75
343.893	391.75
344.12	385.75
344.348	384.75
344.576	393.75
344.804	390.75
345.031	435.75
345.259	434.75
345.487	406.75
345.714	392.75
345.942	401.75
346.17	386.75
346.397	385.75
346.625	386.75
346.853	392.75
347.08	389.75
347.308	401.75
347.535	403.75
347.763	397.75
347.99	405.75
348.218	412.75
348.445	411.75
348.673	410.75
348.9	392.75
349.128	393.75
349.355	404.75
349.583	387.75
349.81	357.75
350.037	367.75
350.265	353.75
350.492	351.75
350.72	385.75
350.947	381.75
351.174	411.75
351.402	412.75
351.629	394.75
351.856	380.75
352.083	393.75
352.311	405.75
352.538	393.75
352.765	406.75
352.992	413.75
353.22	394.75
353.447	391.75
353.674	371.75
353.901	391.75
354.128	371.75
354.355	370.75
354.583	348.75
354.81	349.75
355.037	354.75
355.264	368.75
355.491	345.75
355.718	371.75
355.945	358.75
356.172	331.75
356.399	338.75
356.626	325.75
356.853	358.75
357.08	357.75
357.307	365.75
357.534	368.75
357.761	345.75
357.988	370.75
358.215	353.75
358.441	357.75
358.668	350.75
358.895	363.75
359.122	364.75
359.349	370.75
359.576	392.75
359.802	418.75
360.029	453.75
360.256	431.75
360.483	416.75
360.709	391.75
360.936	402.75
361.163	387.75
361.39	389.75
361.616	405.75
361.843	381.75
362.07	382.75
362.296	375.75
362.523	373.75
362.749	391.75
362.976	375.75
363.203	357.75
363.429	356.75
363.656	362.75
363.882	365.75
364.109	364.75
364.335	357.75
364.562	363.75
364.788	339.75
365.015	376.75
365.241	350.75
365.468	370.75
365.694	378.75
365.92	369.75
366.147	367.75
366.373	359.75
366.599	383.75
366.826	348.75
367.052	346.75
367.278	322.75
367.505	341.75
367.731	373.75
367.957	359.75
368.184	337.75
368.41	380.75
368.636	376.75
368.862	371.75
369.089	354.75
369.315	373.75
369.541	343.75
369.767	358.75
369.993	371.75
370.219	351.75
370.445	350.75
370.672	354.75
370.898	363.75
371.124	360.75
371.35	345.75
371.576	339.75
371.802	333.75
372.028	354.75
372.254	348.75
372.48	354.75
372.706	348.75
372.932	347.75
373.158	348.75
373.384	362.75
373.61	354.75
373.835	357.75
374.061	338.75
374.287	375.75
374.513	359.75
374.739	368.75
374.965	361.75
375.191	338.75
375.416	357.75
375.642	361.75
375.868	345.75
376.094	375.75
376.319	351.75
376.545	356.75
376.771	352.75
376.997	344.75
377.222	350.75
377.448	354.75
377.674	333.75
377.899	359.75
378.125	340.75
378.35	341.75
378.576	335.75
378.802	331.75
379.027	345.75
379.253	342.75
379.478	353.75
379.704	341.75
379.929	339.75
380.155	357.75
380.38	351.75
380.606	339.75
380.831	341.75
381.057	345.75
381.282	343.75
381.507	340.75
381.733	335.75
381.958	332.75
382.184	338.75
382.409	344.75
382.634	339.75
382.86	339.75
383.085	357.75
383.31	326.75
383.535	354.75
383.761	344.75
383.986	337.75
384.211	361.75
384.436	340.75
384.662	350.75
384.887	353.75
385.112	363.75
385.337	368.75
385.562	363.75
385.787	367.75
386.013	349.75
386.238	374.75
386.463	352.75
386.688	352.75
386.913	360.75
387.138	362.75
387.363	362.75
387.588	364.75
387.813	347.75
388.038	347.75
388.263	352.75
388.488	357.75
388.713	362.75
388.938	338.75
389.163	355.75
389.387	363.75
389.612	365.75
389.837	354.75
390.062	348.75
390.287	331.75
390.512	375.75
390.736	348.75
390.961	348.75
391.186	358.75
391.411	347.75
391.636	344.75
391.86	371.75
392.085	351.75
392.31	359.75
392.534	356.75
392.759	382.75
392.984	358.75
393.208	359.75
393.433	371.75
393.658	379.75
393.882	327.75
394.107	350.75
394.331	362.75
394.556	353.75
394.78	356.75
395.005	353.75
395.229	351.75
395.454	370.75
395.678	361.75
395.903	373.75
396.127	402.75
396.352	411.75
396.576	374.75
396.801	375.75
397.025	352.75
397.249	366.75
397.474	373.75
397.698	371.75
397.922	379.75
398.147	394.75
398.371	406.75
398.595	378.75
398.82	391.75
399.044	414.75
399.268	406.75
399.492	385.75
399.717	449.75
399.941	461.75
400.165	478.75
400.389	489.75
400.613	452.75
400.837	407.75
401.062	401.75
401.286	399.75
401.51	388.75
401.734	405.75
401.958	397.75
402.182	397.75
402.406	383.75
402.63	401.75
402.854	399.75
403.078	395.75
403.302	401.75
403.526	393.75
403.75	421.75
403.974	381.75
404.198	397.75
404.422	397.75
404.645	403.75
404.869	423.75
405.093	425.75
405.317	455.75
405.541	492.75
405.765	457.75
405.988	472.75
406.212	455.75
406.436	471.75
406.66	468.75
406.883	450.75
407.107	472.75
407.331	501.75
407.555	549.75
407.778	532.75
408.002	515.75
408.226	448.75
408.449	432.75
408.673	458.75
408.896	479.75
409.12	509.75
409.344	481.75
409.567	445.75
409.791	438.75
410.014	432.75
410.238	413.75
410.461	422.75
410.685	431.75
410.908	434.75
411.132	459.75
411.355	497.75
411.578	465.75
411.802	428.75
412.025	427.75
412.249	430.75
412.472	431.75
412.695	451.75
412.919	454.75
413.142	420.75
413.365	393.75
413.589	393.75
413.812	386.75
414.035	371.75
414.258	387.75
414.482	372.75
414.705	405.75
414.928	393.75
415.151	391.75
415.374	390.75
415.597	372.75
415.821	408.75
416.044	383.75
416.267	384.75
416.49	394.75
416.713	384.75
416.936	383.75
417.159	363.75
417.382	376.75
417.605	395.75
417.828	397.75
418.051	393.75
418.274	395.75
418.497	399.75
418.72	381.75
418.943	387.75
419.166	401.75
419.389	403.75
419.611	398.75
419.834	406.75
420.057	391.75
420.28	409.75
420.503	409.75
420.726	391.75
420.948	401.75
421.171	436.75
421.394	473.75
421.617	421.75
421.839	408.75
422.062	423.75
422.285	421.75
422.507	487.75
422.73	539.75
422.953	509.75
423.175	463.75
423.398	427.75
423.621	411.75
423.843	443.75
424.066	445.75
424.288	432.75
424.511	451.75
424.733	490.75
424.956	582.75
425.178	563.75
425.401	549.75
425.623	563.75
425.846	503.75
426.068	455.75
426.291	448.75
426.513	445.75
426.735	481.75
426.958	496.75
427.18	567.75
427.402	695.75
427.625	735.75
427.847	673.75
428.069	547.75
428.292	502.75
428.514	467.75
428.736	445.75
428.958	429.75
429.181	406.75
429.403	423.75
429.625	413.75
429.847	469.75
430.069	525.75
430.292	472.75
430.514	420.75
430.736	420.75
430.958	391.75
431.18	391.75
431.402	404.75
431.624	404.75
431.846	380.75
432.068	381.75
432.29	383.75
432.512	375.75
432.734	390.75
432.956	396.75
433.178	412.75
433.4	402.75
433.622	393.75
433.844	415.75
434.066	390.75
434.287	388.75
434.509	387.75
434.731	407.75
434.953	389.75
435.175	421.75
435.397	420.75
435.618	452.75
435.84	489.75
436.062	603.75
436.284	642.75
436.505	521.75
436.727	468.75
436.949	441.75
437.17	441.75
437.392	442.75
437.614	443.75
437.835	466.75
438.057	568.75
438.278	613.75
438.5	628.75
438.721	661.75
438.943	658.75
439.165	529.75
439.386	481.75
439.608	475.75
439.829	455.75
440.05	498.75
440.272	526.75
440.493	490.75
440.715	458.75
440.936	437.75
441.158	415.75
441.379	419.75
441.6	419.75
441.822	453.75
442.043	478.75
442.264	564.75
442.486	599.75
442.707	497.75
442.928	476.75
443.149	460.75
443.371	480.75
443.592	531.75
443.813	591.75
444.034	634.75
444.255	573.75
444.476	461.75
444.698	448.75
444.919	444.75
445.14	530.75
445.361	481.75
445.582	495.75
445.803	541.75
446.024	632.75
446.245	664.75
446.466	592.75
446.687	490.75
446.908	449.75
447.129	416.75
447.35	412.75
447.571	415.75
447.792	409.75
448.013	419.75
448.234	457.75
448.455	484.75
448.675	579.75
448.896	668.75
449.117	565.75
449.338	558.75
449.559	635.75
449.779	725.75
450	573.75
450.221	449.75
450.442	440.75
450.662	438.75
450.883	439.75
451.104	429.75
451.324	420.75
451.545	410.75
451.766	379.75
451.986	362.75
452.207	381.75
452.428	363.75
452.648	393.75
452.869	373.75
453.089	373.75
453.31	383.75
453.53	372.75
453.751	375.75
453.971	370.75
454.192	402.75
454.412	393.75
454.633	375.75
454.853	359.75
455.073	378.75
455.294	392.75
455.514	465.75
455.734	437.75
455.955	369.75
456.175	345.75
456.395	343.75
456.616	355.75
456.836	344.75
457.056	350.75
457.276	325.75
457.497	346.75
457.717	340.75
457.937	363.75
458.157	351.75
458.377	351.75
458.598	397.75
458.818	415.75
459.038	519.75
459.258	517.75
459.478	424.75
459.698	413.75
459.918	376.75
460.138	390.75
460.358	393.75
460.578	364.75
460.798	403.75
461.018	389.75
461.238	387.75
461.458	374.75
461.678	389.75
461.898	376.75
462.118	379.75
462.338	379.75
462.558	384.75
462.777	387.75
462.997	392.75
463.217	391.75
463.437	421.75
463.657	414.75
463.876	389.75
464.096	395.75
464.316	388.75
464.536	418.75
464.755	394.75
464.975	420.75
465.195	467.75
465.414	518.75
465.634	480.75
465.854	423.75
466.073	391.75
466.293	387.75
466.512	372.75
466.732	389.75
466.951	386.75
467.171	378.75
467.391	379.75
467.61	395.75
467.829	404.75
468.049	400.75
468.268	367.75
468.488	364.75
468.707	373.75
468.927	367.75
469.146	376.75
469.365	351.75
469.585	372.75
469.804	369.75
470.023	385.75
470.243	386.75
470.462	404.75
470.681	387.75
470.901	397.75
471.12	391.75
471.339	380.75
471.558	410.75
471.777	408.75
471.997	392.75
472.216	399.75
472.435	383.75
472.654	403.75
472.873	375.75
473.092	353.75
473.311	377.75
473.53	386.75
473.749	395.75
473.968	421.75
474.187	516.75
474.406	547.75
474.625	433.75
474.844	409.75
475.063	388.75
475.282	374.75
475.501	402.75
475.72	381.75
475.939	396.75
476.158	387.75
476.377	383.75
476.596	383.75
476.814	391.75
477.033	395.75
477.252	420.75
477.471	389.75
477.69	414.75
477.908	412.75
478.127	428.75
478.346	420.75
478.564	419.75
478.783	415.75
479.002	420.75
479.22	433.75
479.439	438.75
479.658	463.75
479.876	469.75
480.095	445.75
480.313	490.75
480.532	475.75
480.751	474.75
480.969	471.75
481.188	526.75
481.406	538.75
481.624	480.75
481.843	471.75
482.061	451.75
482.28	423.75
482.498	431.75
482.717	436.75
482.935	456.75
483.153	427.75
483.372	443.75
483.59	450.75
483.808	439.75
484.027	440.75
484.245	460.75
484.463	447.75
484.681	442.75
484.9	444.75
485.118	448.75
485.336	445.75
485.554	460.75
485.772	472.75
485.99	441.75
486.209	431.75
486.427	455.75
486.645	458.75
486.863	489.75
487.081	484.75
487.299	488.75
487.517	479.75
487.735	472.75
487.953	469.75
488.171	470.75
488.389	467.75
488.607	484.75
488.825	477.75
489.043	485.75
489.261	507.75
489.479	488.75
489.696	473.75
489.914	496.75
490.132	482.75
490.35	518.75
490.568	490.75
490.786	501.75
491.003	507.75
491.221	513.75
491.439	523.75
491.657	528.75
491.874	545.75
492.092	536.75
492.31	534.75
492.527	548.75
492.745	578.75
492.963	552.75
493.18	571.75
493.398	576.75
493.615	559.75
493.833	575.75
494.05	555.75
494.268	559.75
494.485	567.75
494.703	550.75
494.92	547.75
495.138	561.75
495.355	563.75
495.573	572.75
495.79	556.75
496.008	569.75
496.225	574.75
496.442	567.75
496.66	559.75
496.877	579.75
497.094	575.75
497.312	561.75
497.529	578.75
497.746	559.75
497.963	595.75
498.181	613.75
498.398	629.75
498.615	608.75
498.832	605.75
499.049	610.75
499.267	636.75
499.484	614.75
499.701	670.75
499.918	668.75
500.135	693.75
500.352	699.75
500.569	711.75
500.786	727.75
501.003	725.75
501.22	699.75
501.437	677.75
501.654	700.75
501.871	709.75
502.088	641.75
502.305	639.75
502.522	636.75
502.739	620.75
502.956	599.75
503.172	582.75
503.389	583.75
503.606	601.75
503.823	587.75
504.04	583.75
504.256	603.75
504.473	575.75
504.69	564.75
504.907	571.75
505.123	557.75
505.34	573.75
505.557	569.75
505.773	537.75
505.99	554.75
506.207	536.75
506.423	537.75
506.64	553.75
506.856	536.75
507.073	530.75
507.289	534.75
507.506	507.75
507.722	561.75
507.939	548.75
508.155	555.75
508.372	526.75
508.588	534.75
508.805	514.75
509.021	538.75
509.238	549.75
509.454	554.75
509.67	573.75
509.887	545.75
510.103	549.75
510.319	547.75
510.536	649.75
510.752	1093.75
510.968	869.75
511.184	561.75
511.401	521.75
511.617	536.75
511.833	513.75
512.049	515.75
512.265	528.75
512.481	515.75
512.698	512.75
512.914	524.75
513.13	521.75
513.346	509.75
513.562	502.75
513.778	504.75
513.994	536.75
514.21	523.75
514.426	558.75
514.642	598.75
514.858	635.75
515.074	659.75
515.29	798.75
515.506	1188.75
515.721	952.75
515.937	646.75
516.153	571.75
516.369	539.75
516.585	550.75
516.801	509.75
517.016	508.75
517.232	508.75
517.448	532.75
517.664	501.75
517.879	513.75
518.095	491.75
518.311	498.75
518.527	496.75
518.742	519.75
518.958	502.75
519.173	493.75
519.389	493.75
519.605	504.75
519.82	532.75
520.036	529.75
520.251	527.75
520.467	579.75
520.682	561.75
520.898	604.75
521.113	610.75
521.329	625.75
521.544	732.75
521.76	924.75
521.975	1562.75
522.19	1536.75
522.406	823.75
522.621	596.75
522.836	546.75
523.052	511.75
523.267	490.75
523.482	473.75
523.698	484.75
523.913	474.75
524.128	480.75
524.343	445.75
524.559	470.75
524.774	434.75
524.989	442.75
525.204	447.75
525.419	465.75
525.634	433.75
525.849	450.75
526.064	427.75
526.28	409.75
526.495	430.75
526.71	413.75
526.925	421.75
527.14	415.75
527.355	423.75
527.57	419.75
527.785	401.75
527.999	420.75
528.214	388.75
528.429	420.75
528.644	398.75
528.859	420.75
529.074	410.75
529.289	436.75
529.503	515.75
529.718	486.75
529.933	472.75
530.148	427.75
530.363	412.75
530.577	412.75
530.792	412.75
531.007	404.75
531.221	412.75
531.436	395.75
531.651	383.75
531.865	398.75
532.08	386.75
532.295	407.75
532.509	389.75
532.724	385.75
532.938	387.75
533.153	388.75
533.367	378.75
533.582	386.75
533.796	388.75
534.011	376.75
534.225	379.75
534.44	367.75
534.654	391.75
534.868	375.75
535.083	364.75
535.297	360.75
535.511	396.75
535.726	405.75
535.94	383.75
536.154	384.75
536.369	383.75
536.583	372.75
536.797	379.75
537.011	377.75
537.225	343.75
537.44	347.75
537.654	396.75
537.868	373.75
538.082	384.75
538.296	368.75
538.51	374.75
538.724	386.75
538.938	382.75
539.153	385.75
539.367	395.75
539.581	395.75
539.795	386.75
540.009	368.75
540.222	374.75
540.436	386.75
540.65	359.75
540.864	379.75
541.078	385.75
541.292	399.75
541.506	374.75
541.72	371.75
541.934	372.75
542.147	377.75
542.361	359.75
542.575	354.75
542.789	352.75
543.002	378.75
543.216	360.75
543.43	362.75
543.644	372.75
543.857	376.75
544.071	356.75
544.285	367.75
544.498	385.75
544.712	382.75
544.925	368.75
545.139	370.75
545.352	378.75
545.566	358.75
545.779	353.75
545.993	357.75
546.206	371.75
546.42	367.75
546.633	353.75
546.847	368.75
547.06	344.75
547.274	371.75
547.487	351.75
547.7	347.75
547.914	367.75
548.127	351.75
548.34	335.75
548.554	332.75
548.767	350.75
548.98	353.75
549.193	348.75
549.407	345.75
549.62	345.75
549.833	355.75
550.046	349.75
550.259	348.75
550.473	357.75
550.686	360.75
550.899	347.75
551.112	325.75
551.325	340.75
551.538	346.75
551.751	354.75
551.964	330.75
552.177	347.75
552.39	358.75
552.603	344.75
552.816	333.75
553.029	335.75
553.242	339.75
553.455	350.75
553.667	344.75
553.88	352.75
554.093	339.75
554.306	365.75
554.519	347.75
554.732	348.75
554.944	322.75
555.157	328.75
555.37	322.75
555.583	337.75
555.795	332.75
556.008	323.75
556.221	319.75
556.433	297.75
556.646	331.75
556.859	297.75
557.071	334.75
557.284	312.75
557.496	321.75
557.709	329.75
557.921	306.75
558.134	327.75
558.346	319.75
558.559	301.75
558.771	303.75
558.984	316.75
559.196	294.75
559.409	307.75
559.621	327.75
559.833	301.75
560.046	310.75
560.258	309.75
560.47	307.75
560.683	311.75
560.895	304.75
561.107	319.75
561.32	312.75
561.532	297.75
561.744	300.75
561.956	309.75
562.168	316.75
562.381	311.75
562.593	323.75
562.805	298.75
563.017	304.75
563.229	317.75
563.441	330.75
563.653	318.75
563.865	308.75
564.077	312.75
564.289	307.75
564.501	300.75
564.713	313.75
564.925	312.75
565.137	326.75
565.349	317.75
565.561	316.75
565.773	335.75
565.985	341.75
566.197	347.75
566.408	341.75
566.62	337.75
566.832	364.75
567.044	352.75
567.255	353.75
567.467	364.75
567.679	358.75
567.891	343.75
568.102	361.75
568.314	353.75
568.526	350.75
568.737	337.75
568.949	324.75
569.161	315.75
569.372	309.75
569.584	306.75
569.795	312.75
570.007	315.75
570.218	344.75
570.43	337.75
570.641	316.75
570.853	292.75
571.064	292.75
571.276	284.75
571.487	303.75
571.698	287.75
571.91	290.75
572.121	293.75
572.333	283.75
572.544	263.75
572.755	273.75
572.966	288.75
573.178	279.75
573.389	273.75
573.6	267.75
573.811	266.75
574.023	259.75
574.234	261.75
574.445	294.75
574.656	267.75
574.867	272.75
575.078	267.75
575.289	287.75
575.501	281.75
575.712	259.75
575.923	265.75
576.134	277.75
576.345	261.75
576.556	272.75
576.767	267.75
576.978	264.75
577.188	253.75
577.399	280.75
577.61	259.75
577.821	266.75
578.032	253.75
578.243	298.75
578.454	524.75
578.665	383.75
578.875	281.75
579.086	281.75
579.297	265.75
579.508	264.75
579.718	244.75
579.929	258.75
580.14	235.75
580.35	251.75
580.561	264.75
580.772	241.75
580.982	256.75
581.193	274.75
581.403	257.75
581.614	255.75
581.825	244.75
582.035	240.75
582.246	254.75
582.456	239.75
582.667	257.75
582.877	243.75
583.087	246.75
583.298	249.75
583.508	260.75
583.719	244.75
583.929	255.75
584.139	241.75
584.35	249.75
584.56	232.75
584.77	242.75
584.981	233.75
585.191	257.75
585.401	246.75
585.611	241.75
585.821	220.75
586.032	246.75
586.242	243.75
586.452	241.75
586.662	255.75
586.872	232.75
587.082	232.75
587.292	236.75
587.502	253.75
587.713	244.75
587.923	258.75
588.133	234.75
588.343	247.75
588.553	233.75
588.762	257.75
588.972	238.75
589.182	283.75
589.392	276.75
589.602	241.75
589.812	279.75
590.022	247.75
590.232	237.75
590.441	234.75
590.651	209.75
590.861	223.75
591.071	227.75
591.281	231.75
591.49	234.75
591.7	232.75
591.91	233.75
592.119	241.75
592.329	236.75
592.539	250.75
592.748	252.75
592.958	255.75
593.167	228.75
593.377	249.75
593.587	234.75
593.796	238.75
594.006	236.75
594.215	246.75
594.424	235.75
594.634	247.75
594.843	235.75
595.053	240.75
595.262	237.75
595.472	231.75
595.681	249.75
595.89	238.75
596.1	253.75
596.309	230.75
596.518	219.75
596.727	222.75
596.937	219.75
597.146	230.75
597.355	213.75
597.564	224.75
597.774	219.75
597.983	206.75
598.192	223.75
598.401	203.75
598.61	218.75
598.819	224.75
599.028	215.75
599.237	201.75
599.446	225.75
599.655	223.75
599.864	212.75
600.073	216.75
600.282	229.75
600.491	211.75
600.7	220.75
600.909	199.75
601.118	219.75
601.327	201.75
601.536	210.75
601.745	229.75
601.953	217.75
602.162	208.75
602.371	204.75
602.58	210.75
602.789	210.75
602.997	209.75
603.206	205.75
603.415	211.75
603.623	203.75
603.832	200.75
604.041	214.75
604.249	199.75
604.458	211.75
604.666	197.75
604.875	207.75
605.084	186.75
605.292	203.75
605.501	203.75
605.709	211.75
605.918	216.75
606.126	206.75
606.334	210.75
606.543	211.75
606.751	204.75
606.96	193.75
607.168	192.75
607.376	195.75
607.585	206.75
607.793	195.75
608.001	194.75
608.21	199.75
608.418	202.75
608.626	187.75
608.834	188.75
609.043	198.75
609.251	210.75
609.459	204.75
609.667	200.75
609.875	204.75
610.083	203.75
610.291	209.75
610.499	193.75
610.707	192.75
610.916	220.75
611.124	200.75
611.332	205.75
611.54	203.75
611.748	214.75
611.955	205.75
612.163	184.75
612.371	200.75
612.579	208.75
612.787	185.75
612.995	212.75
613.203	196.75
613.411	177.75
613.618	185.75
613.826	189.75
614.034	203.75
614.242	187.75
614.449	188.75
614.657	188.75
614.865	208.75
615.072	212.75
615.28	188.75
615.488	197.75
615.695	199.75
615.903	186.75
616.111	209.75
616.318	189.75
616.526	207.75
616.733	195.75
616.941	179.75
617.148	201.75
617.356	181.75
617.563	195.75
617.771	185.75
617.978	183.75
618.185	193.75
618.393	196.75
618.6	202.75
618.807	208.75
619.015	195.75
619.222	203.75
619.429	191.75
619.637	180.75
619.844	181.75
620.051	194.75
620.258	183.75
620.466	190.75
620.673	180.75
620.88	189.75
621.087	188.75
621.294	193.75
621.501	181.75
621.708	171.75
621.915	189.75
622.122	187.75
622.329	204.75
622.536	183.75
622.743	189.75
622.95	189.75
623.157	180.75
623.364	168.75
623.571	179.75
623.778	169.75
623.985	191.75
624.192	177.75
624.399	181.75
624.606	186.75
624.812	181.75
625.019	184.75
625.226	168.75
625.433	191.75
625.639	172.75
625.846	179.75
626.053	177.75
626.259	189.75
626.466	171.75
626.673	163.75
626.879	178.75
627.086	168.75
627.293	175.75
627.499	171.75
627.706	152.75
627.912	191.75
628.119	167.75
628.325	177.75
628.532	170.75
628.738	177.75
628.945	169.75
629.151	185.75
629.357	170.75
629.564	158.75
629.77	157.75
629.976	173.75
630.183	165.75
630.389	181.75
630.595	169.75
630.802	176.75
631.008	175.75
631.214	159.75
631.42	171.75
631.627	158.75
631.833	165.75
632.039	165.75
632.245	152.75
632.451	169.75
632.657	164.75
632.863	161.75
633.069	166.75
633.275	151.75
633.481	162.75
633.688	156.75
633.893	159.75
634.099	171.75
634.305	165.75
634.511	151.75
634.717	160.75
634.923	153.75
635.129	163.75
635.335	145.75
635.541	158.75
635.747	161.75
635.952	148.75
636.158	164.75
636.364	152.75
636.57	165.75
636.775	156.75
636.981	168.75
637.187	161.75
637.392	160.75
637.598	156.75
637.804	159.75
638.009	153.75
638.215	149.75
638.421	144.75
638.626	145.75
638.832	150.75
639.037	147.75
639.243	162.75
639.448	161.75
639.654	159.75
639.859	147.75
640.065	153.75
640.27	167.75
640.475	161.75
640.681	152.75
640.886	163.75
641.091	149.75
641.297	159.75
641.502	143.75
641.707	159.75
641.913	150.75
642.118	151.75
642.323	144.75
642.528	137.75
642.733	141.75
642.939	154.75
643.144	164.75
643.349	153.75
643.554	158.75
643.759	146.75
643.964	141.75
644.169	149.75
644.374	134.75
644.579	139.75
644.784	146.75
644.989	145.75
645.194	138.75
645.399	140.75
645.604	148.75
645.809	150.75
646.014	149.75
646.219	148.75
646.423	144.75
646.628	147.75
646.833	152.75
647.038	131.75
647.243	155.75
647.447	141.75
647.652	138.75
647.857	135.75
648.062	148.75
648.266	127.75
648.471	158.75
648.676	157.75
648.88	151.75
649.085	152.75
649.289	144.75
649.494	147.75
649.698	161.75
649.903	172.75
650.107	141.75
650.312	156.75
650.516	135.75
650.721	151.75
650.925	141.75
651.13	127.75
651.334	139.75
651.539	123.75
651.743	132.75
651.947	135.75
652.152	127.75
652.356	131.75
652.56	124.75
652.764	126.75
652.969	122.75
653.173	125.75
653.377	112.75
653.581	134.75
653.785	125.75
653.99	123.75
654.194	123.75
654.398	132.75
654.602	124.75
654.806	130.75
655.01	143.75
655.214	129.75
655.418	119.75
655.622	118.75
655.826	120.75
656.03	140.75
656.234	125.75
656.438	129.75
656.642	127.75
656.846	110.75
657.049	127.75
657.253	108.75
657.457	121.75
657.661	108.75
657.865	112.75
658.068	109.75
658.272	81.75
658.476	95.75
658.68	87.75
658.883	89.75
659.087	98.75
659.291	109.75
659.494	98.75
659.698	83.75
659.901	106.75
660.105	90.75
660.309	95.75
660.512	88.75
660.716	88.75
660.919	92.75
661.123	77.75
661.326	86.75
661.53	89.75
661.733	81.75
661.936	86.75
662.14	98.75
662.343	87.75
662.546	90.75
662.75	90.75
662.953	76.75
663.156	84.75
663.36	82.75
663.563	80.75
663.766	90.75
663.969	80.75
664.173	81.75
664.376	79.75
664.579	78.75
664.782	75.75
664.985	81.75
665.188	77.75
665.391	90.75
665.594	75.75
665.797	81.75
666	93.75
666.203	86.75
666.406	76.75
666.609	93.75
666.812	97.75
667.015	87.75
667.218	78.75
667.421	69.75
667.624	81.75
667.827	93.75
668.03	85.75
668.232	83.75
668.435	70.75
668.638	83.75
668.841	76.75
669.043	85.75
669.246	92.75
669.449	77.75
669.651	90.75
669.854	94.75
670.057	86.75
670.259	86.75
670.462	70.75
670.665	78.75
670.867	76.75
671.07	76.75
671.272	85.75
671.475	87.75
671.677	100.75
671.88	93.75
672.082	67.75
672.284	81.75
672.487	72.75
672.689	74.75
672.892	83.75
