Data from 1981.PennyLincolnUp.Lamp.En5.5.200Scan.071819.P1_HRD10591_16-42-40-959.txt Node
Date: Thu Jul 18 16:42:40 EDT 2019
User: cochatt
Spectrometer: HR+D1059
Trigger mode: 1
Integration Time (sec): 1.000000E-1
Scans to average: 1
Electric dark correction enabled: true
Nonlinearity correction enabled: false
Boxcar width: 0
XAxis mode: Wavelengths
Number of Pixels in Spectrum: 2048
>>>>>Begin Spectral Data<<<<<
223.165	-25.31
223.4	-25.31
223.635	-25.31
223.869	-25.31
224.104	-8.31
224.338	-22.31
224.573	-7.31
224.808	-12.31
225.042	6.69
225.277	5.69
225.511	1.69
225.746	-5.31
225.98	8.69
226.215	7.69
226.449	26.69
226.683	12.69
226.918	6.69
227.152	29.69
227.387	46.69
227.621	26.69
227.856	37.69
228.09	42.69
228.324	45.69
228.559	48.69
228.793	64.69
229.027	89.69
229.262	124.69
229.496	119.69
229.73	141.69
229.964	167.69
230.199	137.69
230.433	120.69
230.667	104.69
230.901	111.69
231.136	110.69
231.37	118.69
231.604	106.69
231.838	103.69
232.072	119.69
232.306	102.69
232.541	93.69
232.775	129.69
233.009	103.69
233.243	89.69
233.477	114.69
233.711	119.69
233.945	112.69
234.179	115.69
234.413	109.69
234.647	120.69
234.881	117.69
235.115	114.69
235.349	120.69
235.583	114.69
235.817	116.69
236.051	124.69
236.285	118.69
236.519	120.69
236.753	124.69
236.987	133.69
237.221	179.69
237.455	231.69
237.689	187.69
237.922	140.69
238.156	137.69
238.39	134.69
238.624	129.69
238.858	132.69
239.091	138.69
239.325	130.69
239.559	122.69
239.793	130.69
240.027	132.69
240.26	142.69
240.494	145.69
240.728	152.69
240.961	137.69
241.195	138.69
241.429	149.69
241.662	126.69
241.896	119.69
242.13	131.69
242.363	123.69
242.597	125.69
242.83	148.69
243.064	128.69
243.298	134.69
243.531	130.69
243.765	144.69
243.998	130.69
244.232	142.69
244.465	137.69
244.699	151.69
244.932	146.69
245.166	154.69
245.399	142.69
245.633	137.69
245.866	134.69
246.099	145.69
246.333	148.69
246.566	146.69
246.8	144.69
247.033	157.69
247.266	159.69
247.5	158.69
247.733	183.69
247.966	192.69
248.2	169.69
248.433	147.69
248.666	166.69
248.899	196.69
249.133	202.69
249.366	203.69
249.599	224.69
249.832	175.69
250.066	185.69
250.299	171.69
250.532	192.69
250.765	215.69
250.998	238.69
251.231	225.69
251.465	224.69
251.698	228.69
251.931	208.69
252.164	204.69
252.397	196.69
252.63	194.69
252.863	220.69
253.096	214.69
253.329	230.69
253.562	240.69
253.795	223.69
254.028	211.69
254.261	224.69
254.494	230.69
254.727	253.69
254.96	298.69
255.193	276.69
255.426	275.69
255.659	255.69
255.892	245.69
256.124	246.69
256.357	239.69
256.59	240.69
256.823	227.69
257.056	226.69
257.289	214.69
257.521	192.69
257.754	225.69
257.987	213.69
258.22	216.69
258.452	207.69
258.685	219.69
258.918	213.69
259.151	218.69
259.383	219.69
259.616	228.69
259.849	240.69
260.081	244.69
260.314	251.69
260.547	273.69
260.779	249.69
261.012	250.69
261.244	241.69
261.477	233.69
261.71	242.69
261.942	229.69
262.175	254.69
262.407	225.69
262.64	215.69
262.872	219.69
263.105	207.69
263.337	222.69
263.57	217.69
263.802	212.69
264.035	206.69
264.267	208.69
264.499	217.69
264.732	208.69
264.964	199.69
265.197	206.69
265.429	207.69
265.661	202.69
265.894	223.69
266.126	203.69
266.358	215.69
266.591	210.69
266.823	234.69
267.055	215.69
267.287	223.69
267.52	227.69
267.752	217.69
267.984	218.69
268.216	224.69
268.448	235.69
268.681	229.69
268.913	261.69
269.145	273.69
269.377	273.69
269.609	284.69
269.841	265.69
270.073	295.69
270.306	289.69
270.538	314.69
270.77	322.69
271.002	315.69
271.234	310.69
271.466	308.69
271.698	342.69
271.93	328.69
272.162	349.69
272.394	344.69
272.626	330.69
272.858	306.69
273.09	275.69
273.322	301.69
273.553	278.69
273.785	270.69
274.017	249.69
274.249	252.69
274.481	273.69
274.713	273.69
274.945	279.69
275.176	276.69
275.408	254.69
275.64	274.69
275.872	270.69
276.104	278.69
276.335	273.69
276.567	279.69
276.799	268.69
277.031	307.69
277.262	313.69
277.494	312.69
277.726	315.69
277.957	308.69
278.189	294.69
278.421	275.69
278.652	278.69
278.884	279.69
279.115	269.69
279.347	266.69
279.579	262.69
279.81	273.69
280.042	265.69
280.273	259.69
280.505	276.69
280.736	263.69
280.968	249.69
281.199	252.69
281.431	274.69
281.662	273.69
281.894	271.69
282.125	273.69
282.356	293.69
282.588	287.69
282.819	313.69
283.051	289.69
283.282	265.69
283.513	275.69
283.745	266.69
283.976	302.69
284.207	287.69
284.439	284.69
284.67	290.69
284.901	274.69
285.132	257.69
285.364	260.69
285.595	260.69
285.826	269.69
286.057	287.69
286.288	305.69
286.52	274.69
286.751	272.69
286.982	275.69
287.213	259.69
287.444	268.69
287.675	284.69
287.906	290.69
288.138	304.69
288.369	288.69
288.6	289.69
288.831	302.69
289.062	288.69
289.293	285.69
289.524	275.69
289.755	277.69
289.986	278.69
290.217	272.69
290.448	276.69
290.679	265.69
290.91	262.69
291.141	264.69
291.371	293.69
291.602	266.69
291.833	263.69
292.064	291.69
292.295	278.69
292.526	282.69
292.757	283.69
292.987	286.69
293.218	272.69
293.449	278.69
293.68	300.69
293.91	278.69
294.141	278.69
294.372	268.69
294.603	281.69
294.833	280.69
295.064	284.69
295.295	278.69
295.525	304.69
295.756	290.69
295.987	300.69
296.217	320.69
296.448	336.69
296.679	313.69
296.909	283.69
297.14	282.69
297.37	279.69
297.601	290.69
297.831	280.69
298.062	306.69
298.292	278.69
298.523	287.69
298.753	299.69
298.984	295.69
299.214	289.69
299.445	309.69
299.675	294.69
299.905	305.69
300.136	295.69
300.366	304.69
300.597	288.69
300.827	320.69
301.057	307.69
301.288	327.69
301.518	315.69
301.748	314.69
301.979	314.69
302.209	320.69
302.439	315.69
302.669	320.69
302.9	324.69
303.13	316.69
303.36	319.69
303.59	317.69
303.82	314.69
304.051	331.69
304.281	326.69
304.511	302.69
304.741	307.69
304.971	305.69
305.201	322.69
305.431	315.69
305.661	300.69
305.891	309.69
306.121	324.69
306.352	300.69
306.582	308.69
306.812	334.69
307.042	323.69
307.272	314.69
307.502	316.69
307.731	323.69
307.961	327.69
308.191	346.69
308.421	331.69
308.651	357.69
308.881	348.69
309.111	344.69
309.341	334.69
309.571	356.69
309.8	350.69
310.03	376.69
310.26	360.69
310.49	392.69
310.72	388.69
310.949	404.69
311.179	418.69
311.409	380.69
311.639	377.69
311.868	376.69
312.098	374.69
312.328	379.69
312.557	395.69
312.787	434.69
313.017	390.69
313.246	402.69
313.476	392.69
313.706	390.69
313.935	379.69
314.165	374.69
314.394	404.69
314.624	386.69
314.853	386.69
315.083	393.69
315.312	401.69
315.542	383.69
315.771	366.69
316.001	374.69
316.23	361.69
316.46	372.69
316.689	357.69
316.919	359.69
317.148	395.69
317.377	376.69
317.607	378.69
317.836	372.69
318.065	364.69
318.295	349.69
318.524	361.69
318.753	375.69
318.983	364.69
319.212	357.69
319.441	395.69
319.67	368.69
319.9	384.69
320.129	388.69
320.358	393.69
320.587	384.69
320.816	390.69
321.046	406.69
321.275	390.69
321.504	399.69
321.733	423.69
321.962	430.69
322.191	426.69
322.42	457.69
322.649	483.69
322.878	476.69
323.108	479.69
323.337	514.69
323.566	544.69
323.795	597.69
324.024	654.69
324.253	848.69
324.482	1209.69
324.71	1841.69
324.939	2451.69
325.168	2126.69
325.397	1074.69
325.626	736.69
325.855	608.69
326.084	581.69
326.313	554.69
326.542	572.69
326.77	617.69
326.999	754.69
327.228	1038.69
327.457	1536.69
327.686	1809.69
327.914	1215.69
328.143	815.69
328.372	709.69
328.6	646.69
328.829	645.69
329.058	625.69
329.287	648.69
329.515	574.69
329.744	532.69
329.972	522.69
330.201	571.69
330.43	617.69
330.658	641.69
330.887	642.69
331.115	626.69
331.344	575.69
331.572	490.69
331.801	509.69
332.03	517.69
332.258	473.69
332.486	434.69
332.715	438.69
332.943	439.69
333.172	452.69
333.4	454.69
333.629	443.69
333.857	477.69
334.085	506.69
334.314	483.69
334.542	510.69
334.771	534.69
334.999	459.69
335.227	432.69
335.455	436.69
335.684	439.69
335.912	446.69
336.14	419.69
336.369	415.69
336.597	425.69
336.825	453.69
337.053	419.69
337.281	430.69
337.51	423.69
337.738	427.69
337.966	421.69
338.194	410.69
338.422	416.69
338.65	418.69
338.878	397.69
339.106	409.69
339.334	398.69
339.562	409.69
339.79	413.69
340.018	419.69
340.246	406.69
340.474	423.69
340.702	419.69
340.93	402.69
341.158	400.69
341.386	386.69
341.614	405.69
341.842	423.69
342.07	411.69
342.298	414.69
342.526	396.69
342.754	385.69
342.981	373.69
343.209	396.69
343.437	382.69
343.665	386.69
343.893	414.69
344.12	393.69
344.348	406.69
344.576	398.69
344.804	419.69
345.031	415.69
345.259	442.69
345.487	416.69
345.714	416.69
345.942	391.69
346.17	386.69
346.397	402.69
346.625	396.69
346.853	399.69
347.08	402.69
347.308	416.69
347.535	410.69
347.763	394.69
347.99	386.69
348.218	393.69
348.445	427.69
348.673	414.69
348.9	405.69
349.128	382.69
349.355	376.69
349.583	394.69
349.81	375.69
350.037	396.69
350.265	367.69
350.492	385.69
350.72	396.69
350.947	391.69
351.174	386.69
351.402	398.69
351.629	405.69
351.856	398.69
352.083	408.69
352.311	410.69
352.538	431.69
352.765	416.69
352.992	419.69
353.22	400.69
353.447	410.69
353.674	391.69
353.901	375.69
354.128	375.69
354.355	373.69
354.583	368.69
354.81	378.69
355.037	356.69
355.264	349.69
355.491	346.69
355.718	342.69
355.945	339.69
356.172	346.69
356.399	363.69
356.626	354.69
356.853	357.69
357.08	353.69
357.307	343.69
357.534	349.69
357.761	339.69
357.988	370.69
358.215	368.69
358.441	358.69
358.668	363.69
358.895	374.69
359.122	366.69
359.349	369.69
359.576	395.69
359.802	406.69
360.029	449.69
360.256	457.69
360.483	428.69
360.709	414.69
360.936	396.69
361.163	390.69
361.39	385.69
361.616	384.69
361.843	386.69
362.07	371.69
362.296	404.69
362.523	378.69
362.749	377.69
362.976	362.69
363.203	358.69
363.429	369.69
363.656	353.69
363.882	361.69
364.109	367.69
364.335	370.69
364.562	379.69
364.788	371.69
365.015	376.69
365.241	375.69
365.468	353.69
365.694	370.69
365.92	373.69
366.147	361.69
366.373	371.69
366.599	368.69
366.826	355.69
367.052	375.69
367.278	355.69
367.505	366.69
367.731	352.69
367.957	362.69
368.184	357.69
368.41	329.69
368.636	363.69
368.862	382.69
369.089	362.69
369.315	358.69
369.541	338.69
369.767	350.69
369.993	339.69
370.219	347.69
370.445	364.69
370.672	346.69
370.898	359.69
371.124	343.69
371.35	345.69
371.576	347.69
371.802	317.69
372.028	352.69
372.254	342.69
372.48	330.69
372.706	352.69
372.932	344.69
373.158	356.69
373.384	352.69
373.61	331.69
373.835	360.69
374.061	338.69
374.287	361.69
374.513	345.69
374.739	343.69
374.965	341.69
375.191	355.69
375.416	342.69
375.642	329.69
375.868	340.69
376.094	331.69
376.319	320.69
376.545	338.69
376.771	329.69
376.997	340.69
377.222	347.69
377.448	335.69
377.674	330.69
377.899	342.69
378.125	347.69
378.35	354.69
378.576	340.69
378.802	341.69
379.027	337.69
379.253	355.69
379.478	316.69
379.704	342.69
379.929	320.69
380.155	337.69
380.38	326.69
380.606	331.69
380.831	339.69
381.057	350.69
381.282	343.69
381.507	327.69
381.733	322.69
381.958	329.69
382.184	344.69
382.409	357.69
382.634	348.69
382.86	336.69
383.085	327.69
383.31	360.69
383.535	344.69
383.761	352.69
383.986	327.69
384.211	337.69
384.436	338.69
384.662	329.69
384.887	340.69
385.112	340.69
385.337	345.69
385.562	353.69
385.787	344.69
386.013	353.69
386.238	360.69
386.463	361.69
386.688	361.69
386.913	331.69
387.138	340.69
387.363	354.69
387.588	360.69
387.813	359.69
388.038	355.69
388.263	349.69
388.488	354.69
388.713	353.69
388.938	353.69
389.163	352.69
389.387	346.69
389.612	333.69
389.837	327.69
390.062	342.69
390.287	340.69
390.512	341.69
390.736	358.69
390.961	352.69
391.186	350.69
391.411	366.69
391.636	353.69
391.86	349.69
392.085	342.69
392.31	338.69
392.534	360.69
392.759	364.69
392.984	352.69
393.208	326.69
393.433	360.69
393.658	359.69
393.882	350.69
394.107	348.69
394.331	345.69
394.556	355.69
394.78	360.69
395.005	365.69
395.229	350.69
395.454	348.69
395.678	355.69
395.903	373.69
396.127	384.69
396.352	379.69
396.576	364.69
396.801	369.69
397.025	347.69
397.249	368.69
397.474	365.69
397.698	363.69
397.922	376.69
398.147	416.69
398.371	397.69
398.595	383.69
398.82	394.69
399.044	384.69
399.268	387.69
399.492	390.69
399.717	434.69
399.941	436.69
400.165	461.69
400.389	478.69
400.613	447.69
400.837	406.69
401.062	406.69
401.286	412.69
401.51	393.69
401.734	388.69
401.958	376.69
402.182	407.69
402.406	410.69
402.63	410.69
402.854	395.69
403.078	406.69
403.302	396.69
403.526	424.69
403.75	419.69
403.974	394.69
404.198	400.69
404.422	411.69
404.645	418.69
404.869	425.69
405.093	436.69
405.317	468.69
405.541	491.69
405.765	468.69
405.988	438.69
406.212	456.69
406.436	451.69
406.66	444.69
406.883	458.69
407.107	476.69
407.331	511.69
407.555	541.69
407.778	547.69
408.002	524.69
408.226	466.69
408.449	460.69
408.673	453.69
408.896	471.69
409.12	508.69
409.344	464.69
409.567	453.69
409.791	434.69
410.014	413.69
410.238	394.69
410.461	406.69
410.685	406.69
410.908	423.69
411.132	459.69
411.355	484.69
411.578	474.69
411.802	427.69
412.025	410.69
412.249	407.69
412.472	440.69
412.695	454.69
412.919	478.69
413.142	410.69
413.365	408.69
413.589	374.69
413.812	382.69
414.035	402.69
414.258	407.69
414.482	389.69
414.705	381.69
414.928	375.69
415.151	366.69
415.374	373.69
415.597	367.69
415.821	371.69
416.044	392.69
416.267	374.69
416.49	380.69
416.713	382.69
416.936	378.69
417.159	380.69
417.382	396.69
417.605	395.69
417.828	399.69
418.051	420.69
418.274	403.69
418.497	391.69
418.72	404.69
418.943	387.69
419.166	374.69
419.389	401.69
419.611	415.69
419.834	412.69
420.057	399.69
420.28	401.69
420.503	405.69
420.726	407.69
420.948	439.69
421.171	463.69
421.394	480.69
421.617	439.69
421.839	403.69
422.062	407.69
422.285	431.69
422.507	471.69
422.73	550.69
422.953	534.69
423.175	436.69
423.398	436.69
423.621	424.69
423.843	446.69
424.066	461.69
424.288	460.69
424.511	469.69
424.733	515.69
424.956	588.69
425.178	560.69
425.401	528.69
425.623	553.69
425.846	487.69
426.068	459.69
426.291	437.69
426.513	439.69
426.735	482.69
426.958	491.69
427.18	574.69
427.402	652.69
427.625	764.69
427.847	687.69
428.069	595.69
428.292	501.69
428.514	442.69
428.736	439.69
428.958	411.69
429.181	424.69
429.403	414.69
429.625	418.69
429.847	454.69
430.069	511.69
430.292	504.69
430.514	432.69
430.736	400.69
430.958	408.69
431.18	384.69
431.402	395.69
431.624	388.69
431.846	394.69
432.068	375.69
432.29	404.69
432.512	402.69
432.734	382.69
432.956	398.69
433.178	408.69
433.4	409.69
433.622	395.69
433.844	400.69
434.066	389.69
434.287	379.69
434.509	374.69
434.731	393.69
434.953	410.69
435.175	431.69
435.397	446.69
435.618	456.69
435.84	472.69
436.062	576.69
436.284	634.69
436.505	548.69
436.727	487.69
436.949	426.69
437.17	424.69
437.392	418.69
437.614	425.69
437.835	478.69
438.057	558.69
438.278	648.69
438.5	631.69
438.721	694.69
438.943	647.69
439.165	533.69
439.386	486.69
439.608	483.69
439.829	486.69
440.05	507.69
440.272	534.69
440.493	534.69
440.715	472.69
440.936	439.69
441.158	430.69
441.379	434.69
441.6	438.69
441.822	448.69
442.043	495.69
442.264	571.69
442.486	615.69
442.707	534.69
442.928	474.69
443.149	491.69
443.371	501.69
443.592	512.69
443.813	625.69
444.034	642.69
444.255	513.69
444.476	465.69
444.698	428.69
444.919	436.69
445.14	545.69
445.361	526.69
445.582	494.69
445.803	572.69
446.024	652.69
446.245	669.69
446.466	603.69
446.687	518.69
446.908	454.69
447.129	445.69
447.35	410.69
447.571	414.69
447.792	416.69
448.013	440.69
448.234	446.69
448.455	498.69
448.675	619.69
448.896	676.69
449.117	605.69
449.338	560.69
449.559	677.69
449.779	711.69
450	586.69
450.221	485.69
450.442	460.69
450.662	433.69
450.883	425.69
451.104	435.69
451.324	437.69
451.545	390.69
451.766	399.69
451.986	405.69
452.207	379.69
452.428	372.69
452.648	376.69
452.869	382.69
453.089	404.69
453.31	418.69
453.53	393.69
453.751	383.69
453.971	396.69
454.192	420.69
454.412	384.69
454.633	393.69
454.853	344.69
455.073	386.69
455.294	414.69
455.514	484.69
455.734	486.69
455.955	387.69
456.175	362.69
456.395	356.69
456.616	348.69
456.836	343.69
457.056	345.69
457.276	335.69
457.497	353.69
457.717	336.69
457.937	335.69
458.157	362.69
458.377	360.69
458.598	395.69
458.818	454.69
459.038	537.69
459.258	526.69
459.478	456.69
459.698	419.69
459.918	386.69
460.138	360.69
460.358	380.69
460.578	376.69
460.798	393.69
461.018	378.69
461.238	378.69
461.458	375.69
461.678	368.69
461.898	384.69
462.118	355.69
462.338	386.69
462.558	378.69
462.777	381.69
462.997	385.69
463.217	376.69
463.437	374.69
463.657	392.69
463.876	399.69
464.096	384.69
464.316	416.69
464.536	400.69
464.755	406.69
464.975	422.69
465.195	467.69
465.414	534.69
465.634	458.69
465.854	427.69
466.073	412.69
466.293	387.69
466.512	368.69
466.732	378.69
466.951	371.69
467.171	356.69
467.391	366.69
467.61	380.69
467.829	407.69
468.049	394.69
468.268	384.69
468.488	363.69
468.707	372.69
468.927	363.69
469.146	366.69
469.365	369.69
469.585	358.69
469.804	369.69
470.023	394.69
470.243	387.69
470.462	394.69
470.681	400.69
470.901	414.69
471.12	395.69
471.339	369.69
471.558	372.69
471.777	372.69
471.997	360.69
472.216	375.69
472.435	395.69
472.654	406.69
472.873	376.69
473.092	367.69
473.311	375.69
473.53	387.69
473.749	395.69
473.968	431.69
474.187	544.69
474.406	552.69
474.625	451.69
474.844	400.69
475.063	403.69
475.282	394.69
475.501	395.69
475.72	401.69
475.939	389.69
476.158	392.69
476.377	391.69
476.596	399.69
476.814	404.69
477.033	403.69
477.252	413.69
477.471	404.69
477.69	395.69
477.908	390.69
478.127	400.69
478.346	392.69
478.564	415.69
478.783	402.69
479.002	414.69
479.22	436.69
479.439	424.69
479.658	442.69
479.876	454.69
480.095	471.69
480.313	489.69
480.532	474.69
480.751	465.69
480.969	495.69
481.188	546.69
481.406	578.69
481.624	522.69
481.843	465.69
482.061	450.69
482.28	475.69
482.498	458.69
482.717	436.69
482.935	440.69
483.153	432.69
483.372	450.69
483.59	469.69
483.808	440.69
484.027	457.69
484.245	448.69
484.463	461.69
484.681	472.69
484.9	462.69
485.118	455.69
485.336	458.69
485.554	454.69
485.772	466.69
485.99	454.69
486.209	470.69
486.427	481.69
486.645	476.69
486.863	463.69
487.081	511.69
487.299	470.69
487.517	462.69
487.735	501.69
487.953	485.69
488.171	474.69
488.389	489.69
488.607	489.69
488.825	474.69
489.043	480.69
489.261	479.69
489.479	484.69
489.696	498.69
489.914	488.69
490.132	512.69
490.35	511.69
490.568	529.69
490.786	513.69
491.003	536.69
491.221	531.69
491.439	531.69
491.657	551.69
491.874	550.69
492.092	557.69
492.31	555.69
492.527	548.69
492.745	550.69
492.963	570.69
493.18	564.69
493.398	567.69
493.615	566.69
493.833	559.69
494.05	564.69
494.268	568.69
494.485	578.69
494.703	555.69
494.92	549.69
495.138	583.69
495.355	564.69
495.573	576.69
495.79	594.69
496.008	589.69
496.225	593.69
496.442	574.69
496.66	554.69
496.877	568.69
497.094	563.69
497.312	581.69
497.529	602.69
497.746	569.69
497.963	593.69
498.181	625.69
498.398	619.69
498.615	609.69
498.832	614.69
499.049	614.69
499.267	622.69
499.484	603.69
499.701	633.69
499.918	650.69
500.135	688.69
500.352	698.69
500.569	689.69
500.786	696.69
501.003	708.69
501.22	688.69
501.437	688.69
501.654	693.69
501.871	692.69
502.088	676.69
502.305	653.69
502.522	636.69
502.739	628.69
502.956	598.69
503.172	590.69
503.389	609.69
503.606	601.69
503.823	588.69
504.04	597.69
504.256	573.69
504.473	564.69
504.69	558.69
504.907	538.69
505.123	569.69
505.34	571.69
505.557	578.69
505.773	565.69
505.99	566.69
506.207	573.69
506.423	569.69
506.64	567.69
506.856	537.69
507.073	553.69
507.289	553.69
507.506	540.69
507.722	562.69
507.939	577.69
508.155	555.69
508.372	542.69
508.588	527.69
508.805	530.69
509.021	542.69
509.238	544.69
509.454	569.69
509.67	558.69
509.887	572.69
510.103	524.69
510.319	562.69
510.536	648.69
510.752	1099.69
510.968	871.69
511.184	578.69
511.401	535.69
511.617	527.69
511.833	544.69
512.049	541.69
512.265	510.69
512.481	506.69
512.698	499.69
512.914	521.69
513.13	515.69
513.346	512.69
513.562	496.69
513.778	503.69
513.994	528.69
514.21	534.69
514.426	554.69
514.642	627.69
514.858	629.69
515.074	682.69
515.29	835.69
515.506	1284.69
515.721	1006.69
515.937	658.69
516.153	613.69
516.369	564.69
516.585	526.69
516.801	543.69
517.016	530.69
517.232	530.69
517.448	531.69
517.664	535.69
517.879	507.69
518.095	515.69
518.311	491.69
518.527	494.69
518.742	520.69
518.958	490.69
519.173	485.69
519.389	520.69
519.605	502.69
519.82	501.69
520.036	550.69
520.251	549.69
520.467	573.69
520.682	574.69
520.898	593.69
521.113	605.69
521.329	662.69
521.544	784.69
521.76	1015.69
521.975	1714.69
522.19	1587.69
522.406	840.69
522.621	629.69
522.836	576.69
523.052	528.69
523.267	506.69
523.482	494.69
523.698	475.69
523.913	468.69
524.128	495.69
524.343	457.69
524.559	471.69
524.774	458.69
524.989	466.69
525.204	438.69
525.419	466.69
525.634	448.69
525.849	435.69
526.064	404.69
526.28	427.69
526.495	406.69
526.71	413.69
526.925	412.69
527.14	406.69
527.355	410.69
527.57	394.69
527.785	405.69
527.999	413.69
528.214	410.69
528.429	401.69
528.644	407.69
528.859	415.69
529.074	402.69
529.289	453.69
529.503	534.69
529.718	506.69
529.933	440.69
530.148	427.69
530.363	421.69
530.577	403.69
530.792	412.69
531.007	418.69
531.221	406.69
531.436	392.69
531.651	396.69
531.865	402.69
532.08	399.69
532.295	388.69
532.509	382.69
532.724	401.69
532.938	385.69
533.153	400.69
533.367	381.69
533.582	378.69
533.796	396.69
534.011	392.69
534.225	397.69
534.44	372.69
534.654	374.69
534.868	394.69
535.083	368.69
535.297	376.69
535.511	402.69
535.726	406.69
535.94	397.69
536.154	398.69
536.369	371.69
536.583	380.69
536.797	376.69
537.011	379.69
537.225	376.69
537.44	370.69
537.654	374.69
537.868	375.69
538.082	390.69
538.296	380.69
538.51	376.69
538.724	392.69
538.938	376.69
539.153	373.69
539.367	384.69
539.581	374.69
539.795	362.69
540.009	370.69
540.222	374.69
540.436	376.69
540.65	364.69
540.864	358.69
541.078	385.69
541.292	374.69
541.506	372.69
541.72	378.69
541.934	386.69
542.147	389.69
542.361	361.69
542.575	371.69
542.789	372.69
543.002	366.69
543.216	367.69
543.43	386.69
543.644	382.69
543.857	366.69
544.071	368.69
544.285	380.69
544.498	362.69
544.712	368.69
544.925	364.69
545.139	370.69
545.352	356.69
545.566	374.69
545.779	343.69
545.993	361.69
546.206	369.69
546.42	366.69
546.633	362.69
546.847	350.69
547.06	343.69
547.274	346.69
547.487	335.69
547.7	346.69
547.914	339.69
548.127	335.69
548.34	340.69
548.554	328.69
548.767	343.69
548.98	327.69
549.193	346.69
549.407	332.69
549.62	344.69
549.833	341.69
550.046	334.69
550.259	332.69
550.473	330.69
550.686	338.69
550.899	329.69
551.112	330.69
551.325	340.69
551.538	328.69
551.751	336.69
551.964	335.69
552.177	322.69
552.39	350.69
552.603	335.69
552.816	347.69
553.029	323.69
553.242	330.69
553.455	348.69
553.667	355.69
553.88	351.69
554.093	353.69
554.306	354.69
554.519	354.69
554.732	348.69
554.944	338.69
555.157	333.69
555.37	314.69
555.583	319.69
555.795	330.69
556.008	327.69
556.221	332.69
556.433	318.69
556.646	299.69
556.859	295.69
557.071	313.69
557.284	316.69
557.496	314.69
557.709	314.69
557.921	298.69
558.134	313.69
558.346	308.69
558.559	300.69
558.771	305.69
558.984	293.69
559.196	311.69
559.409	315.69
559.621	309.69
559.833	303.69
560.046	310.69
560.258	306.69
560.47	306.69
560.683	306.69
560.895	297.69
561.107	298.69
561.32	300.69
561.532	295.69
561.744	310.69
561.956	308.69
562.168	302.69
562.381	315.69
562.593	310.69
562.805	317.69
563.017	310.69
563.229	322.69
563.441	295.69
563.653	289.69
563.865	304.69
564.077	297.69
564.289	310.69
564.501	316.69
564.713	321.69
564.925	322.69
565.137	309.69
565.349	314.69
565.561	320.69
565.773	322.69
565.985	314.69
566.197	342.69
566.408	335.69
566.62	327.69
566.832	322.69
567.044	344.69
567.255	346.69
567.467	348.69
567.679	361.69
567.891	345.69
568.102	342.69
568.314	339.69
568.526	313.69
568.737	321.69
568.949	325.69
569.161	310.69
569.372	294.69
569.584	310.69
569.795	308.69
570.007	311.69
570.218	359.69
570.43	321.69
570.641	274.69
570.853	297.69
571.064	306.69
571.276	290.69
571.487	303.69
571.698	288.69
571.91	295.69
572.121	286.69
572.333	284.69
572.544	254.69
572.755	287.69
572.966	258.69
573.178	264.69
573.389	258.69
573.6	257.69
573.811	290.69
574.023	283.69
574.234	272.69
574.445	281.69
574.656	264.69
574.867	258.69
575.078	255.69
575.289	270.69
575.501	284.69
575.712	246.69
575.923	256.69
576.134	267.69
576.345	260.69
576.556	258.69
576.767	249.69
576.978	264.69
577.188	280.69
577.399	256.69
577.61	262.69
577.821	261.69
578.032	255.69
578.243	300.69
578.454	498.69
578.665	362.69
578.875	262.69
579.086	258.69
579.297	255.69
579.508	255.69
579.718	276.69
579.929	250.69
580.14	241.69
580.35	245.69
580.561	234.69
580.772	252.69
580.982	227.69
581.193	233.69
581.403	246.69
581.614	246.69
581.825	231.69
582.035	250.69
582.246	235.69
582.456	241.69
582.667	251.69
582.877	244.69
583.087	227.69
583.298	248.69
583.508	256.69
583.719	243.69
583.929	239.69
584.139	232.69
584.35	243.69
584.56	240.69
584.77	254.69
584.981	268.69
585.191	245.69
585.401	230.69
585.611	237.69
585.821	225.69
586.032	244.69
586.242	230.69
586.452	252.69
586.662	232.69
586.872	231.69
587.082	229.69
587.292	247.69
587.502	244.69
587.713	226.69
587.923	241.69
588.133	235.69
588.343	239.69
588.553	227.69
588.762	230.69
588.972	241.69
589.182	251.69
589.392	242.69
589.602	236.69
589.812	232.69
590.022	235.69
590.232	227.69
590.441	231.69
590.651	225.69
590.861	232.69
591.071	227.69
591.281	240.69
591.49	223.69
591.7	242.69
591.91	231.69
592.119	225.69
592.329	230.69
592.539	240.69
592.748	248.69
592.958	230.69
593.167	226.69
593.377	240.69
593.587	244.69
593.796	232.69
594.006	236.69
594.215	230.69
594.424	245.69
594.634	239.69
594.843	217.69
595.053	229.69
595.262	231.69
595.472	206.69
595.681	215.69
595.89	226.69
596.1	223.69
596.309	224.69
596.518	217.69
596.727	218.69
596.937	233.69
597.146	214.69
597.355	215.69
597.564	234.69
597.774	232.69
597.983	220.69
598.192	215.69
598.401	217.69
598.61	221.69
598.819	206.69
599.028	207.69
599.237	203.69
599.446	203.69
599.655	207.69
599.864	212.69
600.073	204.69
600.282	191.69
600.491	205.69
600.7	218.69
600.909	204.69
601.118	204.69
601.327	195.69
601.536	181.69
601.745	198.69
601.953	182.69
602.162	218.69
602.371	192.69
602.58	203.69
602.789	202.69
602.997	201.69
603.206	199.69
603.415	198.69
603.623	202.69
603.832	193.69
604.041	203.69
604.249	211.69
604.458	196.69
604.666	210.69
604.875	200.69
605.084	181.69
605.292	190.69
605.501	188.69
605.709	203.69
605.918	202.69
606.126	207.69
606.334	198.69
606.543	203.69
606.751	212.69
606.96	188.69
607.168	190.69
607.376	186.69
607.585	195.69
607.793	193.69
608.001	199.69
608.21	206.69
608.418	194.69
608.626	185.69
608.834	206.69
609.043	196.69
609.251	200.69
609.459	197.69
609.667	199.69
609.875	179.69
610.083	182.69
610.291	196.69
610.499	201.69
610.707	194.69
610.916	215.69
611.124	184.69
611.332	204.69
611.54	205.69
611.748	194.69
611.955	213.69
612.163	195.69
612.371	192.69
612.579	175.69
612.787	184.69
612.995	195.69
613.203	201.69
613.411	208.69
613.618	193.69
613.826	183.69
614.034	197.69
614.242	198.69
614.449	195.69
614.657	193.69
614.865	196.69
615.072	203.69
615.28	184.69
615.488	183.69
615.695	185.69
615.903	175.69
616.111	181.69
616.318	194.69
616.526	202.69
616.733	191.69
616.941	186.69
617.148	201.69
617.356	191.69
617.563	178.69
617.771	178.69
617.978	188.69
618.185	178.69
618.393	174.69
618.6	184.69
618.807	188.69
619.015	185.69
619.222	184.69
619.429	169.69
619.637	189.69
619.844	184.69
620.051	182.69
620.258	183.69
620.466	188.69
620.673	179.69
620.88	192.69
621.087	180.69
621.294	174.69
621.501	170.69
621.708	178.69
621.915	174.69
622.122	175.69
622.329	174.69
622.536	177.69
622.743	186.69
622.95	179.69
623.157	173.69
623.364	171.69
623.571	164.69
623.778	192.69
623.985	182.69
624.192	168.69
624.399	176.69
624.606	182.69
624.812	173.69
625.019	175.69
625.226	193.69
625.433	171.69
625.639	182.69
625.846	183.69
626.053	180.69
626.259	164.69
626.466	169.69
626.673	169.69
626.879	173.69
627.086	177.69
627.293	177.69
627.499	171.69
627.706	169.69
627.912	180.69
628.119	172.69
628.325	178.69
628.532	167.69
628.738	166.69
628.945	169.69
629.151	171.69
629.357	161.69
629.564	156.69
629.77	170.69
629.976	171.69
630.183	163.69
630.389	138.69
630.595	166.69
630.802	165.69
631.008	150.69
631.214	172.69
631.42	166.69
631.627	172.69
631.833	164.69
632.039	170.69
632.245	169.69
632.451	154.69
632.657	163.69
632.863	157.69
633.069	158.69
633.275	156.69
633.481	148.69
633.688	150.69
633.893	155.69
634.099	171.69
634.305	162.69
634.511	156.69
634.717	152.69
634.923	168.69
635.129	159.69
635.335	157.69
635.541	160.69
635.747	163.69
635.952	154.69
636.158	153.69
636.364	145.69
636.57	143.69
636.775	174.69
636.981	154.69
637.187	148.69
637.392	158.69
637.598	143.69
637.804	162.69
638.009	153.69
638.215	150.69
638.421	148.69
638.626	131.69
638.832	150.69
639.037	148.69
639.243	143.69
639.448	146.69
639.654	158.69
639.859	138.69
640.065	155.69
640.27	154.69
640.475	142.69
640.681	135.69
640.886	142.69
641.091	142.69
641.297	132.69
641.502	148.69
641.707	143.69
641.913	146.69
642.118	140.69
642.323	140.69
642.528	142.69
642.733	141.69
642.939	129.69
643.144	141.69
643.349	147.69
643.554	139.69
643.759	148.69
643.964	144.69
644.169	146.69
644.374	137.69
644.579	143.69
644.784	135.69
644.989	150.69
645.194	151.69
645.399	132.69
645.604	134.69
645.809	136.69
646.014	130.69
646.219	146.69
646.423	142.69
646.628	138.69
646.833	144.69
647.038	148.69
647.243	147.69
647.447	140.69
647.652	124.69
647.857	137.69
648.062	139.69
648.266	148.69
648.471	137.69
648.676	149.69
648.88	159.69
649.085	132.69
649.289	135.69
649.494	154.69
649.698	162.69
649.903	165.69
650.107	138.69
650.312	149.69
650.516	146.69
650.721	137.69
650.925	139.69
651.13	133.69
651.334	135.69
651.539	140.69
651.743	127.69
651.947	134.69
652.152	134.69
652.356	120.69
652.56	109.69
652.764	130.69
652.969	114.69
653.173	131.69
653.377	124.69
653.581	118.69
653.785	126.69
653.99	110.69
654.194	119.69
654.398	129.69
654.602	105.69
654.806	114.69
655.01	116.69
655.214	130.69
655.418	105.69
655.622	117.69
655.826	120.69
656.03	116.69
656.234	119.69
656.438	120.69
656.642	110.69
656.846	123.69
657.049	118.69
657.253	106.69
657.457	116.69
657.661	110.69
657.865	98.69
658.068	120.69
658.272	111.69
658.476	99.69
658.68	105.69
658.883	106.69
659.087	117.69
659.291	87.69
659.494	92.69
659.698	90.69
659.901	116.69
660.105	95.69
660.309	88.69
660.512	97.69
660.716	97.69
660.919	90.69
661.123	89.69
661.326	84.69
661.53	97.69
661.733	95.69
661.936	91.69
662.14	84.69
662.343	91.69
662.546	79.69
662.75	75.69
662.953	82.69
663.156	78.69
663.36	70.69
663.563	74.69
663.766	81.69
663.969	97.69
664.173	82.69
664.376	89.69
664.579	73.69
664.782	65.69
664.985	81.69
665.188	75.69
665.391	83.69
665.594	66.69
665.797	83.69
666	71.69
666.203	84.69
666.406	72.69
666.609	87.69
666.812	85.69
667.015	83.69
667.218	76.69
667.421	86.69
667.624	76.69
667.827	80.69
668.03	79.69
668.232	71.69
668.435	66.69
668.638	76.69
668.841	82.69
669.043	74.69
669.246	88.69
669.449	73.69
669.651	82.69
669.854	88.69
670.057	81.69
670.259	87.69
670.462	89.69
670.665	75.69
670.867	86.69
671.07	65.69
671.272	75.69
671.475	88.69
671.677	80.69
671.88	93.69
672.082	76.69
672.284	85.69
672.487	68.69
672.689	72.69
672.892	99.69
