Data from 1981.PennyLincolnUp.Lamp.En5.5.200Scan.071819.P1_HRD10591_16-43-25-960.txt Node
Date: Thu Jul 18 16:43:25 EDT 2019
User: cochatt
Spectrometer: HR+D1059
Trigger mode: 1
Integration Time (sec): 1.000000E-1
Scans to average: 1
Electric dark correction enabled: true
Nonlinearity correction enabled: false
Boxcar width: 0
XAxis mode: Wavelengths
Number of Pixels in Spectrum: 2048
>>>>>Begin Spectral Data<<<<<
223.165	-4.12
223.4	-4.12
223.635	-4.12
223.869	-17.12
224.104	-16.12
224.338	-15.12
224.573	-7.12
224.808	-18.12
225.042	-9.12
225.277	-9.12
225.511	10.88
225.746	4.88
225.98	-18.12
226.215	9.88
226.449	19.88
226.683	16.88
226.918	22.88
227.152	28.88
227.387	30.88
227.621	36.88
227.856	40.88
228.09	46.88
228.324	43.88
228.559	34.88
228.793	57.88
229.027	117.88
229.262	103.88
229.496	126.88
229.73	138.88
229.964	163.88
230.199	134.88
230.433	123.88
230.667	111.88
230.901	112.88
231.136	121.88
231.37	116.88
231.604	119.88
231.838	126.88
232.072	126.88
232.306	125.88
232.541	114.88
232.775	120.88
233.009	107.88
233.243	102.88
233.477	130.88
233.711	128.88
233.945	110.88
234.179	120.88
234.413	108.88
234.647	122.88
234.881	118.88
235.115	120.88
235.349	124.88
235.583	127.88
235.817	113.88
236.051	122.88
236.285	125.88
236.519	131.88
236.753	129.88
236.987	162.88
237.221	190.88
237.455	236.88
237.689	192.88
237.922	154.88
238.156	135.88
238.39	150.88
238.624	126.88
238.858	142.88
239.091	147.88
239.325	144.88
239.559	124.88
239.793	132.88
240.027	150.88
240.26	143.88
240.494	155.88
240.728	161.88
240.961	153.88
241.195	154.88
241.429	148.88
241.662	135.88
241.896	134.88
242.13	134.88
242.363	124.88
242.597	128.88
242.83	122.88
243.064	156.88
243.298	138.88
243.531	135.88
243.765	133.88
243.998	131.88
244.232	149.88
244.465	141.88
244.699	130.88
244.932	130.88
245.166	139.88
245.399	152.88
245.633	150.88
245.866	149.88
246.099	141.88
246.333	139.88
246.566	157.88
246.8	157.88
247.033	153.88
247.266	166.88
247.5	173.88
247.733	156.88
247.966	188.88
248.2	181.88
248.433	170.88
248.666	179.88
248.899	187.88
249.133	212.88
249.366	220.88
249.599	210.88
249.832	181.88
250.066	205.88
250.299	184.88
250.532	189.88
250.765	206.88
250.998	237.88
251.231	239.88
251.465	218.88
251.698	228.88
251.931	225.88
252.164	221.88
252.397	217.88
252.63	214.88
252.863	225.88
253.096	229.88
253.329	236.88
253.562	240.88
253.795	235.88
254.028	219.88
254.261	225.88
254.494	240.88
254.727	288.88
254.96	288.88
255.193	276.88
255.426	272.88
255.659	269.88
255.892	237.88
256.124	252.88
256.357	254.88
256.59	231.88
256.823	224.88
257.056	227.88
257.289	213.88
257.521	209.88
257.754	210.88
257.987	231.88
258.22	228.88
258.452	224.88
258.685	198.88
258.918	217.88
259.151	228.88
259.383	267.88
259.616	257.88
259.849	248.88
260.081	245.88
260.314	270.88
260.547	268.88
260.779	286.88
261.012	250.88
261.244	249.88
261.477	242.88
261.71	228.88
261.942	233.88
262.175	257.88
262.407	237.88
262.64	226.88
262.872	213.88
263.105	216.88
263.337	229.88
263.57	220.88
263.802	234.88
264.035	230.88
264.267	204.88
264.499	220.88
264.732	221.88
264.964	219.88
265.197	240.88
265.429	206.88
265.661	212.88
265.894	215.88
266.126	229.88
266.358	221.88
266.591	242.88
266.823	242.88
267.055	234.88
267.287	226.88
267.52	239.88
267.752	226.88
267.984	234.88
268.216	247.88
268.448	252.88
268.681	241.88
268.913	257.88
269.145	270.88
269.377	288.88
269.609	289.88
269.841	281.88
270.073	284.88
270.306	318.88
270.538	343.88
270.77	340.88
271.002	321.88
271.234	323.88
271.466	318.88
271.698	334.88
271.93	330.88
272.162	333.88
272.394	337.88
272.626	327.88
272.858	298.88
273.09	270.88
273.322	289.88
273.553	285.88
273.785	289.88
274.017	274.88
274.249	275.88
274.481	278.88
274.713	277.88
274.945	288.88
275.176	282.88
275.408	294.88
275.64	284.88
275.872	286.88
276.104	277.88
276.335	300.88
276.567	286.88
276.799	293.88
277.031	333.88
277.262	330.88
277.494	336.88
277.726	321.88
277.957	288.88
278.189	277.88
278.421	291.88
278.652	271.88
278.884	261.88
279.115	264.88
279.347	271.88
279.579	278.88
279.81	276.88
280.042	276.88
280.273	296.88
280.505	270.88
280.736	280.88
280.968	275.88
281.199	271.88
281.431	264.88
281.662	270.88
281.894	270.88
282.125	270.88
282.356	297.88
282.588	304.88
282.819	318.88
283.051	291.88
283.282	275.88
283.513	276.88
283.745	281.88
283.976	276.88
284.207	292.88
284.439	309.88
284.67	294.88
284.901	291.88
285.132	296.88
285.364	278.88
285.595	289.88
285.826	271.88
286.057	285.88
286.288	304.88
286.52	284.88
286.751	288.88
286.982	276.88
287.213	275.88
287.444	281.88
287.675	292.88
287.906	295.88
288.138	300.88
288.369	308.88
288.6	304.88
288.831	285.88
289.062	310.88
289.293	294.88
289.524	290.88
289.755	288.88
289.986	298.88
290.217	274.88
290.448	278.88
290.679	302.88
290.91	300.88
291.141	288.88
291.371	299.88
291.602	297.88
291.833	283.88
292.064	291.88
292.295	280.88
292.526	292.88
292.757	276.88
292.987	265.88
293.218	284.88
293.449	297.88
293.68	291.88
293.91	284.88
294.141	284.88
294.372	275.88
294.603	274.88
294.833	304.88
295.064	278.88
295.295	280.88
295.525	293.88
295.756	310.88
295.987	322.88
296.217	342.88
296.448	351.88
296.679	316.88
296.909	306.88
297.14	289.88
297.37	292.88
297.601	293.88
297.831	299.88
298.062	310.88
298.292	308.88
298.523	290.88
298.753	307.88
298.984	298.88
299.214	307.88
299.445	300.88
299.675	301.88
299.905	320.88
300.136	326.88
300.366	301.88
300.597	300.88
300.827	314.88
301.057	306.88
301.288	305.88
301.518	300.88
301.748	316.88
301.979	320.88
302.209	323.88
302.439	337.88
302.669	332.88
302.9	329.88
303.13	312.88
303.36	325.88
303.59	342.88
303.82	338.88
304.051	321.88
304.281	334.88
304.511	308.88
304.741	316.88
304.971	307.88
305.201	337.88
305.431	345.88
305.661	331.88
305.891	317.88
306.121	328.88
306.352	333.88
306.582	338.88
306.812	335.88
307.042	340.88
307.272	321.88
307.502	341.88
307.731	357.88
307.961	335.88
308.191	338.88
308.421	352.88
308.651	340.88
308.881	341.88
309.111	342.88
309.341	337.88
309.571	360.88
309.8	365.88
310.03	385.88
310.26	382.88
310.49	384.88
310.72	384.88
310.949	402.88
311.179	408.88
311.409	392.88
311.639	381.88
311.868	369.88
312.098	398.88
312.328	382.88
312.557	408.88
312.787	420.88
313.017	413.88
313.246	384.88
313.476	403.88
313.706	378.88
313.935	401.88
314.165	408.88
314.394	413.88
314.624	422.88
314.853	393.88
315.083	384.88
315.312	397.88
315.542	391.88
315.771	368.88
316.001	381.88
316.23	377.88
316.46	374.88
316.689	398.88
316.919	364.88
317.148	393.88
317.377	401.88
317.607	380.88
317.836	394.88
318.065	372.88
318.295	374.88
318.524	377.88
318.753	386.88
318.983	400.88
319.212	383.88
319.441	396.88
319.67	410.88
319.9	409.88
320.129	397.88
320.358	402.88
320.587	390.88
320.816	395.88
321.046	390.88
321.275	406.88
321.504	410.88
321.733	402.88
321.962	423.88
322.191	427.88
322.42	463.88
322.649	485.88
322.878	486.88
323.108	493.88
323.337	516.88
323.566	560.88
323.795	585.88
324.024	661.88
324.253	817.88
324.482	1188.88
324.71	1789.88
324.939	2434.88
325.168	2056.88
325.397	1113.88
325.626	736.88
325.855	646.88
326.084	561.88
326.313	562.88
326.542	545.88
326.77	620.88
326.999	734.88
327.228	1032.88
327.457	1549.88
327.686	1803.88
327.914	1236.88
328.143	818.88
328.372	707.88
328.6	658.88
328.829	624.88
329.058	619.88
329.287	634.88
329.515	592.88
329.744	573.88
329.972	554.88
330.201	582.88
330.43	613.88
330.658	645.88
330.887	660.88
331.115	644.88
331.344	562.88
331.572	516.88
331.801	522.88
332.03	490.88
332.258	486.88
332.486	472.88
332.715	460.88
332.943	453.88
333.172	453.88
333.4	443.88
333.629	437.88
333.857	466.88
334.085	472.88
334.314	498.88
334.542	527.88
334.771	556.88
334.999	510.88
335.227	459.88
335.455	448.88
335.684	423.88
335.912	429.88
336.14	424.88
336.369	443.88
336.597	440.88
336.825	439.88
337.053	436.88
337.281	428.88
337.51	417.88
337.738	446.88
337.966	428.88
338.194	424.88
338.422	422.88
338.65	436.88
338.878	423.88
339.106	406.88
339.334	420.88
339.562	402.88
339.79	416.88
340.018	445.88
340.246	429.88
340.474	434.88
340.702	396.88
340.93	408.88
341.158	410.88
341.386	425.88
341.614	438.88
341.842	440.88
342.07	405.88
342.298	419.88
342.526	403.88
342.754	397.88
342.981	413.88
343.209	410.88
343.437	411.88
343.665	393.88
343.893	405.88
344.12	424.88
344.348	394.88
344.576	415.88
344.804	418.88
345.031	441.88
345.259	446.88
345.487	429.88
345.714	426.88
345.942	409.88
346.17	392.88
346.397	393.88
346.625	409.88
346.853	391.88
347.08	404.88
347.308	408.88
347.535	424.88
347.763	411.88
347.99	414.88
348.218	417.88
348.445	443.88
348.673	449.88
348.9	404.88
349.128	422.88
349.355	413.88
349.583	391.88
349.81	391.88
350.037	392.88
350.265	380.88
350.492	409.88
350.72	404.88
350.947	407.88
351.174	405.88
351.402	418.88
351.629	396.88
351.856	422.88
352.083	418.88
352.311	419.88
352.538	413.88
352.765	426.88
352.992	421.88
353.22	403.88
353.447	410.88
353.674	393.88
353.901	389.88
354.128	383.88
354.355	358.88
354.583	370.88
354.81	365.88
355.037	357.88
355.264	369.88
355.491	368.88
355.718	347.88
355.945	376.88
356.172	386.88
356.399	350.88
356.626	349.88
356.853	357.88
357.08	362.88
357.307	373.88
357.534	330.88
357.761	390.88
357.988	368.88
358.215	358.88
358.441	379.88
358.668	368.88
358.895	364.88
359.122	373.88
359.349	392.88
359.576	390.88
359.802	432.88
360.029	449.88
360.256	462.88
360.483	420.88
360.709	391.88
360.936	413.88
361.163	386.88
361.39	404.88
361.616	406.88
361.843	385.88
362.07	384.88
362.296	389.88
362.523	381.88
362.749	398.88
362.976	392.88
363.203	388.88
363.429	363.88
363.656	375.88
363.882	366.88
364.109	364.88
364.335	373.88
364.562	386.88
364.788	390.88
365.015	374.88
365.241	376.88
365.468	370.88
365.694	375.88
365.92	374.88
366.147	360.88
366.373	376.88
366.599	352.88
366.826	366.88
367.052	364.88
367.278	352.88
367.505	372.88
367.731	372.88
367.957	363.88
368.184	363.88
368.41	369.88
368.636	361.88
368.862	370.88
369.089	363.88
369.315	349.88
369.541	358.88
369.767	340.88
369.993	358.88
370.219	366.88
370.445	354.88
370.672	349.88
370.898	358.88
371.124	354.88
371.35	362.88
371.576	361.88
371.802	345.88
372.028	357.88
372.254	355.88
372.48	350.88
372.706	358.88
372.932	342.88
373.158	350.88
373.384	350.88
373.61	374.88
373.835	359.88
374.061	355.88
374.287	360.88
374.513	358.88
374.739	386.88
374.965	351.88
375.191	336.88
375.416	350.88
375.642	355.88
375.868	343.88
376.094	348.88
376.319	344.88
376.545	356.88
376.771	357.88
376.997	348.88
377.222	357.88
377.448	368.88
377.674	359.88
377.899	322.88
378.125	372.88
378.35	358.88
378.576	339.88
378.802	355.88
379.027	334.88
379.253	355.88
379.478	346.88
379.704	345.88
379.929	344.88
380.155	338.88
380.38	352.88
380.606	365.88
380.831	364.88
381.057	350.88
381.282	339.88
381.507	339.88
381.733	355.88
381.958	368.88
382.184	339.88
382.409	338.88
382.634	350.88
382.86	354.88
383.085	357.88
383.31	382.88
383.535	352.88
383.761	376.88
383.986	348.88
384.211	368.88
384.436	344.88
384.662	346.88
384.887	363.88
385.112	317.88
385.337	360.88
385.562	372.88
385.787	344.88
386.013	362.88
386.238	376.88
386.463	384.88
386.688	365.88
386.913	349.88
387.138	348.88
387.363	372.88
387.588	372.88
387.813	373.88
388.038	331.88
388.263	365.88
388.488	356.88
388.713	380.88
388.938	379.88
389.163	372.88
389.387	368.88
389.612	371.88
389.837	376.88
390.062	356.88
390.287	347.88
390.512	364.88
390.736	374.88
390.961	369.88
391.186	353.88
391.411	380.88
391.636	381.88
391.86	372.88
392.085	362.88
392.31	360.88
392.534	362.88
392.759	373.88
392.984	384.88
393.208	362.88
393.433	370.88
393.658	368.88
393.882	359.88
394.107	362.88
394.331	364.88
394.556	361.88
394.78	358.88
395.005	376.88
395.229	352.88
395.454	353.88
395.678	365.88
395.903	386.88
396.127	401.88
396.352	419.88
396.576	403.88
396.801	357.88
397.025	373.88
397.249	386.88
397.474	380.88
397.698	386.88
397.922	383.88
398.147	406.88
398.371	416.88
398.595	394.88
398.82	379.88
399.044	406.88
399.268	404.88
399.492	417.88
399.717	436.88
399.941	467.88
400.165	498.88
400.389	504.88
400.613	461.88
400.837	439.88
401.062	418.88
401.286	432.88
401.51	417.88
401.734	394.88
401.958	390.88
402.182	402.88
402.406	424.88
402.63	434.88
402.854	427.88
403.078	414.88
403.302	401.88
403.526	416.88
403.75	414.88
403.974	418.88
404.198	402.88
404.422	417.88
404.645	453.88
404.869	435.88
405.093	463.88
405.317	505.88
405.541	524.88
405.765	486.88
405.988	456.88
406.212	480.88
406.436	500.88
406.66	505.88
406.883	455.88
407.107	489.88
407.331	513.88
407.555	568.88
407.778	564.88
408.002	489.88
408.226	497.88
408.449	454.88
408.673	481.88
408.896	508.88
409.12	515.88
409.344	493.88
409.567	445.88
409.791	416.88
410.014	411.88
410.238	420.88
410.461	424.88
410.685	434.88
410.908	411.88
411.132	472.88
411.355	501.88
411.578	478.88
411.802	412.88
412.025	425.88
412.249	420.88
412.472	444.88
412.695	490.88
412.919	475.88
413.142	449.88
413.365	428.88
413.589	417.88
413.812	396.88
414.035	393.88
414.258	394.88
414.482	398.88
414.705	396.88
414.928	397.88
415.151	395.88
415.374	390.88
415.597	384.88
415.821	375.88
416.044	387.88
416.267	386.88
416.49	393.88
416.713	386.88
416.936	380.88
417.159	384.88
417.382	397.88
417.605	401.88
417.828	416.88
418.051	429.88
418.274	412.88
418.497	415.88
418.72	397.88
418.943	387.88
419.166	390.88
419.389	419.88
419.611	412.88
419.834	398.88
420.057	438.88
420.28	419.88
420.503	435.88
420.726	394.88
420.948	450.88
421.171	450.88
421.394	489.88
421.617	436.88
421.839	440.88
422.062	422.88
422.285	434.88
422.507	496.88
422.73	558.88
422.953	537.88
423.175	464.88
423.398	445.88
423.621	449.88
423.843	469.88
424.066	443.88
424.288	455.88
424.511	473.88
424.733	522.88
424.956	582.88
425.178	587.88
425.401	585.88
425.623	589.88
425.846	505.88
426.068	470.88
426.291	466.88
426.513	444.88
426.735	473.88
426.958	522.88
427.18	586.88
427.402	696.88
427.625	752.88
427.847	661.88
428.069	590.88
428.292	522.88
428.514	471.88
428.736	445.88
428.958	428.88
429.181	419.88
429.403	420.88
429.625	443.88
429.847	453.88
430.069	524.88
430.292	509.88
430.514	444.88
430.736	426.88
430.958	434.88
431.18	427.88
431.402	407.88
431.624	402.88
431.846	403.88
432.068	378.88
432.29	390.88
432.512	389.88
432.734	404.88
432.956	397.88
433.178	430.88
433.4	416.88
433.622	403.88
433.844	419.88
434.066	397.88
434.287	404.88
434.509	411.88
434.731	421.88
434.953	415.88
435.175	411.88
435.397	451.88
435.618	475.88
435.84	504.88
436.062	587.88
436.284	643.88
436.505	539.88
436.727	456.88
436.949	446.88
437.17	434.88
437.392	432.88
437.614	453.88
437.835	479.88
438.057	582.88
438.278	666.88
438.5	641.88
438.721	706.88
438.943	672.88
439.165	567.88
439.386	482.88
439.608	472.88
439.829	460.88
440.05	540.88
440.272	562.88
440.493	526.88
440.715	468.88
440.936	444.88
441.158	432.88
441.379	424.88
441.6	460.88
441.822	459.88
442.043	520.88
442.264	567.88
442.486	611.88
442.707	537.88
442.928	469.88
443.149	490.88
443.371	505.88
443.592	544.88
443.813	631.88
444.034	676.88
444.255	550.88
444.476	490.88
444.698	460.88
444.919	474.88
445.14	570.88
445.361	513.88
445.582	503.88
445.803	585.88
446.024	684.88
446.245	656.88
446.466	624.88
446.687	533.88
446.908	476.88
447.129	424.88
447.35	453.88
447.571	438.88
447.792	412.88
448.013	440.88
448.234	470.88
448.455	509.88
448.675	604.88
448.896	689.88
449.117	600.88
449.338	584.88
449.559	655.88
449.779	732.88
450	586.88
450.221	491.88
450.442	442.88
450.662	441.88
450.883	436.88
451.104	466.88
451.324	435.88
451.545	422.88
451.766	399.88
451.986	411.88
452.207	370.88
452.428	378.88
452.648	413.88
452.869	390.88
453.089	394.88
453.31	394.88
453.53	394.88
453.751	374.88
453.971	388.88
454.192	416.88
454.412	401.88
454.633	414.88
454.853	397.88
455.073	391.88
455.294	413.88
455.514	493.88
455.734	474.88
455.955	374.88
456.175	393.88
456.395	345.88
456.616	363.88
456.836	365.88
457.056	356.88
457.276	347.88
457.497	340.88
457.717	341.88
457.937	380.88
458.157	371.88
458.377	389.88
458.598	385.88
458.818	456.88
459.038	534.88
459.258	564.88
459.478	476.88
459.698	405.88
459.918	411.88
460.138	409.88
460.358	378.88
460.578	379.88
460.798	371.88
461.018	382.88
461.238	379.88
461.458	382.88
461.678	389.88
461.898	413.88
462.118	391.88
462.338	402.88
462.558	408.88
462.777	408.88
462.997	409.88
463.217	414.88
463.437	397.88
463.657	396.88
463.876	402.88
464.096	397.88
464.316	389.88
464.536	399.88
464.755	420.88
464.975	433.88
465.195	460.88
465.414	553.88
465.634	475.88
465.854	438.88
466.073	424.88
466.293	411.88
466.512	399.88
466.732	384.88
466.951	392.88
467.171	388.88
467.391	385.88
467.61	379.88
467.829	410.88
468.049	401.88
468.268	396.88
468.488	393.88
468.707	376.88
468.927	353.88
469.146	370.88
469.365	373.88
469.585	369.88
469.804	395.88
470.023	400.88
470.243	399.88
470.462	398.88
470.681	412.88
470.901	416.88
471.12	407.88
471.339	389.88
471.558	398.88
471.777	382.88
471.997	369.88
472.216	398.88
472.435	427.88
472.654	427.88
472.873	411.88
473.092	414.88
473.311	380.88
473.53	393.88
473.749	394.88
473.968	450.88
474.187	568.88
474.406	569.88
474.625	469.88
474.844	417.88
475.063	434.88
475.282	404.88
475.501	419.88
475.72	386.88
475.939	402.88
476.158	419.88
476.377	404.88
476.596	406.88
476.814	395.88
477.033	421.88
477.252	420.88
477.471	412.88
477.69	403.88
477.908	407.88
478.127	421.88
478.346	404.88
478.564	428.88
478.783	448.88
479.002	423.88
479.22	433.88
479.439	472.88
479.658	455.88
479.876	461.88
480.095	466.88
480.313	496.88
480.532	465.88
480.751	496.88
480.969	485.88
481.188	551.88
481.406	565.88
481.624	515.88
481.843	508.88
482.061	486.88
482.28	482.88
482.498	458.88
482.717	452.88
482.935	471.88
483.153	449.88
483.372	453.88
483.59	457.88
483.808	455.88
484.027	469.88
484.245	452.88
484.463	468.88
484.681	482.88
484.9	476.88
485.118	473.88
485.336	469.88
485.554	468.88
485.772	498.88
485.99	482.88
486.209	482.88
486.427	483.88
486.645	480.88
486.863	530.88
487.081	512.88
487.299	500.88
487.517	481.88
487.735	518.88
487.953	480.88
488.171	501.88
488.389	471.88
488.607	491.88
488.825	492.88
489.043	474.88
489.261	530.88
489.479	517.88
489.696	509.88
489.914	501.88
490.132	518.88
490.35	526.88
490.568	525.88
490.786	533.88
491.003	546.88
491.221	551.88
491.439	548.88
491.657	578.88
491.874	590.88
492.092	546.88
492.31	585.88
492.527	577.88
492.745	573.88
492.963	580.88
493.18	588.88
493.398	569.88
493.615	580.88
493.833	580.88
494.05	590.88
494.268	590.88
494.485	583.88
494.703	568.88
494.92	594.88
495.138	605.88
495.355	578.88
495.573	576.88
495.79	609.88
496.008	612.88
496.225	569.88
496.442	576.88
496.66	598.88
496.877	594.88
497.094	584.88
497.312	614.88
497.529	610.88
497.746	610.88
497.963	625.88
498.181	608.88
498.398	640.88
498.615	624.88
498.832	628.88
499.049	637.88
499.267	649.88
499.484	666.88
499.701	668.88
499.918	674.88
500.135	696.88
500.352	707.88
500.569	709.88
500.786	718.88
501.003	704.88
501.22	718.88
501.437	717.88
501.654	702.88
501.871	723.88
502.088	679.88
502.305	659.88
502.522	636.88
502.739	659.88
502.956	627.88
503.172	606.88
503.389	628.88
503.606	627.88
503.823	616.88
504.04	578.88
504.256	590.88
504.473	593.88
504.69	578.88
504.907	599.88
505.123	583.88
505.34	590.88
505.557	593.88
505.773	544.88
505.99	552.88
506.207	558.88
506.423	575.88
506.64	584.88
506.856	595.88
507.073	570.88
507.289	561.88
507.506	578.88
507.722	563.88
507.939	593.88
508.155	564.88
508.372	540.88
508.588	568.88
508.805	534.88
509.021	571.88
509.238	587.88
509.454	589.88
509.67	566.88
509.887	551.88
510.103	554.88
510.319	588.88
510.536	655.88
510.752	1117.88
510.968	885.88
511.184	582.88
511.401	551.88
511.617	551.88
511.833	544.88
512.049	551.88
512.265	533.88
512.481	533.88
512.698	525.88
512.914	537.88
513.13	517.88
513.346	534.88
513.562	555.88
513.778	518.88
513.994	545.88
514.21	528.88
514.426	575.88
514.642	624.88
514.858	617.88
515.074	691.88
515.29	824.88
515.506	1216.88
515.721	1005.88
515.937	666.88
516.153	599.88
516.369	589.88
516.585	534.88
516.801	534.88
517.016	547.88
517.232	524.88
517.448	510.88
517.664	530.88
517.879	551.88
518.095	508.88
518.311	526.88
518.527	516.88
518.742	499.88
518.958	526.88
519.173	512.88
519.389	512.88
519.605	522.88
519.82	530.88
520.036	553.88
520.251	572.88
520.467	582.88
520.682	594.88
520.898	601.88
521.113	624.88
521.329	682.88
521.544	764.88
521.76	989.88
521.975	1656.88
522.19	1592.88
522.406	847.88
522.621	643.88
522.836	550.88
523.052	532.88
523.267	509.88
523.482	499.88
523.698	493.88
523.913	511.88
524.128	488.88
524.343	484.88
524.559	466.88
524.774	476.88
524.989	468.88
525.204	466.88
525.419	473.88
525.634	465.88
525.849	457.88
526.064	437.88
526.28	435.88
526.495	418.88
526.71	442.88
526.925	449.88
527.14	426.88
527.355	429.88
527.57	412.88
527.785	438.88
527.999	421.88
528.214	416.88
528.429	429.88
528.644	427.88
528.859	420.88
529.074	426.88
529.289	465.88
529.503	539.88
529.718	516.88
529.933	469.88
530.148	446.88
530.363	413.88
530.577	408.88
530.792	423.88
531.007	402.88
531.221	399.88
531.436	401.88
531.651	412.88
531.865	397.88
532.08	393.88
532.295	392.88
532.509	390.88
532.724	403.88
532.938	411.88
533.153	392.88
533.367	407.88
533.582	411.88
533.796	405.88
534.011	388.88
534.225	405.88
534.44	382.88
534.654	402.88
534.868	385.88
535.083	381.88
535.297	388.88
535.511	384.88
535.726	419.88
535.94	403.88
536.154	396.88
536.369	375.88
536.583	398.88
536.797	380.88
537.011	388.88
537.225	363.88
537.44	398.88
537.654	384.88
537.868	384.88
538.082	381.88
538.296	395.88
538.51	388.88
538.724	389.88
538.938	412.88
539.153	386.88
539.367	396.88
539.581	395.88
539.795	402.88
540.009	389.88
540.222	389.88
540.436	387.88
540.65	394.88
540.864	373.88
541.078	389.88
541.292	386.88
541.506	399.88
541.72	380.88
541.934	396.88
542.147	397.88
542.361	370.88
542.575	379.88
542.789	361.88
543.002	375.88
543.216	368.88
543.43	392.88
543.644	384.88
543.857	385.88
544.071	375.88
544.285	402.88
544.498	392.88
544.712	384.88
544.925	396.88
545.139	371.88
545.352	375.88
545.566	374.88
545.779	361.88
545.993	381.88
546.206	368.88
546.42	365.88
546.633	361.88
546.847	364.88
547.06	373.88
547.274	341.88
547.487	349.88
547.7	356.88
547.914	355.88
548.127	344.88
548.34	353.88
548.554	357.88
548.767	350.88
548.98	361.88
549.193	348.88
549.407	366.88
549.62	362.88
549.833	369.88
550.046	352.88
550.259	344.88
550.473	360.88
550.686	364.88
550.899	335.88
551.112	359.88
551.325	348.88
551.538	328.88
551.751	319.88
551.964	344.88
552.177	362.88
552.39	320.88
552.603	328.88
552.816	348.88
553.029	353.88
553.242	350.88
553.455	360.88
553.667	365.88
553.88	353.88
554.093	360.88
554.306	364.88
554.519	362.88
554.732	363.88
554.944	359.88
555.157	324.88
555.37	346.88
555.583	312.88
555.795	341.88
556.008	329.88
556.221	329.88
556.433	346.88
556.646	348.88
556.859	346.88
557.071	306.88
557.284	317.88
557.496	325.88
557.709	313.88
557.921	327.88
558.134	331.88
558.346	328.88
558.559	310.88
558.771	324.88
558.984	325.88
559.196	321.88
559.409	324.88
559.621	325.88
559.833	309.88
560.046	302.88
560.258	313.88
560.47	312.88
560.683	307.88
560.895	309.88
561.107	301.88
561.32	311.88
561.532	306.88
561.744	312.88
561.956	321.88
562.168	306.88
562.381	332.88
562.593	309.88
562.805	329.88
563.017	338.88
563.229	316.88
563.441	306.88
563.653	326.88
563.865	299.88
564.077	331.88
564.289	292.88
564.501	339.88
564.713	306.88
564.925	312.88
565.137	334.88
565.349	316.88
565.561	334.88
565.773	329.88
565.985	336.88
566.197	321.88
566.408	336.88
566.62	356.88
566.832	355.88
567.044	350.88
567.255	342.88
567.467	366.88
567.679	359.88
567.891	355.88
568.102	360.88
568.314	354.88
568.526	341.88
568.737	362.88
568.949	321.88
569.161	340.88
569.372	331.88
569.584	314.88
569.795	335.88
570.007	330.88
570.218	384.88
570.43	347.88
570.641	304.88
570.853	276.88
571.064	312.88
571.276	289.88
571.487	300.88
571.698	288.88
571.91	301.88
572.121	300.88
572.333	300.88
572.544	292.88
572.755	283.88
572.966	283.88
573.178	296.88
573.389	276.88
573.6	282.88
573.811	285.88
574.023	297.88
574.234	281.88
574.445	276.88
574.656	271.88
574.867	297.88
575.078	292.88
575.289	274.88
575.501	267.88
575.712	276.88
575.923	274.88
576.134	274.88
576.345	294.88
576.556	285.88
576.767	283.88
576.978	276.88
577.188	272.88
577.399	265.88
577.61	269.88
577.821	278.88
578.032	287.88
578.243	318.88
578.454	532.88
578.665	368.88
578.875	276.88
579.086	271.88
579.297	264.88
579.508	252.88
579.718	260.88
579.929	246.88
580.14	253.88
580.35	243.88
580.561	249.88
580.772	266.88
580.982	268.88
581.193	264.88
581.403	249.88
581.614	248.88
581.825	235.88
582.035	267.88
582.246	252.88
582.456	249.88
582.667	243.88
582.877	245.88
583.087	245.88
583.298	233.88
583.508	237.88
583.719	248.88
583.929	268.88
584.139	237.88
584.35	231.88
584.56	256.88
584.77	262.88
584.981	263.88
585.191	233.88
585.401	244.88
585.611	248.88
585.821	233.88
586.032	234.88
586.242	234.88
586.452	253.88
586.662	233.88
586.872	258.88
587.082	237.88
587.292	249.88
587.502	253.88
587.713	234.88
587.923	238.88
588.133	252.88
588.343	244.88
588.553	235.88
588.762	243.88
588.972	231.88
589.182	237.88
589.392	245.88
589.602	260.88
589.812	235.88
590.022	263.88
590.232	235.88
590.441	245.88
590.651	224.88
590.861	244.88
591.071	241.88
591.281	245.88
591.49	253.88
591.7	250.88
591.91	247.88
592.119	243.88
592.329	234.88
592.539	234.88
592.748	237.88
592.958	247.88
593.167	227.88
593.377	237.88
593.587	241.88
593.796	224.88
594.006	234.88
594.215	232.88
594.424	245.88
594.634	253.88
594.843	236.88
595.053	230.88
595.262	230.88
595.472	234.88
595.681	246.88
595.89	223.88
596.1	231.88
596.309	227.88
596.518	237.88
596.727	231.88
596.937	224.88
597.146	224.88
597.355	226.88
597.564	208.88
597.774	232.88
597.983	223.88
598.192	209.88
598.401	218.88
598.61	227.88
598.819	220.88
599.028	215.88
599.237	203.88
599.446	223.88
599.655	219.88
599.864	210.88
600.073	203.88
600.282	215.88
600.491	219.88
600.7	214.88
600.909	218.88
601.118	229.88
601.327	209.88
601.536	201.88
601.745	205.88
601.953	217.88
602.162	220.88
602.371	217.88
602.58	228.88
602.789	226.88
602.997	198.88
603.206	206.88
603.415	209.88
603.623	201.88
603.832	207.88
604.041	214.88
604.249	205.88
604.458	206.88
604.666	202.88
604.875	200.88
605.084	204.88
605.292	216.88
605.501	208.88
605.709	221.88
605.918	187.88
606.126	214.88
606.334	201.88
606.543	203.88
606.751	201.88
606.96	218.88
607.168	210.88
607.376	201.88
607.585	214.88
607.793	216.88
608.001	201.88
608.21	176.88
608.418	215.88
608.626	206.88
608.834	202.88
609.043	195.88
609.251	210.88
609.459	205.88
609.667	206.88
609.875	188.88
610.083	182.88
610.291	203.88
610.499	192.88
610.707	205.88
610.916	204.88
611.124	205.88
611.332	204.88
611.54	209.88
611.748	187.88
611.955	198.88
612.163	199.88
612.371	201.88
612.579	188.88
612.787	198.88
612.995	199.88
613.203	201.88
613.411	216.88
613.618	208.88
613.826	189.88
614.034	207.88
614.242	197.88
614.449	194.88
614.657	179.88
614.865	204.88
615.072	204.88
615.28	183.88
615.488	188.88
615.695	201.88
615.903	194.88
616.111	196.88
616.318	200.88
616.526	177.88
616.733	189.88
616.941	204.88
617.148	194.88
617.356	193.88
617.563	188.88
617.771	206.88
617.978	200.88
618.185	197.88
618.393	205.88
618.6	194.88
618.807	182.88
619.015	209.88
619.222	206.88
619.429	184.88
619.637	193.88
619.844	177.88
620.051	198.88
620.258	185.88
620.466	194.88
620.673	190.88
620.88	187.88
621.087	196.88
621.294	186.88
621.501	188.88
621.708	185.88
621.915	182.88
622.122	177.88
622.329	193.88
622.536	187.88
622.743	197.88
622.95	186.88
623.157	193.88
623.364	170.88
623.571	175.88
623.778	196.88
623.985	169.88
624.192	178.88
624.399	196.88
624.606	176.88
624.812	189.88
625.019	176.88
625.226	170.88
625.433	178.88
625.639	178.88
625.846	174.88
626.053	184.88
626.259	170.88
626.466	174.88
626.673	187.88
626.879	188.88
627.086	182.88
627.293	154.88
627.499	173.88
627.706	168.88
627.912	189.88
628.119	160.88
628.325	162.88
628.532	155.88
628.738	168.88
628.945	177.88
629.151	169.88
629.357	176.88
629.564	167.88
629.77	179.88
629.976	185.88
630.183	157.88
630.389	155.88
630.595	162.88
630.802	166.88
631.008	190.88
631.214	182.88
631.42	173.88
631.627	183.88
631.833	171.88
632.039	158.88
632.245	154.88
632.451	170.88
632.657	159.88
632.863	180.88
633.069	171.88
633.275	164.88
633.481	161.88
633.688	156.88
633.893	189.88
634.099	153.88
634.305	152.88
634.511	158.88
634.717	170.88
634.923	152.88
635.129	168.88
635.335	154.88
635.541	156.88
635.747	167.88
635.952	165.88
636.158	148.88
636.364	160.88
636.57	162.88
636.775	165.88
636.981	165.88
637.187	144.88
637.392	165.88
637.598	159.88
637.804	137.88
638.009	155.88
638.215	165.88
638.421	145.88
638.626	133.88
638.832	143.88
639.037	148.88
639.243	164.88
639.448	156.88
639.654	165.88
639.859	149.88
640.065	141.88
640.27	155.88
640.475	140.88
640.681	165.88
640.886	140.88
641.091	160.88
641.297	152.88
641.502	146.88
641.707	141.88
641.913	146.88
642.118	132.88
642.323	136.88
642.528	138.88
642.733	151.88
642.939	150.88
643.144	153.88
643.349	147.88
643.554	152.88
643.759	135.88
643.964	158.88
644.169	139.88
644.374	130.88
644.579	132.88
644.784	135.88
644.989	140.88
645.194	133.88
645.399	136.88
645.604	135.88
645.809	147.88
646.014	154.88
646.219	150.88
646.423	150.88
646.628	150.88
646.833	155.88
647.038	146.88
647.243	130.88
647.447	146.88
647.652	154.88
647.857	154.88
648.062	155.88
648.266	154.88
648.471	141.88
648.676	142.88
648.88	134.88
649.085	163.88
649.289	139.88
649.494	154.88
649.698	152.88
649.903	172.88
650.107	168.88
650.312	146.88
650.516	139.88
650.721	135.88
650.925	131.88
651.13	148.88
651.334	146.88
651.539	142.88
651.743	132.88
651.947	132.88
652.152	129.88
652.356	147.88
652.56	130.88
652.764	130.88
652.969	126.88
653.173	116.88
653.377	125.88
653.581	123.88
653.785	122.88
653.99	125.88
654.194	130.88
654.398	128.88
654.602	135.88
654.806	134.88
655.01	126.88
655.214	128.88
655.418	116.88
655.622	121.88
655.826	132.88
656.03	119.88
656.234	124.88
656.438	124.88
656.642	138.88
656.846	133.88
657.049	115.88
657.253	112.88
657.457	106.88
657.661	109.88
657.865	114.88
658.068	120.88
658.272	106.88
658.476	105.88
658.68	110.88
658.883	102.88
659.087	100.88
659.291	103.88
659.494	105.88
659.698	94.88
659.901	96.88
660.105	107.88
660.309	78.88
660.512	97.88
660.716	109.88
660.919	93.88
661.123	101.88
661.326	68.88
661.53	88.88
661.733	94.88
661.936	91.88
662.14	83.88
662.343	82.88
662.546	83.88
662.75	94.88
662.953	86.88
663.156	91.88
663.36	79.88
663.563	80.88
663.766	76.88
663.969	99.88
664.173	83.88
664.376	70.88
664.579	83.88
664.782	72.88
664.985	95.88
665.188	82.88
665.391	86.88
665.594	89.88
665.797	84.88
666	78.88
666.203	88.88
666.406	72.88
666.609	90.88
666.812	71.88
667.015	89.88
667.218	83.88
667.421	77.88
667.624	88.88
667.827	84.88
668.03	81.88
668.232	86.88
668.435	79.88
668.638	82.88
668.841	80.88
669.043	77.88
669.246	85.88
669.449	87.88
669.651	91.88
669.854	88.88
670.057	87.88
670.259	80.88
670.462	90.88
670.665	78.88
670.867	79.88
671.07	76.88
671.272	79.88
671.475	74.88
671.677	77.88
671.88	77.88
672.082	77.88
672.284	89.88
672.487	88.88
672.689	77.88
672.892	74.88
