Data from 1981.PennyLincolnUp.Lamp.En5.5.200Scan.071819.P1_HRD10591_16-41-13-962.txt Node
Date: Thu Jul 18 16:41:13 EDT 2019
User: cochatt
Spectrometer: HR+D1059
Trigger mode: 1
Integration Time (sec): 1.000000E-1
Scans to average: 1
Electric dark correction enabled: true
Nonlinearity correction enabled: false
Boxcar width: 0
XAxis mode: Wavelengths
Number of Pixels in Spectrum: 2048
>>>>>Begin Spectral Data<<<<<
223.165	-17.94
223.4	-17.94
223.635	-17.94
223.869	-28.94
224.104	-13.94
224.338	-28.94
224.573	-7.94
224.808	-4.94
225.042	-10.94
225.277	3.06
225.511	-4.94
225.746	-4.94
225.98	9.06
226.215	13.06
226.449	14.06
226.683	17.06
226.918	28.06
227.152	39.06
227.387	36.06
227.621	48.06
227.856	45.06
228.09	44.06
228.324	58.06
228.559	50.06
228.793	68.06
229.027	98.06
229.262	107.06
229.496	114.06
229.73	128.06
229.964	151.06
230.199	132.06
230.433	120.06
230.667	102.06
230.901	109.06
231.136	115.06
231.37	105.06
231.604	105.06
231.838	108.06
232.072	108.06
232.306	100.06
232.541	124.06
232.775	112.06
233.009	113.06
233.243	107.06
233.477	109.06
233.711	108.06
233.945	125.06
234.179	118.06
234.413	118.06
234.647	120.06
234.881	121.06
235.115	120.06
235.349	106.06
235.583	132.06
235.817	122.06
236.051	126.06
236.285	140.06
236.519	136.06
236.753	120.06
236.987	158.06
237.221	176.06
237.455	224.06
237.689	178.06
237.922	124.06
238.156	114.06
238.39	108.06
238.624	118.06
238.858	115.06
239.091	128.06
239.325	121.06
239.559	123.06
239.793	120.06
240.027	134.06
240.26	135.06
240.494	147.06
240.728	148.06
240.961	139.06
241.195	128.06
241.429	138.06
241.662	141.06
241.896	132.06
242.13	125.06
242.363	143.06
242.597	124.06
242.83	126.06
243.064	130.06
243.298	132.06
243.531	147.06
243.765	148.06
243.998	149.06
244.232	136.06
244.465	134.06
244.699	153.06
244.932	144.06
245.166	139.06
245.399	136.06
245.633	146.06
245.866	137.06
246.099	149.06
246.333	155.06
246.566	139.06
246.8	147.06
247.033	163.06
247.266	147.06
247.5	160.06
247.733	154.06
247.966	172.06
248.2	180.06
248.433	172.06
248.666	165.06
248.899	201.06
249.133	188.06
249.366	205.06
249.599	187.06
249.832	200.06
250.066	191.06
250.299	182.06
250.532	181.06
250.765	208.06
250.998	215.06
251.231	227.06
251.465	217.06
251.698	200.06
251.931	210.06
252.164	197.06
252.397	196.06
252.63	201.06
252.863	204.06
253.096	218.06
253.329	242.06
253.562	232.06
253.795	228.06
254.028	206.06
254.261	209.06
254.494	222.06
254.727	234.06
254.96	284.06
255.193	282.06
255.426	254.06
255.659	233.06
255.892	240.06
256.124	242.06
256.357	217.06
256.59	238.06
256.823	230.06
257.056	216.06
257.289	215.06
257.521	198.06
257.754	207.06
257.987	213.06
258.22	222.06
258.452	225.06
258.685	195.06
258.918	223.06
259.151	216.06
259.383	212.06
259.616	234.06
259.849	222.06
260.081	244.06
260.314	256.06
260.547	264.06
260.779	234.06
261.012	227.06
261.244	224.06
261.477	213.06
261.71	224.06
261.942	235.06
262.175	246.06
262.407	218.06
262.64	227.06
262.872	205.06
263.105	201.06
263.337	226.06
263.57	221.06
263.802	206.06
264.035	205.06
264.267	212.06
264.499	198.06
264.732	211.06
264.964	202.06
265.197	215.06
265.429	210.06
265.661	199.06
265.894	209.06
266.126	206.06
266.358	212.06
266.591	231.06
266.823	210.06
267.055	220.06
267.287	223.06
267.52	213.06
267.752	230.06
267.984	209.06
268.216	229.06
268.448	254.06
268.681	212.06
268.913	234.06
269.145	250.06
269.377	278.06
269.609	280.06
269.841	280.06
270.073	278.06
270.306	285.06
270.538	314.06
270.77	316.06
271.002	297.06
271.234	294.06
271.466	289.06
271.698	318.06
271.93	317.06
272.162	314.06
272.394	341.06
272.626	299.06
272.858	278.06
273.09	282.06
273.322	273.06
273.553	258.06
273.785	256.06
274.017	257.06
274.249	269.06
274.481	285.06
274.713	257.06
274.945	268.06
275.176	271.06
275.408	248.06
275.64	262.06
275.872	260.06
276.104	267.06
276.335	266.06
276.567	268.06
276.799	288.06
277.031	296.06
277.262	317.06
277.494	304.06
277.726	322.06
277.957	297.06
278.189	289.06
278.421	279.06
278.652	273.06
278.884	262.06
279.115	262.06
279.347	253.06
279.579	264.06
279.81	265.06
280.042	272.06
280.273	263.06
280.505	264.06
280.736	262.06
280.968	264.06
281.199	262.06
281.431	255.06
281.662	273.06
281.894	278.06
282.125	278.06
282.356	271.06
282.588	290.06
282.819	296.06
283.051	259.06
283.282	287.06
283.513	273.06
283.745	279.06
283.976	278.06
284.207	284.06
284.439	276.06
284.67	270.06
284.901	260.06
285.132	262.06
285.364	266.06
285.595	273.06
285.826	281.06
286.057	273.06
286.288	275.06
286.52	264.06
286.751	282.06
286.982	262.06
287.213	272.06
287.444	262.06
287.675	267.06
287.906	267.06
288.138	286.06
288.369	304.06
288.6	287.06
288.831	282.06
289.062	292.06
289.293	285.06
289.524	263.06
289.755	285.06
289.986	293.06
290.217	276.06
290.448	274.06
290.679	265.06
290.91	282.06
291.141	285.06
291.371	274.06
291.602	276.06
291.833	253.06
292.064	278.06
292.295	284.06
292.526	268.06
292.757	289.06
292.987	267.06
293.218	293.06
293.449	264.06
293.68	277.06
293.91	270.06
294.141	277.06
294.372	286.06
294.603	270.06
294.833	284.06
295.064	278.06
295.295	273.06
295.525	276.06
295.756	292.06
295.987	297.06
296.217	311.06
296.448	313.06
296.679	296.06
296.909	291.06
297.14	275.06
297.37	272.06
297.601	280.06
297.831	289.06
298.062	281.06
298.292	296.06
298.523	283.06
298.753	322.06
298.984	305.06
299.214	304.06
299.445	301.06
299.675	300.06
299.905	291.06
300.136	298.06
300.366	304.06
300.597	290.06
300.827	302.06
301.057	312.06
301.288	302.06
301.518	295.06
301.748	320.06
301.979	308.06
302.209	304.06
302.439	314.06
302.669	323.06
302.9	317.06
303.13	301.06
303.36	313.06
303.59	318.06
303.82	341.06
304.051	330.06
304.281	318.06
304.511	314.06
304.741	318.06
304.971	309.06
305.201	298.06
305.431	306.06
305.661	322.06
305.891	312.06
306.121	320.06
306.352	322.06
306.582	320.06
306.812	311.06
307.042	312.06
307.272	297.06
307.502	308.06
307.731	306.06
307.961	339.06
308.191	310.06
308.421	293.06
308.651	316.06
308.881	319.06
309.111	324.06
309.341	342.06
309.571	355.06
309.8	352.06
310.03	359.06
310.26	349.06
310.49	361.06
310.72	362.06
310.949	397.06
311.179	412.06
311.409	372.06
311.639	377.06
311.868	376.06
312.098	361.06
312.328	367.06
312.557	398.06
312.787	392.06
313.017	396.06
313.246	381.06
313.476	375.06
313.706	363.06
313.935	363.06
314.165	372.06
314.394	384.06
314.624	392.06
314.853	379.06
315.083	373.06
315.312	364.06
315.542	352.06
315.771	348.06
316.001	346.06
316.23	371.06
316.46	363.06
316.689	350.06
316.919	375.06
317.148	380.06
317.377	381.06
317.607	389.06
317.836	370.06
318.065	368.06
318.295	370.06
318.524	358.06
318.753	353.06
318.983	359.06
319.212	358.06
319.441	381.06
319.67	366.06
319.9	392.06
320.129	370.06
320.358	346.06
320.587	388.06
320.816	397.06
321.046	390.06
321.275	408.06
321.504	408.06
321.733	392.06
321.962	401.06
322.191	424.06
322.42	434.06
322.649	434.06
322.878	472.06
323.108	465.06
323.337	483.06
323.566	521.06
323.795	544.06
324.024	591.06
324.253	728.06
324.482	1052.06
324.71	1587.06
324.939	2166.06
325.168	1872.06
325.397	996.06
325.626	680.06
325.855	573.06
326.084	522.06
326.313	520.06
326.542	516.06
326.77	580.06
326.999	668.06
327.228	911.06
327.457	1374.06
327.686	1607.06
327.914	1076.06
328.143	726.06
328.372	634.06
328.6	590.06
328.829	579.06
329.058	593.06
329.287	572.06
329.515	539.06
329.744	527.06
329.972	489.06
330.201	503.06
330.43	538.06
330.658	595.06
330.887	597.06
331.115	581.06
331.344	509.06
331.572	499.06
331.801	480.06
332.03	473.06
332.258	445.06
332.486	421.06
332.715	424.06
332.943	437.06
333.172	412.06
333.4	413.06
333.629	416.06
333.857	419.06
334.085	454.06
334.314	457.06
334.542	476.06
334.771	480.06
334.999	447.06
335.227	425.06
335.455	430.06
335.684	425.06
335.912	417.06
336.14	408.06
336.369	410.06
336.597	434.06
336.825	423.06
337.053	416.06
337.281	377.06
337.51	391.06
337.738	427.06
337.966	404.06
338.194	422.06
338.422	411.06
338.65	416.06
338.878	411.06
339.106	403.06
339.334	391.06
339.562	408.06
339.79	398.06
340.018	410.06
340.246	396.06
340.474	392.06
340.702	396.06
340.93	401.06
341.158	370.06
341.386	396.06
341.614	392.06
341.842	374.06
342.07	406.06
342.298	393.06
342.526	399.06
342.754	371.06
342.981	378.06
343.209	380.06
343.437	400.06
343.665	404.06
343.893	400.06
344.12	397.06
344.348	412.06
344.576	406.06
344.804	411.06
345.031	434.06
345.259	428.06
345.487	423.06
345.714	408.06
345.942	386.06
346.17	383.06
346.397	380.06
346.625	408.06
346.853	371.06
347.08	383.06
347.308	407.06
347.535	399.06
347.763	400.06
347.99	399.06
348.218	407.06
348.445	397.06
348.673	408.06
348.9	399.06
349.128	382.06
349.355	373.06
349.583	381.06
349.81	393.06
350.037	376.06
350.265	377.06
350.492	357.06
350.72	372.06
350.947	380.06
351.174	385.06
351.402	393.06
351.629	393.06
351.856	393.06
352.083	397.06
352.311	405.06
352.538	401.06
352.765	415.06
352.992	393.06
353.22	396.06
353.447	365.06
353.674	361.06
353.901	364.06
354.128	363.06
354.355	363.06
354.583	376.06
354.81	342.06
355.037	373.06
355.264	358.06
355.491	347.06
355.718	339.06
355.945	342.06
356.172	336.06
356.399	342.06
356.626	342.06
356.853	341.06
357.08	341.06
357.307	354.06
357.534	342.06
357.761	354.06
357.988	349.06
358.215	361.06
358.441	347.06
358.668	343.06
358.895	349.06
359.122	363.06
359.349	361.06
359.576	390.06
359.802	394.06
360.029	418.06
360.256	436.06
360.483	400.06
360.709	377.06
360.936	387.06
361.163	384.06
361.39	387.06
361.616	359.06
361.843	376.06
362.07	376.06
362.296	369.06
362.523	379.06
362.749	365.06
362.976	372.06
363.203	360.06
363.429	382.06
363.656	357.06
363.882	377.06
364.109	384.06
364.335	362.06
364.562	350.06
364.788	346.06
365.015	351.06
365.241	368.06
365.468	358.06
365.694	359.06
365.92	368.06
366.147	375.06
366.373	376.06
366.599	359.06
366.826	360.06
367.052	338.06
367.278	365.06
367.505	345.06
367.731	356.06
367.957	360.06
368.184	355.06
368.41	374.06
368.636	346.06
368.862	361.06
369.089	353.06
369.315	354.06
369.541	356.06
369.767	343.06
369.993	327.06
370.219	339.06
370.445	344.06
370.672	347.06
370.898	355.06
371.124	344.06
371.35	350.06
371.576	337.06
371.802	345.06
372.028	342.06
372.254	349.06
372.48	333.06
372.706	343.06
372.932	353.06
373.158	329.06
373.384	349.06
373.61	366.06
373.835	347.06
374.061	343.06
374.287	353.06
374.513	347.06
374.739	349.06
374.965	355.06
375.191	344.06
375.416	326.06
375.642	352.06
375.868	338.06
376.094	346.06
376.319	335.06
376.545	332.06
376.771	338.06
376.997	344.06
377.222	344.06
377.448	366.06
377.674	356.06
377.899	333.06
378.125	316.06
378.35	344.06
378.576	347.06
378.802	330.06
379.027	347.06
379.253	331.06
379.478	335.06
379.704	355.06
379.929	346.06
380.155	348.06
380.38	339.06
380.606	347.06
380.831	344.06
381.057	347.06
381.282	343.06
381.507	355.06
381.733	347.06
381.958	337.06
382.184	345.06
382.409	357.06
382.634	344.06
382.86	339.06
383.085	320.06
383.31	331.06
383.535	355.06
383.761	348.06
383.986	356.06
384.211	343.06
384.436	358.06
384.662	353.06
384.887	358.06
385.112	334.06
385.337	343.06
385.562	361.06
385.787	350.06
386.013	378.06
386.238	372.06
386.463	332.06
386.688	339.06
386.913	348.06
387.138	371.06
387.363	361.06
387.588	362.06
387.813	341.06
388.038	358.06
388.263	368.06
388.488	347.06
388.713	336.06
388.938	365.06
389.163	359.06
389.387	344.06
389.612	341.06
389.837	364.06
390.062	339.06
390.287	342.06
390.512	342.06
390.736	328.06
390.961	352.06
391.186	351.06
391.411	356.06
391.636	351.06
391.86	377.06
392.085	359.06
392.31	355.06
392.534	342.06
392.759	353.06
392.984	374.06
393.208	365.06
393.433	343.06
393.658	340.06
393.882	347.06
394.107	340.06
394.331	366.06
394.556	319.06
394.78	360.06
395.005	355.06
395.229	343.06
395.454	358.06
395.678	368.06
395.903	373.06
396.127	377.06
396.352	398.06
396.576	384.06
396.801	373.06
397.025	353.06
397.249	363.06
397.474	360.06
397.698	382.06
397.922	374.06
398.147	381.06
398.371	396.06
398.595	387.06
398.82	384.06
399.044	402.06
399.268	398.06
399.492	403.06
399.717	422.06
399.941	463.06
400.165	481.06
400.389	481.06
400.613	431.06
400.837	412.06
401.062	407.06
401.286	391.06
401.51	396.06
401.734	390.06
401.958	381.06
402.182	388.06
402.406	410.06
402.63	408.06
402.854	407.06
403.078	409.06
403.302	411.06
403.526	414.06
403.75	424.06
403.974	398.06
404.198	393.06
404.422	401.06
404.645	411.06
404.869	405.06
405.093	448.06
405.317	457.06
405.541	489.06
405.765	455.06
405.988	423.06
406.212	417.06
406.436	459.06
406.66	453.06
406.883	454.06
407.107	465.06
407.331	472.06
407.555	557.06
407.778	547.06
408.002	483.06
408.226	456.06
408.449	458.06
408.673	444.06
408.896	461.06
409.12	489.06
409.344	478.06
409.567	434.06
409.791	426.06
410.014	422.06
410.238	404.06
410.461	398.06
410.685	404.06
410.908	434.06
411.132	454.06
411.355	487.06
411.578	438.06
411.802	412.06
412.025	404.06
412.249	390.06
412.472	405.06
412.695	451.06
412.919	446.06
413.142	408.06
413.365	412.06
413.589	396.06
413.812	391.06
414.035	405.06
414.258	365.06
414.482	376.06
414.705	361.06
414.928	371.06
415.151	392.06
415.374	377.06
415.597	374.06
415.821	371.06
416.044	382.06
416.267	374.06
416.49	375.06
416.713	372.06
416.936	381.06
417.159	372.06
417.382	386.06
417.605	386.06
417.828	402.06
418.051	407.06
418.274	418.06
418.497	393.06
418.72	376.06
418.943	373.06
419.166	376.06
419.389	426.06
419.611	411.06
419.834	414.06
420.057	400.06
420.28	371.06
420.503	393.06
420.726	400.06
420.948	416.06
421.171	458.06
421.394	458.06
421.617	436.06
421.839	388.06
422.062	394.06
422.285	406.06
422.507	466.06
422.73	539.06
422.953	519.06
423.175	454.06
423.398	434.06
423.621	402.06
423.843	452.06
424.066	456.06
424.288	451.06
424.511	448.06
424.733	484.06
424.956	572.06
425.178	542.06
425.401	545.06
425.623	576.06
425.846	499.06
426.068	449.06
426.291	453.06
426.513	448.06
426.735	456.06
426.958	491.06
427.18	562.06
427.402	668.06
427.625	728.06
427.847	649.06
428.069	560.06
428.292	508.06
428.514	462.06
428.736	434.06
428.958	436.06
429.181	399.06
429.403	408.06
429.625	423.06
429.847	449.06
430.069	514.06
430.292	516.06
430.514	440.06
430.736	416.06
430.958	391.06
431.18	411.06
431.402	405.06
431.624	373.06
431.846	387.06
432.068	391.06
432.29	388.06
432.512	382.06
432.734	386.06
432.956	386.06
433.178	406.06
433.4	388.06
433.622	374.06
433.844	403.06
434.066	384.06
434.287	375.06
434.509	400.06
434.731	394.06
434.953	393.06
435.175	407.06
435.397	432.06
435.618	426.06
435.84	489.06
436.062	551.06
436.284	609.06
436.505	525.06
436.727	470.06
436.949	427.06
437.17	416.06
437.392	404.06
437.614	445.06
437.835	461.06
438.057	552.06
438.278	612.06
438.5	624.06
438.721	662.06
438.943	618.06
439.165	481.06
439.386	477.06
439.608	456.06
439.829	469.06
440.05	481.06
440.272	545.06
440.493	486.06
440.715	452.06
440.936	429.06
441.158	429.06
441.379	418.06
441.6	427.06
441.822	440.06
442.043	482.06
442.264	548.06
442.486	581.06
442.707	491.06
442.928	468.06
443.149	454.06
443.371	487.06
443.592	525.06
443.813	571.06
444.034	646.06
444.255	516.06
444.476	459.06
444.698	452.06
444.919	449.06
445.14	523.06
445.361	504.06
445.582	478.06
445.803	540.06
446.024	624.06
446.245	645.06
446.466	587.06
446.687	499.06
446.908	460.06
447.129	435.06
447.35	413.06
447.571	421.06
447.792	418.06
448.013	425.06
448.234	416.06
448.455	465.06
448.675	565.06
448.896	637.06
449.117	556.06
449.338	550.06
449.559	627.06
449.779	691.06
450	558.06
450.221	470.06
450.442	425.06
450.662	422.06
450.883	403.06
451.104	415.06
451.324	416.06
451.545	408.06
451.766	408.06
451.986	374.06
452.207	384.06
452.428	364.06
452.648	357.06
452.869	372.06
453.089	382.06
453.31	379.06
453.53	390.06
453.751	388.06
453.971	388.06
454.192	400.06
454.412	378.06
454.633	381.06
454.853	368.06
455.073	379.06
455.294	394.06
455.514	459.06
455.734	449.06
455.955	378.06
456.175	348.06
456.395	355.06
456.616	335.06
456.836	342.06
457.056	333.06
457.276	325.06
457.497	341.06
457.717	357.06
457.937	354.06
458.157	357.06
458.377	365.06
458.598	366.06
458.818	425.06
459.038	515.06
459.258	504.06
459.478	427.06
459.698	394.06
459.918	379.06
460.138	384.06
460.358	378.06
460.578	389.06
460.798	372.06
461.018	376.06
461.238	392.06
461.458	384.06
461.678	377.06
461.898	362.06
462.118	365.06
462.338	392.06
462.558	384.06
462.777	380.06
462.997	405.06
463.217	400.06
463.437	396.06
463.657	394.06
463.876	384.06
464.096	396.06
464.316	389.06
464.536	421.06
464.755	395.06
464.975	405.06
465.195	436.06
465.414	507.06
465.634	440.06
465.854	399.06
466.073	390.06
466.293	358.06
466.512	344.06
466.732	362.06
466.951	360.06
467.171	361.06
467.391	362.06
467.61	368.06
467.829	380.06
468.049	379.06
468.268	390.06
468.488	379.06
468.707	363.06
468.927	349.06
469.146	346.06
469.365	364.06
469.585	356.06
469.804	377.06
470.023	384.06
470.243	358.06
470.462	377.06
470.681	381.06
470.901	386.06
471.12	378.06
471.339	379.06
471.558	397.06
471.777	382.06
471.997	377.06
472.216	370.06
472.435	386.06
472.654	384.06
472.873	369.06
473.092	380.06
473.311	396.06
473.53	369.06
473.749	402.06
473.968	429.06
474.187	510.06
474.406	531.06
474.625	418.06
474.844	378.06
475.063	404.06
475.282	385.06
475.501	392.06
475.72	390.06
475.939	376.06
476.158	402.06
476.377	390.06
476.596	393.06
476.814	383.06
477.033	397.06
477.252	410.06
477.471	416.06
477.69	406.06
477.908	402.06
478.127	402.06
478.346	403.06
478.564	410.06
478.783	365.06
479.002	417.06
479.22	416.06
479.439	426.06
479.658	435.06
479.876	460.06
480.095	478.06
480.313	476.06
480.532	462.06
480.751	449.06
480.969	453.06
481.188	502.06
481.406	518.06
481.624	479.06
481.843	443.06
482.061	465.06
482.28	452.06
482.498	450.06
482.717	454.06
482.935	442.06
483.153	436.06
483.372	422.06
483.59	457.06
483.808	455.06
484.027	411.06
484.245	440.06
484.463	433.06
484.681	442.06
484.9	452.06
485.118	460.06
485.336	440.06
485.554	461.06
485.772	470.06
485.99	454.06
486.209	458.06
486.427	468.06
486.645	446.06
486.863	472.06
487.081	484.06
487.299	490.06
487.517	482.06
487.735	450.06
487.953	480.06
488.171	492.06
488.389	468.06
488.607	485.06
488.825	470.06
489.043	482.06
489.261	491.06
489.479	494.06
489.696	470.06
489.914	480.06
490.132	483.06
490.35	484.06
490.568	502.06
490.786	509.06
491.003	503.06
491.221	522.06
491.439	526.06
491.657	524.06
491.874	537.06
492.092	544.06
492.31	548.06
492.527	540.06
492.745	544.06
492.963	535.06
493.18	539.06
493.398	538.06
493.615	558.06
493.833	538.06
494.05	554.06
494.268	573.06
494.485	569.06
494.703	577.06
494.92	581.06
495.138	570.06
495.355	567.06
495.573	577.06
495.79	568.06
496.008	589.06
496.225	545.06
496.442	539.06
496.66	549.06
496.877	561.06
497.094	562.06
497.312	572.06
497.529	572.06
497.746	565.06
497.963	566.06
498.181	592.06
498.398	605.06
498.615	619.06
498.832	608.06
499.049	624.06
499.267	628.06
499.484	643.06
499.701	650.06
499.918	662.06
500.135	670.06
500.352	685.06
500.569	696.06
500.786	700.06
501.003	699.06
501.22	653.06
501.437	670.06
501.654	677.06
501.871	682.06
502.088	655.06
502.305	616.06
502.522	620.06
502.739	606.06
502.956	586.06
503.172	583.06
503.389	559.06
503.606	577.06
503.823	591.06
504.04	562.06
504.256	574.06
504.473	571.06
504.69	552.06
504.907	567.06
505.123	585.06
505.34	556.06
505.557	545.06
505.773	549.06
505.99	550.06
506.207	565.06
506.423	553.06
506.64	545.06
506.856	564.06
507.073	540.06
507.289	540.06
507.506	544.06
507.722	546.06
507.939	555.06
508.155	551.06
508.372	532.06
508.588	537.06
508.805	530.06
509.021	514.06
509.238	544.06
509.454	546.06
509.67	533.06
509.887	526.06
510.103	545.06
510.319	568.06
510.536	620.06
510.752	1049.06
510.968	832.06
511.184	544.06
511.401	521.06
511.617	520.06
511.833	508.06
512.049	493.06
512.265	477.06
512.481	485.06
512.698	492.06
512.914	460.06
513.13	507.06
513.346	493.06
513.562	482.06
513.778	489.06
513.994	523.06
514.21	534.06
514.426	550.06
514.642	573.06
514.858	612.06
515.074	653.06
515.29	760.06
515.506	1136.06
515.721	903.06
515.937	628.06
516.153	564.06
516.369	539.06
516.585	522.06
516.801	496.06
517.016	516.06
517.232	517.06
517.448	502.06
517.664	517.06
517.879	519.06
518.095	502.06
518.311	490.06
518.527	508.06
518.742	500.06
518.958	468.06
519.173	500.06
519.389	493.06
519.605	506.06
519.82	503.06
520.036	504.06
520.251	535.06
520.467	565.06
520.682	556.06
520.898	573.06
521.113	617.06
521.329	627.06
521.544	708.06
521.76	924.06
521.975	1483.06
522.19	1436.06
522.406	809.06
522.621	602.06
522.836	534.06
523.052	524.06
523.267	492.06
523.482	469.06
523.698	473.06
523.913	467.06
524.128	445.06
524.343	451.06
524.559	451.06
524.774	435.06
524.989	445.06
525.204	445.06
525.419	435.06
525.634	430.06
525.849	429.06
526.064	421.06
526.28	406.06
526.495	422.06
526.71	416.06
526.925	416.06
527.14	418.06
527.355	417.06
527.57	417.06
527.785	421.06
527.999	406.06
528.214	393.06
528.429	412.06
528.644	404.06
528.859	395.06
529.074	406.06
529.289	446.06
529.503	517.06
529.718	477.06
529.933	443.06
530.148	416.06
530.363	408.06
530.577	417.06
530.792	386.06
531.007	407.06
531.221	413.06
531.436	390.06
531.651	389.06
531.865	396.06
532.08	390.06
532.295	381.06
532.509	384.06
532.724	379.06
532.938	378.06
533.153	374.06
533.367	381.06
533.582	382.06
533.796	368.06
534.011	388.06
534.225	376.06
534.44	362.06
534.654	376.06
534.868	370.06
535.083	357.06
535.297	380.06
535.511	395.06
535.726	389.06
535.94	409.06
536.154	365.06
536.369	398.06
536.583	376.06
536.797	363.06
537.011	358.06
537.225	366.06
537.44	373.06
537.654	370.06
537.868	378.06
538.082	385.06
538.296	369.06
538.51	378.06
538.724	379.06
538.938	377.06
539.153	377.06
539.367	395.06
539.581	373.06
539.795	380.06
540.009	360.06
540.222	362.06
540.436	362.06
540.65	380.06
540.864	382.06
541.078	400.06
541.292	375.06
541.506	360.06
541.72	375.06
541.934	376.06
542.147	358.06
542.361	360.06
542.575	365.06
542.789	349.06
543.002	383.06
543.216	370.06
543.43	386.06
543.644	378.06
543.857	354.06
544.071	374.06
544.285	376.06
544.498	372.06
544.712	378.06
544.925	370.06
545.139	361.06
545.352	352.06
545.566	346.06
545.779	350.06
545.993	354.06
546.206	352.06
546.42	360.06
546.633	359.06
546.847	358.06
547.06	360.06
547.274	348.06
547.487	350.06
547.7	346.06
547.914	333.06
548.127	337.06
548.34	345.06
548.554	345.06
548.767	330.06
548.98	335.06
549.193	329.06
549.407	336.06
549.62	336.06
549.833	335.06
550.046	340.06
550.259	333.06
550.473	344.06
550.686	341.06
550.899	329.06
551.112	340.06
551.325	351.06
551.538	325.06
551.751	319.06
551.964	318.06
552.177	330.06
552.39	333.06
552.603	347.06
552.816	344.06
553.029	336.06
553.242	331.06
553.455	346.06
553.667	354.06
553.88	329.06
554.093	339.06
554.306	332.06
554.519	344.06
554.732	341.06
554.944	326.06
555.157	318.06
555.37	335.06
555.583	320.06
555.795	331.06
556.008	329.06
556.221	318.06
556.433	318.06
556.646	338.06
556.859	324.06
557.071	332.06
557.284	324.06
557.496	313.06
557.709	317.06
557.921	324.06
558.134	289.06
558.346	314.06
558.559	316.06
558.771	294.06
558.984	300.06
559.196	300.06
559.409	315.06
559.621	322.06
559.833	310.06
560.046	284.06
560.258	292.06
560.47	295.06
560.683	302.06
560.895	302.06
561.107	313.06
561.32	316.06
561.532	297.06
561.744	310.06
561.956	312.06
562.168	306.06
562.381	311.06
562.593	301.06
562.805	312.06
563.017	300.06
563.229	305.06
563.441	316.06
563.653	301.06
563.865	314.06
564.077	313.06
564.289	312.06
564.501	309.06
564.713	285.06
564.925	318.06
565.137	331.06
565.349	316.06
565.561	329.06
565.773	332.06
565.985	318.06
566.197	334.06
566.408	333.06
566.62	333.06
566.832	338.06
567.044	335.06
567.255	345.06
567.467	346.06
567.679	357.06
567.891	364.06
568.102	370.06
568.314	363.06
568.526	320.06
568.737	322.06
568.949	323.06
569.161	328.06
569.372	315.06
569.584	302.06
569.795	298.06
570.007	316.06
570.218	353.06
570.43	329.06
570.641	301.06
570.853	313.06
571.064	291.06
571.276	299.06
571.487	288.06
571.698	287.06
571.91	289.06
572.121	278.06
572.333	287.06
572.544	297.06
572.755	295.06
572.966	285.06
573.178	280.06
573.389	294.06
573.6	286.06
573.811	286.06
574.023	270.06
574.234	272.06
574.445	264.06
574.656	261.06
574.867	260.06
575.078	281.06
575.289	268.06
575.501	268.06
575.712	281.06
575.923	280.06
576.134	274.06
576.345	256.06
576.556	275.06
576.767	262.06
576.978	256.06
577.188	259.06
577.399	265.06
577.61	250.06
577.821	257.06
578.032	278.06
578.243	284.06
578.454	496.06
578.665	388.06
578.875	286.06
579.086	272.06
579.297	246.06
579.508	248.06
579.718	257.06
579.929	258.06
580.14	265.06
580.35	271.06
580.561	247.06
580.772	265.06
580.982	238.06
581.193	244.06
581.403	276.06
581.614	269.06
581.825	253.06
582.035	252.06
582.246	246.06
582.456	246.06
582.667	261.06
582.877	258.06
583.087	264.06
583.298	254.06
583.508	245.06
583.719	256.06
583.929	264.06
584.139	256.06
584.35	256.06
584.56	249.06
584.77	244.06
584.981	238.06
585.191	241.06
585.401	235.06
585.611	234.06
585.821	258.06
586.032	232.06
586.242	224.06
586.452	238.06
586.662	247.06
586.872	233.06
587.082	241.06
587.292	224.06
587.502	240.06
587.713	231.06
587.923	231.06
588.133	225.06
588.343	232.06
588.553	236.06
588.762	227.06
588.972	232.06
589.182	282.06
589.392	268.06
589.602	250.06
589.812	262.06
590.022	247.06
590.232	226.06
590.441	213.06
590.651	265.06
590.861	238.06
591.071	228.06
591.281	247.06
591.49	244.06
591.7	220.06
591.91	232.06
592.119	228.06
592.329	250.06
592.539	248.06
592.748	246.06
592.958	268.06
593.167	252.06
593.377	239.06
593.587	237.06
593.796	223.06
594.006	237.06
594.215	229.06
594.424	241.06
594.634	230.06
594.843	241.06
595.053	260.06
595.262	249.06
595.472	235.06
595.681	238.06
595.89	224.06
596.1	216.06
596.309	216.06
596.518	232.06
596.727	219.06
596.937	238.06
597.146	223.06
597.355	230.06
597.564	216.06
597.774	222.06
597.983	217.06
598.192	200.06
598.401	212.06
598.61	232.06
598.819	214.06
599.028	217.06
599.237	207.06
599.446	198.06
599.655	212.06
599.864	206.06
600.073	210.06
600.282	208.06
600.491	216.06
600.7	216.06
600.909	201.06
601.118	201.06
601.327	212.06
601.536	221.06
601.745	222.06
601.953	221.06
602.162	196.06
602.371	205.06
602.58	228.06
602.789	196.06
602.997	206.06
603.206	213.06
603.415	210.06
603.623	188.06
603.832	225.06
604.041	209.06
604.249	203.06
604.458	203.06
604.666	187.06
604.875	212.06
605.084	211.06
605.292	203.06
605.501	210.06
605.709	198.06
605.918	206.06
606.126	196.06
606.334	192.06
606.543	193.06
606.751	203.06
606.96	192.06
607.168	201.06
607.376	201.06
607.585	201.06
607.793	202.06
608.001	192.06
608.21	185.06
608.418	196.06
608.626	200.06
608.834	195.06
609.043	205.06
609.251	187.06
609.459	198.06
609.667	190.06
609.875	188.06
610.083	192.06
610.291	198.06
610.499	181.06
610.707	191.06
610.916	213.06
611.124	206.06
611.332	197.06
611.54	207.06
611.748	205.06
611.955	208.06
612.163	201.06
612.371	193.06
612.579	209.06
612.787	205.06
612.995	214.06
613.203	184.06
613.411	185.06
613.618	193.06
613.826	206.06
614.034	203.06
614.242	181.06
614.449	173.06
614.657	202.06
614.865	195.06
615.072	198.06
615.28	186.06
615.488	202.06
615.695	189.06
615.903	203.06
616.111	194.06
616.318	185.06
616.526	197.06
616.733	182.06
616.941	186.06
617.148	200.06
617.356	189.06
617.563	182.06
617.771	189.06
617.978	193.06
618.185	194.06
618.393	188.06
618.6	194.06
618.807	190.06
619.015	182.06
619.222	184.06
619.429	193.06
619.637	185.06
619.844	198.06
620.051	186.06
620.258	190.06
620.466	183.06
620.673	173.06
620.88	176.06
621.087	197.06
621.294	187.06
621.501	186.06
621.708	187.06
621.915	182.06
622.122	180.06
622.329	177.06
622.536	184.06
622.743	186.06
622.95	172.06
623.157	178.06
623.364	176.06
623.571	184.06
623.778	157.06
623.985	193.06
624.192	179.06
624.399	185.06
624.606	179.06
624.812	169.06
625.019	170.06
625.226	179.06
625.433	180.06
625.639	181.06
625.846	182.06
626.053	168.06
626.259	152.06
626.466	171.06
626.673	191.06
626.879	179.06
627.086	192.06
627.293	172.06
627.499	169.06
627.706	179.06
627.912	182.06
628.119	188.06
628.325	166.06
628.532	168.06
628.738	166.06
628.945	184.06
629.151	160.06
629.357	173.06
629.564	172.06
629.77	157.06
629.976	176.06
630.183	163.06
630.389	158.06
630.595	153.06
630.802	164.06
631.008	150.06
631.214	160.06
631.42	169.06
631.627	188.06
631.833	171.06
632.039	155.06
632.245	165.06
632.451	155.06
632.657	161.06
632.863	162.06
633.069	161.06
633.275	163.06
633.481	170.06
633.688	155.06
633.893	171.06
634.099	135.06
634.305	168.06
634.511	159.06
634.717	156.06
634.923	157.06
635.129	152.06
635.335	175.06
635.541	182.06
635.747	151.06
635.952	155.06
636.158	160.06
636.364	172.06
636.57	168.06
636.775	162.06
636.981	162.06
637.187	149.06
637.392	164.06
637.598	166.06
637.804	157.06
638.009	151.06
638.215	150.06
638.421	150.06
638.626	156.06
638.832	155.06
639.037	142.06
639.243	173.06
639.448	144.06
639.654	152.06
639.859	159.06
640.065	168.06
640.27	133.06
640.475	139.06
640.681	148.06
640.886	146.06
641.091	150.06
641.297	140.06
641.502	148.06
641.707	160.06
641.913	151.06
642.118	133.06
642.323	153.06
642.528	149.06
642.733	130.06
642.939	140.06
643.144	140.06
643.349	147.06
643.554	160.06
643.759	155.06
643.964	137.06
644.169	144.06
644.374	144.06
644.579	141.06
644.784	144.06
644.989	128.06
645.194	133.06
645.399	161.06
645.604	139.06
645.809	145.06
646.014	151.06
646.219	132.06
646.423	150.06
646.628	140.06
646.833	131.06
647.038	137.06
647.243	141.06
647.447	142.06
647.652	152.06
647.857	154.06
648.062	145.06
648.266	150.06
648.471	157.06
648.676	162.06
648.88	152.06
649.085	137.06
649.289	143.06
649.494	155.06
649.698	160.06
649.903	169.06
650.107	159.06
650.312	162.06
650.516	137.06
650.721	124.06
650.925	133.06
651.13	132.06
651.334	131.06
651.539	128.06
651.743	150.06
651.947	143.06
652.152	130.06
652.356	146.06
652.56	134.06
652.764	128.06
652.969	121.06
653.173	126.06
653.377	131.06
653.581	113.06
653.785	124.06
653.99	125.06
654.194	120.06
654.398	125.06
654.602	123.06
654.806	132.06
655.01	130.06
655.214	120.06
655.418	132.06
655.622	115.06
655.826	128.06
656.03	123.06
656.234	138.06
656.438	122.06
656.642	120.06
656.846	131.06
657.049	122.06
657.253	112.06
657.457	116.06
657.661	119.06
657.865	121.06
658.068	112.06
658.272	107.06
658.476	97.06
658.68	114.06
658.883	108.06
659.087	86.06
659.291	95.06
659.494	93.06
659.698	101.06
659.901	82.06
660.105	95.06
660.309	94.06
660.512	101.06
660.716	104.06
660.919	88.06
661.123	103.06
661.326	91.06
661.53	93.06
661.733	85.06
661.936	95.06
662.14	88.06
662.343	107.06
662.546	93.06
662.75	95.06
662.953	87.06
663.156	83.06
663.36	84.06
663.563	91.06
663.766	82.06
663.969	85.06
664.173	92.06
664.376	101.06
664.579	77.06
664.782	72.06
664.985	84.06
665.188	91.06
665.391	83.06
665.594	78.06
665.797	87.06
666	84.06
666.203	96.06
666.406	89.06
666.609	96.06
666.812	80.06
667.015	97.06
667.218	84.06
667.421	88.06
667.624	75.06
667.827	86.06
668.03	97.06
668.232	95.06
668.435	79.06
668.638	77.06
668.841	67.06
669.043	85.06
669.246	82.06
669.449	81.06
669.651	86.06
669.854	81.06
670.057	69.06
670.259	88.06
670.462	89.06
670.665	85.06
670.867	95.06
671.07	89.06
671.272	75.06
671.475	80.06
671.677	73.06
671.88	95.06
672.082	78.06
672.284	73.06
672.487	78.06
672.689	74.06
672.892	86.06
