Data from 1981.PennyLincolnUp.Lamp.En5.5.200Scan.071819.P1_HRD10591_16-43-17-960.txt Node
Date: Thu Jul 18 16:43:17 EDT 2019
User: cochatt
Spectrometer: HR+D1059
Trigger mode: 1
Integration Time (sec): 1.000000E-1
Scans to average: 1
Electric dark correction enabled: true
Nonlinearity correction enabled: false
Boxcar width: 0
XAxis mode: Wavelengths
Number of Pixels in Spectrum: 2048
>>>>>Begin Spectral Data<<<<<
223.165	-20.94
223.4	-20.94
223.635	-20.94
223.869	-17.94
224.104	-22.94
224.338	-23.94
224.573	-21.94
224.808	6.06
225.042	7.06
225.277	-5.94
225.511	-2.94
225.746	3.06
225.98	5.06
226.215	8.06
226.449	6.06
226.683	12.06
226.918	27.06
227.152	42.06
227.387	38.06
227.621	46.06
227.856	32.06
228.09	60.06
228.324	51.06
228.559	57.06
228.793	68.06
229.027	106.06
229.262	102.06
229.496	113.06
229.73	127.06
229.964	185.06
230.199	143.06
230.433	118.06
230.667	124.06
230.901	120.06
231.136	100.06
231.37	107.06
231.604	106.06
231.838	110.06
232.072	116.06
232.306	129.06
232.541	109.06
232.775	125.06
233.009	106.06
233.243	95.06
233.477	116.06
233.711	124.06
233.945	124.06
234.179	124.06
234.413	105.06
234.647	125.06
234.881	125.06
235.115	118.06
235.349	121.06
235.583	118.06
235.817	118.06
236.051	123.06
236.285	142.06
236.519	130.06
236.753	144.06
236.987	158.06
237.221	178.06
237.455	233.06
237.689	191.06
237.922	148.06
238.156	137.06
238.39	114.06
238.624	135.06
238.858	135.06
239.091	123.06
239.325	127.06
239.559	132.06
239.793	141.06
240.027	141.06
240.26	156.06
240.494	164.06
240.728	165.06
240.961	162.06
241.195	153.06
241.429	158.06
241.662	137.06
241.896	143.06
242.13	143.06
242.363	154.06
242.597	134.06
242.83	150.06
243.064	142.06
243.298	130.06
243.531	137.06
243.765	143.06
243.998	135.06
244.232	150.06
244.465	144.06
244.699	144.06
244.932	157.06
245.166	144.06
245.399	151.06
245.633	151.06
245.866	162.06
246.099	144.06
246.333	159.06
246.566	153.06
246.8	154.06
247.033	166.06
247.266	135.06
247.5	166.06
247.733	167.06
247.966	163.06
248.2	184.06
248.433	179.06
248.666	167.06
248.899	205.06
249.133	208.06
249.366	223.06
249.599	210.06
249.832	208.06
250.066	189.06
250.299	199.06
250.532	195.06
250.765	213.06
250.998	235.06
251.231	246.06
251.465	243.06
251.698	216.06
251.931	199.06
252.164	198.06
252.397	216.06
252.63	205.06
252.863	236.06
253.096	240.06
253.329	237.06
253.562	263.06
253.795	232.06
254.028	227.06
254.261	233.06
254.494	263.06
254.727	292.06
254.96	316.06
255.193	289.06
255.426	288.06
255.659	277.06
255.892	263.06
256.124	257.06
256.357	244.06
256.59	235.06
256.823	243.06
257.056	255.06
257.289	249.06
257.521	234.06
257.754	229.06
257.987	219.06
258.22	221.06
258.452	213.06
258.685	221.06
258.918	229.06
259.151	227.06
259.383	255.06
259.616	248.06
259.849	253.06
260.081	257.06
260.314	276.06
260.547	280.06
260.779	265.06
261.012	271.06
261.244	236.06
261.477	259.06
261.71	239.06
261.942	257.06
262.175	267.06
262.407	237.06
262.64	227.06
262.872	229.06
263.105	218.06
263.337	222.06
263.57	223.06
263.802	212.06
264.035	235.06
264.267	228.06
264.499	225.06
264.732	221.06
264.964	227.06
265.197	221.06
265.429	224.06
265.661	232.06
265.894	226.06
266.126	217.06
266.358	230.06
266.591	236.06
266.823	227.06
267.055	241.06
267.287	239.06
267.52	239.06
267.752	251.06
267.984	244.06
268.216	250.06
268.448	245.06
268.681	257.06
268.913	267.06
269.145	273.06
269.377	311.06
269.609	311.06
269.841	283.06
270.073	285.06
270.306	322.06
270.538	334.06
270.77	329.06
271.002	327.06
271.234	325.06
271.466	327.06
271.698	357.06
271.93	365.06
272.162	357.06
272.394	337.06
272.626	331.06
272.858	319.06
273.09	297.06
273.322	311.06
273.553	287.06
273.785	293.06
274.017	278.06
274.249	299.06
274.481	277.06
274.713	290.06
274.945	297.06
275.176	288.06
275.408	291.06
275.64	270.06
275.872	295.06
276.104	271.06
276.335	263.06
276.567	291.06
276.799	297.06
277.031	333.06
277.262	328.06
277.494	343.06
277.726	329.06
277.957	298.06
278.189	293.06
278.421	292.06
278.652	272.06
278.884	272.06
279.115	278.06
279.347	264.06
279.579	273.06
279.81	291.06
280.042	277.06
280.273	290.06
280.505	275.06
280.736	280.06
280.968	282.06
281.199	279.06
281.431	283.06
281.662	272.06
281.894	282.06
282.125	285.06
282.356	297.06
282.588	336.06
282.819	334.06
283.051	296.06
283.282	280.06
283.513	295.06
283.745	291.06
283.976	269.06
284.207	296.06
284.439	283.06
284.67	312.06
284.901	293.06
285.132	301.06
285.364	288.06
285.595	293.06
285.826	294.06
286.057	288.06
286.288	295.06
286.52	286.06
286.751	294.06
286.982	298.06
287.213	282.06
287.444	298.06
287.675	282.06
287.906	292.06
288.138	298.06
288.369	322.06
288.6	314.06
288.831	314.06
289.062	316.06
289.293	300.06
289.524	295.06
289.755	304.06
289.986	312.06
290.217	321.06
290.448	298.06
290.679	284.06
290.91	308.06
291.141	300.06
291.371	289.06
291.602	303.06
291.833	296.06
292.064	301.06
292.295	291.06
292.526	293.06
292.757	276.06
292.987	284.06
293.218	281.06
293.449	287.06
293.68	298.06
293.91	291.06
294.141	302.06
294.372	304.06
294.603	300.06
294.833	289.06
295.064	280.06
295.295	302.06
295.525	303.06
295.756	308.06
295.987	298.06
296.217	345.06
296.448	355.06
296.679	302.06
296.909	287.06
297.14	303.06
297.37	283.06
297.601	301.06
297.831	290.06
298.062	311.06
298.292	281.06
298.523	313.06
298.753	331.06
298.984	320.06
299.214	313.06
299.445	323.06
299.675	299.06
299.905	332.06
300.136	309.06
300.366	311.06
300.597	319.06
300.827	316.06
301.057	324.06
301.288	340.06
301.518	327.06
301.748	336.06
301.979	337.06
302.209	327.06
302.439	336.06
302.669	360.06
302.9	349.06
303.13	325.06
303.36	329.06
303.59	343.06
303.82	352.06
304.051	355.06
304.281	334.06
304.511	327.06
304.741	323.06
304.971	337.06
305.201	323.06
305.431	341.06
305.661	335.06
305.891	323.06
306.121	324.06
306.352	358.06
306.582	342.06
306.812	316.06
307.042	342.06
307.272	332.06
307.502	331.06
307.731	357.06
307.961	339.06
308.191	346.06
308.421	328.06
308.651	346.06
308.881	343.06
309.111	361.06
309.341	355.06
309.571	360.06
309.8	391.06
310.03	391.06
310.26	394.06
310.49	419.06
310.72	396.06
310.949	400.06
311.179	405.06
311.409	399.06
311.639	389.06
311.868	400.06
312.098	407.06
312.328	401.06
312.557	430.06
312.787	439.06
313.017	455.06
313.246	429.06
313.476	409.06
313.706	384.06
313.935	401.06
314.165	416.06
314.394	424.06
314.624	418.06
314.853	390.06
315.083	412.06
315.312	388.06
315.542	375.06
315.771	381.06
316.001	388.06
316.23	373.06
316.46	380.06
316.689	389.06
316.919	394.06
317.148	413.06
317.377	406.06
317.607	409.06
317.836	405.06
318.065	386.06
318.295	389.06
318.524	395.06
318.753	372.06
318.983	400.06
319.212	405.06
319.441	400.06
319.67	405.06
319.9	413.06
320.129	391.06
320.358	408.06
320.587	395.06
320.816	384.06
321.046	445.06
321.275	413.06
321.504	436.06
321.733	416.06
321.962	434.06
322.191	457.06
322.42	465.06
322.649	462.06
322.878	485.06
323.108	521.06
323.337	555.06
323.566	549.06
323.795	613.06
324.024	686.06
324.253	823.06
324.482	1209.06
324.71	1837.06
324.939	2567.06
325.168	2153.06
325.397	1145.06
325.626	758.06
325.855	622.06
326.084	583.06
326.313	576.06
326.542	596.06
326.77	652.06
326.999	761.06
327.228	1089.06
327.457	1607.06
327.686	1879.06
327.914	1222.06
328.143	832.06
328.372	727.06
328.6	643.06
328.829	633.06
329.058	656.06
329.287	652.06
329.515	629.06
329.744	568.06
329.972	551.06
330.201	593.06
330.43	627.06
330.658	645.06
330.887	670.06
331.115	645.06
331.344	557.06
331.572	519.06
331.801	523.06
332.03	512.06
332.258	498.06
332.486	459.06
332.715	469.06
332.943	483.06
333.172	473.06
333.4	458.06
333.629	475.06
333.857	483.06
334.085	495.06
334.314	508.06
334.542	545.06
334.771	549.06
334.999	493.06
335.227	469.06
335.455	464.06
335.684	443.06
335.912	457.06
336.14	445.06
336.369	450.06
336.597	459.06
336.825	458.06
337.053	432.06
337.281	444.06
337.51	417.06
337.738	432.06
337.966	434.06
338.194	439.06
338.422	415.06
338.65	437.06
338.878	430.06
339.106	434.06
339.334	425.06
339.562	423.06
339.79	427.06
340.018	439.06
340.246	415.06
340.474	437.06
340.702	427.06
340.93	414.06
341.158	439.06
341.386	439.06
341.614	418.06
341.842	419.06
342.07	412.06
342.298	421.06
342.526	416.06
342.754	419.06
342.981	393.06
343.209	401.06
343.437	412.06
343.665	405.06
343.893	416.06
344.12	400.06
344.348	410.06
344.576	411.06
344.804	423.06
345.031	440.06
345.259	448.06
345.487	450.06
345.714	424.06
345.942	418.06
346.17	420.06
346.397	393.06
346.625	422.06
346.853	419.06
347.08	407.06
347.308	434.06
347.535	407.06
347.763	448.06
347.99	417.06
348.218	419.06
348.445	442.06
348.673	427.06
348.9	410.06
349.128	406.06
349.355	410.06
349.583	413.06
349.81	388.06
350.037	395.06
350.265	382.06
350.492	392.06
350.72	398.06
350.947	407.06
351.174	401.06
351.402	417.06
351.629	407.06
351.856	419.06
352.083	421.06
352.311	428.06
352.538	436.06
352.765	436.06
352.992	420.06
353.22	395.06
353.447	401.06
353.674	402.06
353.901	407.06
354.128	378.06
354.355	382.06
354.583	389.06
354.81	399.06
355.037	387.06
355.264	377.06
355.491	371.06
355.718	372.06
355.945	385.06
356.172	373.06
356.399	370.06
356.626	363.06
356.853	356.06
357.08	355.06
357.307	359.06
357.534	366.06
357.761	364.06
357.988	373.06
358.215	373.06
358.441	376.06
358.668	367.06
358.895	382.06
359.122	372.06
359.349	407.06
359.576	399.06
359.802	443.06
360.029	446.06
360.256	455.06
360.483	452.06
360.709	432.06
360.936	406.06
361.163	388.06
361.39	416.06
361.616	412.06
361.843	416.06
362.07	398.06
362.296	400.06
362.523	383.06
362.749	397.06
362.976	392.06
363.203	395.06
363.429	352.06
363.656	370.06
363.882	379.06
364.109	383.06
364.335	382.06
364.562	375.06
364.788	388.06
365.015	380.06
365.241	385.06
365.468	386.06
365.694	393.06
365.92	372.06
366.147	348.06
366.373	383.06
366.599	375.06
366.826	377.06
367.052	358.06
367.278	349.06
367.505	375.06
367.731	363.06
367.957	375.06
368.184	359.06
368.41	383.06
368.636	381.06
368.862	382.06
369.089	383.06
369.315	373.06
369.541	375.06
369.767	375.06
369.993	369.06
370.219	387.06
370.445	367.06
370.672	359.06
370.898	376.06
371.124	369.06
371.35	361.06
371.576	362.06
371.802	361.06
372.028	360.06
372.254	367.06
372.48	348.06
372.706	356.06
372.932	353.06
373.158	367.06
373.384	362.06
373.61	364.06
373.835	355.06
374.061	368.06
374.287	364.06
374.513	361.06
374.739	375.06
374.965	369.06
375.191	371.06
375.416	373.06
375.642	370.06
375.868	372.06
376.094	377.06
376.319	346.06
376.545	361.06
376.771	366.06
376.997	346.06
377.222	341.06
377.448	350.06
377.674	346.06
377.899	351.06
378.125	355.06
378.35	348.06
378.576	353.06
378.802	348.06
379.027	356.06
379.253	343.06
379.478	342.06
379.704	355.06
379.929	335.06
380.155	344.06
380.38	337.06
380.606	348.06
380.831	343.06
381.057	349.06
381.282	348.06
381.507	351.06
381.733	359.06
381.958	346.06
382.184	343.06
382.409	344.06
382.634	342.06
382.86	350.06
383.085	357.06
383.31	345.06
383.535	361.06
383.761	365.06
383.986	357.06
384.211	359.06
384.436	365.06
384.662	373.06
384.887	376.06
385.112	369.06
385.337	383.06
385.562	355.06
385.787	387.06
386.013	371.06
386.238	365.06
386.463	385.06
386.688	380.06
386.913	380.06
387.138	365.06
387.363	353.06
387.588	347.06
387.813	374.06
388.038	349.06
388.263	360.06
388.488	347.06
388.713	365.06
388.938	363.06
389.163	373.06
389.387	359.06
389.612	357.06
389.837	366.06
390.062	358.06
390.287	383.06
390.512	352.06
390.736	389.06
390.961	360.06
391.186	373.06
391.411	373.06
391.636	351.06
391.86	368.06
392.085	376.06
392.31	359.06
392.534	363.06
392.759	376.06
392.984	357.06
393.208	375.06
393.433	371.06
393.658	373.06
393.882	355.06
394.107	351.06
394.331	377.06
394.556	367.06
394.78	379.06
395.005	352.06
395.229	361.06
395.454	389.06
395.678	389.06
395.903	387.06
396.127	399.06
396.352	412.06
396.576	387.06
396.801	360.06
397.025	376.06
397.249	383.06
397.474	383.06
397.698	405.06
397.922	397.06
398.147	430.06
398.371	429.06
398.595	403.06
398.82	390.06
399.044	416.06
399.268	396.06
399.492	423.06
399.717	437.06
399.941	471.06
400.165	487.06
400.389	503.06
400.613	462.06
400.837	416.06
401.062	425.06
401.286	415.06
401.51	405.06
401.734	403.06
401.958	415.06
402.182	407.06
402.406	412.06
402.63	432.06
402.854	414.06
403.078	422.06
403.302	423.06
403.526	418.06
403.75	417.06
403.974	418.06
404.198	430.06
404.422	422.06
404.645	424.06
404.869	445.06
405.093	439.06
405.317	501.06
405.541	525.06
405.765	476.06
405.988	463.06
406.212	465.06
406.436	490.06
406.66	494.06
406.883	477.06
407.107	506.06
407.331	507.06
407.555	574.06
407.778	578.06
408.002	522.06
408.226	500.06
408.449	456.06
408.673	464.06
408.896	509.06
409.12	545.06
409.344	523.06
409.567	460.06
409.791	428.06
410.014	403.06
410.238	418.06
410.461	420.06
410.685	425.06
410.908	451.06
411.132	484.06
411.355	502.06
411.578	480.06
411.802	452.06
412.025	430.06
412.249	417.06
412.472	439.06
412.695	463.06
412.919	473.06
413.142	432.06
413.365	420.06
413.589	426.06
413.812	405.06
414.035	432.06
414.258	413.06
414.482	399.06
414.705	401.06
414.928	403.06
415.151	393.06
415.374	396.06
415.597	385.06
415.821	383.06
416.044	422.06
416.267	399.06
416.49	411.06
416.713	398.06
416.936	394.06
417.159	401.06
417.382	425.06
417.605	403.06
417.828	423.06
418.051	426.06
418.274	419.06
418.497	421.06
418.72	378.06
418.943	398.06
419.166	402.06
419.389	402.06
419.611	426.06
419.834	421.06
420.057	427.06
420.28	427.06
420.503	422.06
420.726	431.06
420.948	460.06
421.171	463.06
421.394	501.06
421.617	451.06
421.839	422.06
422.062	436.06
422.285	411.06
422.507	494.06
422.73	548.06
422.953	544.06
423.175	469.06
423.398	451.06
423.621	458.06
423.843	448.06
424.066	459.06
424.288	453.06
424.511	483.06
424.733	513.06
424.956	601.06
425.178	592.06
425.401	605.06
425.623	576.06
425.846	506.06
426.068	468.06
426.291	466.06
426.513	465.06
426.735	496.06
426.958	511.06
427.18	594.06
427.402	707.06
427.625	785.06
427.847	695.06
428.069	615.06
428.292	527.06
428.514	487.06
428.736	451.06
428.958	439.06
429.181	438.06
429.403	444.06
429.625	447.06
429.847	469.06
430.069	527.06
430.292	527.06
430.514	464.06
430.736	440.06
430.958	422.06
431.18	403.06
431.402	412.06
431.624	412.06
431.846	387.06
432.068	424.06
432.29	396.06
432.512	412.06
432.734	405.06
432.956	389.06
433.178	439.06
433.4	431.06
433.622	394.06
433.844	404.06
434.066	393.06
434.287	382.06
434.509	385.06
434.731	415.06
434.953	431.06
435.175	436.06
435.397	472.06
435.618	460.06
435.84	524.06
436.062	589.06
436.284	657.06
436.505	552.06
436.727	501.06
436.949	443.06
437.17	450.06
437.392	447.06
437.614	451.06
437.835	483.06
438.057	581.06
438.278	672.06
438.5	673.06
438.721	739.06
438.943	684.06
439.165	558.06
439.386	522.06
439.608	486.06
439.829	483.06
440.05	524.06
440.272	573.06
440.493	525.06
440.715	454.06
440.936	469.06
441.158	450.06
441.379	432.06
441.6	446.06
441.822	461.06
442.043	503.06
442.264	605.06
442.486	627.06
442.707	545.06
442.928	486.06
443.149	485.06
443.371	518.06
443.592	553.06
443.813	623.06
444.034	675.06
444.255	556.06
444.476	505.06
444.698	484.06
444.919	475.06
445.14	550.06
445.361	535.06
445.582	529.06
445.803	584.06
446.024	687.06
446.245	673.06
446.466	616.06
446.687	535.06
446.908	476.06
447.129	437.06
447.35	440.06
447.571	430.06
447.792	440.06
448.013	440.06
448.234	454.06
448.455	540.06
448.675	616.06
448.896	686.06
449.117	595.06
449.338	557.06
449.559	709.06
449.779	743.06
450	601.06
450.221	516.06
450.442	463.06
450.662	435.06
450.883	460.06
451.104	469.06
451.324	451.06
451.545	423.06
451.766	406.06
451.986	406.06
452.207	412.06
452.428	378.06
452.648	378.06
452.869	380.06
453.089	404.06
453.31	425.06
453.53	410.06
453.751	385.06
453.971	399.06
454.192	410.06
454.412	433.06
454.633	380.06
454.853	396.06
455.073	401.06
455.294	442.06
455.514	489.06
455.734	463.06
455.955	393.06
456.175	377.06
456.395	367.06
456.616	364.06
456.836	380.06
457.056	361.06
457.276	345.06
457.497	360.06
457.717	372.06
457.937	366.06
458.157	354.06
458.377	368.06
458.598	405.06
458.818	442.06
459.038	543.06
459.258	545.06
459.478	448.06
459.698	411.06
459.918	386.06
460.138	402.06
460.358	426.06
460.578	395.06
460.798	389.06
461.018	407.06
461.238	377.06
461.458	395.06
461.678	369.06
461.898	389.06
462.118	409.06
462.338	419.06
462.558	405.06
462.777	394.06
462.997	397.06
463.217	385.06
463.437	410.06
463.657	392.06
463.876	397.06
464.096	425.06
464.316	424.06
464.536	420.06
464.755	417.06
464.975	442.06
465.195	479.06
465.414	551.06
465.634	479.06
465.854	426.06
466.073	421.06
466.293	406.06
466.512	400.06
466.732	381.06
466.951	395.06
467.171	391.06
467.391	384.06
467.61	423.06
467.829	413.06
468.049	407.06
468.268	391.06
468.488	387.06
468.707	380.06
468.927	392.06
469.146	364.06
469.365	372.06
469.585	384.06
469.804	385.06
470.023	398.06
470.243	399.06
470.462	399.06
470.681	416.06
470.901	404.06
471.12	414.06
471.339	400.06
471.558	383.06
471.777	396.06
471.997	387.06
472.216	408.06
472.435	437.06
472.654	415.06
472.873	387.06
473.092	394.06
473.311	391.06
473.53	384.06
473.749	400.06
473.968	471.06
474.187	553.06
474.406	557.06
474.625	479.06
474.844	417.06
475.063	398.06
475.282	385.06
475.501	405.06
475.72	407.06
475.939	400.06
476.158	405.06
476.377	422.06
476.596	413.06
476.814	426.06
477.033	409.06
477.252	422.06
477.471	419.06
477.69	421.06
477.908	420.06
478.127	425.06
478.346	429.06
478.564	438.06
478.783	419.06
479.002	437.06
479.22	461.06
479.439	470.06
479.658	472.06
479.876	460.06
480.095	477.06
480.313	487.06
480.532	485.06
480.751	491.06
480.969	502.06
481.188	545.06
481.406	621.06
481.624	522.06
481.843	484.06
482.061	477.06
482.28	469.06
482.498	460.06
482.717	451.06
482.935	490.06
483.153	477.06
483.372	463.06
483.59	462.06
483.808	457.06
484.027	461.06
484.245	471.06
484.463	460.06
484.681	470.06
484.9	489.06
485.118	455.06
485.336	477.06
485.554	480.06
485.772	473.06
485.99	481.06
486.209	466.06
486.427	459.06
486.645	483.06
486.863	500.06
487.081	495.06
487.299	495.06
487.517	507.06
487.735	498.06
487.953	500.06
488.171	502.06
488.389	494.06
488.607	504.06
488.825	495.06
489.043	495.06
489.261	507.06
489.479	520.06
489.696	512.06
489.914	530.06
490.132	519.06
490.35	525.06
490.568	534.06
490.786	530.06
491.003	541.06
491.221	565.06
491.439	556.06
491.657	553.06
491.874	579.06
492.092	574.06
492.31	573.06
492.527	550.06
492.745	578.06
492.963	598.06
493.18	605.06
493.398	584.06
493.615	579.06
493.833	612.06
494.05	594.06
494.268	619.06
494.485	594.06
494.703	586.06
494.92	609.06
495.138	592.06
495.355	612.06
495.573	595.06
495.79	585.06
496.008	581.06
496.225	557.06
496.442	583.06
496.66	601.06
496.877	583.06
497.094	605.06
497.312	593.06
497.529	599.06
497.746	609.06
497.963	616.06
498.181	647.06
498.398	627.06
498.615	624.06
498.832	661.06
499.049	639.06
499.267	625.06
499.484	628.06
499.701	661.06
499.918	705.06
500.135	696.06
500.352	711.06
500.569	711.06
500.786	735.06
501.003	724.06
501.22	710.06
501.437	709.06
501.654	704.06
501.871	732.06
502.088	731.06
502.305	682.06
502.522	639.06
502.739	632.06
502.956	630.06
503.172	608.06
503.389	605.06
503.606	629.06
503.823	627.06
504.04	603.06
504.256	600.06
504.473	605.06
504.69	611.06
504.907	585.06
505.123	590.06
505.34	600.06
505.557	595.06
505.773	596.06
505.99	568.06
506.207	572.06
506.423	591.06
506.64	579.06
506.856	566.06
507.073	582.06
507.289	584.06
507.506	581.06
507.722	572.06
507.939	608.06
508.155	583.06
508.372	579.06
508.588	544.06
508.805	543.06
509.021	565.06
509.238	577.06
509.454	585.06
509.67	593.06
509.887	556.06
510.103	573.06
510.319	587.06
510.536	695.06
510.752	1102.06
510.968	927.06
511.184	588.06
511.401	551.06
511.617	558.06
511.833	536.06
512.049	544.06
512.265	529.06
512.481	545.06
512.698	528.06
512.914	533.06
513.13	522.06
513.346	539.06
513.562	538.06
513.778	553.06
513.994	539.06
514.21	563.06
514.426	574.06
514.642	632.06
514.858	672.06
515.074	703.06
515.29	813.06
515.506	1256.06
515.721	988.06
515.937	680.06
516.153	627.06
516.369	580.06
516.585	573.06
516.801	534.06
517.016	549.06
517.232	534.06
517.448	531.06
517.664	522.06
517.879	546.06
518.095	574.06
518.311	534.06
518.527	525.06
518.742	518.06
518.958	515.06
519.173	536.06
519.389	522.06
519.605	519.06
519.82	537.06
520.036	557.06
520.251	599.06
520.467	605.06
520.682	618.06
520.898	605.06
521.113	635.06
521.329	669.06
521.544	775.06
521.76	1049.06
521.975	1720.06
522.19	1596.06
522.406	897.06
522.621	648.06
522.836	567.06
523.052	547.06
523.267	516.06
523.482	519.06
523.698	495.06
523.913	514.06
524.128	499.06
524.343	463.06
524.559	472.06
524.774	464.06
524.989	469.06
525.204	469.06
525.419	473.06
525.634	463.06
525.849	451.06
526.064	442.06
526.28	455.06
526.495	456.06
526.71	433.06
526.925	454.06
527.14	419.06
527.355	431.06
527.57	426.06
527.785	436.06
527.999	399.06
528.214	414.06
528.429	417.06
528.644	410.06
528.859	447.06
529.074	420.06
529.289	453.06
529.503	525.06
529.718	538.06
529.933	456.06
530.148	444.06
530.363	431.06
530.577	435.06
530.792	417.06
531.007	415.06
531.221	421.06
531.436	399.06
531.651	412.06
531.865	418.06
532.08	410.06
532.295	419.06
532.509	410.06
532.724	413.06
532.938	397.06
533.153	391.06
533.367	410.06
533.582	410.06
533.796	409.06
534.011	397.06
534.225	388.06
534.44	378.06
534.654	388.06
534.868	393.06
535.083	379.06
535.297	400.06
535.511	408.06
535.726	403.06
535.94	414.06
536.154	407.06
536.369	395.06
536.583	398.06
536.797	396.06
537.011	395.06
537.225	415.06
537.44	397.06
537.654	401.06
537.868	407.06
538.082	397.06
538.296	399.06
538.51	380.06
538.724	404.06
538.938	400.06
539.153	371.06
539.367	390.06
539.581	397.06
539.795	376.06
540.009	392.06
540.222	377.06
540.436	402.06
540.65	394.06
540.864	404.06
541.078	405.06
541.292	404.06
541.506	397.06
541.72	389.06
541.934	412.06
542.147	390.06
542.361	391.06
542.575	351.06
542.789	393.06
543.002	379.06
543.216	395.06
543.43	386.06
543.644	383.06
543.857	373.06
544.071	391.06
544.285	406.06
544.498	361.06
544.712	382.06
544.925	383.06
545.139	378.06
545.352	371.06
545.566	359.06
545.779	368.06
545.993	378.06
546.206	362.06
546.42	379.06
546.633	355.06
546.847	357.06
547.06	347.06
547.274	380.06
547.487	356.06
547.7	383.06
547.914	369.06
548.127	359.06
548.34	362.06
548.554	361.06
548.767	341.06
548.98	367.06
549.193	352.06
549.407	344.06
549.62	379.06
549.833	364.06
550.046	328.06
550.259	364.06
550.473	367.06
550.686	349.06
550.899	357.06
551.112	354.06
551.325	345.06
551.538	348.06
551.751	343.06
551.964	341.06
552.177	347.06
552.39	366.06
552.603	357.06
552.816	355.06
553.029	356.06
553.242	363.06
553.455	351.06
553.667	364.06
553.88	364.06
554.093	380.06
554.306	375.06
554.519	359.06
554.732	378.06
554.944	342.06
555.157	348.06
555.37	334.06
555.583	336.06
555.795	343.06
556.008	349.06
556.221	339.06
556.433	332.06
556.646	319.06
556.859	348.06
557.071	341.06
557.284	344.06
557.496	316.06
557.709	327.06
557.921	322.06
558.134	316.06
558.346	332.06
558.559	331.06
558.771	313.06
558.984	314.06
559.196	314.06
559.409	318.06
559.621	323.06
559.833	300.06
560.046	335.06
560.258	323.06
560.47	311.06
560.683	317.06
560.895	335.06
561.107	310.06
561.32	325.06
561.532	317.06
561.744	306.06
561.956	331.06
562.168	324.06
562.381	316.06
562.593	309.06
562.805	316.06
563.017	323.06
563.229	318.06
563.441	322.06
563.653	315.06
563.865	316.06
564.077	307.06
564.289	317.06
564.501	327.06
564.713	332.06
564.925	311.06
565.137	351.06
565.349	343.06
565.561	320.06
565.773	327.06
565.985	324.06
566.197	338.06
566.408	332.06
566.62	344.06
566.832	349.06
567.044	356.06
567.255	353.06
567.467	362.06
567.679	355.06
567.891	351.06
568.102	368.06
568.314	346.06
568.526	359.06
568.737	359.06
568.949	340.06
569.161	341.06
569.372	319.06
569.584	307.06
569.795	322.06
570.007	329.06
570.218	348.06
570.43	342.06
570.641	315.06
570.853	301.06
571.064	313.06
571.276	297.06
571.487	307.06
571.698	302.06
571.91	297.06
572.121	292.06
572.333	302.06
572.544	287.06
572.755	287.06
572.966	286.06
573.178	303.06
573.389	297.06
573.6	285.06
573.811	291.06
574.023	292.06
574.234	272.06
574.445	256.06
574.656	284.06
574.867	279.06
575.078	294.06
575.289	293.06
575.501	285.06
575.712	291.06
575.923	280.06
576.134	267.06
576.345	285.06
576.556	270.06
576.767	266.06
576.978	272.06
577.188	283.06
577.399	275.06
577.61	262.06
577.821	262.06
578.032	246.06
578.243	318.06
578.454	527.06
578.665	377.06
578.875	270.06
579.086	277.06
579.297	267.06
579.508	269.06
579.718	274.06
579.929	247.06
580.14	255.06
580.35	257.06
580.561	265.06
580.772	267.06
580.982	249.06
581.193	253.06
581.403	254.06
581.614	271.06
581.825	254.06
582.035	272.06
582.246	265.06
582.456	262.06
582.667	259.06
582.877	261.06
583.087	239.06
583.298	244.06
583.508	228.06
583.719	246.06
583.929	267.06
584.139	239.06
584.35	244.06
584.56	243.06
584.77	250.06
584.981	255.06
585.191	263.06
585.401	253.06
585.611	264.06
585.821	253.06
586.032	244.06
586.242	251.06
586.452	243.06
586.662	240.06
586.872	265.06
587.082	252.06
587.292	248.06
587.502	247.06
587.713	258.06
587.923	256.06
588.133	245.06
588.343	234.06
588.553	255.06
588.762	241.06
588.972	224.06
589.182	259.06
589.392	251.06
589.602	228.06
589.812	263.06
590.022	259.06
590.232	244.06
590.441	252.06
590.651	228.06
590.861	248.06
591.071	247.06
591.281	230.06
591.49	247.06
591.7	235.06
591.91	233.06
592.119	239.06
592.329	255.06
592.539	262.06
592.748	259.06
592.958	252.06
593.167	247.06
593.377	234.06
593.587	237.06
593.796	254.06
594.006	248.06
594.215	235.06
594.424	235.06
594.634	251.06
594.843	259.06
595.053	241.06
595.262	255.06
595.472	228.06
595.681	244.06
595.89	225.06
596.1	226.06
596.309	257.06
596.518	235.06
596.727	214.06
596.937	252.06
597.146	235.06
597.355	221.06
597.564	217.06
597.774	237.06
597.983	220.06
598.192	226.06
598.401	219.06
598.61	226.06
598.819	225.06
599.028	224.06
599.237	213.06
599.446	217.06
599.655	225.06
599.864	224.06
600.073	241.06
600.282	236.06
600.491	221.06
600.7	202.06
600.909	208.06
601.118	201.06
601.327	207.06
601.536	215.06
601.745	219.06
601.953	236.06
602.162	216.06
602.371	210.06
602.58	215.06
602.789	213.06
602.997	220.06
603.206	209.06
603.415	209.06
603.623	198.06
603.832	219.06
604.041	221.06
604.249	207.06
604.458	207.06
604.666	201.06
604.875	213.06
605.084	197.06
605.292	204.06
605.501	205.06
605.709	192.06
605.918	205.06
606.126	185.06
606.334	200.06
606.543	213.06
606.751	206.06
606.96	213.06
607.168	192.06
607.376	212.06
607.585	220.06
607.793	198.06
608.001	191.06
608.21	218.06
608.418	195.06
608.626	185.06
608.834	195.06
609.043	205.06
609.251	197.06
609.459	190.06
609.667	205.06
609.875	211.06
610.083	208.06
610.291	192.06
610.499	192.06
610.707	202.06
610.916	203.06
611.124	205.06
611.332	198.06
611.54	209.06
611.748	204.06
611.955	196.06
612.163	194.06
612.371	206.06
612.579	197.06
612.787	207.06
612.995	208.06
613.203	205.06
613.411	199.06
613.618	195.06
613.826	206.06
614.034	194.06
614.242	198.06
614.449	189.06
614.657	211.06
614.865	198.06
615.072	198.06
615.28	192.06
615.488	185.06
615.695	208.06
615.903	192.06
616.111	199.06
616.318	216.06
616.526	207.06
616.733	214.06
616.941	208.06
617.148	208.06
617.356	213.06
617.563	199.06
617.771	205.06
617.978	199.06
618.185	188.06
618.393	202.06
618.6	209.06
618.807	212.06
619.015	195.06
619.222	173.06
619.429	193.06
619.637	212.06
619.844	197.06
620.051	180.06
620.258	184.06
620.466	179.06
620.673	180.06
620.88	183.06
621.087	195.06
621.294	191.06
621.501	199.06
621.708	189.06
621.915	203.06
622.122	203.06
622.329	190.06
622.536	179.06
622.743	174.06
622.95	181.06
623.157	179.06
623.364	192.06
623.571	187.06
623.778	186.06
623.985	192.06
624.192	185.06
624.399	198.06
624.606	201.06
624.812	208.06
625.019	180.06
625.226	202.06
625.433	183.06
625.639	182.06
625.846	201.06
626.053	183.06
626.259	171.06
626.466	165.06
626.673	181.06
626.879	193.06
627.086	174.06
627.293	167.06
627.499	182.06
627.706	171.06
627.912	173.06
628.119	172.06
628.325	173.06
628.532	173.06
628.738	170.06
628.945	185.06
629.151	166.06
629.357	168.06
629.564	180.06
629.77	174.06
629.976	169.06
630.183	181.06
630.389	171.06
630.595	168.06
630.802	169.06
631.008	173.06
631.214	176.06
631.42	171.06
631.627	166.06
631.833	169.06
632.039	160.06
632.245	166.06
632.451	165.06
632.657	175.06
632.863	161.06
633.069	160.06
633.275	153.06
633.481	171.06
633.688	168.06
633.893	154.06
634.099	168.06
634.305	161.06
634.511	162.06
634.717	152.06
634.923	154.06
635.129	170.06
635.335	151.06
635.541	169.06
635.747	164.06
635.952	167.06
636.158	161.06
636.364	156.06
636.57	169.06
636.775	155.06
636.981	158.06
637.187	151.06
637.392	168.06
637.598	168.06
637.804	165.06
638.009	160.06
638.215	176.06
638.421	158.06
638.626	147.06
638.832	157.06
639.037	153.06
639.243	154.06
639.448	164.06
639.654	165.06
639.859	152.06
640.065	153.06
640.27	161.06
640.475	151.06
640.681	150.06
640.886	166.06
641.091	170.06
641.297	156.06
641.502	150.06
641.707	163.06
641.913	172.06
642.118	145.06
642.323	167.06
642.528	148.06
642.733	154.06
642.939	158.06
643.144	149.06
643.349	149.06
643.554	158.06
643.759	147.06
643.964	135.06
644.169	148.06
644.374	155.06
644.579	153.06
644.784	133.06
644.989	144.06
645.194	144.06
645.399	168.06
645.604	140.06
645.809	139.06
646.014	143.06
646.219	139.06
646.423	144.06
646.628	145.06
646.833	143.06
647.038	159.06
647.243	148.06
647.447	147.06
647.652	152.06
647.857	164.06
648.062	161.06
648.266	127.06
648.471	149.06
648.676	138.06
648.88	145.06
649.085	152.06
649.289	143.06
649.494	156.06
649.698	180.06
649.903	175.06
650.107	162.06
650.312	171.06
650.516	150.06
650.721	143.06
650.925	142.06
651.13	132.06
651.334	144.06
651.539	133.06
651.743	140.06
651.947	128.06
652.152	156.06
652.356	149.06
652.56	129.06
652.764	130.06
652.969	131.06
653.173	134.06
653.377	134.06
653.581	152.06
653.785	129.06
653.99	133.06
654.194	127.06
654.398	119.06
654.602	126.06
654.806	128.06
655.01	165.06
655.214	129.06
655.418	132.06
655.622	117.06
655.826	124.06
656.03	111.06
656.234	120.06
656.438	113.06
656.642	127.06
656.846	135.06
657.049	128.06
657.253	116.06
657.457	116.06
657.661	96.06
657.865	117.06
658.068	108.06
658.272	108.06
658.476	109.06
658.68	105.06
658.883	91.06
659.087	113.06
659.291	111.06
659.494	96.06
659.698	98.06
659.901	91.06
660.105	99.06
660.309	92.06
660.512	83.06
660.716	96.06
660.919	93.06
661.123	91.06
661.326	87.06
661.53	96.06
661.733	83.06
661.936	100.06
662.14	95.06
662.343	99.06
662.546	91.06
662.75	93.06
662.953	80.06
663.156	93.06
663.36	92.06
663.563	101.06
663.766	95.06
663.969	91.06
664.173	90.06
664.376	81.06
664.579	85.06
664.782	88.06
664.985	82.06
665.188	82.06
665.391	104.06
665.594	88.06
665.797	91.06
666	81.06
666.203	78.06
666.406	66.06
666.609	83.06
666.812	84.06
667.015	75.06
667.218	81.06
667.421	84.06
667.624	86.06
667.827	88.06
668.03	83.06
668.232	82.06
668.435	88.06
668.638	82.06
668.841	94.06
669.043	80.06
669.246	79.06
669.449	80.06
669.651	83.06
669.854	91.06
670.057	98.06
670.259	85.06
670.462	88.06
670.665	88.06
670.867	78.06
671.07	82.06
671.272	93.06
671.475	97.06
671.677	82.06
671.88	95.06
672.082	80.06
672.284	86.06
672.487	90.06
672.689	79.06
672.892	75.06
