Data from 1981.PennyLincolnUp.Lamp.En5.5.200Scan.071819.P1_HRD10591_16-41-27-959.txt Node
Date: Thu Jul 18 16:41:27 EDT 2019
User: cochatt
Spectrometer: HR+D1059
Trigger mode: 1
Integration Time (sec): 1.000000E-1
Scans to average: 1
Electric dark correction enabled: true
Nonlinearity correction enabled: false
Boxcar width: 0
XAxis mode: Wavelengths
Number of Pixels in Spectrum: 2048
>>>>>Begin Spectral Data<<<<<
223.165	-21.62
223.4	-21.62
223.635	-21.62
223.869	-18.62
224.104	-17.62
224.338	-20.62
224.573	-29.62
224.808	-18.62
225.042	-13.62
225.277	-1.62
225.511	8.38
225.746	13.38
225.98	12.38
226.215	10.38
226.449	31.38
226.683	13.38
226.918	23.38
227.152	29.38
227.387	48.38
227.621	32.38
227.856	59.38
228.09	57.38
228.324	51.38
228.559	69.38
228.793	73.38
229.027	103.38
229.262	113.38
229.496	127.38
229.73	129.38
229.964	154.38
230.199	131.38
230.433	116.38
230.667	115.38
230.901	117.38
231.136	123.38
231.37	112.38
231.604	107.38
231.838	121.38
232.072	119.38
232.306	121.38
232.541	114.38
232.775	119.38
233.009	128.38
233.243	117.38
233.477	121.38
233.711	114.38
233.945	119.38
234.179	129.38
234.413	118.38
234.647	118.38
234.881	126.38
235.115	108.38
235.349	135.38
235.583	119.38
235.817	127.38
236.051	133.38
236.285	122.38
236.519	125.38
236.753	134.38
236.987	139.38
237.221	185.38
237.455	225.38
237.689	184.38
237.922	153.38
238.156	141.38
238.39	133.38
238.624	127.38
238.858	133.38
239.091	132.38
239.325	131.38
239.559	129.38
239.793	129.38
240.027	146.38
240.26	145.38
240.494	162.38
240.728	149.38
240.961	141.38
241.195	135.38
241.429	138.38
241.662	140.38
241.896	133.38
242.13	130.38
242.363	135.38
242.597	133.38
242.83	142.38
243.064	151.38
243.298	138.38
243.531	156.38
243.765	153.38
243.998	153.38
244.232	147.38
244.465	152.38
244.699	144.38
244.932	145.38
245.166	138.38
245.399	147.38
245.633	134.38
245.866	142.38
246.099	151.38
246.333	147.38
246.566	153.38
246.8	153.38
247.033	157.38
247.266	162.38
247.5	165.38
247.733	173.38
247.966	171.38
248.2	175.38
248.433	167.38
248.666	175.38
248.899	179.38
249.133	209.38
249.366	239.38
249.599	219.38
249.832	186.38
250.066	202.38
250.299	177.38
250.532	187.38
250.765	214.38
250.998	212.38
251.231	241.38
251.465	225.38
251.698	207.38
251.931	213.38
252.164	210.38
252.397	185.38
252.63	200.38
252.863	215.38
253.096	225.38
253.329	236.38
253.562	224.38
253.795	232.38
254.028	224.38
254.261	227.38
254.494	247.38
254.727	250.38
254.96	281.38
255.193	269.38
255.426	262.38
255.659	243.38
255.892	237.38
256.124	236.38
256.357	231.38
256.59	229.38
256.823	230.38
257.056	223.38
257.289	218.38
257.521	220.38
257.754	213.38
257.987	222.38
258.22	221.38
258.452	207.38
258.685	211.38
258.918	208.38
259.151	213.38
259.383	219.38
259.616	233.38
259.849	238.38
260.081	252.38
260.314	266.38
260.547	282.38
260.779	270.38
261.012	240.38
261.244	229.38
261.477	250.38
261.71	233.38
261.942	236.38
262.175	240.38
262.407	245.38
262.64	229.38
262.872	236.38
263.105	230.38
263.337	204.38
263.57	216.38
263.802	227.38
264.035	227.38
264.267	220.38
264.499	223.38
264.732	219.38
264.964	211.38
265.197	223.38
265.429	230.38
265.661	229.38
265.894	223.38
266.126	217.38
266.358	240.38
266.591	211.38
266.823	227.38
267.055	234.38
267.287	221.38
267.52	235.38
267.752	217.38
267.984	235.38
268.216	231.38
268.448	243.38
268.681	226.38
268.913	246.38
269.145	280.38
269.377	291.38
269.609	289.38
269.841	286.38
270.073	278.38
270.306	311.38
270.538	329.38
270.77	334.38
271.002	323.38
271.234	312.38
271.466	311.38
271.698	320.38
271.93	335.38
272.162	328.38
272.394	331.38
272.626	314.38
272.858	293.38
273.09	292.38
273.322	287.38
273.553	299.38
273.785	283.38
274.017	279.38
274.249	281.38
274.481	266.38
274.713	289.38
274.945	284.38
275.176	270.38
275.408	275.38
275.64	258.38
275.872	283.38
276.104	268.38
276.335	273.38
276.567	298.38
276.799	316.38
277.031	317.38
277.262	320.38
277.494	330.38
277.726	303.38
277.957	303.38
278.189	289.38
278.421	285.38
278.652	272.38
278.884	287.38
279.115	260.38
279.347	263.38
279.579	278.38
279.81	276.38
280.042	266.38
280.273	270.38
280.505	267.38
280.736	269.38
280.968	279.38
281.199	272.38
281.431	279.38
281.662	251.38
281.894	270.38
282.125	276.38
282.356	284.38
282.588	313.38
282.819	299.38
283.051	303.38
283.282	287.38
283.513	264.38
283.745	284.38
283.976	290.38
284.207	280.38
284.439	283.38
284.67	282.38
284.901	267.38
285.132	269.38
285.364	291.38
285.595	287.38
285.826	294.38
286.057	299.38
286.288	276.38
286.52	291.38
286.751	293.38
286.982	284.38
287.213	296.38
287.444	276.38
287.675	275.38
287.906	298.38
288.138	304.38
288.369	304.38
288.6	298.38
288.831	303.38
289.062	290.38
289.293	295.38
289.524	285.38
289.755	293.38
289.986	290.38
290.217	281.38
290.448	275.38
290.679	284.38
290.91	281.38
291.141	291.38
291.371	281.38
291.602	305.38
291.833	288.38
292.064	290.38
292.295	273.38
292.526	299.38
292.757	276.38
292.987	290.38
293.218	279.38
293.449	290.38
293.68	287.38
293.91	287.38
294.141	294.38
294.372	301.38
294.603	298.38
294.833	293.38
295.064	297.38
295.295	276.38
295.525	262.38
295.756	296.38
295.987	307.38
296.217	331.38
296.448	347.38
296.679	313.38
296.909	287.38
297.14	302.38
297.37	290.38
297.601	305.38
297.831	293.38
298.062	293.38
298.292	295.38
298.523	299.38
298.753	316.38
298.984	299.38
299.214	309.38
299.445	309.38
299.675	300.38
299.905	300.38
300.136	308.38
300.366	308.38
300.597	306.38
300.827	323.38
301.057	315.38
301.288	329.38
301.518	325.38
301.748	317.38
301.979	327.38
302.209	329.38
302.439	311.38
302.669	320.38
302.9	327.38
303.13	327.38
303.36	327.38
303.59	329.38
303.82	336.38
304.051	343.38
304.281	324.38
304.511	310.38
304.741	304.38
304.971	320.38
305.201	318.38
305.431	334.38
305.661	325.38
305.891	319.38
306.121	328.38
306.352	322.38
306.582	331.38
306.812	334.38
307.042	347.38
307.272	328.38
307.502	324.38
307.731	342.38
307.961	330.38
308.191	357.38
308.421	348.38
308.651	315.38
308.881	344.38
309.111	345.38
309.341	347.38
309.571	348.38
309.8	359.38
310.03	368.38
310.26	390.38
310.49	398.38
310.72	400.38
310.949	410.38
311.179	409.38
311.409	366.38
311.639	399.38
311.868	378.38
312.098	381.38
312.328	391.38
312.557	409.38
312.787	417.38
313.017	413.38
313.246	395.38
313.476	389.38
313.706	382.38
313.935	379.38
314.165	387.38
314.394	411.38
314.624	402.38
314.853	416.38
315.083	375.38
315.312	389.38
315.542	395.38
315.771	375.38
316.001	358.38
316.23	369.38
316.46	359.38
316.689	390.38
316.919	397.38
317.148	375.38
317.377	389.38
317.607	383.38
317.836	395.38
318.065	411.38
318.295	379.38
318.524	377.38
318.753	385.38
318.983	375.38
319.212	373.38
319.441	379.38
319.67	382.38
319.9	378.38
320.129	408.38
320.358	406.38
320.587	385.38
320.816	402.38
321.046	413.38
321.275	403.38
321.504	413.38
321.733	395.38
321.962	411.38
322.191	430.38
322.42	424.38
322.649	451.38
322.878	475.38
323.108	459.38
323.337	511.38
323.566	533.38
323.795	581.38
324.024	635.38
324.253	773.38
324.482	1128.38
324.71	1694.38
324.939	2298.38
325.168	1953.38
325.397	1078.38
325.626	706.38
325.855	601.38
326.084	542.38
326.313	529.38
326.542	553.38
326.77	611.38
326.999	689.38
327.228	1000.38
327.457	1425.38
327.686	1681.38
327.914	1178.38
328.143	773.38
328.372	677.38
328.6	629.38
328.829	593.38
329.058	605.38
329.287	614.38
329.515	591.38
329.744	548.38
329.972	541.38
330.201	537.38
330.43	565.38
330.658	622.38
330.887	620.38
331.115	614.38
331.344	541.38
331.572	497.38
331.801	500.38
332.03	499.38
332.258	467.38
332.486	448.38
332.715	450.38
332.943	449.38
333.172	455.38
333.4	454.38
333.629	448.38
333.857	469.38
334.085	471.38
334.314	487.38
334.542	505.38
334.771	494.38
334.999	472.38
335.227	468.38
335.455	461.38
335.684	437.38
335.912	414.38
336.14	423.38
336.369	419.38
336.597	444.38
336.825	443.38
337.053	426.38
337.281	415.38
337.51	413.38
337.738	439.38
337.966	433.38
338.194	448.38
338.422	440.38
338.65	431.38
338.878	421.38
339.106	413.38
339.334	430.38
339.562	395.38
339.79	419.38
340.018	411.38
340.246	435.38
340.474	424.38
340.702	406.38
340.93	431.38
341.158	407.38
341.386	421.38
341.614	402.38
341.842	414.38
342.07	418.38
342.298	415.38
342.526	401.38
342.754	437.38
342.981	378.38
343.209	395.38
343.437	393.38
343.665	376.38
343.893	400.38
344.12	431.38
344.348	409.38
344.576	418.38
344.804	413.38
345.031	430.38
345.259	416.38
345.487	420.38
345.714	424.38
345.942	392.38
346.17	398.38
346.397	378.38
346.625	380.38
346.853	404.38
347.08	407.38
347.308	393.38
347.535	417.38
347.763	404.38
347.99	407.38
348.218	439.38
348.445	420.38
348.673	401.38
348.9	417.38
349.128	390.38
349.355	385.38
349.583	386.38
349.81	387.38
350.037	386.38
350.265	384.38
350.492	393.38
350.72	394.38
350.947	407.38
351.174	396.38
351.402	414.38
351.629	403.38
351.856	425.38
352.083	425.38
352.311	423.38
352.538	432.38
352.765	418.38
352.992	404.38
353.22	405.38
353.447	402.38
353.674	401.38
353.901	395.38
354.128	365.38
354.355	375.38
354.583	381.38
354.81	373.38
355.037	364.38
355.264	371.38
355.491	364.38
355.718	354.38
355.945	355.38
356.172	359.38
356.399	365.38
356.626	342.38
356.853	343.38
357.08	341.38
357.307	350.38
357.534	385.38
357.761	370.38
357.988	374.38
358.215	374.38
358.441	370.38
358.668	363.38
358.895	371.38
359.122	373.38
359.349	397.38
359.576	406.38
359.802	422.38
360.029	455.38
360.256	462.38
360.483	433.38
360.709	417.38
360.936	403.38
361.163	399.38
361.39	409.38
361.616	372.38
361.843	404.38
362.07	411.38
362.296	387.38
362.523	386.38
362.749	390.38
362.976	401.38
363.203	380.38
363.429	373.38
363.656	370.38
363.882	375.38
364.109	368.38
364.335	353.38
364.562	369.38
364.788	360.38
365.015	378.38
365.241	374.38
365.468	369.38
365.694	359.38
365.92	366.38
366.147	376.38
366.373	367.38
366.599	360.38
366.826	362.38
367.052	372.38
367.278	365.38
367.505	353.38
367.731	377.38
367.957	385.38
368.184	359.38
368.41	372.38
368.636	375.38
368.862	373.38
369.089	347.38
369.315	341.38
369.541	350.38
369.767	364.38
369.993	365.38
370.219	354.38
370.445	360.38
370.672	366.38
370.898	354.38
371.124	338.38
371.35	359.38
371.576	376.38
371.802	367.38
372.028	340.38
372.254	358.38
372.48	355.38
372.706	356.38
372.932	357.38
373.158	354.38
373.384	362.38
373.61	362.38
373.835	357.38
374.061	359.38
374.287	346.38
374.513	363.38
374.739	366.38
374.965	378.38
375.191	367.38
375.416	334.38
375.642	347.38
375.868	358.38
376.094	356.38
376.319	352.38
376.545	360.38
376.771	361.38
376.997	356.38
377.222	347.38
377.448	340.38
377.674	349.38
377.899	339.38
378.125	363.38
378.35	347.38
378.576	334.38
378.802	345.38
379.027	333.38
379.253	333.38
379.478	345.38
379.704	336.38
379.929	340.38
380.155	355.38
380.38	346.38
380.606	339.38
380.831	362.38
381.057	350.38
381.282	343.38
381.507	344.38
381.733	336.38
381.958	360.38
382.184	345.38
382.409	350.38
382.634	358.38
382.86	353.38
383.085	366.38
383.31	362.38
383.535	373.38
383.761	359.38
383.986	373.38
384.211	347.38
384.436	349.38
384.662	346.38
384.887	367.38
385.112	363.38
385.337	350.38
385.562	370.38
385.787	363.38
386.013	387.38
386.238	376.38
386.463	379.38
386.688	403.38
386.913	366.38
387.138	373.38
387.363	356.38
387.588	364.38
387.813	364.38
388.038	351.38
388.263	364.38
388.488	364.38
388.713	363.38
388.938	366.38
389.163	380.38
389.387	339.38
389.612	349.38
389.837	364.38
390.062	346.38
390.287	369.38
390.512	351.38
390.736	350.38
390.961	371.38
391.186	363.38
391.411	347.38
391.636	348.38
391.86	381.38
392.085	382.38
392.31	368.38
392.534	373.38
392.759	348.38
392.984	353.38
393.208	356.38
393.433	363.38
393.658	358.38
393.882	350.38
394.107	359.38
394.331	365.38
394.556	354.38
394.78	353.38
395.005	367.38
395.229	354.38
395.454	355.38
395.678	382.38
395.903	377.38
396.127	385.38
396.352	398.38
396.576	391.38
396.801	362.38
397.025	393.38
397.249	377.38
397.474	389.38
397.698	378.38
397.922	397.38
398.147	410.38
398.371	403.38
398.595	416.38
398.82	394.38
399.044	395.38
399.268	418.38
399.492	427.38
399.717	420.38
399.941	475.38
400.165	498.38
400.389	509.38
400.613	473.38
400.837	425.38
401.062	427.38
401.286	421.38
401.51	424.38
401.734	417.38
401.958	409.38
402.182	406.38
402.406	413.38
402.63	427.38
402.854	414.38
403.078	410.38
403.302	420.38
403.526	424.38
403.75	407.38
403.974	408.38
404.198	410.38
404.422	414.38
404.645	430.38
404.869	416.38
405.093	442.38
405.317	464.38
405.541	527.38
405.765	473.38
405.988	439.38
406.212	453.38
406.436	488.38
406.66	471.38
406.883	457.38
407.107	483.38
407.331	510.38
407.555	565.38
407.778	554.38
408.002	523.38
408.226	464.38
408.449	451.38
408.673	465.38
408.896	498.38
409.12	524.38
409.344	505.38
409.567	453.38
409.791	431.38
410.014	431.38
410.238	418.38
410.461	422.38
410.685	445.38
410.908	423.38
411.132	458.38
411.355	496.38
411.578	476.38
411.802	410.38
412.025	411.38
412.249	416.38
412.472	430.38
412.695	451.38
412.919	457.38
413.142	434.38
413.365	397.38
413.589	387.38
413.812	395.38
414.035	385.38
414.258	377.38
414.482	403.38
414.705	397.38
414.928	386.38
415.151	383.38
415.374	387.38
415.597	379.38
415.821	391.38
416.044	405.38
416.267	394.38
416.49	377.38
416.713	389.38
416.936	381.38
417.159	400.38
417.382	397.38
417.605	410.38
417.828	399.38
418.051	416.38
418.274	413.38
418.497	402.38
418.72	397.38
418.943	391.38
419.166	413.38
419.389	417.38
419.611	415.38
419.834	421.38
420.057	413.38
420.28	415.38
420.503	392.38
420.726	415.38
420.948	424.38
421.171	475.38
421.394	484.38
421.617	438.38
421.839	417.38
422.062	421.38
422.285	430.38
422.507	490.38
422.73	530.38
422.953	561.38
423.175	452.38
423.398	434.38
423.621	445.38
423.843	440.38
424.066	463.38
424.288	453.38
424.511	456.38
424.733	518.38
424.956	584.38
425.178	559.38
425.401	565.38
425.623	587.38
425.846	497.38
426.068	459.38
426.291	473.38
426.513	451.38
426.735	480.38
426.958	512.38
427.18	573.38
427.402	682.38
427.625	762.38
427.847	670.38
428.069	586.38
428.292	496.38
428.514	503.38
428.736	459.38
428.958	452.38
429.181	414.38
429.403	422.38
429.625	438.38
429.847	477.38
430.069	506.38
430.292	503.38
430.514	433.38
430.736	409.38
430.958	418.38
431.18	391.38
431.402	393.38
431.624	390.38
431.846	381.38
432.068	390.38
432.29	388.38
432.512	392.38
432.734	393.38
432.956	397.38
433.178	404.38
433.4	409.38
433.622	398.38
433.844	387.38
434.066	381.38
434.287	402.38
434.509	417.38
434.731	393.38
434.953	413.38
435.175	429.38
435.397	457.38
435.618	437.38
435.84	496.38
436.062	560.38
436.284	650.38
436.505	537.38
436.727	464.38
436.949	431.38
437.17	427.38
437.392	449.38
437.614	442.38
437.835	467.38
438.057	565.38
438.278	649.38
438.5	657.38
438.721	713.38
438.943	658.38
439.165	515.38
439.386	479.38
439.608	465.38
439.829	495.38
440.05	503.38
440.272	563.38
440.493	500.38
440.715	472.38
440.936	432.38
441.158	436.38
441.379	423.38
441.6	461.38
441.822	453.38
442.043	477.38
442.264	561.38
442.486	603.38
442.707	510.38
442.928	485.38
443.149	495.38
443.371	497.38
443.592	531.38
443.813	639.38
444.034	645.38
444.255	538.38
444.476	479.38
444.698	451.38
444.919	462.38
445.14	570.38
445.361	545.38
445.582	517.38
445.803	565.38
446.024	649.38
446.245	637.38
446.466	605.38
446.687	518.38
446.908	465.38
447.129	439.38
447.35	427.38
447.571	428.38
447.792	412.38
448.013	439.38
448.234	475.38
448.455	495.38
448.675	594.38
448.896	655.38
449.117	585.38
449.338	568.38
449.559	650.38
449.779	714.38
450	589.38
450.221	488.38
450.442	453.38
450.662	445.38
450.883	429.38
451.104	458.38
451.324	455.38
451.545	421.38
451.766	402.38
451.986	386.38
452.207	401.38
452.428	394.38
452.648	403.38
452.869	383.38
453.089	400.38
453.31	392.38
453.53	379.38
453.751	390.38
453.971	397.38
454.192	420.38
454.412	409.38
454.633	385.38
454.853	393.38
455.073	385.38
455.294	427.38
455.514	469.38
455.734	450.38
455.955	388.38
456.175	361.38
456.395	362.38
456.616	349.38
456.836	359.38
457.056	355.38
457.276	357.38
457.497	362.38
457.717	363.38
457.937	369.38
458.157	387.38
458.377	379.38
458.598	391.38
458.818	442.38
459.038	529.38
459.258	527.38
459.478	432.38
459.698	392.38
459.918	399.38
460.138	393.38
460.358	380.38
460.578	394.38
460.798	366.38
461.018	404.38
461.238	390.38
461.458	390.38
461.678	379.38
461.898	402.38
462.118	391.38
462.338	402.38
462.558	414.38
462.777	409.38
462.997	401.38
463.217	414.38
463.437	409.38
463.657	411.38
463.876	395.38
464.096	404.38
464.316	414.38
464.536	417.38
464.755	412.38
464.975	429.38
465.195	473.38
465.414	550.38
465.634	486.38
465.854	439.38
466.073	412.38
466.293	385.38
466.512	386.38
466.732	390.38
466.951	377.38
467.171	382.38
467.391	401.38
467.61	395.38
467.829	393.38
468.049	409.38
468.268	410.38
468.488	386.38
468.707	383.38
468.927	382.38
469.146	367.38
469.365	371.38
469.585	354.38
469.804	386.38
470.023	414.38
470.243	411.38
470.462	402.38
470.681	430.38
470.901	398.38
471.12	375.38
471.339	391.38
471.558	399.38
471.777	387.38
471.997	369.38
472.216	408.38
472.435	419.38
472.654	405.38
472.873	400.38
473.092	387.38
473.311	400.38
473.53	393.38
473.749	420.38
473.968	427.38
474.187	522.38
474.406	561.38
474.625	440.38
474.844	399.38
475.063	389.38
475.282	392.38
475.501	403.38
475.72	404.38
475.939	393.38
476.158	395.38
476.377	386.38
476.596	381.38
476.814	411.38
477.033	427.38
477.252	410.38
477.471	417.38
477.69	399.38
477.908	416.38
478.127	431.38
478.346	426.38
478.564	403.38
478.783	409.38
479.002	422.38
479.22	444.38
479.439	458.38
479.658	463.38
479.876	464.38
480.095	469.38
480.313	498.38
480.532	468.38
480.751	483.38
480.969	478.38
481.188	537.38
481.406	541.38
481.624	490.38
481.843	465.38
482.061	460.38
482.28	477.38
482.498	456.38
482.717	450.38
482.935	456.38
483.153	476.38
483.372	459.38
483.59	446.38
483.808	470.38
484.027	443.38
484.245	462.38
484.463	457.38
484.681	443.38
484.9	472.38
485.118	474.38
485.336	463.38
485.554	466.38
485.772	461.38
485.99	461.38
486.209	494.38
486.427	479.38
486.645	482.38
486.863	515.38
487.081	502.38
487.299	482.38
487.517	507.38
487.735	485.38
487.953	510.38
488.171	493.38
488.389	503.38
488.607	480.38
488.825	497.38
489.043	511.38
489.261	501.38
489.479	499.38
489.696	501.38
489.914	494.38
490.132	485.38
490.35	530.38
490.568	499.38
490.786	512.38
491.003	531.38
491.221	530.38
491.439	557.38
491.657	558.38
491.874	547.38
492.092	535.38
492.31	552.38
492.527	535.38
492.745	531.38
492.963	574.38
493.18	559.38
493.398	567.38
493.615	550.38
493.833	568.38
494.05	575.38
494.268	586.38
494.485	580.38
494.703	591.38
494.92	577.38
495.138	578.38
495.355	574.38
495.573	566.38
495.79	583.38
496.008	598.38
496.225	570.38
496.442	589.38
496.66	577.38
496.877	564.38
497.094	575.38
497.312	589.38
497.529	615.38
497.746	607.38
497.963	615.38
498.181	603.38
498.398	614.38
498.615	629.38
498.832	635.38
499.049	620.38
499.267	645.38
499.484	648.38
499.701	687.38
499.918	674.38
500.135	693.38
500.352	697.38
500.569	707.38
500.786	719.38
501.003	725.38
501.22	730.38
501.437	702.38
501.654	705.38
501.871	698.38
502.088	685.38
502.305	666.38
502.522	660.38
502.739	652.38
502.956	622.38
503.172	598.38
503.389	609.38
503.606	624.38
503.823	602.38
504.04	607.38
504.256	577.38
504.473	586.38
504.69	571.38
504.907	557.38
505.123	584.38
505.34	575.38
505.557	553.38
505.773	595.38
505.99	563.38
506.207	540.38
506.423	549.38
506.64	566.38
506.856	547.38
507.073	535.38
507.289	553.38
507.506	546.38
507.722	565.38
507.939	580.38
508.155	575.38
508.372	552.38
508.588	534.38
508.805	541.38
509.021	541.38
509.238	546.38
509.454	556.38
509.67	563.38
509.887	557.38
510.103	559.38
510.319	590.38
510.536	652.38
510.752	1113.38
510.968	897.38
511.184	569.38
511.401	541.38
511.617	521.38
511.833	511.38
512.049	528.38
512.265	502.38
512.481	525.38
512.698	521.38
512.914	522.38
513.13	499.38
513.346	515.38
513.562	498.38
513.778	533.38
513.994	549.38
514.21	546.38
514.426	578.38
514.642	610.38
514.858	645.38
515.074	679.38
515.29	826.38
515.506	1243.38
515.721	968.38
515.937	659.38
516.153	601.38
516.369	580.38
516.585	555.38
516.801	539.38
517.016	552.38
517.232	504.38
517.448	537.38
517.664	540.38
517.879	529.38
518.095	531.38
518.311	528.38
518.527	521.38
518.742	517.38
518.958	512.38
519.173	531.38
519.389	523.38
519.605	528.38
519.82	531.38
520.036	531.38
520.251	559.38
520.467	589.38
520.682	603.38
520.898	625.38
521.113	631.38
521.329	675.38
521.544	773.38
521.76	1000.38
521.975	1650.38
522.19	1563.38
522.406	873.38
522.621	658.38
522.836	554.38
523.052	529.38
523.267	492.38
523.482	495.38
523.698	513.38
523.913	485.38
524.128	499.38
524.343	482.38
524.559	464.38
524.774	451.38
524.989	458.38
525.204	456.38
525.419	478.38
525.634	463.38
525.849	455.38
526.064	439.38
526.28	435.38
526.495	417.38
526.71	421.38
526.925	422.38
527.14	402.38
527.355	442.38
527.57	402.38
527.785	417.38
527.999	404.38
528.214	418.38
528.429	425.38
528.644	425.38
528.859	435.38
529.074	422.38
529.289	455.38
529.503	525.38
529.718	505.38
529.933	462.38
530.148	446.38
530.363	413.38
530.577	418.38
530.792	419.38
531.007	410.38
531.221	404.38
531.436	392.38
531.651	401.38
531.865	397.38
532.08	406.38
532.295	393.38
532.509	397.38
532.724	400.38
532.938	407.38
533.153	393.38
533.367	378.38
533.582	375.38
533.796	406.38
534.011	385.38
534.225	397.38
534.44	411.38
534.654	386.38
534.868	389.38
535.083	402.38
535.297	389.38
535.511	380.38
535.726	389.38
535.94	401.38
536.154	386.38
536.369	389.38
536.583	394.38
536.797	381.38
537.011	383.38
537.225	392.38
537.44	387.38
537.654	375.38
537.868	372.38
538.082	374.38
538.296	389.38
538.51	396.38
538.724	386.38
538.938	366.38
539.153	383.38
539.367	401.38
539.581	382.38
539.795	359.38
540.009	385.38
540.222	379.38
540.436	392.38
540.65	372.38
540.864	376.38
541.078	385.38
541.292	383.38
541.506	383.38
541.72	385.38
541.934	387.38
542.147	379.38
542.361	385.38
542.575	375.38
542.789	356.38
543.002	373.38
543.216	379.38
543.43	379.38
543.644	382.38
543.857	391.38
544.071	381.38
544.285	378.38
544.498	387.38
544.712	403.38
544.925	362.38
545.139	364.38
545.352	354.38
545.566	357.38
545.779	380.38
545.993	353.38
546.206	400.38
546.42	362.38
546.633	378.38
546.847	352.38
547.06	373.38
547.274	359.38
547.487	361.38
547.7	368.38
547.914	360.38
548.127	360.38
548.34	361.38
548.554	353.38
548.767	358.38
548.98	355.38
549.193	338.38
549.407	351.38
549.62	339.38
549.833	370.38
550.046	348.38
550.259	358.38
550.473	344.38
550.686	373.38
550.899	352.38
551.112	358.38
551.325	350.38
551.538	345.38
551.751	368.38
551.964	347.38
552.177	344.38
552.39	333.38
552.603	339.38
552.816	347.38
553.029	362.38
553.242	337.38
553.455	352.38
553.667	360.38
553.88	369.38
554.093	357.38
554.306	366.38
554.519	367.38
554.732	346.38
554.944	356.38
555.157	344.38
555.37	343.38
555.583	351.38
555.795	334.38
556.008	352.38
556.221	322.38
556.433	303.38
556.646	321.38
556.859	321.38
557.071	319.38
557.284	328.38
557.496	329.38
557.709	317.38
557.921	319.38
558.134	332.38
558.346	317.38
558.559	325.38
558.771	319.38
558.984	305.38
559.196	319.38
559.409	320.38
559.621	319.38
559.833	300.38
560.046	317.38
560.258	315.38
560.47	311.38
560.683	315.38
560.895	312.38
561.107	318.38
561.32	318.38
561.532	345.38
561.744	316.38
561.956	298.38
562.168	299.38
562.381	315.38
562.593	320.38
562.805	330.38
563.017	305.38
563.229	313.38
563.441	330.38
563.653	328.38
563.865	323.38
564.077	315.38
564.289	311.38
564.501	317.38
564.713	334.38
564.925	320.38
565.137	333.38
565.349	337.38
565.561	328.38
565.773	355.38
565.985	347.38
566.197	336.38
566.408	341.38
566.62	335.38
566.832	382.38
567.044	363.38
567.255	366.38
567.467	360.38
567.679	355.38
567.891	361.38
568.102	359.38
568.314	358.38
568.526	335.38
568.737	338.38
568.949	343.38
569.161	324.38
569.372	341.38
569.584	299.38
569.795	332.38
570.007	309.38
570.218	363.38
570.43	366.38
570.641	319.38
570.853	306.38
571.064	306.38
571.276	306.38
571.487	306.38
571.698	298.38
571.91	306.38
572.121	291.38
572.333	313.38
572.544	298.38
572.755	302.38
572.966	287.38
573.178	289.38
573.389	290.38
573.6	277.38
573.811	289.38
574.023	272.38
574.234	268.38
574.445	281.38
574.656	267.38
574.867	276.38
575.078	277.38
575.289	262.38
575.501	277.38
575.712	288.38
575.923	275.38
576.134	298.38
576.345	276.38
576.556	271.38
576.767	285.38
576.978	277.38
577.188	260.38
577.399	268.38
577.61	280.38
577.821	277.38
578.032	280.38
578.243	321.38
578.454	539.38
578.665	386.38
578.875	290.38
579.086	278.38
579.297	266.38
579.508	269.38
579.718	265.38
579.929	246.38
580.14	250.38
580.35	256.38
580.561	283.38
580.772	273.38
580.982	269.38
581.193	268.38
581.403	238.38
581.614	260.38
581.825	250.38
582.035	253.38
582.246	261.38
582.456	264.38
582.667	254.38
582.877	261.38
583.087	249.38
583.298	255.38
583.508	262.38
583.719	253.38
583.929	261.38
584.139	255.38
584.35	252.38
584.56	249.38
584.77	231.38
584.981	254.38
585.191	255.38
585.401	261.38
585.611	234.38
585.821	239.38
586.032	250.38
586.242	237.38
586.452	249.38
586.662	246.38
586.872	235.38
587.082	264.38
587.292	245.38
587.502	250.38
587.713	234.38
587.923	223.38
588.133	246.38
588.343	242.38
588.553	245.38
588.762	233.38
588.972	261.38
589.182	262.38
589.392	272.38
589.602	270.38
589.812	265.38
590.022	252.38
590.232	238.38
590.441	233.38
590.651	237.38
590.861	235.38
591.071	248.38
591.281	247.38
591.49	230.38
591.7	241.38
591.91	253.38
592.119	240.38
592.329	247.38
592.539	259.38
592.748	251.38
592.958	273.38
593.167	266.38
593.377	246.38
593.587	260.38
593.796	237.38
594.006	236.38
594.215	240.38
594.424	251.38
594.634	255.38
594.843	250.38
595.053	250.38
595.262	246.38
595.472	250.38
595.681	248.38
595.89	249.38
596.1	237.38
596.309	230.38
596.518	246.38
596.727	234.38
596.937	262.38
597.146	226.38
597.355	237.38
597.564	232.38
597.774	221.38
597.983	214.38
598.192	214.38
598.401	221.38
598.61	221.38
598.819	238.38
599.028	219.38
599.237	231.38
599.446	226.38
599.655	211.38
599.864	230.38
600.073	223.38
600.282	234.38
600.491	213.38
600.7	223.38
600.909	210.38
601.118	197.38
601.327	224.38
601.536	232.38
601.745	236.38
601.953	230.38
602.162	210.38
602.371	206.38
602.58	204.38
602.789	211.38
602.997	209.38
603.206	226.38
603.415	207.38
603.623	213.38
603.832	219.38
604.041	220.38
604.249	215.38
604.458	219.38
604.666	185.38
604.875	206.38
605.084	200.38
605.292	213.38
605.501	215.38
605.709	218.38
605.918	189.38
606.126	213.38
606.334	229.38
606.543	211.38
606.751	218.38
606.96	227.38
607.168	195.38
607.376	217.38
607.585	210.38
607.793	214.38
608.001	207.38
608.21	201.38
608.418	197.38
608.626	205.38
608.834	211.38
609.043	204.38
609.251	203.38
609.459	214.38
609.667	207.38
609.875	198.38
610.083	215.38
610.291	216.38
610.499	193.38
610.707	208.38
610.916	208.38
611.124	218.38
611.332	209.38
611.54	218.38
611.748	223.38
611.955	204.38
612.163	210.38
612.371	199.38
612.579	204.38
612.787	209.38
612.995	201.38
613.203	194.38
613.411	219.38
613.618	203.38
613.826	205.38
614.034	203.38
614.242	182.38
614.449	197.38
614.657	199.38
614.865	188.38
615.072	201.38
615.28	194.38
615.488	195.38
615.695	202.38
615.903	205.38
616.111	209.38
616.318	202.38
616.526	199.38
616.733	192.38
616.941	206.38
617.148	201.38
617.356	198.38
617.563	203.38
617.771	209.38
617.978	192.38
618.185	201.38
618.393	203.38
618.6	169.38
618.807	183.38
619.015	209.38
619.222	177.38
619.429	186.38
619.637	213.38
619.844	172.38
620.051	201.38
620.258	199.38
620.466	199.38
620.673	189.38
620.88	189.38
621.087	188.38
621.294	182.38
621.501	193.38
621.708	188.38
621.915	183.38
622.122	188.38
622.329	202.38
622.536	199.38
622.743	200.38
622.95	201.38
623.157	179.38
623.364	197.38
623.571	181.38
623.778	195.38
623.985	189.38
624.192	181.38
624.399	179.38
624.606	197.38
624.812	172.38
625.019	167.38
625.226	171.38
625.433	180.38
625.639	181.38
625.846	188.38
626.053	189.38
626.259	182.38
626.466	191.38
626.673	186.38
626.879	178.38
627.086	200.38
627.293	169.38
627.499	184.38
627.706	175.38
627.912	185.38
628.119	180.38
628.325	169.38
628.532	178.38
628.738	165.38
628.945	186.38
629.151	164.38
629.357	169.38
629.564	178.38
629.77	168.38
629.976	187.38
630.183	175.38
630.389	176.38
630.595	176.38
630.802	188.38
631.008	178.38
631.214	182.38
631.42	175.38
631.627	172.38
631.833	173.38
632.039	164.38
632.245	173.38
632.451	156.38
632.657	179.38
632.863	169.38
633.069	163.38
633.275	158.38
633.481	156.38
633.688	159.38
633.893	183.38
634.099	159.38
634.305	163.38
634.511	163.38
634.717	167.38
634.923	161.38
635.129	148.38
635.335	173.38
635.541	162.38
635.747	158.38
635.952	166.38
636.158	166.38
636.364	185.38
636.57	162.38
636.775	155.38
636.981	174.38
637.187	161.38
637.392	158.38
637.598	164.38
637.804	165.38
638.009	154.38
638.215	165.38
638.421	159.38
638.626	152.38
638.832	142.38
639.037	149.38
639.243	155.38
639.448	154.38
639.654	163.38
639.859	152.38
640.065	165.38
640.27	172.38
640.475	153.38
640.681	147.38
640.886	154.38
641.091	138.38
641.297	146.38
641.502	154.38
641.707	157.38
641.913	153.38
642.118	159.38
642.323	175.38
642.528	163.38
642.733	160.38
642.939	152.38
643.144	156.38
643.349	149.38
643.554	145.38
643.759	141.38
643.964	147.38
644.169	160.38
644.374	151.38
644.579	143.38
644.784	160.38
644.989	139.38
645.194	158.38
645.399	171.38
645.604	151.38
645.809	152.38
646.014	147.38
646.219	139.38
646.423	147.38
646.628	141.38
646.833	162.38
647.038	153.38
647.243	155.38
647.447	156.38
647.652	141.38
647.857	147.38
648.062	139.38
648.266	141.38
648.471	141.38
648.676	144.38
648.88	152.38
649.085	145.38
649.289	165.38
649.494	161.38
649.698	165.38
649.903	149.38
650.107	155.38
650.312	145.38
650.516	139.38
650.721	155.38
650.925	146.38
651.13	140.38
651.334	139.38
651.539	138.38
651.743	145.38
651.947	137.38
652.152	153.38
652.356	140.38
652.56	133.38
652.764	142.38
652.969	147.38
653.173	137.38
653.377	133.38
653.581	139.38
653.785	124.38
653.99	130.38
654.194	138.38
654.398	127.38
654.602	128.38
654.806	129.38
655.01	131.38
655.214	146.38
655.418	130.38
655.622	126.38
655.826	126.38
656.03	123.38
656.234	151.38
656.438	128.38
656.642	127.38
656.846	122.38
657.049	136.38
657.253	125.38
657.457	125.38
657.661	120.38
657.865	107.38
658.068	111.38
658.272	110.38
658.476	111.38
658.68	105.38
658.883	117.38
659.087	91.38
659.291	117.38
659.494	113.38
659.698	101.38
659.901	103.38
660.105	98.38
660.309	85.38
660.512	99.38
660.716	96.38
660.919	111.38
661.123	110.38
661.326	99.38
661.53	95.38
661.733	96.38
661.936	94.38
662.14	93.38
662.343	94.38
662.546	87.38
662.75	75.38
662.953	92.38
663.156	95.38
663.36	91.38
663.563	103.38
663.766	78.38
663.969	84.38
664.173	78.38
664.376	87.38
664.579	82.38
664.782	78.38
664.985	84.38
665.188	88.38
665.391	103.38
665.594	100.38
665.797	91.38
666	77.38
666.203	88.38
666.406	75.38
666.609	85.38
666.812	94.38
667.015	83.38
667.218	78.38
667.421	88.38
667.624	95.38
667.827	99.38
668.03	103.38
668.232	83.38
668.435	94.38
668.638	88.38
668.841	89.38
669.043	85.38
669.246	83.38
669.449	90.38
669.651	101.38
669.854	80.38
670.057	87.38
670.259	80.38
670.462	74.38
670.665	88.38
670.867	93.38
671.07	84.38
671.272	94.38
671.475	86.38
671.677	86.38
671.88	76.38
672.082	82.38
672.284	87.38
672.487	94.38
672.689	91.38
672.892	83.38
