Data from 1981.PennyLincolnUp.Lamp.En5.5.200Scan.071819.P1_HRD10591_16-42-48-960.txt Node
Date: Thu Jul 18 16:42:48 EDT 2019
User: cochatt
Spectrometer: HR+D1059
Trigger mode: 1
Integration Time (sec): 1.000000E-1
Scans to average: 1
Electric dark correction enabled: true
Nonlinearity correction enabled: false
Boxcar width: 0
XAxis mode: Wavelengths
Number of Pixels in Spectrum: 2048
>>>>>Begin Spectral Data<<<<<
223.165	-20.94
223.4	-20.94
223.635	-20.94
223.869	-12.94
224.104	-12.94
224.338	-25.94
224.573	-16.94
224.808	4.06
225.042	5.06
225.277	-7.94
225.511	-3.94
225.746	8.06
225.98	7.06
226.215	4.06
226.449	13.06
226.683	15.06
226.918	19.06
227.152	26.06
227.387	33.06
227.621	26.06
227.856	50.06
228.09	50.06
228.324	34.06
228.559	54.06
228.793	60.06
229.027	86.06
229.262	110.06
229.496	116.06
229.73	131.06
229.964	161.06
230.199	138.06
230.433	115.06
230.667	119.06
230.901	110.06
231.136	106.06
231.37	100.06
231.604	106.06
231.838	108.06
232.072	105.06
232.306	114.06
232.541	122.06
232.775	117.06
233.009	103.06
233.243	102.06
233.477	118.06
233.711	107.06
233.945	118.06
234.179	118.06
234.413	118.06
234.647	118.06
234.881	111.06
235.115	115.06
235.349	100.06
235.583	107.06
235.817	120.06
236.051	129.06
236.285	122.06
236.519	131.06
236.753	125.06
236.987	150.06
237.221	177.06
237.455	220.06
237.689	187.06
237.922	149.06
238.156	134.06
238.39	147.06
238.624	123.06
238.858	116.06
239.091	127.06
239.325	129.06
239.559	134.06
239.793	136.06
240.027	131.06
240.26	127.06
240.494	154.06
240.728	158.06
240.961	155.06
241.195	143.06
241.429	149.06
241.662	138.06
241.896	122.06
242.13	136.06
242.363	151.06
242.597	151.06
242.83	128.06
243.064	127.06
243.298	136.06
243.531	142.06
243.765	155.06
243.998	129.06
244.232	139.06
244.465	144.06
244.699	144.06
244.932	139.06
245.166	141.06
245.399	133.06
245.633	144.06
245.866	159.06
246.099	150.06
246.333	146.06
246.566	154.06
246.8	154.06
247.033	160.06
247.266	157.06
247.5	160.06
247.733	176.06
247.966	173.06
248.2	170.06
248.433	170.06
248.666	162.06
248.899	191.06
249.133	189.06
249.366	214.06
249.599	220.06
249.832	214.06
250.066	198.06
250.299	200.06
250.532	209.06
250.765	213.06
250.998	228.06
251.231	245.06
251.465	233.06
251.698	210.06
251.931	224.06
252.164	196.06
252.397	221.06
252.63	207.06
252.863	207.06
253.096	226.06
253.329	245.06
253.562	226.06
253.795	214.06
254.028	221.06
254.261	242.06
254.494	253.06
254.727	264.06
254.96	296.06
255.193	298.06
255.426	263.06
255.659	246.06
255.892	250.06
256.124	250.06
256.357	250.06
256.59	249.06
256.823	227.06
257.056	225.06
257.289	213.06
257.521	230.06
257.754	219.06
257.987	202.06
258.22	225.06
258.452	202.06
258.685	217.06
258.918	225.06
259.151	219.06
259.383	230.06
259.616	232.06
259.849	219.06
260.081	243.06
260.314	275.06
260.547	267.06
260.779	253.06
261.012	252.06
261.244	241.06
261.477	242.06
261.71	235.06
261.942	243.06
262.175	238.06
262.407	241.06
262.64	214.06
262.872	218.06
263.105	222.06
263.337	234.06
263.57	235.06
263.802	226.06
264.035	216.06
264.267	211.06
264.499	216.06
264.732	226.06
264.964	222.06
265.197	201.06
265.429	221.06
265.661	223.06
265.894	209.06
266.126	213.06
266.358	214.06
266.591	213.06
266.823	219.06
267.055	218.06
267.287	219.06
267.52	218.06
267.752	239.06
267.984	228.06
268.216	241.06
268.448	223.06
268.681	231.06
268.913	268.06
269.145	265.06
269.377	296.06
269.609	280.06
269.841	284.06
270.073	300.06
270.306	316.06
270.538	327.06
270.77	335.06
271.002	339.06
271.234	307.06
271.466	342.06
271.698	323.06
271.93	351.06
272.162	340.06
272.394	346.06
272.626	330.06
272.858	319.06
273.09	297.06
273.322	285.06
273.553	287.06
273.785	286.06
274.017	287.06
274.249	276.06
274.481	274.06
274.713	265.06
274.945	273.06
275.176	278.06
275.408	280.06
275.64	268.06
275.872	278.06
276.104	273.06
276.335	271.06
276.567	292.06
276.799	306.06
277.031	293.06
277.262	318.06
277.494	334.06
277.726	306.06
277.957	306.06
278.189	286.06
278.421	281.06
278.652	262.06
278.884	267.06
279.115	258.06
279.347	268.06
279.579	281.06
279.81	283.06
280.042	285.06
280.273	271.06
280.505	268.06
280.736	277.06
280.968	250.06
281.199	265.06
281.431	289.06
281.662	264.06
281.894	289.06
282.125	282.06
282.356	283.06
282.588	305.06
282.819	298.06
283.051	299.06
283.282	275.06
283.513	289.06
283.745	275.06
283.976	279.06
284.207	277.06
284.439	295.06
284.67	264.06
284.901	268.06
285.132	283.06
285.364	280.06
285.595	294.06
285.826	266.06
286.057	287.06
286.288	282.06
286.52	269.06
286.751	289.06
286.982	283.06
287.213	262.06
287.444	282.06
287.675	281.06
287.906	279.06
288.138	298.06
288.369	294.06
288.6	302.06
288.831	300.06
289.062	279.06
289.293	292.06
289.524	309.06
289.755	281.06
289.986	294.06
290.217	295.06
290.448	290.06
290.679	296.06
290.91	285.06
291.141	298.06
291.371	285.06
291.602	285.06
291.833	292.06
292.064	288.06
292.295	289.06
292.526	290.06
292.757	295.06
292.987	283.06
293.218	278.06
293.449	290.06
293.68	287.06
293.91	275.06
294.141	277.06
294.372	285.06
294.603	294.06
294.833	282.06
295.064	291.06
295.295	285.06
295.525	292.06
295.756	301.06
295.987	320.06
296.217	325.06
296.448	333.06
296.679	328.06
296.909	298.06
297.14	306.06
297.37	276.06
297.601	282.06
297.831	279.06
298.062	296.06
298.292	306.06
298.523	311.06
298.753	287.06
298.984	302.06
299.214	293.06
299.445	299.06
299.675	327.06
299.905	323.06
300.136	309.06
300.366	291.06
300.597	305.06
300.827	306.06
301.057	321.06
301.288	334.06
301.518	327.06
301.748	331.06
301.979	329.06
302.209	329.06
302.439	316.06
302.669	327.06
302.9	324.06
303.13	314.06
303.36	327.06
303.59	321.06
303.82	329.06
304.051	347.06
304.281	324.06
304.511	305.06
304.741	310.06
304.971	310.06
305.201	322.06
305.431	311.06
305.661	310.06
305.891	313.06
306.121	332.06
306.352	334.06
306.582	335.06
306.812	334.06
307.042	329.06
307.272	325.06
307.502	328.06
307.731	318.06
307.961	324.06
308.191	334.06
308.421	331.06
308.651	317.06
308.881	312.06
309.111	347.06
309.341	356.06
309.571	362.06
309.8	367.06
310.03	379.06
310.26	392.06
310.49	380.06
310.72	397.06
310.949	398.06
311.179	413.06
311.409	390.06
311.639	397.06
311.868	388.06
312.098	369.06
312.328	392.06
312.557	418.06
312.787	426.06
313.017	420.06
313.246	395.06
313.476	365.06
313.706	379.06
313.935	395.06
314.165	410.06
314.394	407.06
314.624	414.06
314.853	400.06
315.083	380.06
315.312	401.06
315.542	364.06
315.771	383.06
316.001	363.06
316.23	374.06
316.46	389.06
316.689	376.06
316.919	364.06
317.148	385.06
317.377	401.06
317.607	402.06
317.836	388.06
318.065	373.06
318.295	375.06
318.524	378.06
318.753	373.06
318.983	371.06
319.212	377.06
319.441	373.06
319.67	408.06
319.9	394.06
320.129	387.06
320.358	393.06
320.587	389.06
320.816	405.06
321.046	420.06
321.275	419.06
321.504	422.06
321.733	424.06
321.962	423.06
322.191	428.06
322.42	470.06
322.649	485.06
322.878	472.06
323.108	490.06
323.337	506.06
323.566	535.06
323.795	590.06
324.024	641.06
324.253	829.06
324.482	1212.06
324.71	1851.06
324.939	2491.06
325.168	2125.06
325.397	1108.06
325.626	747.06
325.855	597.06
326.084	546.06
326.313	541.06
326.542	559.06
326.77	621.06
326.999	722.06
327.228	1039.06
327.457	1557.06
327.686	1808.06
327.914	1226.06
328.143	795.06
328.372	707.06
328.6	647.06
328.829	612.06
329.058	639.06
329.287	633.06
329.515	598.06
329.744	563.06
329.972	550.06
330.201	577.06
330.43	599.06
330.658	662.06
330.887	666.06
331.115	646.06
331.344	558.06
331.572	532.06
331.801	514.06
332.03	506.06
332.258	476.06
332.486	453.06
332.715	458.06
332.943	453.06
333.172	458.06
333.4	446.06
333.629	466.06
333.857	461.06
334.085	476.06
334.314	497.06
334.542	503.06
334.771	541.06
334.999	508.06
335.227	467.06
335.455	445.06
335.684	458.06
335.912	435.06
336.14	423.06
336.369	444.06
336.597	445.06
336.825	440.06
337.053	445.06
337.281	431.06
337.51	427.06
337.738	442.06
337.966	434.06
338.194	455.06
338.422	419.06
338.65	430.06
338.878	418.06
339.106	414.06
339.334	400.06
339.562	424.06
339.79	414.06
340.018	408.06
340.246	416.06
340.474	413.06
340.702	409.06
340.93	405.06
341.158	432.06
341.386	426.06
341.614	426.06
341.842	429.06
342.07	405.06
342.298	433.06
342.526	422.06
342.754	395.06
342.981	385.06
343.209	394.06
343.437	394.06
343.665	390.06
343.893	410.06
344.12	429.06
344.348	405.06
344.576	429.06
344.804	410.06
345.031	429.06
345.259	443.06
345.487	422.06
345.714	427.06
345.942	416.06
346.17	394.06
346.397	420.06
346.625	413.06
346.853	404.06
347.08	409.06
347.308	402.06
347.535	416.06
347.763	439.06
347.99	427.06
348.218	424.06
348.445	428.06
348.673	418.06
348.9	398.06
349.128	396.06
349.355	391.06
349.583	375.06
349.81	382.06
350.037	404.06
350.265	385.06
350.492	378.06
350.72	370.06
350.947	398.06
351.174	395.06
351.402	415.06
351.629	412.06
351.856	407.06
352.083	425.06
352.311	415.06
352.538	413.06
352.765	426.06
352.992	413.06
353.22	426.06
353.447	398.06
353.674	390.06
353.901	391.06
354.128	381.06
354.355	370.06
354.583	367.06
354.81	374.06
355.037	393.06
355.264	366.06
355.491	359.06
355.718	355.06
355.945	373.06
356.172	349.06
356.399	357.06
356.626	348.06
356.853	351.06
357.08	350.06
357.307	361.06
357.534	353.06
357.761	383.06
357.988	369.06
358.215	364.06
358.441	355.06
358.668	373.06
358.895	387.06
359.122	372.06
359.349	396.06
359.576	407.06
359.802	405.06
360.029	443.06
360.256	470.06
360.483	433.06
360.709	417.06
360.936	388.06
361.163	407.06
361.39	405.06
361.616	398.06
361.843	399.06
362.07	411.06
362.296	385.06
362.523	380.06
362.749	403.06
362.976	392.06
363.203	373.06
363.429	354.06
363.656	385.06
363.882	379.06
364.109	389.06
364.335	381.06
364.562	374.06
364.788	387.06
365.015	355.06
365.241	346.06
365.468	370.06
365.694	369.06
365.92	391.06
366.147	376.06
366.373	377.06
366.599	362.06
366.826	380.06
367.052	350.06
367.278	366.06
367.505	363.06
367.731	354.06
367.957	359.06
368.184	360.06
368.41	383.06
368.636	381.06
368.862	379.06
369.089	369.06
369.315	366.06
369.541	363.06
369.767	365.06
369.993	341.06
370.219	376.06
370.445	371.06
370.672	365.06
370.898	353.06
371.124	353.06
371.35	338.06
371.576	346.06
371.802	361.06
372.028	361.06
372.254	339.06
372.48	362.06
372.706	354.06
372.932	333.06
373.158	353.06
373.384	356.06
373.61	333.06
373.835	357.06
374.061	366.06
374.287	362.06
374.513	341.06
374.739	354.06
374.965	354.06
375.191	358.06
375.416	358.06
375.642	358.06
375.868	357.06
376.094	361.06
376.319	345.06
376.545	343.06
376.771	340.06
376.997	330.06
377.222	362.06
377.448	338.06
377.674	343.06
377.899	344.06
378.125	343.06
378.35	360.06
378.576	335.06
378.802	325.06
379.027	361.06
379.253	338.06
379.478	330.06
379.704	329.06
379.929	354.06
380.155	323.06
380.38	344.06
380.606	342.06
380.831	344.06
381.057	345.06
381.282	365.06
381.507	334.06
381.733	347.06
381.958	339.06
382.184	345.06
382.409	354.06
382.634	355.06
382.86	351.06
383.085	349.06
383.31	367.06
383.535	349.06
383.761	363.06
383.986	358.06
384.211	377.06
384.436	357.06
384.662	349.06
384.887	373.06
385.112	343.06
385.337	348.06
385.562	349.06
385.787	343.06
386.013	377.06
386.238	369.06
386.463	376.06
386.688	363.06
386.913	364.06
387.138	356.06
387.363	356.06
387.588	359.06
387.813	354.06
388.038	344.06
388.263	350.06
388.488	345.06
388.713	363.06
388.938	351.06
389.163	381.06
389.387	377.06
389.612	361.06
389.837	371.06
390.062	361.06
390.287	365.06
390.512	363.06
390.736	361.06
390.961	359.06
391.186	362.06
391.411	365.06
391.636	359.06
391.86	362.06
392.085	362.06
392.31	357.06
392.534	356.06
392.759	368.06
392.984	344.06
393.208	365.06
393.433	353.06
393.658	364.06
393.882	355.06
394.107	378.06
394.331	366.06
394.556	340.06
394.78	353.06
395.005	374.06
395.229	349.06
395.454	377.06
395.678	380.06
395.903	390.06
396.127	400.06
396.352	395.06
396.576	383.06
396.801	363.06
397.025	381.06
397.249	391.06
397.474	387.06
397.698	366.06
397.922	391.06
398.147	415.06
398.371	415.06
398.595	402.06
398.82	368.06
399.044	392.06
399.268	428.06
399.492	451.06
399.717	440.06
399.941	457.06
400.165	484.06
400.389	506.06
400.613	443.06
400.837	436.06
401.062	425.06
401.286	410.06
401.51	412.06
401.734	402.06
401.958	411.06
402.182	394.06
402.406	413.06
402.63	428.06
402.854	427.06
403.078	394.06
403.302	405.06
403.526	439.06
403.75	425.06
403.974	409.06
404.198	414.06
404.422	439.06
404.645	427.06
404.869	447.06
405.093	461.06
405.317	495.06
405.541	504.06
405.765	473.06
405.988	462.06
406.212	478.06
406.436	466.06
406.66	461.06
406.883	459.06
407.107	491.06
407.331	501.06
407.555	545.06
407.778	541.06
408.002	501.06
408.226	464.06
408.449	455.06
408.673	460.06
408.896	487.06
409.12	517.06
409.344	498.06
409.567	466.06
409.791	434.06
410.014	428.06
410.238	409.06
410.461	422.06
410.685	415.06
410.908	433.06
411.132	469.06
411.355	507.06
411.578	478.06
411.802	440.06
412.025	425.06
412.249	440.06
412.472	439.06
412.695	486.06
412.919	481.06
413.142	417.06
413.365	435.06
413.589	410.06
413.812	399.06
414.035	396.06
414.258	394.06
414.482	410.06
414.705	396.06
414.928	379.06
415.151	389.06
415.374	400.06
415.597	381.06
415.821	382.06
416.044	378.06
416.267	403.06
416.49	374.06
416.713	381.06
416.936	412.06
417.159	398.06
417.382	399.06
417.605	391.06
417.828	415.06
418.051	418.06
418.274	411.06
418.497	418.06
418.72	391.06
418.943	363.06
419.166	407.06
419.389	412.06
419.611	407.06
419.834	403.06
420.057	403.06
420.28	417.06
420.503	410.06
420.726	433.06
420.948	440.06
421.171	462.06
421.394	477.06
421.617	426.06
421.839	403.06
422.062	409.06
422.285	428.06
422.507	496.06
422.73	531.06
422.953	475.06
423.175	439.06
423.398	456.06
423.621	437.06
423.843	445.06
424.066	465.06
424.288	435.06
424.511	468.06
424.733	527.06
424.956	574.06
425.178	566.06
425.401	554.06
425.623	579.06
425.846	527.06
426.068	469.06
426.291	459.06
426.513	450.06
426.735	481.06
426.958	519.06
427.18	592.06
427.402	678.06
427.625	782.06
427.847	703.06
428.069	627.06
428.292	538.06
428.514	484.06
428.736	452.06
428.958	462.06
429.181	451.06
429.403	427.06
429.625	444.06
429.847	473.06
430.069	525.06
430.292	526.06
430.514	451.06
430.736	425.06
430.958	418.06
431.18	392.06
431.402	396.06
431.624	399.06
431.846	390.06
432.068	389.06
432.29	397.06
432.512	388.06
432.734	411.06
432.956	404.06
433.178	405.06
433.4	413.06
433.622	388.06
433.844	403.06
434.066	415.06
434.287	394.06
434.509	391.06
434.731	403.06
434.953	408.06
435.175	421.06
435.397	450.06
435.618	475.06
435.84	503.06
436.062	582.06
436.284	635.06
436.505	534.06
436.727	490.06
436.949	449.06
437.17	421.06
437.392	437.06
437.614	428.06
437.835	467.06
438.057	564.06
438.278	637.06
438.5	652.06
438.721	712.06
438.943	656.06
439.165	528.06
439.386	486.06
439.608	487.06
439.829	495.06
440.05	513.06
440.272	563.06
440.493	521.06
440.715	459.06
440.936	439.06
441.158	429.06
441.379	423.06
441.6	441.06
441.822	456.06
442.043	489.06
442.264	588.06
442.486	608.06
442.707	519.06
442.928	489.06
443.149	489.06
443.371	510.06
443.592	534.06
443.813	602.06
444.034	651.06
444.255	543.06
444.476	503.06
444.698	456.06
444.919	441.06
445.14	531.06
445.361	510.06
445.582	510.06
445.803	556.06
446.024	654.06
446.245	685.06
446.466	583.06
446.687	515.06
446.908	471.06
447.129	447.06
447.35	414.06
447.571	437.06
447.792	427.06
448.013	456.06
448.234	443.06
448.455	500.06
448.675	597.06
448.896	686.06
449.117	593.06
449.338	575.06
449.559	634.06
449.779	715.06
450	582.06
450.221	503.06
450.442	430.06
450.662	439.06
450.883	455.06
451.104	450.06
451.324	435.06
451.545	422.06
451.766	404.06
451.986	393.06
452.207	377.06
452.428	392.06
452.648	365.06
452.869	385.06
453.089	375.06
453.31	412.06
453.53	400.06
453.751	385.06
453.971	388.06
454.192	404.06
454.412	400.06
454.633	392.06
454.853	375.06
455.073	397.06
455.294	407.06
455.514	478.06
455.734	467.06
455.955	396.06
456.175	362.06
456.395	352.06
456.616	353.06
456.836	356.06
457.056	354.06
457.276	332.06
457.497	359.06
457.717	360.06
457.937	358.06
458.157	357.06
458.377	374.06
458.598	384.06
458.818	467.06
459.038	540.06
459.258	519.06
459.478	472.06
459.698	411.06
459.918	401.06
460.138	399.06
460.358	375.06
460.578	368.06
460.798	410.06
461.018	394.06
461.238	389.06
461.458	386.06
461.678	377.06
461.898	377.06
462.118	378.06
462.338	390.06
462.558	395.06
462.777	383.06
462.997	397.06
463.217	398.06
463.437	426.06
463.657	398.06
463.876	418.06
464.096	398.06
464.316	407.06
464.536	405.06
464.755	415.06
464.975	422.06
465.195	465.06
465.414	564.06
465.634	475.06
465.854	433.06
466.073	411.06
466.293	394.06
466.512	398.06
466.732	399.06
466.951	375.06
467.171	380.06
467.391	385.06
467.61	400.06
467.829	407.06
468.049	403.06
468.268	394.06
468.488	374.06
468.707	370.06
468.927	369.06
469.146	369.06
469.365	363.06
469.585	363.06
469.804	383.06
470.023	395.06
470.243	394.06
470.462	405.06
470.681	427.06
470.901	395.06
471.12	396.06
471.339	384.06
471.558	387.06
471.777	382.06
471.997	395.06
472.216	383.06
472.435	436.06
472.654	430.06
472.873	375.06
473.092	395.06
473.311	406.06
473.53	400.06
473.749	381.06
473.968	435.06
474.187	545.06
474.406	567.06
474.625	459.06
474.844	411.06
475.063	389.06
475.282	392.06
475.501	401.06
475.72	394.06
475.939	398.06
476.158	422.06
476.377	420.06
476.596	398.06
476.814	404.06
477.033	426.06
477.252	434.06
477.471	413.06
477.69	414.06
477.908	431.06
478.127	438.06
478.346	425.06
478.564	426.06
478.783	447.06
479.002	431.06
479.22	430.06
479.439	460.06
479.658	480.06
479.876	453.06
480.095	465.06
480.313	494.06
480.532	469.06
480.751	473.06
480.969	490.06
481.188	549.06
481.406	570.06
481.624	513.06
481.843	471.06
482.061	457.06
482.28	470.06
482.498	459.06
482.717	465.06
482.935	467.06
483.153	468.06
483.372	438.06
483.59	450.06
483.808	466.06
484.027	441.06
484.245	448.06
484.463	464.06
484.681	484.06
484.9	476.06
485.118	471.06
485.336	453.06
485.554	455.06
485.772	473.06
485.99	489.06
486.209	481.06
486.427	468.06
486.645	498.06
486.863	495.06
487.081	509.06
487.299	494.06
487.517	477.06
487.735	474.06
487.953	472.06
488.171	491.06
488.389	510.06
488.607	479.06
488.825	511.06
489.043	504.06
489.261	499.06
489.479	494.06
489.696	509.06
489.914	523.06
490.132	510.06
490.35	522.06
490.568	493.06
490.786	507.06
491.003	526.06
491.221	531.06
491.439	553.06
491.657	536.06
491.874	567.06
492.092	551.06
492.31	562.06
492.527	550.06
492.745	582.06
492.963	591.06
493.18	578.06
493.398	561.06
493.615	571.06
493.833	593.06
494.05	599.06
494.268	586.06
494.485	585.06
494.703	574.06
494.92	564.06
495.138	587.06
495.355	561.06
495.573	569.06
495.79	598.06
496.008	597.06
496.225	602.06
496.442	582.06
496.66	592.06
496.877	581.06
497.094	569.06
497.312	581.06
497.529	583.06
497.746	629.06
497.963	629.06
498.181	636.06
498.398	627.06
498.615	607.06
498.832	643.06
499.049	628.06
499.267	639.06
499.484	637.06
499.701	660.06
499.918	678.06
500.135	699.06
500.352	681.06
500.569	691.06
500.786	711.06
501.003	726.06
501.22	731.06
501.437	706.06
501.654	698.06
501.871	703.06
502.088	684.06
502.305	645.06
502.522	643.06
502.739	636.06
502.956	643.06
503.172	604.06
503.389	598.06
503.606	603.06
503.823	615.06
504.04	604.06
504.256	596.06
504.473	565.06
504.69	571.06
504.907	597.06
505.123	566.06
505.34	576.06
505.557	583.06
505.773	577.06
505.99	579.06
506.207	553.06
506.423	583.06
506.64	558.06
506.856	556.06
507.073	562.06
507.289	559.06
507.506	565.06
507.722	567.06
507.939	582.06
508.155	577.06
508.372	571.06
508.588	554.06
508.805	558.06
509.021	545.06
509.238	554.06
509.454	562.06
509.67	567.06
509.887	558.06
510.103	552.06
510.319	572.06
510.536	656.06
510.752	1128.06
510.968	918.06
511.184	599.06
511.401	549.06
511.617	554.06
511.833	540.06
512.049	510.06
512.265	527.06
512.481	515.06
512.698	520.06
512.914	529.06
513.13	537.06
513.346	532.06
513.562	542.06
513.778	514.06
513.994	539.06
514.21	543.06
514.426	567.06
514.642	625.06
514.858	649.06
515.074	722.06
515.29	893.06
515.506	1259.06
515.721	998.06
515.937	666.06
516.153	597.06
516.369	571.06
516.585	574.06
516.801	538.06
517.016	544.06
517.232	519.06
517.448	526.06
517.664	540.06
517.879	535.06
518.095	513.06
518.311	511.06
518.527	506.06
518.742	530.06
518.958	513.06
519.173	511.06
519.389	527.06
519.605	519.06
519.82	522.06
520.036	535.06
520.251	547.06
520.467	597.06
520.682	609.06
520.898	595.06
521.113	604.06
521.329	702.06
521.544	766.06
521.76	998.06
521.975	1715.06
522.19	1650.06
522.406	886.06
522.621	653.06
522.836	587.06
523.052	548.06
523.267	511.06
523.482	511.06
523.698	471.06
523.913	493.06
524.128	511.06
524.343	458.06
524.559	465.06
524.774	455.06
524.989	456.06
525.204	451.06
525.419	455.06
525.634	424.06
525.849	449.06
526.064	439.06
526.28	420.06
526.495	435.06
526.71	441.06
526.925	437.06
527.14	429.06
527.355	416.06
527.57	427.06
527.785	439.06
527.999	417.06
528.214	411.06
528.429	423.06
528.644	425.06
528.859	442.06
529.074	405.06
529.289	437.06
529.503	522.06
529.718	503.06
529.933	466.06
530.148	443.06
530.363	427.06
530.577	418.06
530.792	398.06
531.007	416.06
531.221	406.06
531.436	379.06
531.651	413.06
531.865	400.06
532.08	391.06
532.295	387.06
532.509	391.06
532.724	391.06
532.938	413.06
533.153	385.06
533.367	376.06
533.582	398.06
533.796	391.06
534.011	383.06
534.225	374.06
534.44	388.06
534.654	388.06
534.868	388.06
535.083	381.06
535.297	390.06
535.511	405.06
535.726	399.06
535.94	392.06
536.154	398.06
536.369	391.06
536.583	370.06
536.797	364.06
537.011	395.06
537.225	382.06
537.44	362.06
537.654	373.06
537.868	377.06
538.082	374.06
538.296	381.06
538.51	386.06
538.724	407.06
538.938	396.06
539.153	380.06
539.367	403.06
539.581	379.06
539.795	365.06
540.009	383.06
540.222	393.06
540.436	370.06
540.65	386.06
540.864	384.06
541.078	386.06
541.292	383.06
541.506	387.06
541.72	362.06
541.934	370.06
542.147	377.06
542.361	379.06
542.575	388.06
542.789	354.06
543.002	381.06
543.216	360.06
543.43	405.06
543.644	387.06
543.857	374.06
544.071	370.06
544.285	375.06
544.498	380.06
544.712	368.06
544.925	380.06
545.139	382.06
545.352	388.06
545.566	369.06
545.779	357.06
545.993	358.06
546.206	349.06
546.42	355.06
546.633	347.06
546.847	343.06
547.06	354.06
547.274	339.06
547.487	348.06
547.7	353.06
547.914	343.06
548.127	350.06
548.34	353.06
548.554	356.06
548.767	349.06
548.98	343.06
549.193	353.06
549.407	347.06
549.62	350.06
549.833	354.06
550.046	356.06
550.259	331.06
550.473	338.06
550.686	337.06
550.899	335.06
551.112	347.06
551.325	329.06
551.538	339.06
551.751	354.06
551.964	324.06
552.177	346.06
552.39	341.06
552.603	343.06
552.816	345.06
553.029	346.06
553.242	347.06
553.455	366.06
553.667	361.06
553.88	371.06
554.093	361.06
554.306	356.06
554.519	352.06
554.732	346.06
554.944	351.06
555.157	339.06
555.37	319.06
555.583	337.06
555.795	345.06
556.008	339.06
556.221	335.06
556.433	317.06
556.646	319.06
556.859	331.06
557.071	318.06
557.284	313.06
557.496	330.06
557.709	322.06
557.921	335.06
558.134	312.06
558.346	315.06
558.559	329.06
558.771	319.06
558.984	302.06
559.196	300.06
559.409	320.06
559.621	323.06
559.833	332.06
560.046	321.06
560.258	314.06
560.47	319.06
560.683	305.06
560.895	292.06
561.107	305.06
561.32	306.06
561.532	322.06
561.744	310.06
561.956	319.06
562.168	306.06
562.381	320.06
562.593	305.06
562.805	306.06
563.017	307.06
563.229	310.06
563.441	308.06
563.653	316.06
563.865	329.06
564.077	302.06
564.289	301.06
564.501	309.06
564.713	311.06
564.925	318.06
565.137	332.06
565.349	323.06
565.561	329.06
565.773	358.06
565.985	343.06
566.197	337.06
566.408	305.06
566.62	332.06
566.832	333.06
567.044	327.06
567.255	364.06
567.467	335.06
567.679	349.06
567.891	352.06
568.102	360.06
568.314	350.06
568.526	335.06
568.737	330.06
568.949	334.06
569.161	319.06
569.372	301.06
569.584	327.06
569.795	324.06
570.007	310.06
570.218	358.06
570.43	342.06
570.641	270.06
570.853	294.06
571.064	302.06
571.276	301.06
571.487	295.06
571.698	293.06
571.91	275.06
572.121	289.06
572.333	291.06
572.544	281.06
572.755	277.06
572.966	282.06
573.178	269.06
573.389	286.06
573.6	281.06
573.811	277.06
574.023	282.06
574.234	279.06
574.445	261.06
574.656	266.06
574.867	281.06
575.078	269.06
575.289	275.06
575.501	242.06
575.712	262.06
575.923	264.06
576.134	279.06
576.345	272.06
576.556	275.06
576.767	283.06
576.978	273.06
577.188	281.06
577.399	283.06
577.61	261.06
577.821	289.06
578.032	289.06
578.243	324.06
578.454	533.06
578.665	387.06
578.875	280.06
579.086	265.06
579.297	260.06
579.508	277.06
579.718	259.06
579.929	250.06
580.14	258.06
580.35	260.06
580.561	244.06
580.772	244.06
580.982	226.06
581.193	275.06
581.403	253.06
581.614	263.06
581.825	243.06
582.035	259.06
582.246	261.06
582.456	237.06
582.667	226.06
582.877	260.06
583.087	247.06
583.298	236.06
583.508	218.06
583.719	247.06
583.929	243.06
584.139	245.06
584.35	237.06
584.56	234.06
584.77	257.06
584.981	246.06
585.191	255.06
585.401	262.06
585.611	248.06
585.821	243.06
586.032	249.06
586.242	243.06
586.452	250.06
586.662	251.06
586.872	246.06
587.082	234.06
587.292	246.06
587.502	245.06
587.713	236.06
587.923	243.06
588.133	244.06
588.343	228.06
588.553	225.06
588.762	245.06
588.972	233.06
589.182	245.06
589.392	242.06
589.602	243.06
589.812	244.06
590.022	233.06
590.232	243.06
590.441	224.06
590.651	245.06
590.861	244.06
591.071	233.06
591.281	231.06
591.49	249.06
591.7	229.06
591.91	246.06
592.119	243.06
592.329	231.06
592.539	245.06
592.748	255.06
592.958	238.06
593.167	243.06
593.377	245.06
593.587	241.06
593.796	254.06
594.006	254.06
594.215	233.06
594.424	244.06
594.634	241.06
594.843	253.06
595.053	254.06
595.262	243.06
595.472	236.06
595.681	239.06
595.89	232.06
596.1	232.06
596.309	229.06
596.518	236.06
596.727	219.06
596.937	226.06
597.146	210.06
597.355	213.06
597.564	227.06
597.774	218.06
597.983	234.06
598.192	214.06
598.401	242.06
598.61	208.06
598.819	213.06
599.028	213.06
599.237	205.06
599.446	211.06
599.655	213.06
599.864	215.06
600.073	199.06
600.282	204.06
600.491	204.06
600.7	207.06
600.909	215.06
601.118	214.06
601.327	206.06
601.536	210.06
601.745	218.06
601.953	210.06
602.162	219.06
602.371	202.06
602.58	203.06
602.789	220.06
602.997	213.06
603.206	221.06
603.415	220.06
603.623	208.06
603.832	196.06
604.041	212.06
604.249	205.06
604.458	213.06
604.666	215.06
604.875	203.06
605.084	198.06
605.292	202.06
605.501	209.06
605.709	205.06
605.918	202.06
606.126	206.06
606.334	188.06
606.543	205.06
606.751	211.06
606.96	189.06
607.168	193.06
607.376	206.06
607.585	198.06
607.793	203.06
608.001	203.06
608.21	197.06
608.418	195.06
608.626	189.06
608.834	195.06
609.043	205.06
609.251	193.06
609.459	194.06
609.667	204.06
609.875	199.06
610.083	205.06
610.291	202.06
610.499	194.06
610.707	198.06
610.916	197.06
611.124	204.06
611.332	210.06
611.54	204.06
611.748	218.06
611.955	202.06
612.163	181.06
612.371	206.06
612.579	195.06
612.787	197.06
612.995	198.06
613.203	183.06
613.411	193.06
613.618	178.06
613.826	196.06
614.034	186.06
614.242	185.06
614.449	203.06
614.657	195.06
614.865	208.06
615.072	198.06
615.28	197.06
615.488	179.06
615.695	197.06
615.903	209.06
616.111	195.06
616.318	207.06
616.526	209.06
616.733	189.06
616.941	182.06
617.148	193.06
617.356	175.06
617.563	181.06
617.771	180.06
617.978	181.06
618.185	186.06
618.393	185.06
618.6	206.06
618.807	185.06
619.015	184.06
619.222	197.06
619.429	184.06
619.637	187.06
619.844	188.06
620.051	191.06
620.258	190.06
620.466	190.06
620.673	184.06
620.88	179.06
621.087	187.06
621.294	180.06
621.501	185.06
621.708	166.06
621.915	191.06
622.122	173.06
622.329	188.06
622.536	188.06
622.743	169.06
622.95	179.06
623.157	189.06
623.364	179.06
623.571	193.06
623.778	202.06
623.985	191.06
624.192	163.06
624.399	194.06
624.606	181.06
624.812	170.06
625.019	170.06
625.226	168.06
625.433	174.06
625.639	183.06
625.846	165.06
626.053	171.06
626.259	185.06
626.466	183.06
626.673	182.06
626.879	189.06
627.086	183.06
627.293	183.06
627.499	189.06
627.706	182.06
627.912	179.06
628.119	187.06
628.325	171.06
628.532	170.06
628.738	178.06
628.945	159.06
629.151	181.06
629.357	173.06
629.564	166.06
629.77	172.06
629.976	146.06
630.183	178.06
630.389	150.06
630.595	178.06
630.802	181.06
631.008	168.06
631.214	157.06
631.42	164.06
631.627	166.06
631.833	162.06
632.039	153.06
632.245	168.06
632.451	182.06
632.657	185.06
632.863	153.06
633.069	177.06
633.275	162.06
633.481	163.06
633.688	157.06
633.893	170.06
634.099	166.06
634.305	151.06
634.511	164.06
634.717	147.06
634.923	157.06
635.129	143.06
635.335	155.06
635.541	163.06
635.747	162.06
635.952	166.06
636.158	148.06
636.364	156.06
636.57	166.06
636.775	145.06
636.981	148.06
637.187	160.06
637.392	159.06
637.598	161.06
637.804	156.06
638.009	158.06
638.215	147.06
638.421	164.06
638.626	156.06
638.832	163.06
639.037	165.06
639.243	150.06
639.448	152.06
639.654	154.06
639.859	144.06
640.065	146.06
640.27	151.06
640.475	136.06
640.681	135.06
640.886	139.06
641.091	165.06
641.297	155.06
641.502	135.06
641.707	157.06
641.913	142.06
642.118	143.06
642.323	130.06
642.528	145.06
642.733	151.06
642.939	146.06
643.144	147.06
643.349	147.06
643.554	153.06
643.759	134.06
643.964	137.06
644.169	149.06
644.374	140.06
644.579	145.06
644.784	157.06
644.989	142.06
645.194	152.06
645.399	135.06
645.604	145.06
645.809	144.06
646.014	141.06
646.219	153.06
646.423	139.06
646.628	141.06
646.833	134.06
647.038	145.06
647.243	155.06
647.447	158.06
647.652	155.06
647.857	136.06
648.062	156.06
648.266	142.06
648.471	143.06
648.676	131.06
648.88	147.06
649.085	142.06
649.289	162.06
649.494	165.06
649.698	173.06
649.903	171.06
650.107	143.06
650.312	141.06
650.516	136.06
650.721	142.06
650.925	131.06
651.13	144.06
651.334	139.06
651.539	148.06
651.743	147.06
651.947	150.06
652.152	140.06
652.356	113.06
652.56	126.06
652.764	130.06
652.969	118.06
653.173	133.06
653.377	120.06
653.581	133.06
653.785	129.06
653.99	130.06
654.194	115.06
654.398	138.06
654.602	112.06
654.806	120.06
655.01	125.06
655.214	129.06
655.418	121.06
655.622	123.06
655.826	122.06
656.03	116.06
656.234	121.06
656.438	121.06
656.642	125.06
656.846	117.06
657.049	115.06
657.253	116.06
657.457	125.06
657.661	110.06
657.865	115.06
658.068	113.06
658.272	116.06
658.476	106.06
658.68	99.06
658.883	99.06
659.087	96.06
659.291	115.06
659.494	104.06
659.698	119.06
659.901	92.06
660.105	93.06
660.309	69.06
660.512	88.06
660.716	108.06
660.919	78.06
661.123	92.06
661.326	86.06
661.53	91.06
661.733	93.06
661.936	85.06
662.14	100.06
662.343	92.06
662.546	101.06
662.75	88.06
662.953	81.06
663.156	77.06
663.36	85.06
663.563	75.06
663.766	90.06
663.969	76.06
664.173	82.06
664.376	87.06
664.579	103.06
664.782	87.06
664.985	89.06
665.188	84.06
665.391	91.06
665.594	75.06
665.797	85.06
666	87.06
666.203	80.06
666.406	80.06
666.609	67.06
666.812	81.06
667.015	86.06
667.218	92.06
667.421	77.06
667.624	79.06
667.827	84.06
668.03	78.06
668.232	84.06
668.435	91.06
668.638	72.06
668.841	86.06
669.043	76.06
669.246	101.06
669.449	83.06
669.651	101.06
669.854	86.06
670.057	91.06
670.259	90.06
670.462	82.06
670.665	93.06
670.867	85.06
671.07	85.06
671.272	84.06
671.475	89.06
671.677	84.06
671.88	85.06
672.082	90.06
672.284	89.06
672.487	75.06
672.689	97.06
672.892	85.06
