Data from 1981.PennyLincolnUp.Lamp.En5.5.200Scan.071819.P1_HRD10591_16-41-05-960.txt Node
Date: Thu Jul 18 16:41:05 EDT 2019
User: cochatt
Spectrometer: HR+D1059
Trigger mode: 1
Integration Time (sec): 1.000000E-1
Scans to average: 1
Electric dark correction enabled: true
Nonlinearity correction enabled: false
Boxcar width: 0
XAxis mode: Wavelengths
Number of Pixels in Spectrum: 2048
>>>>>Begin Spectral Data<<<<<
223.165	-25.12
223.4	-25.12
223.635	-25.12
223.869	-11.12
224.104	-15.12
224.338	-24.12
224.573	-22.12
224.808	-6.12
225.042	-7.12
225.277	7.88
225.511	5.88
225.746	-16.12
225.98	12.88
226.215	18.88
226.449	22.88
226.683	20.88
226.918	10.88
227.152	26.88
227.387	47.88
227.621	26.88
227.856	31.88
228.09	28.88
228.324	38.88
228.559	58.88
228.793	77.88
229.027	98.88
229.262	100.88
229.496	112.88
229.73	124.88
229.964	152.88
230.199	126.88
230.433	114.88
230.667	98.88
230.901	115.88
231.136	100.88
231.37	105.88
231.604	119.88
231.838	78.88
232.072	98.88
232.306	111.88
232.541	109.88
232.775	97.88
233.009	102.88
233.243	120.88
233.477	114.88
233.711	110.88
233.945	131.88
234.179	112.88
234.413	96.88
234.647	108.88
234.881	122.88
235.115	122.88
235.349	103.88
235.583	118.88
235.817	130.88
236.051	135.88
236.285	127.88
236.519	123.88
236.753	116.88
236.987	132.88
237.221	162.88
237.455	212.88
237.689	188.88
237.922	145.88
238.156	121.88
238.39	129.88
238.624	127.88
238.858	122.88
239.091	114.88
239.325	126.88
239.559	125.88
239.793	121.88
240.027	131.88
240.26	139.88
240.494	144.88
240.728	161.88
240.961	139.88
241.195	128.88
241.429	139.88
241.662	129.88
241.896	122.88
242.13	127.88
242.363	136.88
242.597	136.88
242.83	141.88
243.064	116.88
243.298	139.88
243.531	146.88
243.765	138.88
243.998	128.88
244.232	127.88
244.465	135.88
244.699	129.88
244.932	128.88
245.166	144.88
245.399	144.88
245.633	142.88
245.866	150.88
246.099	132.88
246.333	162.88
246.566	135.88
246.8	128.88
247.033	160.88
247.266	150.88
247.5	156.88
247.733	176.88
247.966	165.88
248.2	149.88
248.433	179.88
248.666	164.88
248.899	186.88
249.133	198.88
249.366	208.88
249.599	199.88
249.832	180.88
250.066	184.88
250.299	186.88
250.532	188.88
250.765	204.88
250.998	222.88
251.231	221.88
251.465	233.88
251.698	221.88
251.931	215.88
252.164	191.88
252.397	200.88
252.63	178.88
252.863	201.88
253.096	225.88
253.329	237.88
253.562	221.88
253.795	220.88
254.028	207.88
254.261	214.88
254.494	215.88
254.727	255.88
254.96	273.88
255.193	274.88
255.426	243.88
255.659	249.88
255.892	238.88
256.124	226.88
256.357	216.88
256.59	210.88
256.823	210.88
257.056	226.88
257.289	215.88
257.521	216.88
257.754	210.88
257.987	204.88
258.22	209.88
258.452	212.88
258.685	220.88
258.918	194.88
259.151	204.88
259.383	218.88
259.616	222.88
259.849	223.88
260.081	230.88
260.314	242.88
260.547	266.88
260.779	238.88
261.012	235.88
261.244	217.88
261.477	228.88
261.71	230.88
261.942	225.88
262.175	236.88
262.407	233.88
262.64	194.88
262.872	207.88
263.105	210.88
263.337	207.88
263.57	206.88
263.802	223.88
264.035	219.88
264.267	202.88
264.499	216.88
264.732	214.88
264.964	210.88
265.197	199.88
265.429	208.88
265.661	208.88
265.894	201.88
266.126	202.88
266.358	215.88
266.591	218.88
266.823	227.88
267.055	225.88
267.287	212.88
267.52	229.88
267.752	214.88
267.984	217.88
268.216	233.88
268.448	216.88
268.681	219.88
268.913	238.88
269.145	250.88
269.377	266.88
269.609	267.88
269.841	272.88
270.073	246.88
270.306	282.88
270.538	298.88
270.77	316.88
271.002	323.88
271.234	295.88
271.466	287.88
271.698	305.88
271.93	302.88
272.162	304.88
272.394	298.88
272.626	300.88
272.858	295.88
273.09	293.88
273.322	288.88
273.553	248.88
273.785	260.88
274.017	259.88
274.249	261.88
274.481	248.88
274.713	272.88
274.945	273.88
275.176	270.88
275.408	261.88
275.64	277.88
275.872	236.88
276.104	255.88
276.335	266.88
276.567	242.88
276.799	265.88
277.031	287.88
277.262	307.88
277.494	311.88
277.726	277.88
277.957	282.88
278.189	294.88
278.421	275.88
278.652	277.88
278.884	276.88
279.115	257.88
279.347	256.88
279.579	263.88
279.81	266.88
280.042	253.88
280.273	275.88
280.505	254.88
280.736	263.88
280.968	263.88
281.199	258.88
281.431	266.88
281.662	275.88
281.894	259.88
282.125	257.88
282.356	280.88
282.588	305.88
282.819	281.88
283.051	267.88
283.282	257.88
283.513	261.88
283.745	248.88
283.976	266.88
284.207	265.88
284.439	263.88
284.67	262.88
284.901	280.88
285.132	268.88
285.364	248.88
285.595	264.88
285.826	255.88
286.057	274.88
286.288	259.88
286.52	279.88
286.751	259.88
286.982	275.88
287.213	269.88
287.444	287.88
287.675	276.88
287.906	284.88
288.138	270.88
288.369	278.88
288.6	284.88
288.831	283.88
289.062	282.88
289.293	285.88
289.524	281.88
289.755	272.88
289.986	289.88
290.217	290.88
290.448	252.88
290.679	293.88
290.91	284.88
291.141	262.88
291.371	277.88
291.602	284.88
291.833	270.88
292.064	265.88
292.295	256.88
292.526	255.88
292.757	280.88
292.987	270.88
293.218	272.88
293.449	280.88
293.68	282.88
293.91	270.88
294.141	286.88
294.372	261.88
294.603	266.88
294.833	283.88
295.064	290.88
295.295	283.88
295.525	283.88
295.756	293.88
295.987	290.88
296.217	298.88
296.448	328.88
296.679	298.88
296.909	283.88
297.14	286.88
297.37	284.88
297.601	305.88
297.831	308.88
298.062	299.88
298.292	298.88
298.523	285.88
298.753	287.88
298.984	277.88
299.214	296.88
299.445	279.88
299.675	295.88
299.905	297.88
300.136	280.88
300.366	294.88
300.597	297.88
300.827	311.88
301.057	312.88
301.288	297.88
301.518	304.88
301.748	299.88
301.979	308.88
302.209	304.88
302.439	323.88
302.669	327.88
302.9	323.88
303.13	299.88
303.36	319.88
303.59	306.88
303.82	302.88
304.051	342.88
304.281	303.88
304.511	302.88
304.741	304.88
304.971	303.88
305.201	292.88
305.431	303.88
305.661	300.88
305.891	310.88
306.121	308.88
306.352	299.88
306.582	312.88
306.812	334.88
307.042	322.88
307.272	343.88
307.502	318.88
307.731	320.88
307.961	321.88
308.191	331.88
308.421	298.88
308.651	313.88
308.881	319.88
309.111	310.88
309.341	334.88
309.571	323.88
309.8	364.88
310.03	367.88
310.26	362.88
310.49	378.88
310.72	361.88
310.949	368.88
311.179	378.88
311.409	382.88
311.639	363.88
311.868	359.88
312.098	363.88
312.328	383.88
312.557	395.88
312.787	391.88
313.017	385.88
313.246	370.88
313.476	352.88
313.706	364.88
313.935	373.88
314.165	371.88
314.394	401.88
314.624	380.88
314.853	373.88
315.083	366.88
315.312	361.88
315.542	367.88
315.771	354.88
316.001	366.88
316.23	365.88
316.46	358.88
316.689	353.88
316.919	354.88
317.148	381.88
317.377	394.88
317.607	367.88
317.836	364.88
318.065	371.88
318.295	368.88
318.524	370.88
318.753	331.88
318.983	365.88
319.212	350.88
319.441	382.88
319.67	378.88
319.9	388.88
320.129	353.88
320.358	361.88
320.587	369.88
320.816	385.88
321.046	378.88
321.275	390.88
321.504	376.88
321.733	376.88
321.962	407.88
322.191	392.88
322.42	415.88
322.649	435.88
322.878	425.88
323.108	449.88
323.337	480.88
323.566	508.88
323.795	543.88
324.024	580.88
324.253	733.88
324.482	1032.88
324.71	1604.88
324.939	2190.88
325.168	1835.88
325.397	981.88
325.626	660.88
325.855	572.88
326.084	539.88
326.313	503.88
326.542	512.88
326.77	562.88
326.999	654.88
327.228	914.88
327.457	1338.88
327.686	1598.88
327.914	1098.88
328.143	708.88
328.372	622.88
328.6	595.88
328.829	572.88
329.058	579.88
329.287	555.88
329.515	549.88
329.744	503.88
329.972	496.88
330.201	508.88
330.43	554.88
330.658	558.88
330.887	588.88
331.115	577.88
331.344	507.88
331.572	487.88
331.801	471.88
332.03	459.88
332.258	444.88
332.486	447.88
332.715	431.88
332.943	429.88
333.172	406.88
333.4	430.88
333.629	423.88
333.857	448.88
334.085	448.88
334.314	457.88
334.542	464.88
334.771	494.88
334.999	442.88
335.227	446.88
335.455	438.88
335.684	419.88
335.912	405.88
336.14	400.88
336.369	419.88
336.597	418.88
336.825	411.88
337.053	415.88
337.281	410.88
337.51	391.88
337.738	412.88
337.966	404.88
338.194	406.88
338.422	384.88
338.65	389.88
338.878	403.88
339.106	404.88
339.334	410.88
339.562	390.88
339.79	379.88
340.018	385.88
340.246	396.88
340.474	416.88
340.702	413.88
340.93	397.88
341.158	377.88
341.386	386.88
341.614	412.88
341.842	402.88
342.07	394.88
342.298	376.88
342.526	372.88
342.754	369.88
342.981	387.88
343.209	371.88
343.437	386.88
343.665	370.88
343.893	390.88
344.12	430.88
344.348	382.88
344.576	378.88
344.804	403.88
345.031	411.88
345.259	427.88
345.487	416.88
345.714	402.88
345.942	404.88
346.17	387.88
346.397	388.88
346.625	366.88
346.853	372.88
347.08	377.88
347.308	391.88
347.535	387.88
347.763	399.88
347.99	385.88
348.218	405.88
348.445	406.88
348.673	384.88
348.9	386.88
349.128	397.88
349.355	386.88
349.583	371.88
349.81	376.88
350.037	372.88
350.265	366.88
350.492	386.88
350.72	359.88
350.947	378.88
351.174	388.88
351.402	383.88
351.629	387.88
351.856	375.88
352.083	403.88
352.311	406.88
352.538	406.88
352.765	403.88
352.992	392.88
353.22	400.88
353.447	396.88
353.674	362.88
353.901	366.88
354.128	352.88
354.355	366.88
354.583	354.88
354.81	352.88
355.037	340.88
355.264	355.88
355.491	357.88
355.718	355.88
355.945	352.88
356.172	337.88
356.399	332.88
356.626	347.88
356.853	342.88
357.08	348.88
357.307	352.88
357.534	327.88
357.761	336.88
357.988	346.88
358.215	338.88
358.441	353.88
358.668	363.88
358.895	360.88
359.122	378.88
359.349	368.88
359.576	378.88
359.802	408.88
360.029	427.88
360.256	421.88
360.483	416.88
360.709	367.88
360.936	363.88
361.163	380.88
361.39	380.88
361.616	393.88
361.843	363.88
362.07	368.88
362.296	392.88
362.523	396.88
362.749	371.88
362.976	374.88
363.203	375.88
363.429	371.88
363.656	350.88
363.882	352.88
364.109	352.88
364.335	353.88
364.562	354.88
364.788	352.88
365.015	369.88
365.241	353.88
365.468	373.88
365.694	382.88
365.92	389.88
366.147	355.88
366.373	364.88
366.599	349.88
366.826	345.88
367.052	327.88
367.278	357.88
367.505	342.88
367.731	368.88
367.957	345.88
368.184	348.88
368.41	367.88
368.636	352.88
368.862	352.88
369.089	352.88
369.315	371.88
369.541	350.88
369.767	369.88
369.993	357.88
370.219	359.88
370.445	333.88
370.672	333.88
370.898	335.88
371.124	351.88
371.35	342.88
371.576	362.88
371.802	351.88
372.028	359.88
372.254	344.88
372.48	328.88
372.706	344.88
372.932	355.88
373.158	354.88
373.384	347.88
373.61	348.88
373.835	345.88
374.061	342.88
374.287	359.88
374.513	371.88
374.739	354.88
374.965	339.88
375.191	340.88
375.416	328.88
375.642	345.88
375.868	332.88
376.094	340.88
376.319	344.88
376.545	327.88
376.771	328.88
376.997	333.88
377.222	321.88
377.448	336.88
377.674	345.88
377.899	335.88
378.125	331.88
378.35	332.88
378.576	327.88
378.802	314.88
379.027	317.88
379.253	335.88
379.478	320.88
379.704	353.88
379.929	332.88
380.155	335.88
380.38	322.88
380.606	344.88
380.831	310.88
381.057	354.88
381.282	343.88
381.507	336.88
381.733	347.88
381.958	333.88
382.184	353.88
382.409	348.88
382.634	337.88
382.86	321.88
383.085	338.88
383.31	339.88
383.535	351.88
383.761	355.88
383.986	353.88
384.211	361.88
384.436	332.88
384.662	332.88
384.887	363.88
385.112	350.88
385.337	352.88
385.562	347.88
385.787	346.88
386.013	376.88
386.238	370.88
386.463	358.88
386.688	359.88
386.913	353.88
387.138	351.88
387.363	354.88
387.588	363.88
387.813	372.88
388.038	352.88
388.263	364.88
388.488	366.88
388.713	344.88
388.938	356.88
389.163	367.88
389.387	342.88
389.612	342.88
389.837	338.88
390.062	366.88
390.287	357.88
390.512	354.88
390.736	355.88
390.961	341.88
391.186	339.88
391.411	356.88
391.636	345.88
391.86	345.88
392.085	356.88
392.31	355.88
392.534	356.88
392.759	368.88
392.984	355.88
393.208	359.88
393.433	360.88
393.658	355.88
393.882	354.88
394.107	343.88
394.331	344.88
394.556	355.88
394.78	369.88
395.005	367.88
395.229	370.88
395.454	364.88
395.678	356.88
395.903	361.88
396.127	378.88
396.352	390.88
396.576	385.88
396.801	374.88
397.025	361.88
397.249	374.88
397.474	352.88
397.698	376.88
397.922	402.88
398.147	370.88
398.371	402.88
398.595	375.88
398.82	385.88
399.044	385.88
399.268	395.88
399.492	419.88
399.717	425.88
399.941	451.88
400.165	463.88
400.389	459.88
400.613	446.88
400.837	421.88
401.062	412.88
401.286	389.88
401.51	391.88
401.734	409.88
401.958	399.88
402.182	388.88
402.406	407.88
402.63	400.88
402.854	394.88
403.078	404.88
403.302	409.88
403.526	395.88
403.75	394.88
403.974	418.88
404.198	405.88
404.422	423.88
404.645	423.88
404.869	396.88
405.093	436.88
405.317	454.88
405.541	481.88
405.765	466.88
405.988	442.88
406.212	423.88
406.436	459.88
406.66	460.88
406.883	452.88
407.107	481.88
407.331	500.88
407.555	533.88
407.778	539.88
408.002	488.88
408.226	452.88
408.449	448.88
408.673	455.88
408.896	466.88
409.12	524.88
409.344	483.88
409.567	432.88
409.791	409.88
410.014	422.88
410.238	395.88
410.461	424.88
410.685	414.88
410.908	412.88
411.132	461.88
411.355	502.88
411.578	479.88
411.802	413.88
412.025	404.88
412.249	382.88
412.472	424.88
412.695	461.88
412.919	434.88
413.142	395.88
413.365	415.88
413.589	398.88
413.812	363.88
414.035	382.88
414.258	371.88
414.482	379.88
414.705	386.88
414.928	364.88
415.151	387.88
415.374	397.88
415.597	382.88
415.821	369.88
416.044	369.88
416.267	382.88
416.49	371.88
416.713	401.88
416.936	382.88
417.159	369.88
417.382	378.88
417.605	379.88
417.828	395.88
418.051	409.88
418.274	404.88
418.497	387.88
418.72	382.88
418.943	386.88
419.166	400.88
419.389	416.88
419.611	402.88
419.834	406.88
420.057	414.88
420.28	414.88
420.503	405.88
420.726	409.88
420.948	424.88
421.171	438.88
421.394	473.88
421.617	417.88
421.839	388.88
422.062	406.88
422.285	431.88
422.507	452.88
422.73	542.88
422.953	506.88
423.175	448.88
423.398	427.88
423.621	430.88
423.843	446.88
424.066	427.88
424.288	457.88
424.511	456.88
424.733	521.88
424.956	571.88
425.178	534.88
425.401	536.88
425.623	543.88
425.846	482.88
426.068	450.88
426.291	446.88
426.513	420.88
426.735	464.88
426.958	482.88
427.18	569.88
427.402	655.88
427.625	722.88
427.847	633.88
428.069	560.88
428.292	504.88
428.514	458.88
428.736	426.88
428.958	437.88
429.181	411.88
429.403	415.88
429.625	419.88
429.847	444.88
430.069	500.88
430.292	486.88
430.514	428.88
430.736	404.88
430.958	408.88
431.18	387.88
431.402	386.88
431.624	382.88
431.846	376.88
432.068	353.88
432.29	380.88
432.512	382.88
432.734	394.88
432.956	419.88
433.178	391.88
433.4	396.88
433.622	409.88
433.844	396.88
434.066	377.88
434.287	380.88
434.509	399.88
434.731	396.88
434.953	413.88
435.175	393.88
435.397	426.88
435.618	447.88
435.84	453.88
436.062	566.88
436.284	623.88
436.505	536.88
436.727	465.88
436.949	438.88
437.17	410.88
437.392	425.88
437.614	435.88
437.835	456.88
438.057	585.88
438.278	628.88
438.5	624.88
438.721	678.88
438.943	643.88
439.165	512.88
439.386	474.88
439.608	461.88
439.829	465.88
440.05	488.88
440.272	525.88
440.493	502.88
440.715	455.88
440.936	438.88
441.158	404.88
441.379	436.88
441.6	418.88
441.822	467.88
442.043	477.88
442.264	542.88
442.486	585.88
442.707	491.88
442.928	447.88
443.149	475.88
443.371	456.88
443.592	558.88
443.813	580.88
444.034	634.88
444.255	530.88
444.476	449.88
444.698	437.88
444.919	441.88
445.14	515.88
445.361	476.88
445.582	475.88
445.803	534.88
446.024	610.88
446.245	627.88
446.466	570.88
446.687	483.88
446.908	448.88
447.129	431.88
447.35	419.88
447.571	442.88
447.792	414.88
448.013	415.88
448.234	438.88
448.455	481.88
448.675	579.88
448.896	670.88
449.117	572.88
449.338	542.88
449.559	615.88
449.779	670.88
450	546.88
450.221	474.88
450.442	427.88
450.662	415.88
450.883	412.88
451.104	427.88
451.324	415.88
451.545	410.88
451.766	379.88
451.986	391.88
452.207	364.88
452.428	370.88
452.648	376.88
452.869	388.88
453.089	374.88
453.31	374.88
453.53	371.88
453.751	390.88
453.971	386.88
454.192	411.88
454.412	392.88
454.633	369.88
454.853	362.88
455.073	360.88
455.294	403.88
455.514	466.88
455.734	450.88
455.955	379.88
456.175	345.88
456.395	344.88
456.616	355.88
456.836	348.88
457.056	334.88
457.276	329.88
457.497	344.88
457.717	352.88
457.937	354.88
458.157	369.88
458.377	357.88
458.598	382.88
458.818	420.88
459.038	496.88
459.258	499.88
459.478	424.88
459.698	400.88
459.918	376.88
460.138	387.88
460.358	402.88
460.578	377.88
460.798	386.88
461.018	374.88
461.238	385.88
461.458	378.88
461.678	368.88
461.898	380.88
462.118	390.88
462.338	387.88
462.558	373.88
462.777	405.88
462.997	405.88
463.217	388.88
463.437	400.88
463.657	402.88
463.876	385.88
464.096	399.88
464.316	391.88
464.536	394.88
464.755	417.88
464.975	418.88
465.195	451.88
465.414	500.88
465.634	436.88
465.854	403.88
466.073	376.88
466.293	380.88
466.512	361.88
466.732	355.88
466.951	353.88
467.171	371.88
467.391	385.88
467.61	393.88
467.829	393.88
468.049	387.88
468.268	358.88
468.488	361.88
468.707	395.88
468.927	366.88
469.146	343.88
469.365	352.88
469.585	346.88
469.804	378.88
470.023	368.88
470.243	371.88
470.462	394.88
470.681	386.88
470.901	372.88
471.12	389.88
471.339	378.88
471.558	393.88
471.777	369.88
471.997	398.88
472.216	387.88
472.435	397.88
472.654	384.88
472.873	375.88
473.092	380.88
473.311	357.88
473.53	392.88
473.749	396.88
473.968	447.88
474.187	501.88
474.406	524.88
474.625	446.88
474.844	405.88
475.063	382.88
475.282	379.88
475.501	378.88
475.72	363.88
475.939	382.88
476.158	371.88
476.377	372.88
476.596	386.88
476.814	391.88
477.033	400.88
477.252	409.88
477.471	394.88
477.69	397.88
477.908	410.88
478.127	402.88
478.346	410.88
478.564	432.88
478.783	418.88
479.002	415.88
479.22	436.88
479.439	434.88
479.658	443.88
479.876	450.88
480.095	459.88
480.313	479.88
480.532	470.88
480.751	460.88
480.969	461.88
481.188	507.88
481.406	518.88
481.624	484.88
481.843	454.88
482.061	422.88
482.28	443.88
482.498	445.88
482.717	447.88
482.935	467.88
483.153	436.88
483.372	423.88
483.59	446.88
483.808	437.88
484.027	433.88
484.245	464.88
484.463	453.88
484.681	446.88
484.9	463.88
485.118	466.88
485.336	453.88
485.554	465.88
485.772	458.88
485.99	448.88
486.209	446.88
486.427	450.88
486.645	456.88
486.863	483.88
487.081	479.88
487.299	507.88
487.517	479.88
487.735	486.88
487.953	473.88
488.171	489.88
488.389	479.88
488.607	500.88
488.825	474.88
489.043	470.88
489.261	494.88
489.479	471.88
489.696	482.88
489.914	478.88
490.132	503.88
490.35	488.88
490.568	514.88
490.786	477.88
491.003	497.88
491.221	550.88
491.439	522.88
491.657	531.88
491.874	521.88
492.092	530.88
492.31	546.88
492.527	549.88
492.745	547.88
492.963	540.88
493.18	570.88
493.398	556.88
493.615	574.88
493.833	552.88
494.05	554.88
494.268	545.88
494.485	540.88
494.703	562.88
494.92	567.88
495.138	562.88
495.355	560.88
495.573	582.88
495.79	560.88
496.008	547.88
496.225	570.88
496.442	594.88
496.66	568.88
496.877	556.88
497.094	577.88
497.312	549.88
497.529	578.88
497.746	595.88
497.963	576.88
498.181	603.88
498.398	608.88
498.615	625.88
498.832	631.88
499.049	609.88
499.267	636.88
499.484	640.88
499.701	669.88
499.918	664.88
500.135	640.88
500.352	699.88
500.569	713.88
500.786	709.88
501.003	693.88
501.22	691.88
501.437	687.88
501.654	679.88
501.871	684.88
502.088	666.88
502.305	662.88
502.522	639.88
502.739	619.88
502.956	598.88
503.172	594.88
503.389	605.88
503.606	578.88
503.823	605.88
504.04	602.88
504.256	575.88
504.473	542.88
504.69	537.88
504.907	570.88
505.123	582.88
505.34	551.88
505.557	542.88
505.773	556.88
505.99	551.88
506.207	571.88
506.423	566.88
506.64	547.88
506.856	534.88
507.073	532.88
507.289	558.88
507.506	524.88
507.722	549.88
507.939	571.88
508.155	537.88
508.372	540.88
508.588	522.88
508.805	539.88
509.021	533.88
509.238	524.88
509.454	544.88
509.67	546.88
509.887	533.88
510.103	536.88
510.319	553.88
510.536	631.88
510.752	1028.88
510.968	853.88
511.184	570.88
511.401	516.88
511.617	508.88
511.833	515.88
512.049	505.88
512.265	501.88
512.481	512.88
512.698	501.88
512.914	475.88
513.13	498.88
513.346	486.88
513.562	504.88
513.778	502.88
513.994	521.88
514.21	522.88
514.426	512.88
514.642	593.88
514.858	612.88
515.074	650.88
515.29	782.88
515.506	1151.88
515.721	921.88
515.937	614.88
516.153	553.88
516.369	541.88
516.585	520.88
516.801	501.88
517.016	525.88
517.232	524.88
517.448	520.88
517.664	500.88
517.879	491.88
518.095	520.88
518.311	494.88
518.527	499.88
518.742	477.88
518.958	506.88
519.173	500.88
519.389	498.88
519.605	499.88
519.82	493.88
520.036	546.88
520.251	530.88
520.467	544.88
520.682	552.88
520.898	569.88
521.113	590.88
521.329	638.88
521.544	733.88
521.76	931.88
521.975	1483.88
522.19	1427.88
522.406	803.88
522.621	592.88
522.836	512.88
523.052	493.88
523.267	476.88
523.482	461.88
523.698	484.88
523.913	472.88
524.128	454.88
524.343	473.88
524.559	436.88
524.774	442.88
524.989	416.88
525.204	447.88
525.419	463.88
525.634	422.88
525.849	419.88
526.064	415.88
526.28	414.88
526.495	437.88
526.71	390.88
526.925	402.88
527.14	399.88
527.355	398.88
527.57	410.88
527.785	426.88
527.999	389.88
528.214	409.88
528.429	407.88
528.644	411.88
528.859	418.88
529.074	404.88
529.289	443.88
529.503	497.88
529.718	483.88
529.933	423.88
530.148	435.88
530.363	414.88
530.577	407.88
530.792	401.88
531.007	396.88
531.221	394.88
531.436	385.88
531.651	384.88
531.865	381.88
532.08	399.88
532.295	384.88
532.509	393.88
532.724	388.88
532.938	376.88
533.153	381.88
533.367	400.88
533.582	390.88
533.796	383.88
534.011	380.88
534.225	366.88
534.44	385.88
534.654	383.88
534.868	388.88
535.083	368.88
535.297	369.88
535.511	385.88
535.726	390.88
535.94	400.88
536.154	372.88
536.369	376.88
536.583	357.88
536.797	380.88
537.011	368.88
537.225	352.88
537.44	367.88
537.654	363.88
537.868	348.88
538.082	358.88
538.296	369.88
538.51	372.88
538.724	368.88
538.938	366.88
539.153	373.88
539.367	380.88
539.581	376.88
539.795	381.88
540.009	383.88
540.222	363.88
540.436	379.88
540.65	355.88
540.864	379.88
541.078	391.88
541.292	384.88
541.506	367.88
541.72	374.88
541.934	374.88
542.147	360.88
542.361	358.88
542.575	371.88
542.789	356.88
543.002	355.88
543.216	358.88
543.43	383.88
543.644	364.88
543.857	370.88
544.071	368.88
544.285	368.88
544.498	364.88
544.712	373.88
544.925	370.88
545.139	358.88
545.352	350.88
545.566	366.88
545.779	358.88
545.993	343.88
546.206	359.88
546.42	354.88
546.633	353.88
546.847	361.88
547.06	360.88
547.274	349.88
547.487	332.88
547.7	350.88
547.914	350.88
548.127	352.88
548.34	355.88
548.554	361.88
548.767	358.88
548.98	347.88
549.193	345.88
549.407	346.88
549.62	355.88
549.833	352.88
550.046	328.88
550.259	323.88
550.473	330.88
550.686	336.88
550.899	347.88
551.112	349.88
551.325	337.88
551.538	328.88
551.751	342.88
551.964	354.88
552.177	332.88
552.39	328.88
552.603	335.88
552.816	338.88
553.029	332.88
553.242	339.88
553.455	356.88
553.667	348.88
553.88	369.88
554.093	334.88
554.306	339.88
554.519	345.88
554.732	339.88
554.944	335.88
555.157	338.88
555.37	316.88
555.583	325.88
555.795	308.88
556.008	317.88
556.221	326.88
556.433	334.88
556.646	307.88
556.859	316.88
557.071	326.88
557.284	309.88
557.496	312.88
557.709	316.88
557.921	327.88
558.134	311.88
558.346	311.88
558.559	318.88
558.771	309.88
558.984	313.88
559.196	293.88
559.409	311.88
559.621	313.88
559.833	324.88
560.046	290.88
560.258	305.88
560.47	324.88
560.683	326.88
560.895	308.88
561.107	297.88
561.32	310.88
561.532	296.88
561.744	325.88
561.956	313.88
562.168	291.88
562.381	316.88
562.593	309.88
562.805	300.88
563.017	305.88
563.229	313.88
563.441	298.88
563.653	315.88
563.865	312.88
564.077	326.88
564.289	322.88
564.501	322.88
564.713	309.88
564.925	334.88
565.137	332.88
565.349	326.88
565.561	328.88
565.773	351.88
565.985	330.88
566.197	326.88
566.408	322.88
566.62	355.88
566.832	346.88
567.044	360.88
567.255	355.88
567.467	358.88
567.679	362.88
567.891	350.88
568.102	334.88
568.314	348.88
568.526	351.88
568.737	325.88
568.949	348.88
569.161	312.88
569.372	322.88
569.584	311.88
569.795	314.88
570.007	312.88
570.218	349.88
570.43	343.88
570.641	302.88
570.853	286.88
571.064	308.88
571.276	283.88
571.487	292.88
571.698	303.88
571.91	283.88
572.121	283.88
572.333	296.88
572.544	280.88
572.755	291.88
572.966	281.88
573.178	282.88
573.389	265.88
573.6	290.88
573.811	285.88
574.023	276.88
574.234	282.88
574.445	279.88
574.656	271.88
574.867	271.88
575.078	258.88
575.289	260.88
575.501	269.88
575.712	257.88
575.923	258.88
576.134	271.88
576.345	253.88
576.556	268.88
576.767	266.88
576.978	266.88
577.188	261.88
577.399	267.88
577.61	275.88
577.821	272.88
578.032	292.88
578.243	324.88
578.454	501.88
578.665	374.88
578.875	279.88
579.086	271.88
579.297	260.88
579.508	255.88
579.718	251.88
579.929	257.88
580.14	244.88
580.35	259.88
580.561	255.88
580.772	256.88
580.982	247.88
581.193	274.88
581.403	264.88
581.614	262.88
581.825	260.88
582.035	232.88
582.246	232.88
582.456	243.88
582.667	249.88
582.877	242.88
583.087	251.88
583.298	247.88
583.508	231.88
583.719	251.88
583.929	233.88
584.139	247.88
584.35	262.88
584.56	251.88
584.77	228.88
584.981	240.88
585.191	250.88
585.401	244.88
585.611	240.88
585.821	238.88
586.032	235.88
586.242	219.88
586.452	219.88
586.662	218.88
586.872	229.88
587.082	236.88
587.292	249.88
587.502	233.88
587.713	226.88
587.923	230.88
588.133	235.88
588.343	224.88
588.553	219.88
588.762	246.88
588.972	242.88
589.182	278.88
589.392	266.88
589.602	255.88
589.812	274.88
590.022	249.88
590.232	238.88
590.441	247.88
590.651	227.88
590.861	256.88
591.071	238.88
591.281	236.88
591.49	226.88
591.7	231.88
591.91	238.88
592.119	218.88
592.329	243.88
592.539	229.88
592.748	243.88
592.958	244.88
593.167	236.88
593.377	232.88
593.587	230.88
593.796	233.88
594.006	227.88
594.215	233.88
594.424	238.88
594.634	241.88
594.843	239.88
595.053	229.88
595.262	218.88
595.472	218.88
595.681	226.88
595.89	212.88
596.1	235.88
596.309	207.88
596.518	225.88
596.727	231.88
596.937	233.88
597.146	224.88
597.355	230.88
597.564	208.88
597.774	216.88
597.983	225.88
598.192	214.88
598.401	227.88
598.61	194.88
598.819	225.88
599.028	203.88
599.237	205.88
599.446	213.88
599.655	199.88
599.864	227.88
600.073	223.88
600.282	218.88
600.491	199.88
600.7	211.88
600.909	209.88
601.118	217.88
601.327	194.88
601.536	202.88
601.745	217.88
601.953	211.88
602.162	204.88
602.371	199.88
602.58	204.88
602.789	204.88
602.997	200.88
603.206	202.88
603.415	190.88
603.623	193.88
603.832	225.88
604.041	221.88
604.249	198.88
604.458	201.88
604.666	197.88
604.875	174.88
605.084	199.88
605.292	203.88
605.501	204.88
605.709	199.88
605.918	193.88
606.126	192.88
606.334	196.88
606.543	201.88
606.751	187.88
606.96	185.88
607.168	198.88
607.376	192.88
607.585	200.88
607.793	197.88
608.001	198.88
608.21	187.88
608.418	204.88
608.626	197.88
608.834	185.88
609.043	213.88
609.251	190.88
609.459	206.88
609.667	204.88
609.875	191.88
610.083	187.88
610.291	207.88
610.499	194.88
610.707	187.88
610.916	181.88
611.124	199.88
611.332	210.88
611.54	202.88
611.748	188.88
611.955	210.88
612.163	195.88
612.371	192.88
612.579	211.88
612.787	198.88
612.995	207.88
613.203	209.88
613.411	195.88
613.618	188.88
613.826	192.88
614.034	180.88
614.242	201.88
614.449	191.88
614.657	186.88
614.865	187.88
615.072	183.88
615.28	182.88
615.488	191.88
615.695	174.88
615.903	193.88
616.111	191.88
616.318	194.88
616.526	177.88
616.733	191.88
616.941	202.88
617.148	192.88
617.356	194.88
617.563	188.88
617.771	175.88
617.978	177.88
618.185	177.88
618.393	187.88
618.6	180.88
618.807	196.88
619.015	187.88
619.222	188.88
619.429	194.88
619.637	175.88
619.844	200.88
620.051	183.88
620.258	178.88
620.466	190.88
620.673	169.88
620.88	187.88
621.087	182.88
621.294	176.88
621.501	185.88
621.708	174.88
621.915	197.88
622.122	195.88
622.329	186.88
622.536	200.88
622.743	194.88
622.95	187.88
623.157	193.88
623.364	166.88
623.571	171.88
623.778	178.88
623.985	186.88
624.192	198.88
624.399	185.88
624.606	190.88
624.812	176.88
625.019	175.88
625.226	189.88
625.433	197.88
625.639	168.88
625.846	180.88
626.053	166.88
626.259	184.88
626.466	169.88
626.673	163.88
626.879	170.88
627.086	172.88
627.293	168.88
627.499	184.88
627.706	176.88
627.912	166.88
628.119	168.88
628.325	178.88
628.532	169.88
628.738	171.88
628.945	177.88
629.151	178.88
629.357	175.88
629.564	158.88
629.77	156.88
629.976	163.88
630.183	172.88
630.389	172.88
630.595	179.88
630.802	161.88
631.008	153.88
631.214	152.88
631.42	162.88
631.627	161.88
631.833	150.88
632.039	161.88
632.245	164.88
632.451	158.88
632.657	163.88
632.863	155.88
633.069	158.88
633.275	156.88
633.481	148.88
633.688	164.88
633.893	163.88
634.099	167.88
634.305	154.88
634.511	163.88
634.717	156.88
634.923	144.88
635.129	153.88
635.335	143.88
635.541	148.88
635.747	166.88
635.952	141.88
636.158	171.88
636.364	163.88
636.57	153.88
636.775	150.88
636.981	147.88
637.187	146.88
637.392	154.88
637.598	137.88
637.804	141.88
638.009	147.88
638.215	142.88
638.421	143.88
638.626	139.88
638.832	158.88
639.037	152.88
639.243	137.88
639.448	138.88
639.654	151.88
639.859	152.88
640.065	140.88
640.27	159.88
640.475	139.88
640.681	154.88
640.886	136.88
641.091	170.88
641.297	148.88
641.502	145.88
641.707	144.88
641.913	132.88
642.118	140.88
642.323	167.88
642.528	141.88
642.733	145.88
642.939	139.88
643.144	147.88
643.349	142.88
643.554	148.88
643.759	142.88
643.964	150.88
644.169	143.88
644.374	159.88
644.579	134.88
644.784	147.88
644.989	139.88
645.194	156.88
645.399	147.88
645.604	149.88
645.809	140.88
646.014	129.88
646.219	141.88
646.423	141.88
646.628	133.88
646.833	152.88
647.038	155.88
647.243	118.88
647.447	129.88
647.652	139.88
647.857	133.88
648.062	142.88
648.266	148.88
648.471	150.88
648.676	141.88
648.88	146.88
649.085	151.88
649.289	153.88
649.494	152.88
649.698	153.88
649.903	155.88
650.107	156.88
650.312	141.88
650.516	152.88
650.721	124.88
650.925	124.88
651.13	136.88
651.334	152.88
651.539	127.88
651.743	140.88
651.947	129.88
652.152	132.88
652.356	131.88
652.56	131.88
652.764	113.88
652.969	114.88
653.173	129.88
653.377	135.88
653.581	122.88
653.785	129.88
653.99	131.88
654.194	123.88
654.398	119.88
654.602	132.88
654.806	124.88
655.01	119.88
655.214	134.88
655.418	113.88
655.622	118.88
655.826	132.88
656.03	107.88
656.234	128.88
656.438	107.88
656.642	123.88
656.846	117.88
657.049	122.88
657.253	118.88
657.457	106.88
657.661	117.88
657.865	99.88
658.068	108.88
658.272	112.88
658.476	103.88
658.68	93.88
658.883	87.88
659.087	100.88
659.291	90.88
659.494	100.88
659.698	103.88
659.901	95.88
660.105	85.88
660.309	79.88
660.512	90.88
660.716	97.88
660.919	98.88
661.123	97.88
661.326	105.88
661.53	79.88
661.733	87.88
661.936	91.88
662.14	95.88
662.343	90.88
662.546	87.88
662.75	74.88
662.953	84.88
663.156	90.88
663.36	70.88
663.563	84.88
663.766	78.88
663.969	76.88
664.173	80.88
664.376	86.88
664.579	73.88
664.782	91.88
664.985	85.88
665.188	81.88
665.391	101.88
665.594	79.88
665.797	71.88
666	70.88
666.203	81.88
666.406	71.88
666.609	75.88
666.812	81.88
667.015	79.88
667.218	85.88
667.421	88.88
667.624	78.88
667.827	75.88
668.03	82.88
668.232	56.88
668.435	82.88
668.638	76.88
668.841	88.88
669.043	79.88
669.246	91.88
669.449	83.88
669.651	78.88
669.854	99.88
670.057	99.88
670.259	82.88
670.462	76.88
670.665	78.88
670.867	82.88
671.07	73.88
671.272	79.88
671.475	86.88
671.677	73.88
671.88	80.88
672.082	77.88
672.284	81.88
672.487	81.88
672.689	68.88
672.892	75.88
