Data from 1981.PennyLincolnUp.Lamp.En5.5.200Scan.071819.P1_HRD10591_16-43-10-960.txt Node
Date: Thu Jul 18 16:43:10 EDT 2019
User: cochatt
Spectrometer: HR+D1059
Trigger mode: 1
Integration Time (sec): 1.000000E-1
Scans to average: 1
Electric dark correction enabled: true
Nonlinearity correction enabled: false
Boxcar width: 0
XAxis mode: Wavelengths
Number of Pixels in Spectrum: 2048
>>>>>Begin Spectral Data<<<<<
223.165	-14.25
223.4	-14.25
223.635	-14.25
223.869	-25.25
224.104	-27.25
224.338	-9.25
224.573	-18.25
224.808	1.75
225.042	-6.25
225.277	-13.25
225.511	-3.25
225.746	12.75
225.98	6.75
226.215	9.75
226.449	6.75
226.683	19.75
226.918	35.75
227.152	23.75
227.387	43.75
227.621	45.75
227.856	43.75
228.09	51.75
228.324	36.75
228.559	47.75
228.793	74.75
229.027	105.75
229.262	106.75
229.496	126.75
229.73	135.75
229.964	151.75
230.199	122.75
230.433	112.75
230.667	118.75
230.901	113.75
231.136	115.75
231.37	95.75
231.604	109.75
231.838	113.75
232.072	102.75
232.306	131.75
232.541	127.75
232.775	119.75
233.009	98.75
233.243	98.75
233.477	115.75
233.711	115.75
233.945	123.75
234.179	119.75
234.413	118.75
234.647	130.75
234.881	107.75
235.115	109.75
235.349	114.75
235.583	131.75
235.817	121.75
236.051	125.75
236.285	128.75
236.519	115.75
236.753	129.75
236.987	163.75
237.221	170.75
237.455	246.75
237.689	189.75
237.922	137.75
238.156	135.75
238.39	126.75
238.624	132.75
238.858	122.75
239.091	120.75
239.325	124.75
239.559	136.75
239.793	141.75
240.027	127.75
240.26	154.75
240.494	154.75
240.728	159.75
240.961	140.75
241.195	136.75
241.429	135.75
241.662	142.75
241.896	135.75
242.13	135.75
242.363	125.75
242.597	123.75
242.83	131.75
243.064	129.75
243.298	149.75
243.531	157.75
243.765	139.75
243.998	133.75
244.232	135.75
244.465	141.75
244.699	139.75
244.932	139.75
245.166	141.75
245.399	148.75
245.633	164.75
245.866	160.75
246.099	155.75
246.333	151.75
246.566	146.75
246.8	145.75
247.033	145.75
247.266	173.75
247.5	174.75
247.733	173.75
247.966	175.75
248.2	167.75
248.433	174.75
248.666	175.75
248.899	192.75
249.133	197.75
249.366	226.75
249.599	211.75
249.832	192.75
250.066	190.75
250.299	195.75
250.532	206.75
250.765	214.75
250.998	243.75
251.231	247.75
251.465	237.75
251.698	216.75
251.931	216.75
252.164	217.75
252.397	215.75
252.63	223.75
252.863	236.75
253.096	225.75
253.329	238.75
253.562	220.75
253.795	236.75
254.028	257.75
254.261	257.75
254.494	247.75
254.727	278.75
254.96	310.75
255.193	290.75
255.426	271.75
255.659	268.75
255.892	253.75
256.124	246.75
256.357	245.75
256.59	240.75
256.823	238.75
257.056	225.75
257.289	206.75
257.521	223.75
257.754	227.75
257.987	236.75
258.22	232.75
258.452	228.75
258.685	221.75
258.918	203.75
259.151	222.75
259.383	224.75
259.616	234.75
259.849	232.75
260.081	238.75
260.314	277.75
260.547	283.75
260.779	262.75
261.012	255.75
261.244	225.75
261.477	236.75
261.71	245.75
261.942	236.75
262.175	259.75
262.407	243.75
262.64	243.75
262.872	220.75
263.105	228.75
263.337	225.75
263.57	234.75
263.802	234.75
264.035	239.75
264.267	238.75
264.499	226.75
264.732	229.75
264.964	215.75
265.197	232.75
265.429	224.75
265.661	221.75
265.894	228.75
266.126	243.75
266.358	227.75
266.591	241.75
266.823	241.75
267.055	238.75
267.287	238.75
267.52	232.75
267.752	220.75
267.984	233.75
268.216	239.75
268.448	243.75
268.681	235.75
268.913	259.75
269.145	296.75
269.377	307.75
269.609	303.75
269.841	308.75
270.073	305.75
270.306	328.75
270.538	341.75
270.77	354.75
271.002	345.75
271.234	330.75
271.466	323.75
271.698	352.75
271.93	340.75
272.162	343.75
272.394	357.75
272.626	337.75
272.858	323.75
273.09	310.75
273.322	296.75
273.553	288.75
273.785	287.75
274.017	276.75
274.249	277.75
274.481	286.75
274.713	262.75
274.945	286.75
275.176	284.75
275.408	277.75
275.64	278.75
275.872	278.75
276.104	295.75
276.335	268.75
276.567	293.75
276.799	312.75
277.031	329.75
277.262	334.75
277.494	349.75
277.726	339.75
277.957	322.75
278.189	312.75
278.421	302.75
278.652	265.75
278.884	310.75
279.115	295.75
279.347	281.75
279.579	259.75
279.81	287.75
280.042	289.75
280.273	277.75
280.505	269.75
280.736	290.75
280.968	291.75
281.199	295.75
281.431	295.75
281.662	278.75
281.894	286.75
282.125	301.75
282.356	284.75
282.588	320.75
282.819	325.75
283.051	289.75
283.282	292.75
283.513	297.75
283.745	287.75
283.976	278.75
284.207	292.75
284.439	305.75
284.67	289.75
284.901	290.75
285.132	290.75
285.364	258.75
285.595	290.75
285.826	270.75
286.057	289.75
286.288	272.75
286.52	281.75
286.751	285.75
286.982	290.75
287.213	286.75
287.444	316.75
287.675	307.75
287.906	305.75
288.138	313.75
288.369	308.75
288.6	311.75
288.831	313.75
289.062	299.75
289.293	310.75
289.524	298.75
289.755	292.75
289.986	308.75
290.217	295.75
290.448	286.75
290.679	289.75
290.91	298.75
291.141	294.75
291.371	299.75
291.602	293.75
291.833	300.75
292.064	294.75
292.295	292.75
292.526	277.75
292.757	305.75
292.987	322.75
293.218	293.75
293.449	285.75
293.68	296.75
293.91	285.75
294.141	303.75
294.372	300.75
294.603	287.75
294.833	323.75
295.064	282.75
295.295	321.75
295.525	302.75
295.756	301.75
295.987	305.75
296.217	356.75
296.448	349.75
296.679	317.75
296.909	307.75
297.14	296.75
297.37	292.75
297.601	301.75
297.831	305.75
298.062	305.75
298.292	294.75
298.523	319.75
298.753	317.75
298.984	319.75
299.214	306.75
299.445	319.75
299.675	299.75
299.905	315.75
300.136	321.75
300.366	322.75
300.597	311.75
300.827	324.75
301.057	348.75
301.288	350.75
301.518	318.75
301.748	327.75
301.979	321.75
302.209	336.75
302.439	322.75
302.669	328.75
302.9	341.75
303.13	350.75
303.36	340.75
303.59	340.75
303.82	332.75
304.051	345.75
304.281	348.75
304.511	337.75
304.741	347.75
304.971	322.75
305.201	313.75
305.431	334.75
305.661	312.75
305.891	323.75
306.121	336.75
306.352	339.75
306.582	355.75
306.812	361.75
307.042	345.75
307.272	350.75
307.502	358.75
307.731	341.75
307.961	360.75
308.191	332.75
308.421	343.75
308.651	341.75
308.881	360.75
309.111	334.75
309.341	348.75
309.571	376.75
309.8	379.75
310.03	377.75
310.26	410.75
310.49	408.75
310.72	411.75
310.949	415.75
311.179	421.75
311.409	406.75
311.639	408.75
311.868	399.75
312.098	398.75
312.328	420.75
312.557	430.75
312.787	440.75
313.017	435.75
313.246	405.75
313.476	399.75
313.706	405.75
313.935	407.75
314.165	435.75
314.394	429.75
314.624	422.75
314.853	421.75
315.083	422.75
315.312	406.75
315.542	384.75
315.771	356.75
316.001	365.75
316.23	375.75
316.46	392.75
316.689	408.75
316.919	415.75
317.148	414.75
317.377	416.75
317.607	430.75
317.836	431.75
318.065	394.75
318.295	387.75
318.524	382.75
318.753	379.75
318.983	386.75
319.212	395.75
319.441	403.75
319.67	408.75
319.9	389.75
320.129	389.75
320.358	419.75
320.587	406.75
320.816	435.75
321.046	435.75
321.275	458.75
321.504	435.75
321.733	435.75
321.962	425.75
322.191	465.75
322.42	461.75
322.649	489.75
322.878	525.75
323.108	523.75
323.337	541.75
323.566	589.75
323.795	616.75
324.024	680.75
324.253	838.75
324.482	1258.75
324.71	1872.75
324.939	2589.75
325.168	2189.75
325.397	1155.75
325.626	777.75
325.855	634.75
326.084	572.75
326.313	565.75
326.542	586.75
326.77	634.75
326.999	791.75
327.228	1118.75
327.457	1642.75
327.686	1896.75
327.914	1281.75
328.143	869.75
328.372	722.75
328.6	681.75
328.829	626.75
329.058	639.75
329.287	647.75
329.515	591.75
329.744	559.75
329.972	572.75
330.201	613.75
330.43	628.75
330.658	683.75
330.887	682.75
331.115	666.75
331.344	576.75
331.572	531.75
331.801	515.75
332.03	510.75
332.258	502.75
332.486	484.75
332.715	456.75
332.943	474.75
333.172	488.75
333.4	476.75
333.629	474.75
333.857	487.75
334.085	501.75
334.314	517.75
334.542	530.75
334.771	558.75
334.999	513.75
335.227	467.75
335.455	469.75
335.684	442.75
335.912	445.75
336.14	451.75
336.369	449.75
336.597	467.75
336.825	459.75
337.053	442.75
337.281	440.75
337.51	446.75
337.738	453.75
337.966	454.75
338.194	457.75
338.422	473.75
338.65	419.75
338.878	441.75
339.106	426.75
339.334	450.75
339.562	437.75
339.79	445.75
340.018	439.75
340.246	438.75
340.474	437.75
340.702	430.75
340.93	437.75
341.158	456.75
341.386	430.75
341.614	440.75
341.842	430.75
342.07	426.75
342.298	426.75
342.526	417.75
342.754	411.75
342.981	412.75
343.209	403.75
343.437	406.75
343.665	417.75
343.893	413.75
344.12	413.75
344.348	407.75
344.576	420.75
344.804	426.75
345.031	436.75
345.259	458.75
345.487	453.75
345.714	411.75
345.942	434.75
346.17	434.75
346.397	429.75
346.625	404.75
346.853	429.75
347.08	420.75
347.308	443.75
347.535	426.75
347.763	430.75
347.99	446.75
348.218	443.75
348.445	422.75
348.673	455.75
348.9	423.75
349.128	394.75
349.355	397.75
349.583	421.75
349.81	385.75
350.037	405.75
350.265	381.75
350.492	395.75
350.72	405.75
350.947	395.75
351.174	399.75
351.402	430.75
351.629	427.75
351.856	420.75
352.083	429.75
352.311	420.75
352.538	441.75
352.765	446.75
352.992	435.75
353.22	420.75
353.447	423.75
353.674	396.75
353.901	405.75
354.128	399.75
354.355	379.75
354.583	391.75
354.81	371.75
355.037	372.75
355.264	386.75
355.491	387.75
355.718	378.75
355.945	366.75
356.172	381.75
356.399	364.75
356.626	361.75
356.853	369.75
357.08	363.75
357.307	385.75
357.534	370.75
357.761	361.75
357.988	367.75
358.215	378.75
358.441	358.75
358.668	379.75
358.895	391.75
359.122	365.75
359.349	413.75
359.576	407.75
359.802	428.75
360.029	471.75
360.256	476.75
360.483	465.75
360.709	441.75
360.936	403.75
361.163	411.75
361.39	414.75
361.616	432.75
361.843	403.75
362.07	390.75
362.296	412.75
362.523	417.75
362.749	391.75
362.976	398.75
363.203	374.75
363.429	386.75
363.656	396.75
363.882	379.75
364.109	397.75
364.335	390.75
364.562	380.75
364.788	383.75
365.015	399.75
365.241	378.75
365.468	377.75
365.694	393.75
365.92	382.75
366.147	383.75
366.373	370.75
366.599	392.75
366.826	372.75
367.052	380.75
367.278	359.75
367.505	375.75
367.731	377.75
367.957	356.75
368.184	377.75
368.41	379.75
368.636	382.75
368.862	420.75
369.089	379.75
369.315	379.75
369.541	381.75
369.767	372.75
369.993	383.75
370.219	376.75
370.445	358.75
370.672	363.75
370.898	360.75
371.124	364.75
371.35	371.75
371.576	369.75
371.802	359.75
372.028	361.75
372.254	360.75
372.48	360.75
372.706	363.75
372.932	384.75
373.158	360.75
373.384	356.75
373.61	336.75
373.835	380.75
374.061	364.75
374.287	369.75
374.513	374.75
374.739	371.75
374.965	370.75
375.191	350.75
375.416	366.75
375.642	369.75
375.868	362.75
376.094	361.75
376.319	357.75
376.545	351.75
376.771	364.75
376.997	345.75
377.222	364.75
377.448	367.75
377.674	353.75
377.899	366.75
378.125	353.75
378.35	364.75
378.576	367.75
378.802	341.75
379.027	345.75
379.253	330.75
379.478	363.75
379.704	359.75
379.929	358.75
380.155	380.75
380.38	354.75
380.606	336.75
380.831	375.75
381.057	345.75
381.282	348.75
381.507	348.75
381.733	364.75
381.958	355.75
382.184	358.75
382.409	340.75
382.634	362.75
382.86	357.75
383.085	353.75
383.31	348.75
383.535	343.75
383.761	349.75
383.986	356.75
384.211	370.75
384.436	358.75
384.662	372.75
384.887	367.75
385.112	357.75
385.337	371.75
385.562	375.75
385.787	380.75
386.013	392.75
386.238	373.75
386.463	379.75
386.688	358.75
386.913	375.75
387.138	356.75
387.363	364.75
387.588	363.75
387.813	356.75
388.038	381.75
388.263	375.75
388.488	378.75
388.713	374.75
388.938	384.75
389.163	378.75
389.387	372.75
389.612	373.75
389.837	357.75
390.062	364.75
390.287	364.75
390.512	375.75
390.736	371.75
390.961	375.75
391.186	379.75
391.411	357.75
391.636	373.75
391.86	387.75
392.085	380.75
392.31	377.75
392.534	375.75
392.759	371.75
392.984	385.75
393.208	357.75
393.433	357.75
393.658	386.75
393.882	377.75
394.107	374.75
394.331	357.75
394.556	380.75
394.78	381.75
395.005	381.75
395.229	388.75
395.454	378.75
395.678	389.75
395.903	393.75
396.127	411.75
396.352	414.75
396.576	377.75
396.801	371.75
397.025	365.75
397.249	395.75
397.474	389.75
397.698	393.75
397.922	421.75
398.147	415.75
398.371	413.75
398.595	408.75
398.82	408.75
399.044	392.75
399.268	425.75
399.492	439.75
399.717	437.75
399.941	455.75
400.165	497.75
400.389	497.75
400.613	464.75
400.837	425.75
401.062	418.75
401.286	427.75
401.51	417.75
401.734	421.75
401.958	420.75
402.182	424.75
402.406	419.75
402.63	426.75
402.854	440.75
403.078	427.75
403.302	420.75
403.526	435.75
403.75	412.75
403.974	425.75
404.198	424.75
404.422	424.75
404.645	444.75
404.869	445.75
405.093	457.75
405.317	492.75
405.541	513.75
405.765	489.75
405.988	471.75
406.212	471.75
406.436	492.75
406.66	488.75
406.883	457.75
407.107	477.75
407.331	530.75
407.555	577.75
407.778	571.75
408.002	508.75
408.226	489.75
408.449	475.75
408.673	469.75
408.896	485.75
409.12	528.75
409.344	515.75
409.567	450.75
409.791	451.75
410.014	443.75
410.238	429.75
410.461	436.75
410.685	423.75
410.908	443.75
411.132	486.75
411.355	503.75
411.578	493.75
411.802	468.75
412.025	426.75
412.249	447.75
412.472	470.75
412.695	503.75
412.919	502.75
413.142	446.75
413.365	431.75
413.589	443.75
413.812	399.75
414.035	398.75
414.258	408.75
414.482	410.75
414.705	405.75
414.928	400.75
415.151	407.75
415.374	379.75
415.597	390.75
415.821	392.75
416.044	411.75
416.267	413.75
416.49	388.75
416.713	390.75
416.936	408.75
417.159	410.75
417.382	401.75
417.605	428.75
417.828	403.75
418.051	440.75
418.274	437.75
418.497	425.75
418.72	413.75
418.943	379.75
419.166	425.75
419.389	430.75
419.611	427.75
419.834	441.75
420.057	444.75
420.28	430.75
420.503	430.75
420.726	444.75
420.948	435.75
421.171	470.75
421.394	484.75
421.617	474.75
421.839	441.75
422.062	426.75
422.285	437.75
422.507	519.75
422.73	575.75
422.953	509.75
423.175	490.75
423.398	442.75
423.621	453.75
423.843	480.75
424.066	468.75
424.288	479.75
424.511	464.75
424.733	541.75
424.956	631.75
425.178	579.75
425.401	595.75
425.623	591.75
425.846	529.75
426.068	492.75
426.291	487.75
426.513	483.75
426.735	497.75
426.958	535.75
427.18	597.75
427.402	719.75
427.625	789.75
427.847	703.75
428.069	613.75
428.292	537.75
428.514	489.75
428.736	467.75
428.958	482.75
429.181	436.75
429.403	443.75
429.625	465.75
429.847	484.75
430.069	550.75
430.292	532.75
430.514	454.75
430.736	457.75
430.958	437.75
431.18	421.75
431.402	420.75
431.624	411.75
431.846	401.75
432.068	393.75
432.29	400.75
432.512	411.75
432.734	423.75
432.956	418.75
433.178	435.75
433.4	439.75
433.622	433.75
433.844	435.75
434.066	402.75
434.287	399.75
434.509	408.75
434.731	410.75
434.953	423.75
435.175	422.75
435.397	460.75
435.618	476.75
435.84	540.75
436.062	601.75
436.284	661.75
436.505	559.75
436.727	499.75
436.949	449.75
437.17	449.75
437.392	446.75
437.614	461.75
437.835	513.75
438.057	595.75
438.278	686.75
438.5	675.75
438.721	718.75
438.943	675.75
439.165	553.75
439.386	517.75
439.608	503.75
439.829	494.75
440.05	523.75
440.272	566.75
440.493	541.75
440.715	475.75
440.936	470.75
441.158	456.75
441.379	438.75
441.6	448.75
441.822	476.75
442.043	520.75
442.264	608.75
442.486	642.75
442.707	533.75
442.928	493.75
443.149	490.75
443.371	520.75
443.592	566.75
443.813	649.75
444.034	698.75
444.255	565.75
444.476	490.75
444.698	469.75
444.919	451.75
445.14	583.75
445.361	572.75
445.582	539.75
445.803	587.75
446.024	727.75
446.245	665.75
446.466	636.75
446.687	536.75
446.908	495.75
447.129	454.75
447.35	447.75
447.571	426.75
447.792	440.75
448.013	456.75
448.234	471.75
448.455	542.75
448.675	631.75
448.896	702.75
449.117	614.75
449.338	584.75
449.559	666.75
449.779	781.75
450	613.75
450.221	509.75
450.442	453.75
450.662	456.75
450.883	474.75
451.104	486.75
451.324	450.75
451.545	440.75
451.766	391.75
451.986	409.75
452.207	385.75
452.428	400.75
452.648	399.75
452.869	400.75
453.089	411.75
453.31	426.75
453.53	424.75
453.751	424.75
453.971	407.75
454.192	424.75
454.412	401.75
454.633	395.75
454.853	381.75
455.073	395.75
455.294	405.75
455.514	503.75
455.734	503.75
455.955	395.75
456.175	396.75
456.395	367.75
456.616	364.75
456.836	359.75
457.056	373.75
457.276	346.75
457.497	357.75
457.717	364.75
457.937	369.75
458.157	381.75
458.377	378.75
458.598	410.75
458.818	454.75
459.038	556.75
459.258	577.75
459.478	479.75
459.698	437.75
459.918	430.75
460.138	402.75
460.358	381.75
460.578	409.75
460.798	405.75
461.018	416.75
461.238	397.75
461.458	399.75
461.678	400.75
461.898	397.75
462.118	366.75
462.338	381.75
462.558	407.75
462.777	394.75
462.997	396.75
463.217	409.75
463.437	433.75
463.657	423.75
463.876	418.75
464.096	419.75
464.316	408.75
464.536	414.75
464.755	434.75
464.975	435.75
465.195	518.75
465.414	571.75
465.634	505.75
465.854	460.75
466.073	415.75
466.293	428.75
466.512	405.75
466.732	373.75
466.951	399.75
467.171	415.75
467.391	385.75
467.61	410.75
467.829	417.75
468.049	406.75
468.268	411.75
468.488	394.75
468.707	390.75
468.927	385.75
469.146	371.75
469.365	385.75
469.585	360.75
469.804	393.75
470.023	389.75
470.243	386.75
470.462	423.75
470.681	412.75
470.901	427.75
471.12	392.75
471.339	397.75
471.558	416.75
471.777	408.75
471.997	372.75
472.216	402.75
472.435	449.75
472.654	426.75
472.873	391.75
473.092	428.75
473.311	421.75
473.53	384.75
473.749	408.75
473.968	449.75
474.187	573.75
474.406	575.75
474.625	480.75
474.844	423.75
475.063	417.75
475.282	418.75
475.501	398.75
475.72	421.75
475.939	420.75
476.158	405.75
476.377	418.75
476.596	418.75
476.814	428.75
477.033	409.75
477.252	426.75
477.471	441.75
477.69	431.75
477.908	417.75
478.127	444.75
478.346	424.75
478.564	437.75
478.783	428.75
479.002	441.75
479.22	458.75
479.439	466.75
479.658	487.75
479.876	494.75
480.095	489.75
480.313	506.75
480.532	493.75
480.751	497.75
480.969	502.75
481.188	547.75
481.406	601.75
481.624	543.75
481.843	504.75
482.061	479.75
482.28	497.75
482.498	455.75
482.717	454.75
482.935	470.75
483.153	470.75
483.372	459.75
483.59	468.75
483.808	466.75
484.027	475.75
484.245	466.75
484.463	469.75
484.681	476.75
484.9	478.75
485.118	488.75
485.336	495.75
485.554	479.75
485.772	476.75
485.99	457.75
486.209	473.75
486.427	489.75
486.645	498.75
486.863	521.75
487.081	499.75
487.299	517.75
487.517	492.75
487.735	483.75
487.953	503.75
488.171	522.75
488.389	499.75
488.607	500.75
488.825	501.75
489.043	503.75
489.261	523.75
489.479	531.75
489.696	517.75
489.914	521.75
490.132	511.75
490.35	527.75
490.568	524.75
490.786	534.75
491.003	559.75
491.221	556.75
491.439	578.75
491.657	557.75
491.874	593.75
492.092	563.75
492.31	568.75
492.527	587.75
492.745	596.75
492.963	591.75
493.18	579.75
493.398	589.75
493.615	600.75
493.833	613.75
494.05	601.75
494.268	585.75
494.485	610.75
494.703	598.75
494.92	620.75
495.138	597.75
495.355	587.75
495.573	592.75
495.79	588.75
496.008	617.75
496.225	609.75
496.442	613.75
496.66	605.75
496.877	610.75
497.094	608.75
497.312	600.75
497.529	630.75
497.746	637.75
497.963	617.75
498.181	645.75
498.398	643.75
498.615	658.75
498.832	671.75
499.049	643.75
499.267	661.75
499.484	672.75
499.701	703.75
499.918	713.75
500.135	687.75
500.352	725.75
500.569	745.75
500.786	725.75
501.003	710.75
501.22	725.75
501.437	748.75
501.654	714.75
501.871	733.75
502.088	693.75
502.305	682.75
502.522	659.75
502.739	658.75
502.956	615.75
503.172	637.75
503.389	631.75
503.606	637.75
503.823	642.75
504.04	622.75
504.256	606.75
504.473	602.75
504.69	591.75
504.907	602.75
505.123	582.75
505.34	601.75
505.557	572.75
505.773	597.75
505.99	586.75
506.207	581.75
506.423	590.75
506.64	578.75
506.856	571.75
507.073	596.75
507.289	575.75
507.506	574.75
507.722	590.75
507.939	614.75
508.155	586.75
508.372	573.75
508.588	548.75
508.805	554.75
509.021	580.75
509.238	582.75
509.454	609.75
509.67	589.75
509.887	597.75
510.103	569.75
510.319	584.75
510.536	703.75
510.752	1141.75
510.968	941.75
511.184	597.75
511.401	586.75
511.617	556.75
511.833	558.75
512.049	524.75
512.265	546.75
512.481	553.75
512.698	535.75
512.914	524.75
513.13	525.75
513.346	524.75
513.562	537.75
513.778	540.75
513.994	578.75
514.21	568.75
514.426	599.75
514.642	643.75
514.858	661.75
515.074	705.75
515.29	845.75
515.506	1292.75
515.721	1025.75
515.937	681.75
516.153	633.75
516.369	590.75
516.585	580.75
516.801	581.75
517.016	541.75
517.232	538.75
517.448	545.75
517.664	536.75
517.879	518.75
518.095	523.75
518.311	525.75
518.527	536.75
518.742	535.75
518.958	538.75
519.173	529.75
519.389	546.75
519.605	526.75
519.82	538.75
520.036	576.75
520.251	593.75
520.467	602.75
520.682	630.75
520.898	626.75
521.113	636.75
521.329	689.75
521.544	795.75
521.76	1057.75
521.975	1696.75
522.19	1672.75
522.406	874.75
522.621	638.75
522.836	584.75
523.052	539.75
523.267	541.75
523.482	525.75
523.698	515.75
523.913	528.75
524.128	534.75
524.343	469.75
524.559	474.75
524.774	443.75
524.989	462.75
525.204	485.75
525.419	513.75
525.634	459.75
525.849	463.75
526.064	471.75
526.28	463.75
526.495	427.75
526.71	447.75
526.925	436.75
527.14	437.75
527.355	417.75
527.57	434.75
527.785	441.75
527.999	435.75
528.214	428.75
528.429	421.75
528.644	436.75
528.859	456.75
529.074	427.75
529.289	456.75
529.503	531.75
529.718	519.75
529.933	476.75
530.148	441.75
530.363	446.75
530.577	424.75
530.792	429.75
531.007	439.75
531.221	422.75
531.436	410.75
531.651	411.75
531.865	405.75
532.08	421.75
532.295	436.75
532.509	407.75
532.724	401.75
532.938	412.75
533.153	407.75
533.367	390.75
533.582	381.75
533.796	396.75
534.011	426.75
534.225	380.75
534.44	395.75
534.654	409.75
534.868	380.75
535.083	408.75
535.297	398.75
535.511	400.75
535.726	413.75
535.94	399.75
536.154	402.75
536.369	418.75
536.583	410.75
536.797	409.75
537.011	382.75
537.225	375.75
537.44	373.75
537.654	398.75
537.868	379.75
538.082	394.75
538.296	386.75
538.51	391.75
538.724	394.75
538.938	417.75
539.153	411.75
539.367	404.75
539.581	409.75
539.795	396.75
540.009	380.75
540.222	392.75
540.436	381.75
540.65	407.75
540.864	417.75
541.078	413.75
541.292	406.75
541.506	384.75
541.72	419.75
541.934	402.75
542.147	371.75
542.361	372.75
542.575	375.75
542.789	395.75
543.002	392.75
543.216	396.75
543.43	385.75
543.644	380.75
543.857	393.75
544.071	373.75
544.285	417.75
544.498	381.75
544.712	362.75
544.925	370.75
545.139	379.75
545.352	373.75
545.566	380.75
545.779	377.75
545.993	365.75
546.206	368.75
546.42	357.75
546.633	369.75
546.847	353.75
547.06	353.75
547.274	368.75
547.487	389.75
547.7	348.75
547.914	358.75
548.127	364.75
548.34	354.75
548.554	342.75
548.767	355.75
548.98	355.75
549.193	369.75
549.407	352.75
549.62	361.75
549.833	350.75
550.046	358.75
550.259	342.75
550.473	350.75
550.686	365.75
550.899	340.75
551.112	350.75
551.325	362.75
551.538	348.75
551.751	354.75
551.964	349.75
552.177	345.75
552.39	368.75
552.603	349.75
552.816	344.75
553.029	365.75
553.242	350.75
553.455	347.75
553.667	371.75
553.88	381.75
554.093	390.75
554.306	377.75
554.519	355.75
554.732	353.75
554.944	339.75
555.157	334.75
555.37	348.75
555.583	334.75
555.795	348.75
556.008	359.75
556.221	335.75
556.433	334.75
556.646	326.75
556.859	322.75
557.071	358.75
557.284	327.75
557.496	327.75
557.709	325.75
557.921	319.75
558.134	327.75
558.346	335.75
558.559	339.75
558.771	321.75
558.984	317.75
559.196	303.75
559.409	321.75
559.621	326.75
559.833	309.75
560.046	300.75
560.258	335.75
560.47	324.75
560.683	319.75
560.895	316.75
561.107	330.75
561.32	315.75
561.532	325.75
561.744	317.75
561.956	310.75
562.168	311.75
562.381	312.75
562.593	312.75
562.805	339.75
563.017	301.75
563.229	314.75
563.441	328.75
563.653	341.75
563.865	324.75
564.077	320.75
564.289	316.75
564.501	334.75
564.713	331.75
564.925	339.75
565.137	348.75
565.349	343.75
565.561	326.75
565.773	327.75
565.985	339.75
566.197	332.75
566.408	345.75
566.62	362.75
566.832	366.75
567.044	356.75
567.255	349.75
567.467	370.75
567.679	351.75
567.891	376.75
568.102	358.75
568.314	360.75
568.526	349.75
568.737	363.75
568.949	342.75
569.161	325.75
569.372	331.75
569.584	312.75
569.795	318.75
570.007	312.75
570.218	380.75
570.43	358.75
570.641	325.75
570.853	315.75
571.064	317.75
571.276	313.75
571.487	294.75
571.698	308.75
571.91	319.75
572.121	300.75
572.333	300.75
572.544	299.75
572.755	293.75
572.966	295.75
573.178	284.75
573.389	275.75
573.6	278.75
573.811	291.75
574.023	267.75
574.234	282.75
574.445	281.75
574.656	262.75
574.867	274.75
575.078	284.75
575.289	282.75
575.501	274.75
575.712	279.75
575.923	280.75
576.134	281.75
576.345	257.75
576.556	259.75
576.767	274.75
576.978	298.75
577.188	286.75
577.399	274.75
577.61	281.75
577.821	281.75
578.032	275.75
578.243	293.75
578.454	537.75
578.665	397.75
578.875	297.75
579.086	278.75
579.297	266.75
579.508	269.75
579.718	269.75
579.929	263.75
580.14	260.75
580.35	284.75
580.561	279.75
580.772	265.75
580.982	262.75
581.193	245.75
581.403	249.75
581.614	261.75
581.825	247.75
582.035	269.75
582.246	260.75
582.456	257.75
582.667	265.75
582.877	257.75
583.087	258.75
583.298	258.75
583.508	272.75
583.719	283.75
583.929	269.75
584.139	244.75
584.35	250.75
584.56	244.75
584.77	256.75
584.981	286.75
585.191	274.75
585.401	275.75
585.611	268.75
585.821	258.75
586.032	229.75
586.242	249.75
586.452	255.75
586.662	257.75
586.872	261.75
587.082	246.75
587.292	262.75
587.502	244.75
587.713	257.75
587.923	226.75
588.133	246.75
588.343	242.75
588.553	234.75
588.762	249.75
588.972	232.75
589.182	247.75
589.392	246.75
589.602	243.75
589.812	247.75
590.022	242.75
590.232	244.75
590.441	236.75
590.651	231.75
590.861	244.75
591.071	240.75
591.281	241.75
591.49	249.75
591.7	248.75
591.91	244.75
592.119	251.75
592.329	242.75
592.539	245.75
592.748	258.75
592.958	262.75
593.167	250.75
593.377	249.75
593.587	251.75
593.796	243.75
594.006	254.75
594.215	238.75
594.424	250.75
594.634	238.75
594.843	238.75
595.053	240.75
595.262	232.75
595.472	229.75
595.681	238.75
595.89	231.75
596.1	228.75
596.309	237.75
596.518	242.75
596.727	247.75
596.937	244.75
597.146	215.75
597.355	226.75
597.564	218.75
597.774	210.75
597.983	211.75
598.192	223.75
598.401	213.75
598.61	214.75
598.819	205.75
599.028	226.75
599.237	221.75
599.446	208.75
599.655	222.75
599.864	227.75
600.073	205.75
600.282	209.75
600.491	220.75
600.7	228.75
600.909	224.75
601.118	201.75
601.327	212.75
601.536	223.75
601.745	220.75
601.953	217.75
602.162	218.75
602.371	226.75
602.58	237.75
602.789	207.75
602.997	189.75
603.206	212.75
603.415	225.75
603.623	202.75
603.832	219.75
604.041	225.75
604.249	208.75
604.458	219.75
604.666	199.75
604.875	205.75
605.084	190.75
605.292	201.75
605.501	228.75
605.709	219.75
605.918	203.75
606.126	207.75
606.334	199.75
606.543	210.75
606.751	209.75
606.96	201.75
607.168	199.75
607.376	207.75
607.585	211.75
607.793	205.75
608.001	194.75
608.21	212.75
608.418	216.75
608.626	202.75
608.834	226.75
609.043	204.75
609.251	215.75
609.459	200.75
609.667	216.75
609.875	209.75
610.083	205.75
610.291	206.75
610.499	212.75
610.707	204.75
610.916	214.75
611.124	206.75
611.332	202.75
611.54	220.75
611.748	207.75
611.955	207.75
612.163	201.75
612.371	212.75
612.579	212.75
612.787	194.75
612.995	207.75
613.203	210.75
613.411	187.75
613.618	184.75
613.826	179.75
614.034	217.75
614.242	184.75
614.449	195.75
614.657	192.75
614.865	186.75
615.072	197.75
615.28	203.75
615.488	187.75
615.695	204.75
615.903	194.75
616.111	183.75
616.318	215.75
616.526	192.75
616.733	190.75
616.941	184.75
617.148	225.75
617.356	191.75
617.563	191.75
617.771	198.75
617.978	205.75
618.185	214.75
618.393	189.75
618.6	196.75
618.807	201.75
619.015	204.75
619.222	185.75
619.429	192.75
619.637	194.75
619.844	188.75
620.051	187.75
620.258	195.75
620.466	202.75
620.673	195.75
620.88	190.75
621.087	184.75
621.294	190.75
621.501	182.75
621.708	179.75
621.915	187.75
622.122	180.75
622.329	188.75
622.536	199.75
622.743	190.75
622.95	191.75
623.157	186.75
623.364	190.75
623.571	190.75
623.778	186.75
623.985	188.75
624.192	182.75
624.399	199.75
624.606	194.75
624.812	190.75
625.019	188.75
625.226	174.75
625.433	174.75
625.639	182.75
625.846	180.75
626.053	183.75
626.259	202.75
626.466	181.75
626.673	176.75
626.879	186.75
627.086	194.75
627.293	188.75
627.499	189.75
627.706	189.75
627.912	181.75
628.119	180.75
628.325	183.75
628.532	156.75
628.738	173.75
628.945	168.75
629.151	165.75
629.357	174.75
629.564	171.75
629.77	166.75
629.976	166.75
630.183	182.75
630.389	180.75
630.595	183.75
630.802	173.75
631.008	158.75
631.214	179.75
631.42	171.75
631.627	173.75
631.833	178.75
632.039	181.75
632.245	162.75
632.451	149.75
632.657	169.75
632.863	153.75
633.069	166.75
633.275	157.75
633.481	161.75
633.688	174.75
633.893	161.75
634.099	153.75
634.305	153.75
634.511	157.75
634.717	157.75
634.923	161.75
635.129	163.75
635.335	153.75
635.541	153.75
635.747	157.75
635.952	149.75
636.158	163.75
636.364	171.75
636.57	158.75
636.775	155.75
636.981	168.75
637.187	161.75
637.392	148.75
637.598	150.75
637.804	161.75
638.009	151.75
638.215	171.75
638.421	156.75
638.626	154.75
638.832	164.75
639.037	154.75
639.243	146.75
639.448	157.75
639.654	152.75
639.859	159.75
640.065	159.75
640.27	167.75
640.475	153.75
640.681	152.75
640.886	154.75
641.091	149.75
641.297	161.75
641.502	148.75
641.707	150.75
641.913	163.75
642.118	147.75
642.323	165.75
642.528	157.75
642.733	146.75
642.939	159.75
643.144	140.75
643.349	151.75
643.554	155.75
643.759	147.75
643.964	143.75
644.169	142.75
644.374	147.75
644.579	164.75
644.784	163.75
644.989	148.75
645.194	145.75
645.399	162.75
645.604	152.75
645.809	142.75
646.014	131.75
646.219	147.75
646.423	149.75
646.628	160.75
646.833	150.75
647.038	158.75
647.243	148.75
647.447	150.75
647.652	176.75
647.857	148.75
648.062	148.75
648.266	148.75
648.471	153.75
648.676	153.75
648.88	149.75
649.085	161.75
649.289	151.75
649.494	149.75
649.698	169.75
649.903	150.75
650.107	143.75
650.312	158.75
650.516	155.75
650.721	149.75
650.925	126.75
651.13	148.75
651.334	144.75
651.539	142.75
651.743	127.75
651.947	130.75
652.152	139.75
652.356	136.75
652.56	126.75
652.764	122.75
652.969	133.75
653.173	131.75
653.377	138.75
653.581	135.75
653.785	135.75
653.99	138.75
654.194	134.75
654.398	125.75
654.602	133.75
654.806	116.75
655.01	148.75
655.214	145.75
655.418	141.75
655.622	116.75
655.826	119.75
656.03	119.75
656.234	118.75
656.438	114.75
656.642	113.75
656.846	120.75
657.049	121.75
657.253	115.75
657.457	113.75
657.661	114.75
657.865	109.75
658.068	104.75
658.272	111.75
658.476	113.75
658.68	113.75
658.883	103.75
659.087	97.75
659.291	105.75
659.494	97.75
659.698	107.75
659.901	104.75
660.105	90.75
660.309	101.75
660.512	87.75
660.716	81.75
660.919	84.75
661.123	102.75
661.326	92.75
661.53	100.75
661.733	74.75
661.936	84.75
662.14	99.75
662.343	94.75
662.546	80.75
662.75	94.75
662.953	85.75
663.156	88.75
663.36	87.75
663.563	86.75
663.766	89.75
663.969	87.75
664.173	88.75
664.376	70.75
664.579	87.75
664.782	102.75
664.985	77.75
665.188	97.75
665.391	83.75
665.594	83.75
665.797	89.75
666	93.75
666.203	83.75
666.406	97.75
666.609	84.75
666.812	87.75
667.015	80.75
667.218	90.75
667.421	89.75
667.624	86.75
667.827	78.75
668.03	89.75
668.232	79.75
668.435	73.75
668.638	100.75
668.841	92.75
669.043	75.75
669.246	71.75
669.449	76.75
669.651	80.75
669.854	86.75
670.057	93.75
670.259	78.75
670.462	89.75
670.665	79.75
670.867	84.75
671.07	88.75
671.272	90.75
671.475	79.75
671.677	83.75
671.88	85.75
672.082	86.75
672.284	87.75
672.487	93.75
672.689	73.75
672.892	68.75
