Data from 1981.PennyLincolnUp.Lamp.En5.5.200Scan.071819.P1_HRD10591_16-42-25-959.txt Node
Date: Thu Jul 18 16:42:25 EDT 2019
User: cochatt
Spectrometer: HR+D1059
Trigger mode: 1
Integration Time (sec): 1.000000E-1
Scans to average: 1
Electric dark correction enabled: true
Nonlinearity correction enabled: false
Boxcar width: 0
XAxis mode: Wavelengths
Number of Pixels in Spectrum: 2048
>>>>>Begin Spectral Data<<<<<
223.165	-11.12
223.4	-11.12
223.635	-11.12
223.869	-32.12
224.104	-4.12
224.338	-0.12
224.573	-12.12
224.808	-27.12
225.042	-13.12
225.277	-8.12
225.511	0.88
225.746	0.88
225.98	8.88
226.215	19.88
226.449	27.88
226.683	4.88
226.918	20.88
227.152	23.88
227.387	22.88
227.621	42.88
227.856	27.88
228.09	61.88
228.324	45.88
228.559	69.88
228.793	69.88
229.027	106.88
229.262	93.88
229.496	113.88
229.73	140.88
229.964	160.88
230.199	137.88
230.433	131.88
230.667	114.88
230.901	128.88
231.136	110.88
231.37	117.88
231.604	116.88
231.838	102.88
232.072	99.88
232.306	100.88
232.541	112.88
232.775	120.88
233.009	114.88
233.243	107.88
233.477	95.88
233.711	104.88
233.945	117.88
234.179	114.88
234.413	109.88
234.647	120.88
234.881	115.88
235.115	108.88
235.349	112.88
235.583	126.88
235.817	116.88
236.051	127.88
236.285	127.88
236.519	124.88
236.753	148.88
236.987	147.88
237.221	192.88
237.455	250.88
237.689	184.88
237.922	138.88
238.156	128.88
238.39	125.88
238.624	128.88
238.858	132.88
239.091	121.88
239.325	126.88
239.559	117.88
239.793	122.88
240.027	141.88
240.26	144.88
240.494	157.88
240.728	135.88
240.961	150.88
241.195	169.88
241.429	136.88
241.662	133.88
241.896	138.88
242.13	140.88
242.363	137.88
242.597	128.88
242.83	142.88
243.064	151.88
243.298	150.88
243.531	135.88
243.765	152.88
243.998	144.88
244.232	141.88
244.465	146.88
244.699	144.88
244.932	171.88
245.166	132.88
245.399	139.88
245.633	154.88
245.866	140.88
246.099	142.88
246.333	138.88
246.566	149.88
246.8	154.88
247.033	153.88
247.266	155.88
247.5	140.88
247.733	171.88
247.966	160.88
248.2	152.88
248.433	171.88
248.666	186.88
248.899	196.88
249.133	197.88
249.366	217.88
249.599	198.88
249.832	192.88
250.066	192.88
250.299	199.88
250.532	190.88
250.765	216.88
250.998	240.88
251.231	238.88
251.465	218.88
251.698	206.88
251.931	209.88
252.164	212.88
252.397	194.88
252.63	206.88
252.863	222.88
253.096	229.88
253.329	244.88
253.562	222.88
253.795	249.88
254.028	227.88
254.261	235.88
254.494	232.88
254.727	259.88
254.96	302.88
255.193	292.88
255.426	270.88
255.659	250.88
255.892	247.88
256.124	240.88
256.357	245.88
256.59	234.88
256.823	240.88
257.056	216.88
257.289	219.88
257.521	213.88
257.754	214.88
257.987	224.88
258.22	229.88
258.452	214.88
258.685	224.88
258.918	212.88
259.151	221.88
259.383	227.88
259.616	229.88
259.849	249.88
260.081	274.88
260.314	260.88
260.547	281.88
260.779	273.88
261.012	254.88
261.244	246.88
261.477	249.88
261.71	231.88
261.942	251.88
262.175	256.88
262.407	233.88
262.64	236.88
262.872	212.88
263.105	209.88
263.337	208.88
263.57	212.88
263.802	208.88
264.035	224.88
264.267	221.88
264.499	217.88
264.732	242.88
264.964	225.88
265.197	217.88
265.429	220.88
265.661	224.88
265.894	207.88
266.126	227.88
266.358	230.88
266.591	216.88
266.823	230.88
267.055	227.88
267.287	240.88
267.52	256.88
267.752	253.88
267.984	225.88
268.216	244.88
268.448	233.88
268.681	244.88
268.913	258.88
269.145	275.88
269.377	292.88
269.609	299.88
269.841	271.88
270.073	292.88
270.306	309.88
270.538	326.88
270.77	334.88
271.002	303.88
271.234	324.88
271.466	315.88
271.698	329.88
271.93	337.88
272.162	328.88
272.394	339.88
272.626	331.88
272.858	293.88
273.09	310.88
273.322	293.88
273.553	289.88
273.785	286.88
274.017	293.88
274.249	278.88
274.481	279.88
274.713	283.88
274.945	270.88
275.176	273.88
275.408	282.88
275.64	265.88
275.872	275.88
276.104	261.88
276.335	279.88
276.567	288.88
276.799	309.88
277.031	322.88
277.262	345.88
277.494	342.88
277.726	314.88
277.957	308.88
278.189	290.88
278.421	294.88
278.652	274.88
278.884	296.88
279.115	289.88
279.347	268.88
279.579	280.88
279.81	288.88
280.042	265.88
280.273	281.88
280.505	268.88
280.736	278.88
280.968	280.88
281.199	295.88
281.431	280.88
281.662	266.88
281.894	278.88
282.125	284.88
282.356	288.88
282.588	304.88
282.819	333.88
283.051	289.88
283.282	291.88
283.513	292.88
283.745	271.88
283.976	297.88
284.207	294.88
284.439	299.88
284.67	286.88
284.901	293.88
285.132	282.88
285.364	271.88
285.595	286.88
285.826	275.88
286.057	270.88
286.288	268.88
286.52	288.88
286.751	290.88
286.982	300.88
287.213	292.88
287.444	302.88
287.675	293.88
287.906	309.88
288.138	318.88
288.369	316.88
288.6	328.88
288.831	300.88
289.062	298.88
289.293	292.88
289.524	313.88
289.755	290.88
289.986	272.88
290.217	295.88
290.448	288.88
290.679	298.88
290.91	286.88
291.141	296.88
291.371	286.88
291.602	302.88
291.833	284.88
292.064	291.88
292.295	293.88
292.526	274.88
292.757	295.88
292.987	292.88
293.218	278.88
293.449	291.88
293.68	283.88
293.91	293.88
294.141	294.88
294.372	265.88
294.603	291.88
294.833	292.88
295.064	281.88
295.295	308.88
295.525	295.88
295.756	308.88
295.987	285.88
296.217	340.88
296.448	335.88
296.679	313.88
296.909	283.88
297.14	309.88
297.37	311.88
297.601	304.88
297.831	294.88
298.062	284.88
298.292	326.88
298.523	295.88
298.753	317.88
298.984	308.88
299.214	302.88
299.445	293.88
299.675	320.88
299.905	319.88
300.136	309.88
300.366	297.88
300.597	311.88
300.827	308.88
301.057	312.88
301.288	326.88
301.518	304.88
301.748	334.88
301.979	324.88
302.209	333.88
302.439	318.88
302.669	326.88
302.9	317.88
303.13	331.88
303.36	340.88
303.59	337.88
303.82	349.88
304.051	350.88
304.281	333.88
304.511	336.88
304.741	340.88
304.971	327.88
305.201	293.88
305.431	316.88
305.661	317.88
305.891	317.88
306.121	332.88
306.352	343.88
306.582	340.88
306.812	318.88
307.042	329.88
307.272	332.88
307.502	340.88
307.731	322.88
307.961	352.88
308.191	332.88
308.421	345.88
308.651	334.88
308.881	358.88
309.111	340.88
309.341	356.88
309.571	353.88
309.8	353.88
310.03	374.88
310.26	405.88
310.49	379.88
310.72	395.88
310.949	423.88
311.179	409.88
311.409	412.88
311.639	388.88
311.868	398.88
312.098	394.88
312.328	411.88
312.557	432.88
312.787	449.88
313.017	422.88
313.246	404.88
313.476	395.88
313.706	394.88
313.935	406.88
314.165	400.88
314.394	402.88
314.624	411.88
314.853	386.88
315.083	387.88
315.312	386.88
315.542	395.88
315.771	361.88
316.001	396.88
316.23	380.88
316.46	388.88
316.689	393.88
316.919	381.88
317.148	386.88
317.377	404.88
317.607	392.88
317.836	389.88
318.065	402.88
318.295	387.88
318.524	374.88
318.753	384.88
318.983	395.88
319.212	371.88
319.441	394.88
319.67	389.88
319.9	387.88
320.129	390.88
320.358	398.88
320.587	401.88
320.816	412.88
321.046	410.88
321.275	413.88
321.504	424.88
321.733	416.88
321.962	424.88
322.191	449.88
322.42	475.88
322.649	463.88
322.878	509.88
323.108	502.88
323.337	539.88
323.566	579.88
323.795	608.88
324.024	686.88
324.253	811.88
324.482	1218.88
324.71	1871.88
324.939	2540.88
325.168	2128.88
325.397	1178.88
325.626	776.88
325.855	638.88
326.084	590.88
326.313	577.88
326.542	580.88
326.77	629.88
326.999	774.88
327.228	1089.88
327.457	1605.88
327.686	1882.88
327.914	1216.88
328.143	830.88
328.372	692.88
328.6	660.88
328.829	624.88
329.058	653.88
329.287	631.88
329.515	611.88
329.744	576.88
329.972	560.88
330.201	590.88
330.43	627.88
330.658	652.88
330.887	682.88
331.115	662.88
331.344	557.88
331.572	525.88
331.801	524.88
332.03	523.88
332.258	488.88
332.486	450.88
332.715	462.88
332.943	448.88
333.172	475.88
333.4	464.88
333.629	484.88
333.857	490.88
334.085	498.88
334.314	512.88
334.542	525.88
334.771	550.88
334.999	504.88
335.227	481.88
335.455	460.88
335.684	446.88
335.912	449.88
336.14	444.88
336.369	454.88
336.597	460.88
336.825	475.88
337.053	428.88
337.281	440.88
337.51	432.88
337.738	409.88
337.966	427.88
338.194	441.88
338.422	437.88
338.65	416.88
338.878	406.88
339.106	433.88
339.334	401.88
339.562	443.88
339.79	427.88
340.018	413.88
340.246	409.88
340.474	435.88
340.702	415.88
340.93	421.88
341.158	418.88
341.386	416.88
341.614	425.88
341.842	427.88
342.07	420.88
342.298	435.88
342.526	411.88
342.754	418.88
342.981	404.88
343.209	374.88
343.437	405.88
343.665	415.88
343.893	411.88
344.12	417.88
344.348	422.88
344.576	429.88
344.804	420.88
345.031	440.88
345.259	448.88
345.487	436.88
345.714	412.88
345.942	415.88
346.17	403.88
346.397	397.88
346.625	421.88
346.853	392.88
347.08	393.88
347.308	419.88
347.535	402.88
347.763	439.88
347.99	410.88
348.218	427.88
348.445	421.88
348.673	449.88
348.9	419.88
349.128	406.88
349.355	394.88
349.583	380.88
349.81	396.88
350.037	390.88
350.265	381.88
350.492	366.88
350.72	390.88
350.947	401.88
351.174	408.88
351.402	430.88
351.629	416.88
351.856	421.88
352.083	415.88
352.311	428.88
352.538	440.88
352.765	414.88
352.992	436.88
353.22	428.88
353.447	416.88
353.674	400.88
353.901	390.88
354.128	364.88
354.355	379.88
354.583	355.88
354.81	370.88
355.037	372.88
355.264	363.88
355.491	349.88
355.718	357.88
355.945	371.88
356.172	357.88
356.399	365.88
356.626	348.88
356.853	371.88
357.08	362.88
357.307	347.88
357.534	368.88
357.761	371.88
357.988	370.88
358.215	381.88
358.441	379.88
358.668	368.88
358.895	371.88
359.122	376.88
359.349	399.88
359.576	394.88
359.802	428.88
360.029	461.88
360.256	476.88
360.483	441.88
360.709	409.88
360.936	385.88
361.163	396.88
361.39	419.88
361.616	415.88
361.843	397.88
362.07	405.88
362.296	390.88
362.523	405.88
362.749	395.88
362.976	394.88
363.203	391.88
363.429	399.88
363.656	389.88
363.882	394.88
364.109	377.88
364.335	391.88
364.562	389.88
364.788	374.88
365.015	380.88
365.241	379.88
365.468	375.88
365.694	380.88
365.92	373.88
366.147	350.88
366.373	364.88
366.599	364.88
366.826	379.88
367.052	376.88
367.278	377.88
367.505	358.88
367.731	380.88
367.957	365.88
368.184	380.88
368.41	370.88
368.636	400.88
368.862	381.88
369.089	370.88
369.315	359.88
369.541	378.88
369.767	376.88
369.993	361.88
370.219	355.88
370.445	365.88
370.672	362.88
370.898	368.88
371.124	344.88
371.35	360.88
371.576	357.88
371.802	361.88
372.028	355.88
372.254	348.88
372.48	352.88
372.706	331.88
372.932	342.88
373.158	365.88
373.384	352.88
373.61	347.88
373.835	371.88
374.061	360.88
374.287	374.88
374.513	359.88
374.739	360.88
374.965	364.88
375.191	365.88
375.416	362.88
375.642	363.88
375.868	372.88
376.094	362.88
376.319	360.88
376.545	353.88
376.771	348.88
376.997	354.88
377.222	354.88
377.448	346.88
377.674	343.88
377.899	352.88
378.125	353.88
378.35	339.88
378.576	369.88
378.802	353.88
379.027	340.88
379.253	354.88
379.478	351.88
379.704	348.88
379.929	351.88
380.155	356.88
380.38	354.88
380.606	357.88
380.831	353.88
381.057	361.88
381.282	340.88
381.507	345.88
381.733	365.88
381.958	342.88
382.184	356.88
382.409	370.88
382.634	356.88
382.86	347.88
383.085	354.88
383.31	354.88
383.535	359.88
383.761	346.88
383.986	365.88
384.211	363.88
384.436	372.88
384.662	354.88
384.887	364.88
385.112	364.88
385.337	365.88
385.562	345.88
385.787	373.88
386.013	386.88
386.238	388.88
386.463	378.88
386.688	365.88
386.913	363.88
387.138	377.88
387.363	370.88
387.588	367.88
387.813	373.88
388.038	371.88
388.263	368.88
388.488	364.88
388.713	356.88
388.938	364.88
389.163	378.88
389.387	354.88
389.612	376.88
389.837	364.88
390.062	352.88
390.287	368.88
390.512	373.88
390.736	345.88
390.961	349.88
391.186	365.88
391.411	348.88
391.636	364.88
391.86	373.88
392.085	360.88
392.31	370.88
392.534	363.88
392.759	372.88
392.984	348.88
393.208	370.88
393.433	369.88
393.658	360.88
393.882	348.88
394.107	372.88
394.331	369.88
394.556	358.88
394.78	359.88
395.005	378.88
395.229	355.88
395.454	374.88
395.678	378.88
395.903	376.88
396.127	381.88
396.352	382.88
396.576	395.88
396.801	388.88
397.025	382.88
397.249	357.88
397.474	375.88
397.698	362.88
397.922	384.88
398.147	410.88
398.371	417.88
398.595	404.88
398.82	384.88
399.044	391.88
399.268	403.88
399.492	430.88
399.717	445.88
399.941	471.88
400.165	497.88
400.389	495.88
400.613	453.88
400.837	434.88
401.062	419.88
401.286	422.88
401.51	406.88
401.734	405.88
401.958	416.88
402.182	419.88
402.406	433.88
402.63	414.88
402.854	402.88
403.078	402.88
403.302	428.88
403.526	443.88
403.75	425.88
403.974	442.88
404.198	395.88
404.422	420.88
404.645	425.88
404.869	449.88
405.093	472.88
405.317	508.88
405.541	523.88
405.765	466.88
405.988	436.88
406.212	421.88
406.436	485.88
406.66	477.88
406.883	467.88
407.107	477.88
407.331	519.88
407.555	586.88
407.778	571.88
408.002	505.88
408.226	490.88
408.449	461.88
408.673	439.88
408.896	524.88
409.12	510.88
409.344	511.88
409.567	455.88
409.791	449.88
410.014	421.88
410.238	409.88
410.461	409.88
410.685	412.88
410.908	424.88
411.132	475.88
411.355	531.88
411.578	469.88
411.802	448.88
412.025	409.88
412.249	430.88
412.472	445.88
412.695	486.88
412.919	449.88
413.142	434.88
413.365	409.88
413.589	410.88
413.812	397.88
414.035	408.88
414.258	386.88
414.482	386.88
414.705	386.88
414.928	406.88
415.151	401.88
415.374	393.88
415.597	381.88
415.821	393.88
416.044	416.88
416.267	428.88
416.49	419.88
416.713	405.88
416.936	389.88
417.159	382.88
417.382	382.88
417.605	401.88
417.828	407.88
418.051	436.88
418.274	422.88
418.497	416.88
418.72	393.88
418.943	392.88
419.166	420.88
419.389	404.88
419.611	393.88
419.834	409.88
420.057	433.88
420.28	432.88
420.503	417.88
420.726	421.88
420.948	432.88
421.171	473.88
421.394	500.88
421.617	440.88
421.839	427.88
422.062	414.88
422.285	454.88
422.507	479.88
422.73	557.88
422.953	533.88
423.175	478.88
423.398	445.88
423.621	429.88
423.843	465.88
424.066	483.88
424.288	463.88
424.511	482.88
424.733	514.88
424.956	590.88
425.178	584.88
425.401	590.88
425.623	598.88
425.846	510.88
426.068	473.88
426.291	451.88
426.513	440.88
426.735	465.88
426.958	520.88
427.18	592.88
427.402	711.88
427.625	770.88
427.847	698.88
428.069	610.88
428.292	544.88
428.514	472.88
428.736	447.88
428.958	428.88
429.181	429.88
429.403	429.88
429.625	433.88
429.847	470.88
430.069	541.88
430.292	540.88
430.514	457.88
430.736	448.88
430.958	410.88
431.18	402.88
431.402	396.88
431.624	402.88
431.846	392.88
432.068	397.88
432.29	408.88
432.512	406.88
432.734	404.88
432.956	396.88
433.178	426.88
433.4	426.88
433.622	416.88
433.844	392.88
434.066	381.88
434.287	400.88
434.509	408.88
434.731	413.88
434.953	415.88
435.175	456.88
435.397	445.88
435.618	467.88
435.84	498.88
436.062	594.88
436.284	656.88
436.505	544.88
436.727	511.88
436.949	439.88
437.17	414.88
437.392	426.88
437.614	445.88
437.835	474.88
438.057	577.88
438.278	656.88
438.5	658.88
438.721	725.88
438.943	679.88
439.165	571.88
439.386	517.88
439.608	498.88
439.829	500.88
440.05	555.88
440.272	558.88
440.493	528.88
440.715	480.88
440.936	460.88
441.158	438.88
441.379	440.88
441.6	449.88
441.822	457.88
442.043	511.88
442.264	580.88
442.486	612.88
442.707	517.88
442.928	488.88
443.149	494.88
443.371	502.88
443.592	536.88
443.813	634.88
444.034	667.88
444.255	552.88
444.476	507.88
444.698	462.88
444.919	453.88
445.14	551.88
445.361	536.88
445.582	504.88
445.803	578.88
446.024	676.88
446.245	696.88
446.466	610.88
446.687	534.88
446.908	479.88
447.129	458.88
447.35	442.88
447.571	436.88
447.792	438.88
448.013	452.88
448.234	467.88
448.455	501.88
448.675	634.88
448.896	698.88
449.117	612.88
449.338	584.88
449.559	661.88
449.779	738.88
450	633.88
450.221	496.88
450.442	452.88
450.662	437.88
450.883	429.88
451.104	462.88
451.324	444.88
451.545	432.88
451.766	410.88
451.986	396.88
452.207	397.88
452.428	384.88
452.648	398.88
452.869	388.88
453.089	397.88
453.31	409.88
453.53	408.88
453.751	396.88
453.971	386.88
454.192	418.88
454.412	393.88
454.633	381.88
454.853	379.88
455.073	378.88
455.294	428.88
455.514	463.88
455.734	472.88
455.955	388.88
456.175	382.88
456.395	368.88
456.616	353.88
456.836	366.88
457.056	348.88
457.276	350.88
457.497	369.88
457.717	350.88
457.937	349.88
458.157	361.88
458.377	368.88
458.598	422.88
458.818	466.88
459.038	533.88
459.258	554.88
459.478	461.88
459.698	416.88
459.918	414.88
460.138	390.88
460.358	410.88
460.578	390.88
460.798	404.88
461.018	381.88
461.238	401.88
461.458	382.88
461.678	400.88
461.898	397.88
462.118	395.88
462.338	399.88
462.558	408.88
462.777	400.88
462.997	394.88
463.217	414.88
463.437	401.88
463.657	414.88
463.876	424.88
464.096	416.88
464.316	409.88
464.536	407.88
464.755	432.88
464.975	432.88
465.195	493.88
465.414	563.88
465.634	488.88
465.854	407.88
466.073	399.88
466.293	398.88
466.512	384.88
466.732	383.88
466.951	390.88
467.171	386.88
467.391	372.88
467.61	402.88
467.829	397.88
468.049	406.88
468.268	393.88
468.488	415.88
468.707	377.88
468.927	372.88
469.146	376.88
469.365	378.88
469.585	376.88
469.804	385.88
470.023	392.88
470.243	406.88
470.462	392.88
470.681	424.88
470.901	397.88
471.12	387.88
471.339	394.88
471.558	396.88
471.777	399.88
471.997	396.88
472.216	414.88
472.435	424.88
472.654	407.88
472.873	416.88
473.092	413.88
473.311	398.88
473.53	402.88
473.749	412.88
473.968	452.88
474.187	560.88
474.406	604.88
474.625	462.88
474.844	410.88
475.063	396.88
475.282	413.88
475.501	399.88
475.72	392.88
475.939	404.88
476.158	412.88
476.377	404.88
476.596	390.88
476.814	420.88
477.033	427.88
477.252	426.88
477.471	422.88
477.69	420.88
477.908	422.88
478.127	401.88
478.346	411.88
478.564	418.88
478.783	442.88
479.002	442.88
479.22	440.88
479.439	474.88
479.658	460.88
479.876	460.88
480.095	489.88
480.313	509.88
480.532	486.88
480.751	497.88
480.969	493.88
481.188	552.88
481.406	574.88
481.624	503.88
481.843	508.88
482.061	467.88
482.28	473.88
482.498	447.88
482.717	462.88
482.935	462.88
483.153	463.88
483.372	449.88
483.59	492.88
483.808	467.88
484.027	473.88
484.245	464.88
484.463	483.88
484.681	460.88
484.9	459.88
485.118	454.88
485.336	443.88
485.554	475.88
485.772	491.88
485.99	479.88
486.209	476.88
486.427	480.88
486.645	492.88
486.863	500.88
487.081	518.88
487.299	486.88
487.517	521.88
487.735	504.88
487.953	504.88
488.171	521.88
488.389	514.88
488.607	518.88
488.825	500.88
489.043	512.88
489.261	513.88
489.479	514.88
489.696	517.88
489.914	503.88
490.132	528.88
490.35	520.88
490.568	523.88
490.786	541.88
491.003	528.88
491.221	547.88
491.439	550.88
491.657	578.88
491.874	559.88
492.092	553.88
492.31	554.88
492.527	586.88
492.745	558.88
492.963	586.88
493.18	583.88
493.398	594.88
493.615	581.88
493.833	573.88
494.05	582.88
494.268	560.88
494.485	578.88
494.703	598.88
494.92	595.88
495.138	592.88
495.355	573.88
495.573	596.88
495.79	596.88
496.008	615.88
496.225	589.88
496.442	583.88
496.66	601.88
496.877	604.88
497.094	615.88
497.312	609.88
497.529	604.88
497.746	591.88
497.963	614.88
498.181	646.88
498.398	622.88
498.615	643.88
498.832	662.88
499.049	639.88
499.267	624.88
499.484	701.88
499.701	685.88
499.918	706.88
500.135	692.88
500.352	720.88
500.569	711.88
500.786	723.88
501.003	730.88
501.22	724.88
501.437	708.88
501.654	720.88
501.871	724.88
502.088	709.88
502.305	658.88
502.522	648.88
502.739	660.88
502.956	626.88
503.172	624.88
503.389	629.88
503.606	605.88
503.823	611.88
504.04	597.88
504.256	595.88
504.473	609.88
504.69	572.88
504.907	584.88
505.123	577.88
505.34	585.88
505.557	578.88
505.773	586.88
505.99	596.88
506.207	574.88
506.423	575.88
506.64	602.88
506.856	598.88
507.073	555.88
507.289	573.88
507.506	556.88
507.722	564.88
507.939	597.88
508.155	595.88
508.372	564.88
508.588	569.88
508.805	572.88
509.021	560.88
509.238	574.88
509.454	573.88
509.67	577.88
509.887	573.88
510.103	584.88
510.319	576.88
510.536	663.88
510.752	1152.88
510.968	915.88
511.184	600.88
511.401	588.88
511.617	561.88
511.833	545.88
512.049	526.88
512.265	529.88
512.481	548.88
512.698	541.88
512.914	541.88
513.13	544.88
513.346	520.88
513.562	532.88
513.778	541.88
513.994	523.88
514.21	556.88
514.426	584.88
514.642	621.88
514.858	649.88
515.074	689.88
515.29	866.88
515.506	1315.88
515.721	1037.88
515.937	685.88
516.153	622.88
516.369	581.88
516.585	546.88
516.801	565.88
517.016	523.88
517.232	514.88
517.448	545.88
517.664	537.88
517.879	547.88
518.095	556.88
518.311	522.88
518.527	525.88
518.742	519.88
518.958	505.88
519.173	524.88
519.389	523.88
519.605	553.88
519.82	546.88
520.036	553.88
520.251	564.88
520.467	620.88
520.682	623.88
520.898	632.88
521.113	656.88
521.329	708.88
521.544	779.88
521.76	1042.88
521.975	1746.88
522.19	1621.88
522.406	888.88
522.621	652.88
522.836	601.88
523.052	557.88
523.267	522.88
523.482	519.88
523.698	518.88
523.913	508.88
524.128	498.88
524.343	483.88
524.559	484.88
524.774	451.88
524.989	460.88
525.204	459.88
525.419	486.88
525.634	460.88
525.849	457.88
526.064	450.88
526.28	447.88
526.495	417.88
526.71	432.88
526.925	429.88
527.14	436.88
527.355	435.88
527.57	416.88
527.785	418.88
527.999	409.88
528.214	411.88
528.429	413.88
528.644	423.88
528.859	418.88
529.074	430.88
529.289	464.88
529.503	546.88
529.718	522.88
529.933	480.88
530.148	447.88
530.363	429.88
530.577	437.88
530.792	425.88
531.007	396.88
531.221	412.88
531.436	404.88
531.651	398.88
531.865	406.88
532.08	416.88
532.295	401.88
532.509	370.88
532.724	402.88
532.938	421.88
533.153	384.88
533.367	413.88
533.582	399.88
533.796	396.88
534.011	397.88
534.225	389.88
534.44	384.88
534.654	394.88
534.868	387.88
535.083	389.88
535.297	386.88
535.511	405.88
535.726	397.88
535.94	419.88
536.154	407.88
536.369	379.88
536.583	394.88
536.797	394.88
537.011	388.88
537.225	380.88
537.44	394.88
537.654	384.88
537.868	385.88
538.082	379.88
538.296	410.88
538.51	391.88
538.724	376.88
538.938	387.88
539.153	376.88
539.367	392.88
539.581	395.88
539.795	391.88
540.009	377.88
540.222	368.88
540.436	390.88
540.65	389.88
540.864	398.88
541.078	397.88
541.292	396.88
541.506	401.88
541.72	386.88
541.934	379.88
542.147	402.88
542.361	377.88
542.575	365.88
542.789	368.88
543.002	361.88
543.216	391.88
543.43	386.88
543.644	376.88
543.857	389.88
544.071	376.88
544.285	392.88
544.498	375.88
544.712	364.88
544.925	372.88
545.139	373.88
545.352	357.88
545.566	356.88
545.779	384.88
545.993	368.88
546.206	375.88
546.42	370.88
546.633	354.88
546.847	336.88
547.06	362.88
547.274	369.88
547.487	344.88
547.7	360.88
547.914	353.88
548.127	353.88
548.34	362.88
548.554	345.88
548.767	372.88
548.98	362.88
549.193	350.88
549.407	353.88
549.62	341.88
549.833	347.88
550.046	355.88
550.259	354.88
550.473	334.88
550.686	373.88
550.899	332.88
551.112	340.88
551.325	337.88
551.538	351.88
551.751	344.88
551.964	344.88
552.177	340.88
552.39	341.88
552.603	367.88
552.816	354.88
553.029	347.88
553.242	363.88
553.455	361.88
553.667	365.88
553.88	374.88
554.093	372.88
554.306	350.88
554.519	352.88
554.732	354.88
554.944	364.88
555.157	335.88
555.37	336.88
555.583	348.88
555.795	328.88
556.008	322.88
556.221	336.88
556.433	330.88
556.646	337.88
556.859	320.88
557.071	338.88
557.284	335.88
557.496	308.88
557.709	311.88
557.921	332.88
558.134	321.88
558.346	312.88
558.559	333.88
558.771	327.88
558.984	314.88
559.196	333.88
559.409	296.88
559.621	325.88
559.833	301.88
560.046	303.88
560.258	346.88
560.47	316.88
560.683	318.88
560.895	298.88
561.107	312.88
561.32	308.88
561.532	305.88
561.744	305.88
561.956	305.88
562.168	313.88
562.381	301.88
562.593	322.88
562.805	324.88
563.017	325.88
563.229	315.88
563.441	322.88
563.653	317.88
563.865	325.88
564.077	320.88
564.289	318.88
564.501	319.88
564.713	318.88
564.925	331.88
565.137	340.88
565.349	322.88
565.561	324.88
565.773	344.88
565.985	350.88
566.197	337.88
566.408	345.88
566.62	337.88
566.832	344.88
567.044	343.88
567.255	350.88
567.467	376.88
567.679	356.88
567.891	352.88
568.102	350.88
568.314	349.88
568.526	350.88
568.737	334.88
568.949	328.88
569.161	333.88
569.372	335.88
569.584	319.88
569.795	321.88
570.007	322.88
570.218	365.88
570.43	356.88
570.641	316.88
570.853	295.88
571.064	300.88
571.276	284.88
571.487	294.88
571.698	298.88
571.91	287.88
572.121	294.88
572.333	278.88
572.544	279.88
572.755	277.88
572.966	297.88
573.178	293.88
573.389	287.88
573.6	283.88
573.811	280.88
574.023	265.88
574.234	287.88
574.445	273.88
574.656	268.88
574.867	265.88
575.078	273.88
575.289	287.88
575.501	276.88
575.712	277.88
575.923	255.88
576.134	264.88
576.345	274.88
576.556	267.88
576.767	256.88
576.978	277.88
577.188	265.88
577.399	260.88
577.61	281.88
577.821	276.88
578.032	291.88
578.243	311.88
578.454	534.88
578.665	393.88
578.875	284.88
579.086	281.88
579.297	271.88
579.508	269.88
579.718	256.88
579.929	263.88
580.14	263.88
580.35	257.88
580.561	245.88
580.772	259.88
580.982	276.88
581.193	251.88
581.403	243.88
581.614	264.88
581.825	264.88
582.035	247.88
582.246	232.88
582.456	244.88
582.667	235.88
582.877	258.88
583.087	234.88
583.298	257.88
583.508	260.88
583.719	253.88
583.929	278.88
584.139	244.88
584.35	237.88
584.56	248.88
584.77	260.88
584.981	242.88
585.191	264.88
585.401	241.88
585.611	230.88
585.821	256.88
586.032	249.88
586.242	256.88
586.452	236.88
586.662	240.88
586.872	236.88
587.082	248.88
587.292	239.88
587.502	254.88
587.713	237.88
587.923	256.88
588.133	240.88
588.343	240.88
588.553	246.88
588.762	225.88
588.972	240.88
589.182	254.88
589.392	247.88
589.602	242.88
589.812	243.88
590.022	267.88
590.232	241.88
590.441	245.88
590.651	233.88
590.861	241.88
591.071	229.88
591.281	224.88
591.49	237.88
591.7	234.88
591.91	253.88
592.119	242.88
592.329	245.88
592.539	246.88
592.748	259.88
592.958	234.88
593.167	229.88
593.377	245.88
593.587	261.88
593.796	248.88
594.006	234.88
594.215	246.88
594.424	242.88
594.634	227.88
594.843	245.88
595.053	263.88
595.262	240.88
595.472	222.88
595.681	219.88
595.89	234.88
596.1	232.88
596.309	225.88
596.518	218.88
596.727	222.88
596.937	228.88
597.146	233.88
597.355	217.88
597.564	218.88
597.774	225.88
597.983	230.88
598.192	204.88
598.401	225.88
598.61	216.88
598.819	226.88
599.028	229.88
599.237	200.88
599.446	210.88
599.655	216.88
599.864	219.88
600.073	221.88
600.282	223.88
600.491	206.88
600.7	220.88
600.909	224.88
601.118	218.88
601.327	218.88
601.536	227.88
601.745	219.88
601.953	216.88
602.162	221.88
602.371	226.88
602.58	227.88
602.789	212.88
602.997	201.88
603.206	213.88
603.415	221.88
603.623	194.88
603.832	214.88
604.041	212.88
604.249	213.88
604.458	197.88
604.666	206.88
604.875	217.88
605.084	208.88
605.292	198.88
605.501	199.88
605.709	200.88
605.918	204.88
606.126	210.88
606.334	204.88
606.543	217.88
606.751	201.88
606.96	189.88
607.168	204.88
607.376	209.88
607.585	207.88
607.793	186.88
608.001	197.88
608.21	212.88
608.418	192.88
608.626	204.88
608.834	204.88
609.043	191.88
609.251	208.88
609.459	205.88
609.667	207.88
609.875	213.88
610.083	198.88
610.291	207.88
610.499	211.88
610.707	206.88
610.916	199.88
611.124	205.88
611.332	205.88
611.54	200.88
611.748	190.88
611.955	201.88
612.163	192.88
612.371	199.88
612.579	188.88
612.787	205.88
612.995	187.88
613.203	187.88
613.411	190.88
613.618	211.88
613.826	197.88
614.034	202.88
614.242	184.88
614.449	183.88
614.657	201.88
614.865	196.88
615.072	189.88
615.28	192.88
615.488	186.88
615.695	181.88
615.903	194.88
616.111	173.88
616.318	193.88
616.526	204.88
616.733	206.88
616.941	192.88
617.148	194.88
617.356	200.88
617.563	206.88
617.771	198.88
617.978	182.88
618.185	211.88
618.393	200.88
618.6	177.88
618.807	179.88
619.015	188.88
619.222	202.88
619.429	201.88
619.637	189.88
619.844	188.88
620.051	180.88
620.258	192.88
620.466	184.88
620.673	186.88
620.88	182.88
621.087	185.88
621.294	195.88
621.501	199.88
621.708	183.88
621.915	183.88
622.122	181.88
622.329	196.88
622.536	196.88
622.743	184.88
622.95	168.88
623.157	190.88
623.364	187.88
623.571	191.88
623.778	181.88
623.985	195.88
624.192	187.88
624.399	183.88
624.606	190.88
624.812	178.88
625.019	174.88
625.226	180.88
625.433	172.88
625.639	165.88
625.846	184.88
626.053	185.88
626.259	193.88
626.466	174.88
626.673	183.88
626.879	166.88
627.086	190.88
627.293	186.88
627.499	192.88
627.706	181.88
627.912	171.88
628.119	164.88
628.325	192.88
628.532	174.88
628.738	166.88
628.945	181.88
629.151	160.88
629.357	176.88
629.564	166.88
629.77	168.88
629.976	158.88
630.183	170.88
630.389	152.88
630.595	155.88
630.802	178.88
631.008	156.88
631.214	176.88
631.42	166.88
631.627	161.88
631.833	156.88
632.039	158.88
632.245	159.88
632.451	172.88
632.657	155.88
632.863	154.88
633.069	166.88
633.275	147.88
633.481	158.88
633.688	157.88
633.893	158.88
634.099	149.88
634.305	162.88
634.511	139.88
634.717	157.88
634.923	153.88
635.129	178.88
635.335	156.88
635.541	176.88
635.747	165.88
635.952	158.88
636.158	161.88
636.364	163.88
636.57	160.88
636.775	167.88
636.981	159.88
637.187	168.88
637.392	152.88
637.598	149.88
637.804	164.88
638.009	144.88
638.215	144.88
638.421	180.88
638.626	139.88
638.832	146.88
639.037	145.88
639.243	163.88
639.448	171.88
639.654	151.88
639.859	154.88
640.065	148.88
640.27	155.88
640.475	156.88
640.681	145.88
640.886	152.88
641.091	138.88
641.297	161.88
641.502	155.88
641.707	152.88
641.913	160.88
642.118	139.88
642.323	161.88
642.528	142.88
642.733	152.88
642.939	140.88
643.144	153.88
643.349	132.88
643.554	141.88
643.759	149.88
643.964	132.88
644.169	150.88
644.374	143.88
644.579	148.88
644.784	149.88
644.989	148.88
645.194	145.88
645.399	135.88
645.604	150.88
645.809	160.88
646.014	146.88
646.219	132.88
646.423	154.88
646.628	134.88
646.833	140.88
647.038	154.88
647.243	154.88
647.447	152.88
647.652	145.88
647.857	143.88
648.062	141.88
648.266	157.88
648.471	139.88
648.676	149.88
648.88	161.88
649.085	156.88
649.289	149.88
649.494	164.88
649.698	185.88
649.903	168.88
650.107	155.88
650.312	153.88
650.516	140.88
650.721	134.88
650.925	121.88
651.13	136.88
651.334	144.88
651.539	141.88
651.743	139.88
651.947	127.88
652.152	136.88
652.356	137.88
652.56	142.88
652.764	123.88
652.969	139.88
653.173	139.88
653.377	123.88
653.581	110.88
653.785	120.88
653.99	112.88
654.194	132.88
654.398	128.88
654.602	131.88
654.806	117.88
655.01	141.88
655.214	125.88
655.418	119.88
655.622	124.88
655.826	125.88
656.03	125.88
656.234	120.88
656.438	128.88
656.642	97.88
656.846	119.88
657.049	122.88
657.253	128.88
657.457	126.88
657.661	113.88
657.865	115.88
658.068	101.88
658.272	123.88
658.476	92.88
658.68	109.88
658.883	101.88
659.087	92.88
659.291	92.88
659.494	107.88
659.698	97.88
659.901	88.88
660.105	108.88
660.309	97.88
660.512	86.88
660.716	92.88
660.919	83.88
661.123	96.88
661.326	78.88
661.53	81.88
661.733	89.88
661.936	98.88
662.14	83.88
662.343	86.88
662.546	77.88
662.75	72.88
662.953	78.88
663.156	88.88
663.36	98.88
663.563	88.88
663.766	85.88
663.969	77.88
664.173	94.88
664.376	84.88
664.579	73.88
664.782	87.88
664.985	93.88
665.188	82.88
665.391	86.88
665.594	85.88
665.797	86.88
666	84.88
666.203	96.88
666.406	75.88
666.609	93.88
666.812	69.88
667.015	80.88
667.218	84.88
667.421	88.88
667.624	74.88
667.827	79.88
668.03	70.88
668.232	85.88
668.435	75.88
668.638	77.88
668.841	79.88
669.043	82.88
669.246	60.88
669.449	79.88
669.651	86.88
669.854	75.88
670.057	89.88
670.259	88.88
670.462	85.88
670.665	79.88
670.867	81.88
671.07	84.88
671.272	78.88
671.475	73.88
671.677	80.88
671.88	94.88
672.082	75.88
672.284	80.88
672.487	71.88
672.689	76.88
672.892	82.88
