Data from 1982.PennyLincolnUp.Lamp.En5.5.200Scan.071819.P1_HRD10591_16-47-42-962.txt Node
Date: Thu Jul 18 16:47:42 EDT 2019
User: cochatt
Spectrometer: HR+D1059
Trigger mode: 1
Integration Time (sec): 1.000000E-1
Scans to average: 1
Electric dark correction enabled: true
Nonlinearity correction enabled: false
Boxcar width: 0
XAxis mode: Wavelengths
Number of Pixels in Spectrum: 2048
>>>>>Begin Spectral Data<<<<<
223.165	-21.62
223.4	-21.62
223.635	-21.62
223.869	-17.62
224.104	-22.62
224.338	-6.62
224.573	-15.62
224.808	-6.62
225.042	-13.62
225.277	-8.62
225.511	-4.62
225.746	20.38
225.98	-2.62
226.215	13.38
226.449	14.38
226.683	26.38
226.918	23.38
227.152	22.38
227.387	28.38
227.621	42.38
227.856	34.38
228.09	27.38
228.324	39.38
228.559	41.38
228.793	69.38
229.027	87.38
229.262	104.38
229.496	114.38
229.73	113.38
229.964	140.38
230.199	108.38
230.433	97.38
230.667	96.38
230.901	120.38
231.136	118.38
231.37	98.38
231.604	103.38
231.838	112.38
232.072	103.38
232.306	101.38
232.541	103.38
232.775	115.38
233.009	121.38
233.243	103.38
233.477	101.38
233.711	115.38
233.945	92.38
234.179	108.38
234.413	94.38
234.647	118.38
234.881	118.38
235.115	107.38
235.349	119.38
235.583	108.38
235.817	119.38
236.051	119.38
236.285	103.38
236.519	123.38
236.753	110.38
236.987	124.38
237.221	165.38
237.455	186.38
237.689	161.38
237.922	131.38
238.156	103.38
238.39	123.38
238.624	97.38
238.858	102.38
239.091	101.38
239.325	98.38
239.559	116.38
239.793	108.38
240.027	122.38
240.26	117.38
240.494	131.38
240.728	132.38
240.961	129.38
241.195	128.38
241.429	121.38
241.662	116.38
241.896	119.38
242.13	115.38
242.363	125.38
242.597	127.38
242.83	116.38
243.064	118.38
243.298	104.38
243.531	131.38
243.765	116.38
243.998	113.38
244.232	120.38
244.465	111.38
244.699	128.38
244.932	116.38
245.166	124.38
245.399	114.38
245.633	108.38
245.866	119.38
246.099	121.38
246.333	130.38
246.566	128.38
246.8	125.38
247.033	133.38
247.266	127.38
247.5	129.38
247.733	129.38
247.966	132.38
248.2	150.38
248.433	147.38
248.666	149.38
248.899	143.38
249.133	168.38
249.366	177.38
249.599	163.38
249.832	166.38
250.066	156.38
250.299	154.38
250.532	171.38
250.765	147.38
250.998	200.38
251.231	181.38
251.465	187.38
251.698	159.38
251.931	152.38
252.164	161.38
252.397	151.38
252.63	165.38
252.863	167.38
253.096	171.38
253.329	197.38
253.562	207.38
253.795	188.38
254.028	196.38
254.261	172.38
254.494	202.38
254.727	203.38
254.96	224.38
255.193	213.38
255.426	203.38
255.659	197.38
255.892	188.38
256.124	198.38
256.357	199.38
256.59	205.38
256.823	191.38
257.056	173.38
257.289	159.38
257.521	163.38
257.754	170.38
257.987	162.38
258.22	183.38
258.452	169.38
258.685	167.38
258.918	171.38
259.151	185.38
259.383	186.38
259.616	195.38
259.849	180.38
260.081	199.38
260.314	210.38
260.547	206.38
260.779	205.38
261.012	183.38
261.244	191.38
261.477	191.38
261.71	177.38
261.942	182.38
262.175	168.38
262.407	193.38
262.64	177.38
262.872	189.38
263.105	190.38
263.337	184.38
263.57	178.38
263.802	166.38
264.035	165.38
264.267	169.38
264.499	182.38
264.732	181.38
264.964	181.38
265.197	181.38
265.429	168.38
265.661	189.38
265.894	172.38
266.126	168.38
266.358	193.38
266.591	182.38
266.823	178.38
267.055	177.38
267.287	198.38
267.52	173.38
267.752	193.38
267.984	196.38
268.216	186.38
268.448	191.38
268.681	208.38
268.913	201.38
269.145	219.38
269.377	240.38
269.609	227.38
269.841	231.38
270.073	214.38
270.306	246.38
270.538	261.38
270.77	251.38
271.002	229.38
271.234	227.38
271.466	236.38
271.698	265.38
271.93	267.38
272.162	259.38
272.394	244.38
272.626	230.38
272.858	219.38
273.09	234.38
273.322	228.38
273.553	216.38
273.785	223.38
274.017	215.38
274.249	208.38
274.481	231.38
274.713	222.38
274.945	225.38
275.176	210.38
275.408	191.38
275.64	227.38
275.872	210.38
276.104	220.38
276.335	221.38
276.567	228.38
276.799	235.38
277.031	260.38
277.262	272.38
277.494	260.38
277.726	241.38
277.957	226.38
278.189	213.38
278.421	230.38
278.652	212.38
278.884	222.38
279.115	230.38
279.347	232.38
279.579	215.38
279.81	213.38
280.042	223.38
280.273	196.38
280.505	193.38
280.736	215.38
280.968	208.38
281.199	213.38
281.431	230.38
281.662	225.38
281.894	213.38
282.125	204.38
282.356	241.38
282.588	247.38
282.819	245.38
283.051	214.38
283.282	207.38
283.513	215.38
283.745	237.38
283.976	211.38
284.207	225.38
284.439	218.38
284.67	233.38
284.901	194.38
285.132	222.38
285.364	212.38
285.595	229.38
285.826	207.38
286.057	227.38
286.288	226.38
286.52	212.38
286.751	208.38
286.982	226.38
287.213	220.38
287.444	202.38
287.675	214.38
287.906	242.38
288.138	240.38
288.369	250.38
288.6	238.38
288.831	232.38
289.062	224.38
289.293	239.38
289.524	209.38
289.755	219.38
289.986	217.38
290.217	223.38
290.448	246.38
290.679	236.38
290.91	217.38
291.141	235.38
291.371	234.38
291.602	236.38
291.833	228.38
292.064	231.38
292.295	230.38
292.526	214.38
292.757	236.38
292.987	233.38
293.218	231.38
293.449	225.38
293.68	225.38
293.91	233.38
294.141	239.38
294.372	220.38
294.603	231.38
294.833	218.38
295.064	220.38
295.295	241.38
295.525	236.38
295.756	238.38
295.987	231.38
296.217	268.38
296.448	255.38
296.679	236.38
296.909	230.38
297.14	230.38
297.37	231.38
297.601	225.38
297.831	230.38
298.062	225.38
298.292	241.38
298.523	237.38
298.753	239.38
298.984	243.38
299.214	228.38
299.445	249.38
299.675	234.38
299.905	248.38
300.136	253.38
300.366	242.38
300.597	223.38
300.827	264.38
301.057	241.38
301.288	266.38
301.518	252.38
301.748	247.38
301.979	229.38
302.209	254.38
302.439	251.38
302.669	252.38
302.9	249.38
303.13	250.38
303.36	245.38
303.59	257.38
303.82	264.38
304.051	276.38
304.281	250.38
304.511	267.38
304.741	254.38
304.971	258.38
305.201	262.38
305.431	247.38
305.661	264.38
305.891	246.38
306.121	254.38
306.352	262.38
306.582	260.38
306.812	262.38
307.042	256.38
307.272	287.38
307.502	257.38
307.731	248.38
307.961	270.38
308.191	265.38
308.421	258.38
308.651	260.38
308.881	264.38
309.111	276.38
309.341	263.38
309.571	285.38
309.8	291.38
310.03	298.38
310.26	293.38
310.49	309.38
310.72	306.38
310.949	319.38
311.179	321.38
311.409	297.38
311.639	289.38
311.868	301.38
312.098	308.38
312.328	321.38
312.557	305.38
312.787	318.38
313.017	335.38
313.246	309.38
313.476	294.38
313.706	289.38
313.935	319.38
314.165	313.38
314.394	323.38
314.624	318.38
314.853	307.38
315.083	309.38
315.312	315.38
315.542	293.38
315.771	275.38
316.001	292.38
316.23	281.38
316.46	272.38
316.689	285.38
316.919	296.38
317.148	315.38
317.377	293.38
317.607	301.38
317.836	296.38
318.065	301.38
318.295	282.38
318.524	283.38
318.753	288.38
318.983	289.38
319.212	292.38
319.441	293.38
319.67	305.38
319.9	302.38
320.129	297.38
320.358	294.38
320.587	305.38
320.816	310.38
321.046	321.38
321.275	320.38
321.504	320.38
321.733	324.38
321.962	325.38
322.191	335.38
322.42	349.38
322.649	361.38
322.878	372.38
323.108	375.38
323.337	385.38
323.566	397.38
323.795	446.38
324.024	515.38
324.253	629.38
324.482	969.38
324.71	1413.38
324.939	1870.38
325.168	1454.38
325.397	810.38
325.626	531.38
325.855	441.38
326.084	443.38
326.313	412.38
326.542	399.38
326.77	462.38
326.999	595.38
327.228	833.38
327.457	1216.38
327.686	1333.38
327.914	891.38
328.143	599.38
328.372	505.38
328.6	478.38
328.829	447.38
329.058	466.38
329.287	472.38
329.515	425.38
329.744	420.38
329.972	420.38
330.201	441.38
330.43	457.38
330.658	477.38
330.887	502.38
331.115	460.38
331.344	417.38
331.572	391.38
331.801	392.38
332.03	374.38
332.258	364.38
332.486	369.38
332.715	345.38
332.943	352.38
333.172	350.38
333.4	370.38
333.629	347.38
333.857	371.38
334.085	380.38
334.314	398.38
334.542	413.38
334.771	395.38
334.999	386.38
335.227	366.38
335.455	319.38
335.684	340.38
335.912	359.38
336.14	343.38
336.369	339.38
336.597	343.38
336.825	329.38
337.053	326.38
337.281	316.38
337.51	317.38
337.738	351.38
337.966	344.38
338.194	355.38
338.422	342.38
338.65	331.38
338.878	323.38
339.106	314.38
339.334	327.38
339.562	321.38
339.79	322.38
340.018	308.38
340.246	313.38
340.474	325.38
340.702	328.38
340.93	338.38
341.158	306.38
341.386	305.38
341.614	325.38
341.842	324.38
342.07	324.38
342.298	320.38
342.526	297.38
342.754	331.38
342.981	307.38
343.209	312.38
343.437	313.38
343.665	321.38
343.893	318.38
344.12	311.38
344.348	325.38
344.576	330.38
344.804	311.38
345.031	330.38
345.259	338.38
345.487	332.38
345.714	324.38
345.942	325.38
346.17	310.38
346.397	304.38
346.625	315.38
346.853	322.38
347.08	335.38
347.308	324.38
347.535	311.38
347.763	317.38
347.99	327.38
348.218	338.38
348.445	341.38
348.673	321.38
348.9	317.38
349.128	321.38
349.355	302.38
349.583	297.38
349.81	295.38
350.037	311.38
350.265	296.38
350.492	291.38
350.72	314.38
350.947	331.38
351.174	308.38
351.402	332.38
351.629	318.38
351.856	302.38
352.083	340.38
352.311	326.38
352.538	331.38
352.765	336.38
352.992	335.38
353.22	289.38
353.447	317.38
353.674	313.38
353.901	297.38
354.128	282.38
354.355	285.38
354.583	298.38
354.81	292.38
355.037	306.38
355.264	284.38
355.491	293.38
355.718	286.38
355.945	289.38
356.172	294.38
356.399	290.38
356.626	287.38
356.853	281.38
357.08	279.38
357.307	281.38
357.534	295.38
357.761	271.38
357.988	292.38
358.215	303.38
358.441	278.38
358.668	302.38
358.895	290.38
359.122	292.38
359.349	295.38
359.576	310.38
359.802	321.38
360.029	354.38
360.256	340.38
360.483	334.38
360.709	334.38
360.936	301.38
361.163	332.38
361.39	310.38
361.616	307.38
361.843	295.38
362.07	309.38
362.296	284.38
362.523	322.38
362.749	299.38
362.976	297.38
363.203	292.38
363.429	269.38
363.656	293.38
363.882	277.38
364.109	291.38
364.335	278.38
364.562	310.38
364.788	278.38
365.015	283.38
365.241	280.38
365.468	280.38
365.694	301.38
365.92	300.38
366.147	290.38
366.373	289.38
366.599	284.38
366.826	283.38
367.052	289.38
367.278	303.38
367.505	266.38
367.731	288.38
367.957	299.38
368.184	282.38
368.41	297.38
368.636	301.38
368.862	301.38
369.089	287.38
369.315	293.38
369.541	279.38
369.767	270.38
369.993	281.38
370.219	281.38
370.445	294.38
370.672	276.38
370.898	282.38
371.124	273.38
371.35	269.38
371.576	281.38
371.802	284.38
372.028	281.38
372.254	284.38
372.48	279.38
372.706	275.38
372.932	278.38
373.158	278.38
373.384	266.38
373.61	269.38
373.835	273.38
374.061	275.38
374.287	282.38
374.513	265.38
374.739	277.38
374.965	283.38
375.191	269.38
375.416	282.38
375.642	276.38
375.868	297.38
376.094	268.38
376.319	286.38
376.545	276.38
376.771	280.38
376.997	283.38
377.222	275.38
377.448	275.38
377.674	282.38
377.899	285.38
378.125	270.38
378.35	277.38
378.576	279.38
378.802	283.38
379.027	274.38
379.253	285.38
379.478	266.38
379.704	282.38
379.929	254.38
380.155	268.38
380.38	276.38
380.606	302.38
380.831	281.38
381.057	287.38
381.282	285.38
381.507	279.38
381.733	275.38
381.958	270.38
382.184	280.38
382.409	283.38
382.634	299.38
382.86	265.38
383.085	286.38
383.31	279.38
383.535	293.38
383.761	279.38
383.986	301.38
384.211	278.38
384.436	277.38
384.662	282.38
384.887	293.38
385.112	261.38
385.337	277.38
385.562	285.38
385.787	283.38
386.013	297.38
386.238	288.38
386.463	279.38
386.688	275.38
386.913	266.38
387.138	279.38
387.363	279.38
387.588	282.38
387.813	287.38
388.038	291.38
388.263	289.38
388.488	284.38
388.713	295.38
388.938	294.38
389.163	289.38
389.387	280.38
389.612	277.38
389.837	273.38
390.062	286.38
390.287	279.38
390.512	281.38
390.736	295.38
390.961	297.38
391.186	297.38
391.411	283.38
391.636	302.38
391.86	277.38
392.085	275.38
392.31	293.38
392.534	276.38
392.759	278.38
392.984	282.38
393.208	287.38
393.433	282.38
393.658	293.38
393.882	277.38
394.107	285.38
394.331	282.38
394.556	287.38
394.78	277.38
395.005	294.38
395.229	290.38
395.454	293.38
395.678	303.38
395.903	287.38
396.127	294.38
396.352	327.38
396.576	307.38
396.801	279.38
397.025	283.38
397.249	301.38
397.474	297.38
397.698	299.38
397.922	314.38
398.147	331.38
398.371	311.38
398.595	318.38
398.82	294.38
399.044	313.38
399.268	327.38
399.492	336.38
399.717	329.38
399.941	345.38
400.165	373.38
400.389	385.38
400.613	336.38
400.837	349.38
401.062	330.38
401.286	327.38
401.51	311.38
401.734	317.38
401.958	330.38
402.182	315.38
402.406	317.38
402.63	320.38
402.854	311.38
403.078	321.38
403.302	333.38
403.526	349.38
403.75	335.38
403.974	314.38
404.198	306.38
404.422	318.38
404.645	336.38
404.869	337.38
405.093	342.38
405.317	383.38
405.541	379.38
405.765	362.38
405.988	348.38
406.212	342.38
406.436	382.38
406.66	368.38
406.883	365.38
407.107	401.38
407.331	393.38
407.555	433.38
407.778	440.38
408.002	403.38
408.226	383.38
408.449	370.38
408.673	363.38
408.896	375.38
409.12	409.38
409.344	364.38
409.567	349.38
409.791	320.38
410.014	329.38
410.238	317.38
410.461	328.38
410.685	328.38
410.908	331.38
411.132	359.38
411.355	377.38
411.578	359.38
411.802	339.38
412.025	323.38
412.249	340.38
412.472	343.38
412.695	362.38
412.919	341.38
413.142	313.38
413.365	333.38
413.589	312.38
413.812	314.38
414.035	320.38
414.258	310.38
414.482	309.38
414.705	302.38
414.928	289.38
415.151	299.38
415.374	316.38
415.597	305.38
415.821	313.38
416.044	309.38
416.267	321.38
416.49	321.38
416.713	300.38
416.936	341.38
417.159	317.38
417.382	311.38
417.605	319.38
417.828	321.38
418.051	317.38
418.274	325.38
418.497	311.38
418.72	315.38
418.943	317.38
419.166	324.38
419.389	327.38
419.611	310.38
419.834	312.38
420.057	323.38
420.28	326.38
420.503	314.38
420.726	318.38
420.948	333.38
421.171	364.38
421.394	374.38
421.617	346.38
421.839	309.38
422.062	327.38
422.285	341.38
422.507	366.38
422.73	425.38
422.953	401.38
423.175	366.38
423.398	331.38
423.621	342.38
423.843	357.38
424.066	350.38
424.288	340.38
424.511	377.38
424.733	395.38
424.956	446.38
425.178	437.38
425.401	411.38
425.623	452.38
425.846	362.38
426.068	347.38
426.291	345.38
426.513	359.38
426.735	360.38
426.958	406.38
427.18	447.38
427.402	513.38
427.625	576.38
427.847	495.38
428.069	443.38
428.292	424.38
428.514	353.38
428.736	360.38
428.958	333.38
429.181	325.38
429.403	330.38
429.625	355.38
429.847	346.38
430.069	418.38
430.292	394.38
430.514	340.38
430.736	328.38
430.958	321.38
431.18	311.38
431.402	310.38
431.624	297.38
431.846	306.38
432.068	290.38
432.29	318.38
432.512	317.38
432.734	310.38
432.956	305.38
433.178	314.38
433.4	311.38
433.622	327.38
433.844	299.38
434.066	302.38
434.287	298.38
434.509	307.38
434.731	315.38
434.953	328.38
435.175	317.38
435.397	350.38
435.618	342.38
435.84	397.38
436.062	445.38
436.284	484.38
436.505	406.38
436.727	377.38
436.949	361.38
437.17	334.38
437.392	325.38
437.614	356.38
437.835	382.38
438.057	446.38
438.278	486.38
438.5	515.38
438.721	523.38
438.943	482.38
439.165	398.38
439.386	356.38
439.608	365.38
439.829	375.38
440.05	393.38
440.272	433.38
440.493	406.38
440.715	365.38
440.936	343.38
441.158	333.38
441.379	335.38
441.6	355.38
441.822	350.38
442.043	386.38
442.264	450.38
442.486	443.38
442.707	385.38
442.928	350.38
443.149	381.38
443.371	378.38
443.592	417.38
443.813	488.38
444.034	499.38
444.255	414.38
444.476	378.38
444.698	361.38
444.919	346.38
445.14	466.38
445.361	400.38
445.582	389.38
445.803	423.38
446.024	539.38
446.245	503.38
446.466	451.38
446.687	412.38
446.908	350.38
447.129	350.38
447.35	355.38
447.571	346.38
447.792	358.38
448.013	346.38
448.234	349.38
448.455	419.38
448.675	470.38
448.896	537.38
449.117	431.38
449.338	421.38
449.559	502.38
449.779	543.38
450	442.38
450.221	393.38
450.442	338.38
450.662	326.38
450.883	343.38
451.104	356.38
451.324	329.38
451.545	323.38
451.766	314.38
451.986	311.38
452.207	305.38
452.428	285.38
452.648	311.38
452.869	297.38
453.089	318.38
453.31	315.38
453.53	288.38
453.751	307.38
453.971	317.38
454.192	321.38
454.412	314.38
454.633	293.38
454.853	303.38
455.073	292.38
455.294	345.38
455.514	381.38
455.734	373.38
455.955	299.38
456.175	300.38
456.395	278.38
456.616	274.38
456.836	277.38
457.056	260.38
457.276	280.38
457.497	289.38
457.717	283.38
457.937	282.38
458.157	289.38
458.377	295.38
458.598	315.38
458.818	362.38
459.038	406.38
459.258	417.38
459.478	358.38
459.698	309.38
459.918	295.38
460.138	286.38
460.358	281.38
460.578	308.38
460.798	302.38
461.018	302.38
461.238	306.38
461.458	290.38
461.678	292.38
461.898	305.38
462.118	315.38
462.338	305.38
462.558	296.38
462.777	302.38
462.997	330.38
463.217	335.38
463.437	333.38
463.657	331.38
463.876	306.38
464.096	327.38
464.316	332.38
464.536	336.38
464.755	329.38
464.975	332.38
465.195	365.38
465.414	418.38
465.634	349.38
465.854	330.38
466.073	315.38
466.293	289.38
466.512	310.38
466.732	307.38
466.951	299.38
467.171	309.38
467.391	291.38
467.61	320.38
467.829	329.38
468.049	325.38
468.268	317.38
468.488	281.38
468.707	301.38
468.927	291.38
469.146	297.38
469.365	291.38
469.585	286.38
469.804	279.38
470.023	312.38
470.243	307.38
470.462	285.38
470.681	320.38
470.901	314.38
471.12	318.38
471.339	319.38
471.558	297.38
471.777	323.38
471.997	310.38
472.216	300.38
472.435	334.38
472.654	326.38
472.873	298.38
473.092	319.38
473.311	300.38
473.53	309.38
473.749	311.38
473.968	353.38
474.187	431.38
474.406	412.38
474.625	363.38
474.844	316.38
475.063	326.38
475.282	323.38
475.501	319.38
475.72	317.38
475.939	305.38
476.158	316.38
476.377	330.38
476.596	300.38
476.814	319.38
477.033	315.38
477.252	336.38
477.471	299.38
477.69	335.38
477.908	329.38
478.127	320.38
478.346	328.38
478.564	317.38
478.783	326.38
479.002	343.38
479.22	336.38
479.439	355.38
479.658	357.38
479.876	382.38
480.095	363.38
480.313	377.38
480.532	382.38
480.751	371.38
480.969	392.38
481.188	430.38
481.406	427.38
481.624	388.38
481.843	375.38
482.061	367.38
482.28	359.38
482.498	353.38
482.717	375.38
482.935	368.38
483.153	363.38
483.372	369.38
483.59	346.38
483.808	365.38
484.027	372.38
484.245	358.38
484.463	360.38
484.681	363.38
484.9	367.38
485.118	361.38
485.336	367.38
485.554	375.38
485.772	357.38
485.99	378.38
486.209	369.38
486.427	381.38
486.645	348.38
486.863	374.38
487.081	377.38
487.299	385.38
487.517	379.38
487.735	370.38
487.953	361.38
488.171	399.38
488.389	364.38
488.607	369.38
488.825	385.38
489.043	382.38
489.261	395.38
489.479	401.38
489.696	364.38
489.914	396.38
490.132	396.38
490.35	418.38
490.568	408.38
490.786	397.38
491.003	412.38
491.221	447.38
491.439	426.38
491.657	446.38
491.874	460.38
492.092	429.38
492.31	433.38
492.527	439.38
492.745	427.38
492.963	428.38
493.18	445.38
493.398	434.38
493.615	446.38
493.833	454.38
494.05	468.38
494.268	430.38
494.485	433.38
494.703	433.38
494.92	434.38
495.138	444.38
495.355	446.38
495.573	446.38
495.79	428.38
496.008	444.38
496.225	438.38
496.442	454.38
496.66	444.38
496.877	439.38
497.094	455.38
497.312	455.38
497.529	446.38
497.746	445.38
497.963	473.38
498.181	488.38
498.398	465.38
498.615	464.38
498.832	495.38
499.049	459.38
499.267	487.38
499.484	500.38
499.701	499.38
499.918	525.38
500.135	527.38
500.352	529.38
500.569	527.38
500.786	547.38
501.003	541.38
501.22	537.38
501.437	527.38
501.654	540.38
501.871	520.38
502.088	526.38
502.305	487.38
502.522	494.38
502.739	481.38
502.956	478.38
503.172	464.38
503.389	460.38
503.606	461.38
503.823	471.38
504.04	452.38
504.256	442.38
504.473	433.38
504.69	455.38
504.907	456.38
505.123	445.38
505.34	440.38
505.557	447.38
505.773	417.38
505.99	440.38
506.207	434.38
506.423	446.38
506.64	434.38
506.856	436.38
507.073	422.38
507.289	385.38
507.506	420.38
507.722	427.38
507.939	457.38
508.155	424.38
508.372	400.38
508.588	420.38
508.805	411.38
509.021	429.38
509.238	418.38
509.454	444.38
509.67	409.38
509.887	425.38
510.103	418.38
510.319	431.38
510.536	503.38
510.752	826.38
510.968	632.38
511.184	443.38
511.401	421.38
511.617	407.38
511.833	401.38
512.049	409.38
512.265	416.38
512.481	420.38
512.698	409.38
512.914	407.38
513.13	380.38
513.346	394.38
513.562	409.38
513.778	395.38
513.994	406.38
514.21	404.38
514.426	435.38
514.642	481.38
514.858	474.38
515.074	508.38
515.29	632.38
515.506	912.38
515.721	731.38
515.937	513.38
516.153	451.38
516.369	432.38
516.585	389.38
516.801	407.38
517.016	411.38
517.232	406.38
517.448	385.38
517.664	387.38
517.879	409.38
518.095	369.38
518.311	396.38
518.527	381.38
518.742	380.38
518.958	381.38
519.173	387.38
519.389	387.38
519.605	387.38
519.82	396.38
520.036	398.38
520.251	424.38
520.467	447.38
520.682	429.38
520.898	440.38
521.113	457.38
521.329	497.38
521.544	587.38
521.76	749.38
521.975	1235.38
522.19	1116.38
522.406	634.38
522.621	467.38
522.836	406.38
523.052	405.38
523.267	402.38
523.482	389.38
523.698	372.38
523.913	374.38
524.128	382.38
524.343	372.38
524.559	352.38
524.774	356.38
524.989	352.38
525.204	343.38
525.419	366.38
525.634	340.38
525.849	322.38
526.064	333.38
526.28	349.38
526.495	340.38
526.71	335.38
526.925	330.38
527.14	325.38
527.355	329.38
527.57	321.38
527.785	319.38
527.999	326.38
528.214	322.38
528.429	331.38
528.644	323.38
528.859	317.38
529.074	344.38
529.289	365.38
529.503	395.38
529.718	368.38
529.933	369.38
530.148	331.38
530.363	325.38
530.577	308.38
530.792	297.38
531.007	323.38
531.221	329.38
531.436	328.38
531.651	323.38
531.865	309.38
532.08	301.38
532.295	307.38
532.509	317.38
532.724	301.38
532.938	316.38
533.153	318.38
533.367	310.38
533.582	296.38
533.796	299.38
534.011	295.38
534.225	299.38
534.44	277.38
534.654	321.38
534.868	297.38
535.083	293.38
535.297	297.38
535.511	314.38
535.726	310.38
535.94	312.38
536.154	312.38
536.369	288.38
536.583	305.38
536.797	299.38
537.011	311.38
537.225	287.38
537.44	274.38
537.654	297.38
537.868	293.38
538.082	302.38
538.296	294.38
538.51	301.38
538.724	308.38
538.938	303.38
539.153	307.38
539.367	318.38
539.581	296.38
539.795	302.38
540.009	294.38
540.222	306.38
540.436	306.38
540.65	297.38
540.864	299.38
541.078	317.38
541.292	313.38
541.506	306.38
541.72	297.38
541.934	310.38
542.147	294.38
542.361	303.38
542.575	283.38
542.789	297.38
543.002	294.38
543.216	304.38
543.43	295.38
543.644	300.38
543.857	292.38
544.071	298.38
544.285	289.38
544.498	286.38
544.712	287.38
544.925	292.38
545.139	308.38
545.352	292.38
545.566	280.38
545.779	270.38
545.993	289.38
546.206	285.38
546.42	271.38
546.633	260.38
546.847	269.38
547.06	283.38
547.274	274.38
547.487	278.38
547.7	271.38
547.914	284.38
548.127	297.38
548.34	259.38
548.554	286.38
548.767	273.38
548.98	278.38
549.193	290.38
549.407	281.38
549.62	285.38
549.833	269.38
550.046	279.38
550.259	289.38
550.473	294.38
550.686	301.38
550.899	293.38
551.112	284.38
551.325	269.38
551.538	263.38
551.751	278.38
551.964	294.38
552.177	268.38
552.39	262.38
552.603	274.38
552.816	262.38
553.029	286.38
553.242	275.38
553.455	293.38
553.667	272.38
553.88	295.38
554.093	267.38
554.306	283.38
554.519	289.38
554.732	267.38
554.944	259.38
555.157	255.38
555.37	264.38
555.583	263.38
555.795	265.38
556.008	260.38
556.221	262.38
556.433	281.38
556.646	262.38
556.859	259.38
557.071	261.38
557.284	255.38
557.496	262.38
557.709	262.38
557.921	255.38
558.134	271.38
558.346	251.38
558.559	245.38
558.771	258.38
558.984	248.38
559.196	231.38
559.409	257.38
559.621	230.38
559.833	231.38
560.046	250.38
560.258	248.38
560.47	244.38
560.683	225.38
560.895	238.38
561.107	244.38
561.32	246.38
561.532	234.38
561.744	239.38
561.956	263.38
562.168	261.38
562.381	234.38
562.593	245.38
562.805	250.38
563.017	227.38
563.229	251.38
563.441	229.38
563.653	241.38
563.865	247.38
564.077	247.38
564.289	266.38
564.501	241.38
564.713	248.38
564.925	259.38
565.137	268.38
565.349	256.38
565.561	255.38
565.773	256.38
565.985	262.38
566.197	279.38
566.408	275.38
566.62	265.38
566.832	267.38
567.044	281.38
567.255	272.38
567.467	275.38
567.679	282.38
567.891	307.38
568.102	276.38
568.314	263.38
568.526	253.38
568.737	278.38
568.949	257.38
569.161	257.38
569.372	253.38
569.584	249.38
569.795	252.38
570.007	242.38
570.218	301.38
570.43	266.38
570.641	251.38
570.853	258.38
571.064	250.38
571.276	237.38
571.487	222.38
571.698	237.38
571.91	231.38
572.121	237.38
572.333	234.38
572.544	233.38
572.755	210.38
572.966	225.38
573.178	233.38
573.389	235.38
573.6	217.38
573.811	223.38
574.023	215.38
574.234	220.38
574.445	220.38
574.656	219.38
574.867	213.38
575.078	233.38
575.289	223.38
575.501	225.38
575.712	221.38
575.923	209.38
576.134	216.38
576.345	215.38
576.556	191.38
576.767	203.38
576.978	221.38
577.188	214.38
577.399	233.38
577.61	211.38
577.821	213.38
578.032	217.38
578.243	253.38
578.454	397.38
578.665	285.38
578.875	229.38
579.086	215.38
579.297	215.38
579.508	202.38
579.718	207.38
579.929	214.38
580.14	206.38
580.35	204.38
580.561	213.38
580.772	206.38
580.982	207.38
581.193	220.38
581.403	209.38
581.614	218.38
581.825	209.38
582.035	202.38
582.246	210.38
582.456	203.38
582.667	199.38
582.877	199.38
583.087	193.38
583.298	197.38
583.508	211.38
583.719	219.38
583.929	210.38
584.139	207.38
584.35	171.38
584.56	190.38
584.77	195.38
584.981	189.38
585.191	198.38
585.401	203.38
585.611	202.38
585.821	206.38
586.032	200.38
586.242	199.38
586.452	192.38
586.662	187.38
586.872	200.38
587.082	206.38
587.292	212.38
587.502	190.38
587.713	199.38
587.923	202.38
588.133	183.38
588.343	218.38
588.553	199.38
588.762	216.38
588.972	190.38
589.182	181.38
589.392	187.38
589.602	192.38
589.812	198.38
590.022	202.38
590.232	203.38
590.441	188.38
590.651	193.38
590.861	209.38
591.071	212.38
591.281	188.38
591.49	189.38
591.7	182.38
591.91	187.38
592.119	174.38
592.329	206.38
592.539	215.38
592.748	201.38
592.958	196.38
593.167	195.38
593.377	199.38
593.587	207.38
593.796	210.38
594.006	192.38
594.215	200.38
594.424	186.38
594.634	203.38
594.843	199.38
595.053	200.38
595.262	197.38
595.472	204.38
595.681	195.38
595.89	198.38
596.1	198.38
596.309	194.38
596.518	186.38
596.727	188.38
596.937	186.38
597.146	191.38
597.355	187.38
597.564	195.38
597.774	181.38
597.983	172.38
598.192	188.38
598.401	183.38
598.61	187.38
598.819	158.38
599.028	173.38
599.237	179.38
599.446	183.38
599.655	172.38
599.864	189.38
600.073	184.38
600.282	181.38
600.491	181.38
600.7	187.38
600.909	180.38
601.118	173.38
601.327	177.38
601.536	184.38
601.745	180.38
601.953	170.38
602.162	187.38
602.371	163.38
602.58	170.38
602.789	181.38
602.997	184.38
603.206	187.38
603.415	177.38
603.623	170.38
603.832	179.38
604.041	167.38
604.249	174.38
604.458	163.38
604.666	172.38
604.875	175.38
605.084	183.38
605.292	165.38
605.501	171.38
605.709	183.38
605.918	154.38
606.126	164.38
606.334	164.38
606.543	175.38
606.751	183.38
606.96	161.38
607.168	177.38
607.376	175.38
607.585	169.38
607.793	148.38
608.001	162.38
608.21	175.38
608.418	186.38
608.626	172.38
608.834	172.38
609.043	172.38
609.251	162.38
609.459	163.38
609.667	165.38
609.875	166.38
610.083	186.38
610.291	182.38
610.499	172.38
610.707	167.38
610.916	157.38
611.124	181.38
611.332	169.38
611.54	182.38
611.748	186.38
611.955	175.38
612.163	169.38
612.371	174.38
612.579	167.38
612.787	177.38
612.995	165.38
613.203	179.38
613.411	162.38
613.618	174.38
613.826	169.38
614.034	158.38
614.242	169.38
614.449	158.38
614.657	170.38
614.865	166.38
615.072	153.38
615.28	167.38
615.488	185.38
615.695	171.38
615.903	172.38
616.111	156.38
616.318	177.38
616.526	161.38
616.733	169.38
616.941	158.38
617.148	163.38
617.356	176.38
617.563	164.38
617.771	172.38
617.978	158.38
618.185	165.38
618.393	171.38
618.6	158.38
618.807	179.38
619.015	166.38
619.222	183.38
619.429	163.38
619.637	168.38
619.844	167.38
620.051	162.38
620.258	159.38
620.466	177.38
620.673	159.38
620.88	144.38
621.087	159.38
621.294	158.38
621.501	156.38
621.708	168.38
621.915	171.38
622.122	172.38
622.329	166.38
622.536	163.38
622.743	148.38
622.95	163.38
623.157	163.38
623.364	150.38
623.571	155.38
623.778	161.38
623.985	164.38
624.192	155.38
624.399	147.38
624.606	168.38
624.812	164.38
625.019	156.38
625.226	171.38
625.433	160.38
625.639	150.38
625.846	159.38
626.053	142.38
626.259	156.38
626.466	155.38
626.673	167.38
626.879	144.38
627.086	145.38
627.293	148.38
627.499	161.38
627.706	153.38
627.912	157.38
628.119	154.38
628.325	145.38
628.532	161.38
628.738	136.38
628.945	150.38
629.151	141.38
629.357	151.38
629.564	159.38
629.77	134.38
629.976	161.38
630.183	162.38
630.389	158.38
630.595	144.38
630.802	145.38
631.008	148.38
631.214	153.38
631.42	144.38
631.627	146.38
631.833	143.38
632.039	155.38
632.245	132.38
632.451	155.38
632.657	138.38
632.863	144.38
633.069	135.38
633.275	116.38
633.481	136.38
633.688	139.38
633.893	146.38
634.099	138.38
634.305	140.38
634.511	134.38
634.717	127.38
634.923	132.38
635.129	123.38
635.335	147.38
635.541	135.38
635.747	137.38
635.952	140.38
636.158	134.38
636.364	127.38
636.57	158.38
636.775	147.38
636.981	129.38
637.187	126.38
637.392	134.38
637.598	133.38
637.804	153.38
638.009	141.38
638.215	132.38
638.421	136.38
638.626	127.38
638.832	137.38
639.037	133.38
639.243	130.38
639.448	134.38
639.654	131.38
639.859	138.38
640.065	138.38
640.27	158.38
640.475	129.38
640.681	136.38
640.886	144.38
641.091	132.38
641.297	135.38
641.502	119.38
641.707	127.38
641.913	133.38
642.118	134.38
642.323	129.38
642.528	135.38
642.733	135.38
642.939	135.38
643.144	126.38
643.349	125.38
643.554	134.38
643.759	131.38
643.964	137.38
644.169	134.38
644.374	117.38
644.579	115.38
644.784	127.38
644.989	119.38
645.194	130.38
645.399	132.38
645.604	124.38
645.809	117.38
646.014	137.38
646.219	127.38
646.423	126.38
646.628	135.38
646.833	140.38
647.038	130.38
647.243	133.38
647.447	131.38
647.652	122.38
647.857	139.38
648.062	135.38
648.266	122.38
648.471	140.38
648.676	124.38
648.88	139.38
649.085	143.38
649.289	133.38
649.494	147.38
649.698	158.38
649.903	142.38
650.107	143.38
650.312	147.38
650.516	118.38
650.721	108.38
650.925	130.38
651.13	133.38
651.334	126.38
651.539	126.38
651.743	118.38
651.947	121.38
652.152	124.38
652.356	110.38
652.56	123.38
652.764	107.38
652.969	109.38
653.173	120.38
653.377	117.38
653.581	117.38
653.785	121.38
653.99	125.38
654.194	115.38
654.398	134.38
654.602	127.38
654.806	114.38
655.01	133.38
655.214	129.38
655.418	120.38
655.622	104.38
655.826	115.38
656.03	117.38
656.234	108.38
656.438	117.38
656.642	115.38
656.846	115.38
657.049	108.38
657.253	109.38
657.457	94.38
657.661	116.38
657.865	115.38
658.068	103.38
658.272	98.38
658.476	118.38
658.68	101.38
658.883	98.38
659.087	93.38
659.291	94.38
659.494	94.38
659.698	94.38
659.901	105.38
660.105	103.38
660.309	87.38
660.512	88.38
660.716	91.38
660.919	91.38
661.123	93.38
661.326	102.38
661.53	82.38
661.733	86.38
661.936	75.38
662.14	92.38
662.343	98.38
662.546	79.38
662.75	85.38
662.953	100.38
663.156	76.38
663.36	91.38
663.563	83.38
663.766	83.38
663.969	76.38
664.173	92.38
664.376	91.38
664.579	80.38
664.782	88.38
664.985	84.38
665.188	71.38
665.391	80.38
665.594	85.38
665.797	87.38
666	91.38
666.203	84.38
666.406	77.38
666.609	81.38
666.812	77.38
667.015	72.38
667.218	81.38
667.421	77.38
667.624	84.38
667.827	89.38
668.03	93.38
668.232	82.38
668.435	74.38
668.638	85.38
668.841	81.38
669.043	76.38
669.246	82.38
669.449	98.38
669.651	83.38
669.854	81.38
670.057	69.38
670.259	77.38
670.462	87.38
670.665	75.38
670.867	68.38
671.07	74.38
671.272	82.38
671.475	94.38
671.677	74.38
671.88	87.38
672.082	77.38
672.284	83.38
672.487	79.38
672.689	80.38
672.892	85.38
