Data from 1982.PennyLincolnUp.Lamp.En5.5.200Scan.071819.P1_HRD10591_16-47-37-962.txt Node
Date: Thu Jul 18 16:47:37 EDT 2019
User: cochatt
Spectrometer: HR+D1059
Trigger mode: 1
Integration Time (sec): 1.000000E-1
Scans to average: 1
Electric dark correction enabled: true
Nonlinearity correction enabled: false
Boxcar width: 0
XAxis mode: Wavelengths
Number of Pixels in Spectrum: 2048
>>>>>Begin Spectral Data<<<<<
223.165	-13.12
223.4	-13.12
223.635	-13.12
223.869	-25.12
224.104	-24.12
224.338	-10.12
224.573	-16.12
224.808	-15.12
225.042	-8.12
225.277	0.88
225.511	9.88
225.746	-4.12
225.98	10.88
226.215	8.88
226.449	12.88
226.683	25.88
226.918	14.88
227.152	31.88
227.387	44.88
227.621	35.88
227.856	50.88
228.09	52.88
228.324	54.88
228.559	67.88
228.793	72.88
229.027	80.88
229.262	98.88
229.496	97.88
229.73	109.88
229.964	136.88
230.199	101.88
230.433	103.88
230.667	112.88
230.901	90.88
231.136	106.88
231.37	108.88
231.604	103.88
231.838	99.88
232.072	95.88
232.306	109.88
232.541	100.88
232.775	108.88
233.009	106.88
233.243	106.88
233.477	95.88
233.711	96.88
233.945	114.88
234.179	111.88
234.413	126.88
234.647	105.88
234.881	104.88
235.115	104.88
235.349	115.88
235.583	104.88
235.817	108.88
236.051	118.88
236.285	120.88
236.519	118.88
236.753	118.88
236.987	130.88
237.221	145.88
237.455	187.88
237.689	144.88
237.922	126.88
238.156	120.88
238.39	117.88
238.624	119.88
238.858	100.88
239.091	120.88
239.325	128.88
239.559	125.88
239.793	110.88
240.027	120.88
240.26	128.88
240.494	140.88
240.728	126.88
240.961	129.88
241.195	126.88
241.429	132.88
241.662	105.88
241.896	116.88
242.13	118.88
242.363	96.88
242.597	106.88
242.83	124.88
243.064	122.88
243.298	125.88
243.531	130.88
243.765	126.88
243.998	132.88
244.232	119.88
244.465	122.88
244.699	108.88
244.932	122.88
245.166	133.88
245.399	130.88
245.633	127.88
245.866	120.88
246.099	127.88
246.333	133.88
246.566	114.88
246.8	131.88
247.033	128.88
247.266	124.88
247.5	136.88
247.733	134.88
247.966	149.88
248.2	158.88
248.433	138.88
248.666	136.88
248.899	160.88
249.133	156.88
249.366	163.88
249.599	173.88
249.832	165.88
250.066	162.88
250.299	162.88
250.532	148.88
250.765	173.88
250.998	186.88
251.231	190.88
251.465	186.88
251.698	153.88
251.931	154.88
252.164	167.88
252.397	162.88
252.63	170.88
252.863	181.88
253.096	171.88
253.329	186.88
253.562	213.88
253.795	183.88
254.028	193.88
254.261	176.88
254.494	191.88
254.727	221.88
254.96	243.88
255.193	212.88
255.426	186.88
255.659	187.88
255.892	189.88
256.124	182.88
256.357	190.88
256.59	164.88
256.823	176.88
257.056	155.88
257.289	186.88
257.521	162.88
257.754	170.88
257.987	164.88
258.22	191.88
258.452	154.88
258.685	171.88
258.918	182.88
259.151	152.88
259.383	181.88
259.616	192.88
259.849	195.88
260.081	188.88
260.314	205.88
260.547	197.88
260.779	208.88
261.012	199.88
261.244	173.88
261.477	188.88
261.71	187.88
261.942	181.88
262.175	193.88
262.407	175.88
262.64	174.88
262.872	182.88
263.105	187.88
263.337	164.88
263.57	178.88
263.802	181.88
264.035	159.88
264.267	165.88
264.499	173.88
264.732	177.88
264.964	174.88
265.197	164.88
265.429	179.88
265.661	182.88
265.894	179.88
266.126	173.88
266.358	168.88
266.591	180.88
266.823	163.88
267.055	191.88
267.287	175.88
267.52	176.88
267.752	187.88
267.984	186.88
268.216	177.88
268.448	194.88
268.681	180.88
268.913	198.88
269.145	215.88
269.377	231.88
269.609	221.88
269.841	226.88
270.073	214.88
270.306	237.88
270.538	253.88
270.77	251.88
271.002	239.88
271.234	232.88
271.466	252.88
271.698	260.88
271.93	241.88
272.162	245.88
272.394	228.88
272.626	242.88
272.858	233.88
273.09	217.88
273.322	216.88
273.553	203.88
273.785	227.88
274.017	213.88
274.249	226.88
274.481	215.88
274.713	206.88
274.945	200.88
275.176	218.88
275.408	217.88
275.64	223.88
275.872	200.88
276.104	210.88
276.335	220.88
276.567	221.88
276.799	243.88
277.031	266.88
277.262	261.88
277.494	254.88
277.726	246.88
277.957	238.88
278.189	218.88
278.421	213.88
278.652	215.88
278.884	214.88
279.115	218.88
279.347	205.88
279.579	211.88
279.81	213.88
280.042	203.88
280.273	214.88
280.505	205.88
280.736	214.88
280.968	199.88
281.199	189.88
281.431	204.88
281.662	195.88
281.894	211.88
282.125	227.88
282.356	231.88
282.588	233.88
282.819	252.88
283.051	216.88
283.282	210.88
283.513	218.88
283.745	222.88
283.976	218.88
284.207	228.88
284.439	228.88
284.67	215.88
284.901	235.88
285.132	207.88
285.364	209.88
285.595	214.88
285.826	219.88
286.057	220.88
286.288	215.88
286.52	218.88
286.751	223.88
286.982	210.88
287.213	232.88
287.444	229.88
287.675	238.88
287.906	232.88
288.138	228.88
288.369	231.88
288.6	234.88
288.831	237.88
289.062	236.88
289.293	227.88
289.524	230.88
289.755	218.88
289.986	234.88
290.217	227.88
290.448	223.88
290.679	239.88
290.91	231.88
291.141	221.88
291.371	226.88
291.602	226.88
291.833	212.88
292.064	216.88
292.295	235.88
292.526	218.88
292.757	216.88
292.987	222.88
293.218	205.88
293.449	209.88
293.68	224.88
293.91	207.88
294.141	236.88
294.372	215.88
294.603	242.88
294.833	201.88
295.064	232.88
295.295	240.88
295.525	223.88
295.756	223.88
295.987	235.88
296.217	244.88
296.448	276.88
296.679	246.88
296.909	231.88
297.14	245.88
297.37	244.88
297.601	227.88
297.831	231.88
298.062	236.88
298.292	233.88
298.523	221.88
298.753	244.88
298.984	232.88
299.214	239.88
299.445	243.88
299.675	234.88
299.905	230.88
300.136	231.88
300.366	228.88
300.597	242.88
300.827	247.88
301.057	246.88
301.288	254.88
301.518	258.88
301.748	252.88
301.979	244.88
302.209	249.88
302.439	242.88
302.669	252.88
302.9	262.88
303.13	230.88
303.36	242.88
303.59	249.88
303.82	251.88
304.051	258.88
304.281	258.88
304.511	244.88
304.741	272.88
304.971	246.88
305.201	234.88
305.431	264.88
305.661	242.88
305.891	263.88
306.121	239.88
306.352	238.88
306.582	263.88
306.812	247.88
307.042	254.88
307.272	246.88
307.502	255.88
307.731	248.88
307.961	246.88
308.191	258.88
308.421	267.88
308.651	259.88
308.881	279.88
309.111	260.88
309.341	269.88
309.571	278.88
309.8	269.88
310.03	292.88
310.26	286.88
310.49	291.88
310.72	294.88
310.949	312.88
311.179	308.88
311.409	302.88
311.639	302.88
311.868	294.88
312.098	310.88
312.328	327.88
312.557	329.88
312.787	330.88
313.017	315.88
313.246	309.88
313.476	270.88
313.706	295.88
313.935	304.88
314.165	301.88
314.394	314.88
314.624	317.88
314.853	297.88
315.083	283.88
315.312	303.88
315.542	286.88
315.771	298.88
316.001	299.88
316.23	296.88
316.46	287.88
316.689	281.88
316.919	286.88
317.148	299.88
317.377	299.88
317.607	286.88
317.836	294.88
318.065	296.88
318.295	283.88
318.524	296.88
318.753	290.88
318.983	284.88
319.212	299.88
319.441	319.88
319.67	325.88
319.9	285.88
320.129	274.88
320.358	297.88
320.587	298.88
320.816	289.88
321.046	315.88
321.275	316.88
321.504	331.88
321.733	311.88
321.962	317.88
322.191	327.88
322.42	344.88
322.649	354.88
322.878	363.88
323.108	371.88
323.337	399.88
323.566	410.88
323.795	459.88
324.024	480.88
324.253	625.88
324.482	904.88
324.71	1381.88
324.939	1809.88
325.168	1474.88
325.397	764.88
325.626	528.88
325.855	452.88
326.084	415.88
326.313	403.88
326.542	413.88
326.77	460.88
326.999	561.88
327.228	778.88
327.457	1195.88
327.686	1307.88
327.914	852.88
328.143	598.88
328.372	516.88
328.6	503.88
328.829	476.88
329.058	468.88
329.287	466.88
329.515	462.88
329.744	414.88
329.972	398.88
330.201	434.88
330.43	462.88
330.658	479.88
330.887	462.88
331.115	470.88
331.344	417.88
331.572	386.88
331.801	386.88
332.03	387.88
332.258	352.88
332.486	348.88
332.715	354.88
332.943	340.88
333.172	348.88
333.4	345.88
333.629	359.88
333.857	363.88
334.085	376.88
334.314	396.88
334.542	419.88
334.771	418.88
334.999	382.88
335.227	368.88
335.455	353.88
335.684	317.88
335.912	316.88
336.14	325.88
336.369	316.88
336.597	335.88
336.825	351.88
337.053	348.88
337.281	341.88
337.51	320.88
337.738	342.88
337.966	340.88
338.194	332.88
338.422	338.88
338.65	319.88
338.878	333.88
339.106	326.88
339.334	299.88
339.562	322.88
339.79	326.88
340.018	327.88
340.246	313.88
340.474	315.88
340.702	326.88
340.93	332.88
341.158	330.88
341.386	327.88
341.614	313.88
341.842	336.88
342.07	307.88
342.298	327.88
342.526	328.88
342.754	325.88
342.981	318.88
343.209	310.88
343.437	299.88
343.665	320.88
343.893	301.88
344.12	320.88
344.348	319.88
344.576	318.88
344.804	318.88
345.031	330.88
345.259	350.88
345.487	318.88
345.714	317.88
345.942	305.88
346.17	319.88
346.397	293.88
346.625	314.88
346.853	319.88
347.08	314.88
347.308	309.88
347.535	316.88
347.763	327.88
347.99	328.88
348.218	328.88
348.445	323.88
348.673	327.88
348.9	291.88
349.128	303.88
349.355	292.88
349.583	287.88
349.81	312.88
350.037	314.88
350.265	291.88
350.492	290.88
350.72	312.88
350.947	325.88
351.174	303.88
351.402	312.88
351.629	316.88
351.856	328.88
352.083	316.88
352.311	312.88
352.538	327.88
352.765	325.88
352.992	321.88
353.22	312.88
353.447	324.88
353.674	299.88
353.901	304.88
354.128	282.88
354.355	294.88
354.583	288.88
354.81	274.88
355.037	275.88
355.264	284.88
355.491	276.88
355.718	291.88
355.945	281.88
356.172	247.88
356.399	285.88
356.626	272.88
356.853	286.88
357.08	289.88
357.307	295.88
357.534	271.88
357.761	284.88
357.988	285.88
358.215	278.88
358.441	274.88
358.668	276.88
358.895	262.88
359.122	299.88
359.349	296.88
359.576	296.88
359.802	325.88
360.029	335.88
360.256	364.88
360.483	333.88
360.709	310.88
360.936	295.88
361.163	327.88
361.39	286.88
361.616	310.88
361.843	288.88
362.07	309.88
362.296	304.88
362.523	311.88
362.749	289.88
362.976	318.88
363.203	302.88
363.429	292.88
363.656	286.88
363.882	305.88
364.109	272.88
364.335	274.88
364.562	292.88
364.788	277.88
365.015	278.88
365.241	280.88
365.468	284.88
365.694	299.88
365.92	305.88
366.147	282.88
366.373	266.88
366.599	288.88
366.826	286.88
367.052	288.88
367.278	278.88
367.505	280.88
367.731	293.88
367.957	275.88
368.184	282.88
368.41	278.88
368.636	307.88
368.862	293.88
369.089	285.88
369.315	278.88
369.541	279.88
369.767	279.88
369.993	304.88
370.219	275.88
370.445	283.88
370.672	293.88
370.898	282.88
371.124	275.88
371.35	269.88
371.576	263.88
371.802	255.88
372.028	272.88
372.254	270.88
372.48	285.88
372.706	283.88
372.932	275.88
373.158	273.88
373.384	271.88
373.61	261.88
373.835	274.88
374.061	283.88
374.287	278.88
374.513	290.88
374.739	276.88
374.965	269.88
375.191	272.88
375.416	292.88
375.642	279.88
375.868	296.88
376.094	281.88
376.319	269.88
376.545	284.88
376.771	280.88
376.997	277.88
377.222	264.88
377.448	273.88
377.674	267.88
377.899	276.88
378.125	265.88
378.35	268.88
378.576	268.88
378.802	284.88
379.027	265.88
379.253	272.88
379.478	276.88
379.704	270.88
379.929	276.88
380.155	291.88
380.38	274.88
380.606	271.88
380.831	226.88
381.057	255.88
381.282	282.88
381.507	256.88
381.733	274.88
381.958	260.88
382.184	265.88
382.409	274.88
382.634	271.88
382.86	287.88
383.085	280.88
383.31	252.88
383.535	248.88
383.761	287.88
383.986	275.88
384.211	272.88
384.436	286.88
384.662	272.88
384.887	269.88
385.112	274.88
385.337	271.88
385.562	297.88
385.787	272.88
386.013	290.88
386.238	282.88
386.463	295.88
386.688	295.88
386.913	295.88
387.138	290.88
387.363	263.88
387.588	278.88
387.813	270.88
388.038	277.88
388.263	296.88
388.488	283.88
388.713	281.88
388.938	300.88
389.163	288.88
389.387	280.88
389.612	284.88
389.837	294.88
390.062	286.88
390.287	282.88
390.512	290.88
390.736	265.88
390.961	272.88
391.186	271.88
391.411	272.88
391.636	289.88
391.86	267.88
392.085	282.88
392.31	312.88
392.534	286.88
392.759	286.88
392.984	287.88
393.208	298.88
393.433	301.88
393.658	263.88
393.882	279.88
394.107	291.88
394.331	279.88
394.556	270.88
394.78	287.88
395.005	285.88
395.229	272.88
395.454	290.88
395.678	310.88
395.903	278.88
396.127	312.88
396.352	308.88
396.576	276.88
396.801	281.88
397.025	267.88
397.249	310.88
397.474	301.88
397.698	280.88
397.922	306.88
398.147	293.88
398.371	306.88
398.595	322.88
398.82	302.88
399.044	318.88
399.268	317.88
399.492	322.88
399.717	329.88
399.941	355.88
400.165	368.88
400.389	371.88
400.613	344.88
400.837	330.88
401.062	321.88
401.286	313.88
401.51	332.88
401.734	330.88
401.958	317.88
402.182	334.88
402.406	332.88
402.63	332.88
402.854	298.88
403.078	318.88
403.302	325.88
403.526	341.88
403.75	305.88
403.974	333.88
404.198	326.88
404.422	325.88
404.645	330.88
404.869	344.88
405.093	354.88
405.317	347.88
405.541	388.88
405.765	360.88
405.988	361.88
406.212	366.88
406.436	353.88
406.66	360.88
406.883	354.88
407.107	366.88
407.331	389.88
407.555	408.88
407.778	419.88
408.002	386.88
408.226	365.88
408.449	357.88
408.673	358.88
408.896	382.88
409.12	384.88
409.344	393.88
409.567	347.88
409.791	312.88
410.014	309.88
410.238	333.88
410.461	320.88
410.685	327.88
410.908	343.88
411.132	380.88
411.355	375.88
411.578	370.88
411.802	315.88
412.025	325.88
412.249	331.88
412.472	347.88
412.695	357.88
412.919	354.88
413.142	334.88
413.365	313.88
413.589	308.88
413.812	291.88
414.035	300.88
414.258	310.88
414.482	297.88
414.705	290.88
414.928	299.88
415.151	316.88
415.374	296.88
415.597	286.88
415.821	320.88
416.044	311.88
416.267	319.88
416.49	303.88
416.713	292.88
416.936	326.88
417.159	302.88
417.382	303.88
417.605	292.88
417.828	337.88
418.051	319.88
418.274	327.88
418.497	318.88
418.72	308.88
418.943	296.88
419.166	320.88
419.389	333.88
419.611	322.88
419.834	318.88
420.057	316.88
420.28	313.88
420.503	308.88
420.726	306.88
420.948	333.88
421.171	373.88
421.394	370.88
421.617	342.88
421.839	313.88
422.062	330.88
422.285	350.88
422.507	365.88
422.73	416.88
422.953	391.88
423.175	348.88
423.398	343.88
423.621	324.88
423.843	346.88
424.066	354.88
424.288	369.88
424.511	346.88
424.733	412.88
424.956	438.88
425.178	442.88
425.401	403.88
425.623	415.88
425.846	386.88
426.068	363.88
426.291	359.88
426.513	357.88
426.735	371.88
426.958	418.88
427.18	416.88
427.402	508.88
427.625	585.88
427.847	499.88
428.069	440.88
428.292	368.88
428.514	359.88
428.736	342.88
428.958	337.88
429.181	329.88
429.403	336.88
429.625	332.88
429.847	373.88
430.069	383.88
430.292	396.88
430.514	350.88
430.736	330.88
430.958	324.88
431.18	309.88
431.402	286.88
431.624	308.88
431.846	307.88
432.068	302.88
432.29	312.88
432.512	303.88
432.734	298.88
432.956	312.88
433.178	334.88
433.4	336.88
433.622	306.88
433.844	308.88
434.066	310.88
434.287	304.88
434.509	313.88
434.731	315.88
434.953	327.88
435.175	331.88
435.397	336.88
435.618	361.88
435.84	393.88
436.062	436.88
436.284	473.88
436.505	410.88
436.727	367.88
436.949	332.88
437.17	343.88
437.392	331.88
437.614	351.88
437.835	375.88
438.057	432.88
438.278	501.88
438.5	494.88
438.721	535.88
438.943	501.88
439.165	410.88
439.386	355.88
439.608	356.88
439.829	379.88
440.05	384.88
440.272	409.88
440.493	369.88
440.715	351.88
440.936	330.88
441.158	331.88
441.379	350.88
441.6	358.88
441.822	362.88
442.043	384.88
442.264	438.88
442.486	453.88
442.707	388.88
442.928	362.88
443.149	356.88
443.371	387.88
443.592	414.88
443.813	474.88
444.034	477.88
444.255	407.88
444.476	363.88
444.698	347.88
444.919	334.88
445.14	440.88
445.361	450.88
445.582	401.88
445.803	419.88
446.024	501.88
446.245	498.88
446.466	464.88
446.687	401.88
446.908	349.88
447.129	350.88
447.35	328.88
447.571	320.88
447.792	320.88
448.013	320.88
448.234	329.88
448.455	403.88
448.675	461.88
448.896	503.88
449.117	428.88
449.338	413.88
449.559	494.88
449.779	527.88
450	417.88
450.221	386.88
450.442	332.88
450.662	322.88
450.883	345.88
451.104	324.88
451.324	322.88
451.545	325.88
451.766	318.88
451.986	291.88
452.207	295.88
452.428	298.88
452.648	303.88
452.869	292.88
453.089	298.88
453.31	309.88
453.53	296.88
453.751	275.88
453.971	295.88
454.192	324.88
454.412	299.88
454.633	287.88
454.853	299.88
455.073	293.88
455.294	322.88
455.514	359.88
455.734	360.88
455.955	284.88
456.175	290.88
456.395	301.88
456.616	267.88
456.836	281.88
457.056	264.88
457.276	286.88
457.497	266.88
457.717	264.88
457.937	274.88
458.157	295.88
458.377	282.88
458.598	301.88
458.818	373.88
459.038	398.88
459.258	397.88
459.478	348.88
459.698	318.88
459.918	285.88
460.138	289.88
460.358	286.88
460.578	296.88
460.798	304.88
461.018	301.88
461.238	306.88
461.458	300.88
461.678	296.88
461.898	282.88
462.118	301.88
462.338	307.88
462.558	287.88
462.777	298.88
462.997	318.88
463.217	311.88
463.437	308.88
463.657	303.88
463.876	301.88
464.096	320.88
464.316	298.88
464.536	288.88
464.755	326.88
464.975	320.88
465.195	357.88
465.414	406.88
465.634	373.88
465.854	321.88
466.073	317.88
466.293	300.88
466.512	287.88
466.732	314.88
466.951	300.88
467.171	293.88
467.391	293.88
467.61	312.88
467.829	308.88
468.049	303.88
468.268	322.88
468.488	299.88
468.707	292.88
468.927	284.88
469.146	272.88
469.365	303.88
469.585	320.88
469.804	285.88
470.023	287.88
470.243	285.88
470.462	309.88
470.681	301.88
470.901	291.88
471.12	317.88
471.339	296.88
471.558	315.88
471.777	306.88
471.997	290.88
472.216	296.88
472.435	329.88
472.654	308.88
472.873	315.88
473.092	311.88
473.311	300.88
473.53	306.88
473.749	308.88
473.968	344.88
474.187	437.88
474.406	427.88
474.625	347.88
474.844	320.88
475.063	293.88
475.282	286.88
475.501	303.88
475.72	310.88
475.939	306.88
476.158	310.88
476.377	294.88
476.596	299.88
476.814	326.88
477.033	322.88
477.252	316.88
477.471	329.88
477.69	308.88
477.908	328.88
478.127	333.88
478.346	330.88
478.564	327.88
478.783	310.88
479.002	323.88
479.22	331.88
479.439	343.88
479.658	349.88
479.876	371.88
480.095	374.88
480.313	379.88
480.532	379.88
480.751	365.88
480.969	382.88
481.188	399.88
481.406	448.88
481.624	404.88
481.843	371.88
482.061	353.88
482.28	352.88
482.498	350.88
482.717	340.88
482.935	356.88
483.153	331.88
483.372	331.88
483.59	356.88
483.808	349.88
484.027	332.88
484.245	349.88
484.463	359.88
484.681	349.88
484.9	344.88
485.118	363.88
485.336	340.88
485.554	369.88
485.772	360.88
485.99	377.88
486.209	357.88
486.427	351.88
486.645	357.88
486.863	377.88
487.081	386.88
487.299	381.88
487.517	388.88
487.735	356.88
487.953	375.88
488.171	344.88
488.389	343.88
488.607	380.88
488.825	364.88
489.043	365.88
489.261	376.88
489.479	388.88
489.696	395.88
489.914	385.88
490.132	384.88
490.35	388.88
490.568	398.88
490.786	372.88
491.003	385.88
491.221	410.88
491.439	411.88
491.657	421.88
491.874	418.88
492.092	414.88
492.31	436.88
492.527	422.88
492.745	424.88
492.963	421.88
493.18	436.88
493.398	448.88
493.615	440.88
493.833	419.88
494.05	438.88
494.268	410.88
494.485	436.88
494.703	441.88
494.92	427.88
495.138	435.88
495.355	443.88
495.573	459.88
495.79	449.88
496.008	418.88
496.225	445.88
496.442	428.88
496.66	442.88
496.877	424.88
497.094	435.88
497.312	436.88
497.529	433.88
497.746	453.88
497.963	462.88
498.181	468.88
498.398	477.88
498.615	492.88
498.832	474.88
499.049	495.88
499.267	461.88
499.484	481.88
499.701	503.88
499.918	522.88
500.135	521.88
500.352	525.88
500.569	546.88
500.786	536.88
501.003	544.88
501.22	522.88
501.437	535.88
501.654	512.88
501.871	527.88
502.088	517.88
502.305	494.88
502.522	492.88
502.739	455.88
502.956	444.88
503.172	447.88
503.389	462.88
503.606	438.88
503.823	467.88
504.04	433.88
504.256	452.88
504.473	447.88
504.69	441.88
504.907	438.88
505.123	403.88
505.34	440.88
505.557	431.88
505.773	422.88
505.99	425.88
506.207	420.88
506.423	432.88
506.64	431.88
506.856	429.88
507.073	426.88
507.289	388.88
507.506	412.88
507.722	409.88
507.939	435.88
508.155	404.88
508.372	406.88
508.588	398.88
508.805	392.88
509.021	387.88
509.238	424.88
509.454	412.88
509.67	428.88
509.887	417.88
510.103	409.88
510.319	431.88
510.536	491.88
510.752	821.88
510.968	640.88
511.184	428.88
511.401	400.88
511.617	398.88
511.833	399.88
512.049	406.88
512.265	404.88
512.481	406.88
512.698	395.88
512.914	376.88
513.13	376.88
513.346	383.88
513.562	407.88
513.778	392.88
513.994	410.88
514.21	414.88
514.426	421.88
514.642	460.88
514.858	468.88
515.074	513.88
515.29	615.88
515.506	909.88
515.721	725.88
515.937	498.88
516.153	438.88
516.369	421.88
516.585	418.88
516.801	390.88
517.016	406.88
517.232	386.88
517.448	394.88
517.664	411.88
517.879	382.88
518.095	401.88
518.311	407.88
518.527	390.88
518.742	396.88
518.958	377.88
519.173	390.88
519.389	370.88
519.605	396.88
519.82	406.88
520.036	396.88
520.251	410.88
520.467	422.88
520.682	439.88
520.898	430.88
521.113	478.88
521.329	527.88
521.544	574.88
521.76	723.88
521.975	1186.88
522.19	1126.88
522.406	604.88
522.621	464.88
522.836	411.88
523.052	392.88
523.267	390.88
523.482	363.88
523.698	370.88
523.913	355.88
524.128	376.88
524.343	351.88
524.559	366.88
524.774	344.88
524.989	328.88
525.204	336.88
525.419	361.88
525.634	335.88
525.849	317.88
526.064	326.88
526.28	319.88
526.495	315.88
526.71	344.88
526.925	340.88
527.14	311.88
527.355	309.88
527.57	334.88
527.785	302.88
527.999	333.88
528.214	336.88
528.429	340.88
528.644	336.88
528.859	312.88
529.074	340.88
529.289	334.88
529.503	408.88
529.718	372.88
529.933	331.88
530.148	331.88
530.363	308.88
530.577	332.88
530.792	328.88
531.007	310.88
531.221	318.88
531.436	310.88
531.651	307.88
531.865	326.88
532.08	311.88
532.295	313.88
532.509	289.88
532.724	318.88
532.938	296.88
533.153	301.88
533.367	308.88
533.582	300.88
533.796	310.88
534.011	301.88
534.225	309.88
534.44	296.88
534.654	289.88
534.868	296.88
535.083	302.88
535.297	304.88
535.511	304.88
535.726	320.88
535.94	312.88
536.154	319.88
536.369	310.88
536.583	301.88
536.797	301.88
537.011	286.88
537.225	288.88
537.44	299.88
537.654	304.88
537.868	301.88
538.082	292.88
538.296	290.88
538.51	294.88
538.724	301.88
538.938	271.88
539.153	285.88
539.367	312.88
539.581	286.88
539.795	289.88
540.009	291.88
540.222	291.88
540.436	303.88
540.65	312.88
540.864	294.88
541.078	299.88
541.292	314.88
541.506	302.88
541.72	309.88
541.934	302.88
542.147	303.88
542.361	293.88
542.575	297.88
542.789	284.88
543.002	288.88
543.216	312.88
543.43	284.88
543.644	288.88
543.857	293.88
544.071	287.88
544.285	299.88
544.498	298.88
544.712	290.88
544.925	297.88
545.139	301.88
545.352	291.88
545.566	277.88
545.779	274.88
545.993	277.88
546.206	281.88
546.42	295.88
546.633	279.88
546.847	290.88
547.06	282.88
547.274	276.88
547.487	285.88
547.7	277.88
547.914	267.88
548.127	258.88
548.34	280.88
548.554	268.88
548.767	296.88
548.98	297.88
549.193	286.88
549.407	282.88
549.62	277.88
549.833	272.88
550.046	264.88
550.259	300.88
550.473	277.88
550.686	270.88
550.899	270.88
551.112	279.88
551.325	275.88
551.538	267.88
551.751	285.88
551.964	265.88
552.177	265.88
552.39	286.88
552.603	272.88
552.816	262.88
553.029	266.88
553.242	263.88
553.455	278.88
553.667	292.88
553.88	284.88
554.093	284.88
554.306	255.88
554.519	275.88
554.732	279.88
554.944	273.88
555.157	263.88
555.37	268.88
555.583	261.88
555.795	279.88
556.008	266.88
556.221	252.88
556.433	255.88
556.646	252.88
556.859	256.88
557.071	228.88
557.284	247.88
557.496	253.88
557.709	243.88
557.921	250.88
558.134	246.88
558.346	264.88
558.559	267.88
558.771	250.88
558.984	243.88
559.196	238.88
559.409	264.88
559.621	244.88
559.833	234.88
560.046	229.88
560.258	245.88
560.47	246.88
560.683	245.88
560.895	244.88
561.107	236.88
561.32	230.88
561.532	233.88
561.744	251.88
561.956	246.88
562.168	248.88
562.381	245.88
562.593	244.88
562.805	254.88
563.017	242.88
563.229	262.88
563.441	245.88
563.653	240.88
563.865	236.88
564.077	235.88
564.289	255.88
564.501	246.88
564.713	258.88
564.925	254.88
565.137	238.88
565.349	270.88
565.561	250.88
565.773	280.88
565.985	260.88
566.197	265.88
566.408	267.88
566.62	270.88
566.832	283.88
567.044	284.88
567.255	279.88
567.467	268.88
567.679	265.88
567.891	279.88
568.102	280.88
568.314	285.88
568.526	276.88
568.737	272.88
568.949	265.88
569.161	243.88
569.372	250.88
569.584	237.88
569.795	245.88
570.007	244.88
570.218	266.88
570.43	278.88
570.641	248.88
570.853	255.88
571.064	235.88
571.276	236.88
571.487	221.88
571.698	222.88
571.91	218.88
572.121	214.88
572.333	228.88
572.544	226.88
572.755	236.88
572.966	232.88
573.178	223.88
573.389	228.88
573.6	216.88
573.811	214.88
574.023	211.88
574.234	219.88
574.445	207.88
574.656	224.88
574.867	212.88
575.078	205.88
575.289	210.88
575.501	228.88
575.712	222.88
575.923	228.88
576.134	222.88
576.345	215.88
576.556	203.88
576.767	205.88
576.978	230.88
577.188	216.88
577.399	201.88
577.61	203.88
577.821	200.88
578.032	219.88
578.243	240.88
578.454	407.88
578.665	291.88
578.875	224.88
579.086	208.88
579.297	210.88
579.508	205.88
579.718	209.88
579.929	208.88
580.14	198.88
580.35	200.88
580.561	200.88
580.772	213.88
580.982	199.88
581.193	209.88
581.403	199.88
581.614	221.88
581.825	185.88
582.035	204.88
582.246	209.88
582.456	214.88
582.667	214.88
582.877	206.88
583.087	198.88
583.298	204.88
583.508	188.88
583.719	197.88
583.929	196.88
584.139	205.88
584.35	199.88
584.56	201.88
584.77	206.88
584.981	198.88
585.191	212.88
585.401	203.88
585.611	211.88
585.821	194.88
586.032	189.88
586.242	189.88
586.452	203.88
586.662	198.88
586.872	216.88
587.082	204.88
587.292	179.88
587.502	193.88
587.713	197.88
587.923	207.88
588.133	190.88
588.343	186.88
588.553	186.88
588.762	188.88
588.972	196.88
589.182	195.88
589.392	215.88
589.602	208.88
589.812	197.88
590.022	186.88
590.232	200.88
590.441	182.88
590.651	173.88
590.861	173.88
591.071	194.88
591.281	187.88
591.49	200.88
591.7	208.88
591.91	202.88
592.119	192.88
592.329	184.88
592.539	215.88
592.748	203.88
592.958	196.88
593.167	192.88
593.377	202.88
593.587	203.88
593.796	206.88
594.006	190.88
594.215	190.88
594.424	187.88
594.634	194.88
594.843	179.88
595.053	194.88
595.262	195.88
595.472	202.88
595.681	187.88
595.89	203.88
596.1	191.88
596.309	198.88
596.518	194.88
596.727	199.88
596.937	189.88
597.146	183.88
597.355	183.88
597.564	190.88
597.774	197.88
597.983	176.88
598.192	190.88
598.401	183.88
598.61	171.88
598.819	178.88
599.028	162.88
599.237	194.88
599.446	203.88
599.655	183.88
599.864	183.88
600.073	179.88
600.282	177.88
600.491	168.88
600.7	170.88
600.909	172.88
601.118	171.88
601.327	173.88
601.536	185.88
601.745	180.88
601.953	176.88
602.162	188.88
602.371	181.88
602.58	163.88
602.789	156.88
602.997	184.88
603.206	183.88
603.415	189.88
603.623	165.88
603.832	164.88
604.041	174.88
604.249	184.88
604.458	180.88
604.666	175.88
604.875	162.88
605.084	160.88
605.292	168.88
605.501	162.88
605.709	167.88
605.918	158.88
606.126	173.88
606.334	167.88
606.543	174.88
606.751	176.88
606.96	151.88
607.168	165.88
607.376	175.88
607.585	172.88
607.793	161.88
608.001	184.88
608.21	175.88
608.418	172.88
608.626	168.88
608.834	166.88
609.043	170.88
609.251	172.88
609.459	179.88
609.667	164.88
609.875	168.88
610.083	167.88
610.291	152.88
610.499	170.88
610.707	162.88
610.916	173.88
611.124	176.88
611.332	176.88
611.54	186.88
611.748	174.88
611.955	172.88
612.163	166.88
612.371	161.88
612.579	164.88
612.787	170.88
612.995	166.88
613.203	173.88
613.411	161.88
613.618	166.88
613.826	152.88
614.034	162.88
614.242	156.88
614.449	161.88
614.657	163.88
614.865	174.88
615.072	166.88
615.28	161.88
615.488	150.88
615.695	172.88
615.903	180.88
616.111	190.88
616.318	166.88
616.526	166.88
616.733	174.88
616.941	178.88
617.148	151.88
617.356	168.88
617.563	171.88
617.771	188.88
617.978	180.88
618.185	161.88
618.393	158.88
618.6	156.88
618.807	157.88
619.015	171.88
619.222	154.88
619.429	140.88
619.637	170.88
619.844	158.88
620.051	174.88
620.258	162.88
620.466	164.88
620.673	150.88
620.88	163.88
621.087	150.88
621.294	154.88
621.501	163.88
621.708	142.88
621.915	159.88
622.122	174.88
622.329	170.88
622.536	156.88
622.743	166.88
622.95	162.88
623.157	159.88
623.364	151.88
623.571	141.88
623.778	164.88
623.985	164.88
624.192	155.88
624.399	160.88
624.606	164.88
624.812	153.88
625.019	146.88
625.226	158.88
625.433	164.88
625.639	154.88
625.846	150.88
626.053	159.88
626.259	158.88
626.466	155.88
626.673	152.88
626.879	146.88
627.086	160.88
627.293	151.88
627.499	159.88
627.706	148.88
627.912	149.88
628.119	138.88
628.325	150.88
628.532	155.88
628.738	156.88
628.945	155.88
629.151	159.88
629.357	158.88
629.564	142.88
629.77	154.88
629.976	136.88
630.183	138.88
630.389	136.88
630.595	144.88
630.802	149.88
631.008	155.88
631.214	146.88
631.42	162.88
631.627	154.88
631.833	140.88
632.039	148.88
632.245	132.88
632.451	145.88
632.657	153.88
632.863	133.88
633.069	143.88
633.275	145.88
633.481	140.88
633.688	144.88
633.893	126.88
634.099	136.88
634.305	128.88
634.511	142.88
634.717	146.88
634.923	142.88
635.129	140.88
635.335	137.88
635.541	133.88
635.747	142.88
635.952	138.88
636.158	130.88
636.364	165.88
636.57	151.88
636.775	139.88
636.981	133.88
637.187	132.88
637.392	133.88
637.598	149.88
637.804	125.88
638.009	147.88
638.215	137.88
638.421	132.88
638.626	142.88
638.832	142.88
639.037	140.88
639.243	150.88
639.448	143.88
639.654	128.88
639.859	137.88
640.065	137.88
640.27	127.88
640.475	135.88
640.681	127.88
640.886	135.88
641.091	129.88
641.297	135.88
641.502	144.88
641.707	136.88
641.913	131.88
642.118	150.88
642.323	136.88
642.528	133.88
642.733	152.88
642.939	136.88
643.144	118.88
643.349	132.88
643.554	133.88
643.759	131.88
643.964	136.88
644.169	132.88
644.374	134.88
644.579	140.88
644.784	132.88
644.989	123.88
645.194	146.88
645.399	134.88
645.604	130.88
645.809	138.88
646.014	135.88
646.219	132.88
646.423	134.88
646.628	123.88
646.833	141.88
647.038	136.88
647.243	131.88
647.447	138.88
647.652	131.88
647.857	121.88
648.062	136.88
648.266	127.88
648.471	122.88
648.676	136.88
648.88	130.88
649.085	143.88
649.289	137.88
649.494	125.88
649.698	132.88
649.903	144.88
650.107	141.88
650.312	135.88
650.516	126.88
650.721	133.88
650.925	128.88
651.13	125.88
651.334	127.88
651.539	125.88
651.743	126.88
651.947	128.88
652.152	130.88
652.356	125.88
652.56	96.88
652.764	138.88
652.969	126.88
653.173	118.88
653.377	122.88
653.581	120.88
653.785	111.88
653.99	123.88
654.194	127.88
654.398	124.88
654.602	111.88
654.806	117.88
655.01	108.88
655.214	132.88
655.418	123.88
655.622	106.88
655.826	115.88
656.03	109.88
656.234	114.88
656.438	122.88
656.642	117.88
656.846	116.88
657.049	115.88
657.253	120.88
657.457	118.88
657.661	107.88
657.865	109.88
658.068	101.88
658.272	123.88
658.476	98.88
658.68	98.88
658.883	114.88
659.087	101.88
659.291	97.88
659.494	85.88
659.698	90.88
659.901	88.88
660.105	116.88
660.309	85.88
660.512	103.88
660.716	91.88
660.919	87.88
661.123	94.88
661.326	100.88
661.53	93.88
661.733	94.88
661.936	95.88
662.14	96.88
662.343	81.88
662.546	81.88
662.75	86.88
662.953	91.88
663.156	89.88
663.36	82.88
663.563	98.88
663.766	78.88
663.969	83.88
664.173	70.88
664.376	93.88
664.579	85.88
664.782	76.88
664.985	81.88
665.188	83.88
665.391	77.88
665.594	95.88
665.797	90.88
666	90.88
666.203	83.88
666.406	88.88
666.609	72.88
666.812	86.88
667.015	79.88
667.218	87.88
667.421	86.88
667.624	78.88
667.827	84.88
668.03	87.88
668.232	79.88
668.435	79.88
668.638	76.88
668.841	85.88
669.043	76.88
669.246	88.88
669.449	85.88
669.651	92.88
669.854	84.88
670.057	78.88
670.259	76.88
670.462	93.88
670.665	77.88
670.867	100.88
671.07	79.88
671.272	77.88
671.475	93.88
671.677	86.88
671.88	67.88
672.082	82.88
672.284	70.88
672.487	81.88
672.689	81.88
672.892	87.88
