Data from 1982.PennyLincolnUp.Lamp.En5.5.200Scan.071819.P1_HRD10591_16-46-27-962.txt Node
Date: Thu Jul 18 16:46:27 EDT 2019
User: cochatt
Spectrometer: HR+D1059
Trigger mode: 1
Integration Time (sec): 1.000000E-1
Scans to average: 1
Electric dark correction enabled: true
Nonlinearity correction enabled: false
Boxcar width: 0
XAxis mode: Wavelengths
Number of Pixels in Spectrum: 2048
>>>>>Begin Spectral Data<<<<<
223.165	-26.94
223.4	-26.94
223.635	-26.94
223.869	-14.94
224.104	-16.94
224.338	-15.94
224.573	-0.94
224.808	-15.94
225.042	-8.94
225.277	2.06
225.511	-7.94
225.746	6.06
225.98	2.06
226.215	11.06
226.449	20.06
226.683	27.06
226.918	18.06
227.152	22.06
227.387	48.06
227.621	52.06
227.856	44.06
228.09	50.06
228.324	51.06
228.559	52.06
228.793	73.06
229.027	78.06
229.262	96.06
229.496	93.06
229.73	128.06
229.964	119.06
230.199	104.06
230.433	88.06
230.667	102.06
230.901	87.06
231.136	85.06
231.37	101.06
231.604	96.06
231.838	82.06
232.072	107.06
232.306	114.06
232.541	109.06
232.775	97.06
233.009	102.06
233.243	114.06
233.477	108.06
233.711	106.06
233.945	101.06
234.179	108.06
234.413	104.06
234.647	114.06
234.881	100.06
235.115	117.06
235.349	90.06
235.583	106.06
235.817	117.06
236.051	118.06
236.285	96.06
236.519	119.06
236.753	104.06
236.987	123.06
237.221	135.06
237.455	189.06
237.689	151.06
237.922	132.06
238.156	123.06
238.39	118.06
238.624	122.06
238.858	95.06
239.091	98.06
239.325	104.06
239.559	97.06
239.793	106.06
240.027	121.06
240.26	125.06
240.494	134.06
240.728	142.06
240.961	142.06
241.195	123.06
241.429	119.06
241.662	108.06
241.896	112.06
242.13	112.06
242.363	103.06
242.597	125.06
242.83	108.06
243.064	118.06
243.298	118.06
243.531	118.06
243.765	100.06
243.998	126.06
244.232	122.06
244.465	122.06
244.699	136.06
244.932	132.06
245.166	123.06
245.399	109.06
245.633	127.06
245.866	128.06
246.099	131.06
246.333	121.06
246.566	115.06
246.8	132.06
247.033	133.06
247.266	129.06
247.5	118.06
247.733	132.06
247.966	136.06
248.2	150.06
248.433	132.06
248.666	135.06
248.899	149.06
249.133	142.06
249.366	180.06
249.599	172.06
249.832	157.06
250.066	149.06
250.299	147.06
250.532	148.06
250.765	150.06
250.998	170.06
251.231	169.06
251.465	183.06
251.698	154.06
251.931	160.06
252.164	172.06
252.397	171.06
252.63	165.06
252.863	155.06
253.096	170.06
253.329	180.06
253.562	173.06
253.795	162.06
254.028	170.06
254.261	182.06
254.494	190.06
254.727	202.06
254.96	204.06
255.193	209.06
255.426	192.06
255.659	191.06
255.892	185.06
256.124	188.06
256.357	186.06
256.59	200.06
256.823	184.06
257.056	163.06
257.289	160.06
257.521	178.06
257.754	182.06
257.987	185.06
258.22	177.06
258.452	155.06
258.685	166.06
258.918	172.06
259.151	159.06
259.383	180.06
259.616	195.06
259.849	195.06
260.081	187.06
260.314	194.06
260.547	205.06
260.779	210.06
261.012	184.06
261.244	183.06
261.477	177.06
261.71	178.06
261.942	195.06
262.175	183.06
262.407	192.06
262.64	166.06
262.872	160.06
263.105	171.06
263.337	183.06
263.57	180.06
263.802	183.06
264.035	176.06
264.267	180.06
264.499	164.06
264.732	176.06
264.964	174.06
265.197	164.06
265.429	173.06
265.661	172.06
265.894	170.06
266.126	162.06
266.358	161.06
266.591	149.06
266.823	193.06
267.055	181.06
267.287	172.06
267.52	186.06
267.752	164.06
267.984	165.06
268.216	190.06
268.448	189.06
268.681	168.06
268.913	186.06
269.145	206.06
269.377	218.06
269.609	230.06
269.841	210.06
270.073	211.06
270.306	229.06
270.538	241.06
270.77	246.06
271.002	239.06
271.234	231.06
271.466	238.06
271.698	243.06
271.93	247.06
272.162	256.06
272.394	250.06
272.626	245.06
272.858	235.06
273.09	208.06
273.322	222.06
273.553	204.06
273.785	196.06
274.017	210.06
274.249	220.06
274.481	206.06
274.713	194.06
274.945	210.06
275.176	211.06
275.408	213.06
275.64	187.06
275.872	203.06
276.104	209.06
276.335	206.06
276.567	197.06
276.799	229.06
277.031	245.06
277.262	248.06
277.494	244.06
277.726	241.06
277.957	231.06
278.189	220.06
278.421	214.06
278.652	207.06
278.884	215.06
279.115	228.06
279.347	201.06
279.579	203.06
279.81	197.06
280.042	205.06
280.273	206.06
280.505	210.06
280.736	207.06
280.968	197.06
281.199	201.06
281.431	206.06
281.662	212.06
281.894	221.06
282.125	223.06
282.356	220.06
282.588	256.06
282.819	242.06
283.051	218.06
283.282	225.06
283.513	223.06
283.745	213.06
283.976	230.06
284.207	212.06
284.439	208.06
284.67	225.06
284.901	229.06
285.132	217.06
285.364	211.06
285.595	198.06
285.826	208.06
286.057	234.06
286.288	216.06
286.52	214.06
286.751	210.06
286.982	217.06
287.213	216.06
287.444	231.06
287.675	215.06
287.906	224.06
288.138	223.06
288.369	221.06
288.6	249.06
288.831	226.06
289.062	202.06
289.293	213.06
289.524	218.06
289.755	222.06
289.986	215.06
290.217	208.06
290.448	224.06
290.679	212.06
290.91	217.06
291.141	223.06
291.371	199.06
291.602	221.06
291.833	221.06
292.064	219.06
292.295	215.06
292.526	218.06
292.757	225.06
292.987	199.06
293.218	232.06
293.449	217.06
293.68	217.06
293.91	217.06
294.141	217.06
294.372	216.06
294.603	216.06
294.833	229.06
295.064	218.06
295.295	228.06
295.525	200.06
295.756	224.06
295.987	221.06
296.217	257.06
296.448	260.06
296.679	261.06
296.909	232.06
297.14	236.06
297.37	245.06
297.601	235.06
297.831	238.06
298.062	222.06
298.292	230.06
298.523	214.06
298.753	225.06
298.984	229.06
299.214	241.06
299.445	230.06
299.675	231.06
299.905	254.06
300.136	229.06
300.366	215.06
300.597	220.06
300.827	248.06
301.057	236.06
301.288	228.06
301.518	232.06
301.748	241.06
301.979	241.06
302.209	233.06
302.439	246.06
302.669	244.06
302.9	236.06
303.13	244.06
303.36	246.06
303.59	237.06
303.82	250.06
304.051	269.06
304.281	263.06
304.511	265.06
304.741	233.06
304.971	237.06
305.201	235.06
305.431	229.06
305.661	251.06
305.891	244.06
306.121	266.06
306.352	260.06
306.582	243.06
306.812	261.06
307.042	234.06
307.272	248.06
307.502	260.06
307.731	259.06
307.961	248.06
308.191	251.06
308.421	243.06
308.651	263.06
308.881	252.06
309.111	291.06
309.341	262.06
309.571	252.06
309.8	282.06
310.03	317.06
310.26	290.06
310.49	296.06
310.72	292.06
310.949	321.06
311.179	320.06
311.409	284.06
311.639	294.06
311.868	288.06
312.098	292.06
312.328	293.06
312.557	322.06
312.787	308.06
313.017	322.06
313.246	308.06
313.476	288.06
313.706	305.06
313.935	296.06
314.165	310.06
314.394	293.06
314.624	302.06
314.853	314.06
315.083	306.06
315.312	290.06
315.542	286.06
315.771	270.06
316.001	282.06
316.23	288.06
316.46	292.06
316.689	299.06
316.919	293.06
317.148	282.06
317.377	288.06
317.607	305.06
317.836	286.06
318.065	278.06
318.295	285.06
318.524	302.06
318.753	284.06
318.983	291.06
319.212	291.06
319.441	301.06
319.67	312.06
319.9	278.06
320.129	276.06
320.358	286.06
320.587	269.06
320.816	302.06
321.046	312.06
321.275	310.06
321.504	336.06
321.733	282.06
321.962	324.06
322.191	334.06
322.42	344.06
322.649	353.06
322.878	342.06
323.108	373.06
323.337	388.06
323.566	414.06
323.795	433.06
324.024	489.06
324.253	609.06
324.482	899.06
324.71	1335.06
324.939	1704.06
325.168	1444.06
325.397	749.06
325.626	530.06
325.855	436.06
326.084	408.06
326.313	406.06
326.542	433.06
326.77	456.06
326.999	558.06
327.228	773.06
327.457	1140.06
327.686	1255.06
327.914	845.06
328.143	585.06
328.372	494.06
328.6	470.06
328.829	439.06
329.058	444.06
329.287	447.06
329.515	432.06
329.744	409.06
329.972	395.06
330.201	423.06
330.43	441.06
330.658	480.06
330.887	470.06
331.115	457.06
331.344	394.06
331.572	376.06
331.801	389.06
332.03	355.06
332.258	351.06
332.486	325.06
332.715	339.06
332.943	349.06
333.172	335.06
333.4	346.06
333.629	356.06
333.857	338.06
334.085	342.06
334.314	365.06
334.542	410.06
334.771	396.06
334.999	353.06
335.227	366.06
335.455	352.06
335.684	340.06
335.912	331.06
336.14	321.06
336.369	307.06
336.597	325.06
336.825	343.06
337.053	336.06
337.281	340.06
337.51	308.06
337.738	321.06
337.966	328.06
338.194	319.06
338.422	318.06
338.65	314.06
338.878	332.06
339.106	301.06
339.334	313.06
339.562	308.06
339.79	321.06
340.018	320.06
340.246	311.06
340.474	317.06
340.702	312.06
340.93	304.06
341.158	308.06
341.386	317.06
341.614	307.06
341.842	324.06
342.07	324.06
342.298	322.06
342.526	326.06
342.754	309.06
342.981	286.06
343.209	288.06
343.437	288.06
343.665	318.06
343.893	320.06
344.12	308.06
344.348	309.06
344.576	330.06
344.804	347.06
345.031	341.06
345.259	327.06
345.487	314.06
345.714	307.06
345.942	311.06
346.17	318.06
346.397	317.06
346.625	303.06
346.853	301.06
347.08	298.06
347.308	314.06
347.535	306.06
347.763	326.06
347.99	326.06
348.218	298.06
348.445	321.06
348.673	317.06
348.9	291.06
349.128	300.06
349.355	291.06
349.583	306.06
349.81	298.06
350.037	306.06
350.265	299.06
350.492	297.06
350.72	286.06
350.947	290.06
351.174	310.06
351.402	318.06
351.629	312.06
351.856	318.06
352.083	306.06
352.311	324.06
352.538	331.06
352.765	307.06
352.992	309.06
353.22	296.06
353.447	312.06
353.674	322.06
353.901	286.06
354.128	272.06
354.355	294.06
354.583	300.06
354.81	274.06
355.037	284.06
355.264	285.06
355.491	273.06
355.718	278.06
355.945	279.06
356.172	294.06
356.399	281.06
356.626	269.06
356.853	276.06
357.08	264.06
357.307	246.06
357.534	272.06
357.761	278.06
357.988	302.06
358.215	306.06
358.441	269.06
358.668	275.06
358.895	281.06
359.122	291.06
359.349	282.06
359.576	293.06
359.802	310.06
360.029	336.06
360.256	343.06
360.483	324.06
360.709	292.06
360.936	310.06
361.163	300.06
361.39	310.06
361.616	302.06
361.843	308.06
362.07	288.06
362.296	304.06
362.523	291.06
362.749	292.06
362.976	276.06
363.203	307.06
363.429	272.06
363.656	284.06
363.882	276.06
364.109	278.06
364.335	278.06
364.562	304.06
364.788	276.06
365.015	285.06
365.241	285.06
365.468	283.06
365.694	286.06
365.92	280.06
366.147	285.06
366.373	272.06
366.599	282.06
366.826	299.06
367.052	260.06
367.278	282.06
367.505	286.06
367.731	253.06
367.957	266.06
368.184	277.06
368.41	270.06
368.636	271.06
368.862	292.06
369.089	274.06
369.315	282.06
369.541	273.06
369.767	270.06
369.993	290.06
370.219	283.06
370.445	275.06
370.672	283.06
370.898	291.06
371.124	274.06
371.35	277.06
371.576	274.06
371.802	251.06
372.028	254.06
372.254	277.06
372.48	286.06
372.706	276.06
372.932	263.06
373.158	265.06
373.384	278.06
373.61	284.06
373.835	269.06
374.061	298.06
374.287	291.06
374.513	259.06
374.739	273.06
374.965	292.06
375.191	268.06
375.416	283.06
375.642	264.06
375.868	264.06
376.094	256.06
376.319	275.06
376.545	294.06
376.771	289.06
376.997	275.06
377.222	264.06
377.448	274.06
377.674	282.06
377.899	269.06
378.125	269.06
378.35	289.06
378.576	271.06
378.802	275.06
379.027	245.06
379.253	273.06
379.478	273.06
379.704	258.06
379.929	250.06
380.155	269.06
380.38	284.06
380.606	269.06
380.831	277.06
381.057	274.06
381.282	274.06
381.507	288.06
381.733	283.06
381.958	266.06
382.184	274.06
382.409	284.06
382.634	290.06
382.86	282.06
383.085	290.06
383.31	271.06
383.535	277.06
383.761	273.06
383.986	273.06
384.211	283.06
384.436	296.06
384.662	284.06
384.887	284.06
385.112	277.06
385.337	283.06
385.562	281.06
385.787	259.06
386.013	290.06
386.238	296.06
386.463	291.06
386.688	292.06
386.913	305.06
387.138	282.06
387.363	276.06
387.588	288.06
387.813	289.06
388.038	290.06
388.263	300.06
388.488	287.06
388.713	279.06
388.938	281.06
389.163	265.06
389.387	293.06
389.612	262.06
389.837	292.06
390.062	273.06
390.287	283.06
390.512	277.06
390.736	266.06
390.961	284.06
391.186	291.06
391.411	296.06
391.636	290.06
391.86	289.06
392.085	300.06
392.31	283.06
392.534	282.06
392.759	270.06
392.984	269.06
393.208	266.06
393.433	269.06
393.658	283.06
393.882	277.06
394.107	275.06
394.331	280.06
394.556	281.06
394.78	286.06
395.005	262.06
395.229	265.06
395.454	275.06
395.678	291.06
395.903	308.06
396.127	299.06
396.352	321.06
396.576	293.06
396.801	309.06
397.025	278.06
397.249	290.06
397.474	297.06
397.698	289.06
397.922	309.06
398.147	301.06
398.371	309.06
398.595	312.06
398.82	307.06
399.044	317.06
399.268	327.06
399.492	309.06
399.717	344.06
399.941	350.06
400.165	368.06
400.389	373.06
400.613	352.06
400.837	325.06
401.062	330.06
401.286	313.06
401.51	316.06
401.734	301.06
401.958	313.06
402.182	300.06
402.406	322.06
402.63	314.06
402.854	319.06
403.078	315.06
403.302	311.06
403.526	323.06
403.75	322.06
403.974	299.06
404.198	310.06
404.422	309.06
404.645	331.06
404.869	334.06
405.093	350.06
405.317	369.06
405.541	388.06
405.765	372.06
405.988	347.06
406.212	336.06
406.436	354.06
406.66	391.06
406.883	366.06
407.107	351.06
407.331	380.06
407.555	414.06
407.778	410.06
408.002	398.06
408.226	354.06
408.449	332.06
408.673	338.06
408.896	370.06
409.12	380.06
409.344	357.06
409.567	338.06
409.791	324.06
410.014	326.06
410.238	301.06
410.461	338.06
410.685	338.06
410.908	318.06
411.132	356.06
411.355	375.06
411.578	371.06
411.802	330.06
412.025	316.06
412.249	340.06
412.472	341.06
412.695	368.06
412.919	341.06
413.142	306.06
413.365	308.06
413.589	300.06
413.812	293.06
414.035	319.06
414.258	287.06
414.482	304.06
414.705	294.06
414.928	304.06
415.151	301.06
415.374	304.06
415.597	284.06
415.821	296.06
416.044	292.06
416.267	300.06
416.49	305.06
416.713	290.06
416.936	286.06
417.159	295.06
417.382	291.06
417.605	317.06
417.828	325.06
418.051	320.06
418.274	316.06
418.497	312.06
418.72	293.06
418.943	296.06
419.166	314.06
419.389	327.06
419.611	322.06
419.834	310.06
420.057	315.06
420.28	323.06
420.503	331.06
420.726	327.06
420.948	335.06
421.171	363.06
421.394	362.06
421.617	330.06
421.839	292.06
422.062	324.06
422.285	323.06
422.507	368.06
422.73	427.06
422.953	405.06
423.175	338.06
423.398	324.06
423.621	340.06
423.843	341.06
424.066	342.06
424.288	353.06
424.511	349.06
424.733	398.06
424.956	433.06
425.178	434.06
425.401	425.06
425.623	446.06
425.846	381.06
426.068	360.06
426.291	358.06
426.513	332.06
426.735	364.06
426.958	379.06
427.18	432.06
427.402	501.06
427.625	562.06
427.847	502.06
428.069	436.06
428.292	380.06
428.514	353.06
428.736	348.06
428.958	357.06
429.181	321.06
429.403	343.06
429.625	325.06
429.847	348.06
430.069	393.06
430.292	394.06
430.514	350.06
430.736	316.06
430.958	318.06
431.18	316.06
431.402	299.06
431.624	310.06
431.846	294.06
432.068	307.06
432.29	313.06
432.512	298.06
432.734	320.06
432.956	304.06
433.178	310.06
433.4	315.06
433.622	307.06
433.844	300.06
434.066	299.06
434.287	292.06
434.509	293.06
434.731	307.06
434.953	317.06
435.175	309.06
435.397	341.06
435.618	372.06
435.84	380.06
436.062	428.06
436.284	472.06
436.505	394.06
436.727	378.06
436.949	344.06
437.17	300.06
437.392	322.06
437.614	368.06
437.835	354.06
438.057	412.06
438.278	481.06
438.5	463.06
438.721	518.06
438.943	496.06
439.165	406.06
439.386	378.06
439.608	376.06
439.829	377.06
440.05	359.06
440.272	414.06
440.493	384.06
440.715	355.06
440.936	331.06
441.158	341.06
441.379	334.06
441.6	336.06
441.822	349.06
442.043	374.06
442.264	437.06
442.486	449.06
442.707	388.06
442.928	359.06
443.149	378.06
443.371	384.06
443.592	403.06
443.813	458.06
444.034	477.06
444.255	394.06
444.476	372.06
444.698	322.06
444.919	353.06
445.14	445.06
445.361	420.06
445.582	373.06
445.803	418.06
446.024	494.06
446.245	513.06
446.466	443.06
446.687	394.06
446.908	369.06
447.129	353.06
447.35	328.06
447.571	327.06
447.792	322.06
448.013	330.06
448.234	352.06
448.455	404.06
448.675	455.06
448.896	504.06
449.117	463.06
449.338	416.06
449.559	461.06
449.779	509.06
450	413.06
450.221	369.06
450.442	337.06
450.662	326.06
450.883	316.06
451.104	322.06
451.324	325.06
451.545	321.06
451.766	290.06
451.986	303.06
452.207	289.06
452.428	278.06
452.648	283.06
452.869	299.06
453.089	327.06
453.31	310.06
453.53	295.06
453.751	302.06
453.971	307.06
454.192	309.06
454.412	308.06
454.633	278.06
454.853	288.06
455.073	301.06
455.294	313.06
455.514	347.06
455.734	343.06
455.955	308.06
456.175	292.06
456.395	273.06
456.616	269.06
456.836	278.06
457.056	272.06
457.276	261.06
457.497	276.06
457.717	264.06
457.937	279.06
458.157	297.06
458.377	299.06
458.598	290.06
458.818	345.06
459.038	402.06
459.258	404.06
459.478	324.06
459.698	304.06
459.918	294.06
460.138	290.06
460.358	300.06
460.578	310.06
460.798	286.06
461.018	298.06
461.238	301.06
461.458	284.06
461.678	289.06
461.898	289.06
462.118	308.06
462.338	318.06
462.558	312.06
462.777	307.06
462.997	304.06
463.217	294.06
463.437	316.06
463.657	297.06
463.876	310.06
464.096	304.06
464.316	324.06
464.536	317.06
464.755	316.06
464.975	310.06
465.195	360.06
465.414	415.06
465.634	348.06
465.854	325.06
466.073	299.06
466.293	301.06
466.512	302.06
466.732	294.06
466.951	296.06
467.171	302.06
467.391	316.06
467.61	313.06
467.829	314.06
468.049	307.06
468.268	300.06
468.488	301.06
468.707	283.06
468.927	297.06
469.146	295.06
469.365	288.06
469.585	280.06
469.804	285.06
470.023	302.06
470.243	320.06
470.462	324.06
470.681	337.06
470.901	330.06
471.12	290.06
471.339	304.06
471.558	312.06
471.777	297.06
471.997	304.06
472.216	298.06
472.435	325.06
472.654	319.06
472.873	337.06
473.092	314.06
473.311	309.06
473.53	302.06
473.749	308.06
473.968	349.06
474.187	404.06
474.406	417.06
474.625	344.06
474.844	325.06
475.063	328.06
475.282	310.06
475.501	294.06
475.72	316.06
475.939	306.06
476.158	301.06
476.377	312.06
476.596	316.06
476.814	307.06
477.033	310.06
477.252	306.06
477.471	325.06
477.69	314.06
477.908	324.06
478.127	326.06
478.346	318.06
478.564	313.06
478.783	313.06
479.002	294.06
479.22	338.06
479.439	348.06
479.658	355.06
479.876	342.06
480.095	357.06
480.313	357.06
480.532	372.06
480.751	348.06
480.969	375.06
481.188	394.06
481.406	442.06
481.624	402.06
481.843	356.06
482.061	352.06
482.28	329.06
482.498	338.06
482.717	358.06
482.935	354.06
483.153	365.06
483.372	355.06
483.59	330.06
483.808	343.06
484.027	324.06
484.245	340.06
484.463	351.06
484.681	342.06
484.9	361.06
485.118	348.06
485.336	349.06
485.554	355.06
485.772	364.06
485.99	356.06
486.209	372.06
486.427	357.06
486.645	368.06
486.863	378.06
487.081	392.06
487.299	386.06
487.517	364.06
487.735	361.06
487.953	369.06
488.171	378.06
488.389	366.06
488.607	382.06
488.825	361.06
489.043	381.06
489.261	382.06
489.479	371.06
489.696	385.06
489.914	369.06
490.132	366.06
490.35	372.06
490.568	382.06
490.786	405.06
491.003	394.06
491.221	387.06
491.439	413.06
491.657	424.06
491.874	425.06
492.092	418.06
492.31	437.06
492.527	428.06
492.745	429.06
492.963	450.06
493.18	443.06
493.398	421.06
493.615	436.06
493.833	430.06
494.05	436.06
494.268	442.06
494.485	428.06
494.703	451.06
494.92	433.06
495.138	436.06
495.355	416.06
495.573	428.06
495.79	433.06
496.008	453.06
496.225	429.06
496.442	429.06
496.66	445.06
496.877	443.06
497.094	438.06
497.312	441.06
497.529	451.06
497.746	438.06
497.963	461.06
498.181	451.06
498.398	462.06
498.615	448.06
498.832	486.06
499.049	468.06
499.267	467.06
499.484	487.06
499.701	514.06
499.918	489.06
500.135	530.06
500.352	532.06
500.569	535.06
500.786	529.06
501.003	554.06
501.22	528.06
501.437	517.06
501.654	518.06
501.871	505.06
502.088	510.06
502.305	500.06
502.522	471.06
502.739	464.06
502.956	465.06
503.172	461.06
503.389	472.06
503.606	452.06
503.823	455.06
504.04	444.06
504.256	434.06
504.473	403.06
504.69	423.06
504.907	448.06
505.123	425.06
505.34	420.06
505.557	432.06
505.773	425.06
505.99	428.06
506.207	412.06
506.423	408.06
506.64	442.06
506.856	438.06
507.073	420.06
507.289	424.06
507.506	412.06
507.722	428.06
507.939	456.06
508.155	424.06
508.372	399.06
508.588	401.06
508.805	401.06
509.021	419.06
509.238	411.06
509.454	421.06
509.67	434.06
509.887	421.06
510.103	411.06
510.319	422.06
510.536	485.06
510.752	809.06
510.968	640.06
511.184	414.06
511.401	408.06
511.617	402.06
511.833	390.06
512.049	392.06
512.265	396.06
512.481	391.06
512.698	397.06
512.914	362.06
513.13	373.06
513.346	402.06
513.562	384.06
513.778	390.06
513.994	380.06
514.21	392.06
514.426	441.06
514.642	445.06
514.858	462.06
515.074	500.06
515.29	613.06
515.506	875.06
515.721	707.06
515.937	492.06
516.153	434.06
516.369	406.06
516.585	410.06
516.801	388.06
517.016	403.06
517.232	396.06
517.448	389.06
517.664	392.06
517.879	380.06
518.095	388.06
518.311	392.06
518.527	390.06
518.742	388.06
518.958	401.06
519.173	388.06
519.389	380.06
519.605	389.06
519.82	400.06
520.036	412.06
520.251	426.06
520.467	434.06
520.682	441.06
520.898	434.06
521.113	464.06
521.329	486.06
521.544	577.06
521.76	735.06
521.975	1215.06
522.19	1114.06
522.406	591.06
522.621	453.06
522.836	416.06
523.052	390.06
523.267	377.06
523.482	373.06
523.698	384.06
523.913	346.06
524.128	352.06
524.343	340.06
524.559	348.06
524.774	329.06
524.989	333.06
525.204	346.06
525.419	357.06
525.634	333.06
525.849	333.06
526.064	330.06
526.28	328.06
526.495	321.06
526.71	327.06
526.925	322.06
527.14	334.06
527.355	306.06
527.57	316.06
527.785	308.06
527.999	323.06
528.214	325.06
528.429	303.06
528.644	333.06
528.859	316.06
529.074	298.06
529.289	355.06
529.503	403.06
529.718	374.06
529.933	340.06
530.148	349.06
530.363	325.06
530.577	323.06
530.792	321.06
531.007	298.06
531.221	300.06
531.436	312.06
531.651	292.06
531.865	302.06
532.08	283.06
532.295	308.06
532.509	303.06
532.724	286.06
532.938	301.06
533.153	326.06
533.367	310.06
533.582	309.06
533.796	298.06
534.011	312.06
534.225	287.06
534.44	310.06
534.654	292.06
534.868	301.06
535.083	298.06
535.297	283.06
535.511	308.06
535.726	318.06
535.94	297.06
536.154	307.06
536.369	321.06
536.583	276.06
536.797	299.06
537.011	283.06
537.225	289.06
537.44	289.06
537.654	286.06
537.868	295.06
538.082	287.06
538.296	293.06
538.51	288.06
538.724	295.06
538.938	297.06
539.153	296.06
539.367	297.06
539.581	297.06
539.795	289.06
540.009	291.06
540.222	297.06
540.436	304.06
540.65	298.06
540.864	283.06
541.078	295.06
541.292	287.06
541.506	306.06
541.72	274.06
541.934	283.06
542.147	289.06
542.361	292.06
542.575	284.06
542.789	302.06
543.002	280.06
543.216	306.06
543.43	284.06
543.644	294.06
543.857	280.06
544.071	307.06
544.285	302.06
544.498	294.06
544.712	294.06
544.925	282.06
545.139	284.06
545.352	293.06
545.566	301.06
545.779	276.06
545.993	282.06
546.206	274.06
546.42	287.06
546.633	282.06
546.847	289.06
547.06	266.06
547.274	279.06
547.487	294.06
547.7	275.06
547.914	277.06
548.127	279.06
548.34	275.06
548.554	264.06
548.767	260.06
548.98	272.06
549.193	273.06
549.407	273.06
549.62	277.06
549.833	252.06
550.046	262.06
550.259	276.06
550.473	285.06
550.686	276.06
550.899	256.06
551.112	270.06
551.325	283.06
551.538	288.06
551.751	267.06
551.964	266.06
552.177	253.06
552.39	273.06
552.603	270.06
552.816	251.06
553.029	267.06
553.242	277.06
553.455	264.06
553.667	290.06
553.88	282.06
554.093	288.06
554.306	272.06
554.519	274.06
554.732	277.06
554.944	277.06
555.157	271.06
555.37	268.06
555.583	264.06
555.795	255.06
556.008	256.06
556.221	249.06
556.433	252.06
556.646	250.06
556.859	240.06
557.071	258.06
557.284	253.06
557.496	232.06
557.709	244.06
557.921	250.06
558.134	261.06
558.346	256.06
558.559	259.06
558.771	245.06
558.984	241.06
559.196	224.06
559.409	256.06
559.621	255.06
559.833	240.06
560.046	238.06
560.258	260.06
560.47	242.06
560.683	241.06
560.895	253.06
561.107	255.06
561.32	258.06
561.532	224.06
561.744	247.06
561.956	231.06
562.168	236.06
562.381	253.06
562.593	243.06
562.805	246.06
563.017	251.06
563.229	256.06
563.441	249.06
563.653	245.06
563.865	224.06
564.077	231.06
564.289	237.06
564.501	248.06
564.713	234.06
564.925	262.06
565.137	272.06
565.349	263.06
565.561	246.06
565.773	247.06
565.985	246.06
566.197	266.06
566.408	268.06
566.62	272.06
566.832	278.06
567.044	266.06
567.255	254.06
567.467	274.06
567.679	274.06
567.891	290.06
568.102	277.06
568.314	296.06
568.526	268.06
568.737	262.06
568.949	279.06
569.161	275.06
569.372	244.06
569.584	248.06
569.795	246.06
570.007	266.06
570.218	282.06
570.43	263.06
570.641	246.06
570.853	259.06
571.064	232.06
571.276	213.06
571.487	220.06
571.698	219.06
571.91	230.06
572.121	222.06
572.333	228.06
572.544	200.06
572.755	202.06
572.966	231.06
573.178	211.06
573.389	225.06
573.6	220.06
573.811	218.06
574.023	216.06
574.234	207.06
574.445	229.06
574.656	205.06
574.867	205.06
575.078	214.06
575.289	220.06
575.501	222.06
575.712	214.06
575.923	212.06
576.134	220.06
576.345	204.06
576.556	216.06
576.767	210.06
576.978	218.06
577.188	217.06
577.399	196.06
577.61	210.06
577.821	221.06
578.032	211.06
578.243	229.06
578.454	405.06
578.665	292.06
578.875	204.06
579.086	205.06
579.297	192.06
579.508	199.06
579.718	203.06
579.929	202.06
580.14	211.06
580.35	209.06
580.561	215.06
580.772	199.06
580.982	196.06
581.193	204.06
581.403	200.06
581.614	189.06
581.825	200.06
582.035	209.06
582.246	204.06
582.456	203.06
582.667	184.06
582.877	215.06
583.087	214.06
583.298	198.06
583.508	206.06
583.719	199.06
583.929	199.06
584.139	200.06
584.35	213.06
584.56	188.06
584.77	195.06
584.981	224.06
585.191	187.06
585.401	211.06
585.611	201.06
585.821	210.06
586.032	204.06
586.242	197.06
586.452	215.06
586.662	185.06
586.872	178.06
587.082	189.06
587.292	196.06
587.502	198.06
587.713	185.06
587.923	202.06
588.133	193.06
588.343	198.06
588.553	197.06
588.762	211.06
588.972	207.06
589.182	197.06
589.392	195.06
589.602	213.06
589.812	197.06
590.022	190.06
590.232	189.06
590.441	200.06
590.651	198.06
590.861	202.06
591.071	190.06
591.281	178.06
591.49	194.06
591.7	194.06
591.91	194.06
592.119	204.06
592.329	188.06
592.539	206.06
592.748	206.06
592.958	210.06
593.167	196.06
593.377	194.06
593.587	208.06
593.796	198.06
594.006	196.06
594.215	194.06
594.424	188.06
594.634	185.06
594.843	185.06
595.053	183.06
595.262	184.06
595.472	177.06
595.681	186.06
595.89	190.06
596.1	182.06
596.309	178.06
596.518	202.06
596.727	189.06
596.937	185.06
597.146	183.06
597.355	185.06
597.564	174.06
597.774	166.06
597.983	179.06
598.192	184.06
598.401	170.06
598.61	170.06
598.819	182.06
599.028	177.06
599.237	186.06
599.446	169.06
599.655	181.06
599.864	165.06
600.073	174.06
600.282	168.06
600.491	186.06
600.7	186.06
600.909	161.06
601.118	186.06
601.327	189.06
601.536	156.06
601.745	189.06
601.953	152.06
602.162	167.06
602.371	169.06
602.58	168.06
602.789	154.06
602.997	177.06
603.206	173.06
603.415	180.06
603.623	169.06
603.832	159.06
604.041	176.06
604.249	167.06
604.458	184.06
604.666	170.06
604.875	174.06
605.084	160.06
605.292	166.06
605.501	168.06
605.709	175.06
605.918	182.06
606.126	170.06
606.334	164.06
606.543	165.06
606.751	169.06
606.96	158.06
607.168	164.06
607.376	169.06
607.585	177.06
607.793	176.06
608.001	179.06
608.21	165.06
608.418	176.06
608.626	169.06
608.834	152.06
609.043	173.06
609.251	176.06
609.459	153.06
609.667	171.06
609.875	179.06
610.083	161.06
610.291	164.06
610.499	170.06
610.707	166.06
610.916	168.06
611.124	173.06
611.332	176.06
611.54	188.06
611.748	174.06
611.955	161.06
612.163	170.06
612.371	172.06
612.579	171.06
612.787	173.06
612.995	168.06
613.203	184.06
613.411	166.06
613.618	169.06
613.826	165.06
614.034	157.06
614.242	164.06
614.449	179.06
614.657	166.06
614.865	167.06
615.072	165.06
615.28	162.06
615.488	161.06
615.695	159.06
615.903	167.06
616.111	159.06
616.318	184.06
616.526	159.06
616.733	174.06
616.941	164.06
617.148	155.06
617.356	139.06
617.563	170.06
617.771	178.06
617.978	151.06
618.185	164.06
618.393	169.06
618.6	172.06
618.807	167.06
619.015	154.06
619.222	152.06
619.429	179.06
619.637	170.06
619.844	156.06
620.051	152.06
620.258	149.06
620.466	147.06
620.673	155.06
620.88	163.06
621.087	161.06
621.294	155.06
621.501	155.06
621.708	187.06
621.915	163.06
622.122	156.06
622.329	141.06
622.536	149.06
622.743	169.06
622.95	141.06
623.157	157.06
623.364	152.06
623.571	179.06
623.778	142.06
623.985	144.06
624.192	148.06
624.399	160.06
624.606	135.06
624.812	145.06
625.019	142.06
625.226	146.06
625.433	163.06
625.639	155.06
625.846	149.06
626.053	139.06
626.259	154.06
626.466	148.06
626.673	136.06
626.879	144.06
627.086	158.06
627.293	147.06
627.499	149.06
627.706	137.06
627.912	144.06
628.119	152.06
628.325	133.06
628.532	152.06
628.738	149.06
628.945	154.06
629.151	147.06
629.357	140.06
629.564	148.06
629.77	141.06
629.976	144.06
630.183	149.06
630.389	133.06
630.595	139.06
630.802	157.06
631.008	150.06
631.214	123.06
631.42	148.06
631.627	168.06
631.833	130.06
632.039	147.06
632.245	146.06
632.451	135.06
632.657	143.06
632.863	156.06
633.069	153.06
633.275	155.06
633.481	159.06
633.688	142.06
633.893	141.06
634.099	137.06
634.305	121.06
634.511	152.06
634.717	128.06
634.923	133.06
635.129	148.06
635.335	138.06
635.541	142.06
635.747	126.06
635.952	141.06
636.158	144.06
636.364	137.06
636.57	142.06
636.775	131.06
636.981	141.06
637.187	142.06
637.392	160.06
637.598	152.06
637.804	130.06
638.009	132.06
638.215	136.06
638.421	115.06
638.626	126.06
638.832	142.06
639.037	153.06
639.243	133.06
639.448	138.06
639.654	137.06
639.859	136.06
640.065	132.06
640.27	147.06
640.475	144.06
640.681	108.06
640.886	140.06
641.091	124.06
641.297	125.06
641.502	148.06
641.707	131.06
641.913	125.06
642.118	128.06
642.323	140.06
642.528	126.06
642.733	129.06
642.939	142.06
643.144	124.06
643.349	126.06
643.554	133.06
643.759	139.06
643.964	103.06
644.169	115.06
644.374	126.06
644.579	126.06
644.784	137.06
644.989	130.06
645.194	125.06
645.399	136.06
645.604	117.06
645.809	127.06
646.014	134.06
646.219	136.06
646.423	134.06
646.628	141.06
646.833	123.06
647.038	123.06
647.243	112.06
647.447	140.06
647.652	119.06
647.857	133.06
648.062	109.06
648.266	115.06
648.471	138.06
648.676	128.06
648.88	104.06
649.085	129.06
649.289	122.06
649.494	133.06
649.698	143.06
649.903	134.06
650.107	138.06
650.312	138.06
650.516	125.06
650.721	126.06
650.925	126.06
651.13	128.06
651.334	109.06
651.539	136.06
651.743	124.06
651.947	116.06
652.152	113.06
652.356	117.06
652.56	120.06
652.764	118.06
652.969	112.06
653.173	109.06
653.377	100.06
653.581	105.06
653.785	105.06
653.99	128.06
654.194	130.06
654.398	125.06
654.602	119.06
654.806	118.06
655.01	122.06
655.214	126.06
655.418	122.06
655.622	116.06
655.826	103.06
656.03	116.06
656.234	109.06
656.438	130.06
656.642	114.06
656.846	108.06
657.049	97.06
657.253	109.06
657.457	105.06
657.661	100.06
657.865	105.06
658.068	106.06
658.272	88.06
658.476	104.06
658.68	94.06
658.883	101.06
659.087	104.06
659.291	103.06
659.494	99.06
659.698	87.06
659.901	91.06
660.105	108.06
660.309	78.06
660.512	95.06
660.716	81.06
660.919	88.06
661.123	86.06
661.326	102.06
661.53	94.06
661.733	104.06
661.936	90.06
662.14	103.06
662.343	98.06
662.546	87.06
662.75	88.06
662.953	87.06
663.156	81.06
663.36	83.06
663.563	89.06
663.766	84.06
663.969	90.06
664.173	80.06
664.376	71.06
664.579	88.06
664.782	79.06
664.985	82.06
665.188	79.06
665.391	81.06
665.594	74.06
665.797	84.06
666	84.06
666.203	84.06
666.406	76.06
666.609	72.06
666.812	84.06
667.015	85.06
667.218	82.06
667.421	90.06
667.624	76.06
667.827	114.06
668.03	85.06
668.232	70.06
668.435	91.06
668.638	66.06
668.841	93.06
669.043	95.06
669.246	85.06
669.449	89.06
669.651	82.06
669.854	89.06
670.057	82.06
670.259	86.06
670.462	86.06
670.665	84.06
670.867	78.06
671.07	89.06
671.272	83.06
671.475	96.06
671.677	90.06
671.88	67.06
672.082	78.06
672.284	85.06
672.487	92.06
672.689	88.06
672.892	87.06
