Data from 1982.PennyLincolnUp.Lamp.En5.5.200Scan.071819.P1_HRD10591_16-45-40-961.txt Node
Date: Thu Jul 18 16:45:40 EDT 2019
User: cochatt
Spectrometer: HR+D1059
Trigger mode: 1
Integration Time (sec): 1.000000E-1
Scans to average: 1
Electric dark correction enabled: true
Nonlinearity correction enabled: false
Boxcar width: 0
XAxis mode: Wavelengths
Number of Pixels in Spectrum: 2048
>>>>>Begin Spectral Data<<<<<
223.165	-13.94
223.4	-13.94
223.635	-13.94
223.869	-12.94
224.104	-7.94
224.338	-0.94
224.573	-25.94
224.808	-11.94
225.042	-10.94
225.277	-10.94
225.511	3.06
225.746	2.06
225.98	11.06
226.215	6.06
226.449	10.06
226.683	15.06
226.918	11.06
227.152	37.06
227.387	26.06
227.621	27.06
227.856	49.06
228.09	51.06
228.324	48.06
228.559	54.06
228.793	79.06
229.027	73.06
229.262	67.06
229.496	94.06
229.73	105.06
229.964	127.06
230.199	98.06
230.433	107.06
230.667	94.06
230.901	87.06
231.136	97.06
231.37	87.06
231.604	101.06
231.838	82.06
232.072	92.06
232.306	92.06
232.541	98.06
232.775	99.06
233.009	112.06
233.243	99.06
233.477	100.06
233.711	95.06
233.945	95.06
234.179	104.06
234.413	102.06
234.647	113.06
234.881	105.06
235.115	92.06
235.349	99.06
235.583	101.06
235.817	102.06
236.051	109.06
236.285	92.06
236.519	106.06
236.753	102.06
236.987	92.06
237.221	151.06
237.455	183.06
237.689	137.06
237.922	120.06
238.156	103.06
238.39	105.06
238.624	103.06
238.858	113.06
239.091	108.06
239.325	102.06
239.559	118.06
239.793	121.06
240.027	106.06
240.26	129.06
240.494	122.06
240.728	105.06
240.961	124.06
241.195	109.06
241.429	109.06
241.662	115.06
241.896	108.06
242.13	104.06
242.363	113.06
242.597	103.06
242.83	117.06
243.064	124.06
243.298	108.06
243.531	103.06
243.765	110.06
243.998	125.06
244.232	127.06
244.465	117.06
244.699	123.06
244.932	111.06
245.166	110.06
245.399	115.06
245.633	131.06
245.866	112.06
246.099	115.06
246.333	112.06
246.566	119.06
246.8	129.06
247.033	125.06
247.266	118.06
247.5	125.06
247.733	133.06
247.966	135.06
248.2	135.06
248.433	132.06
248.666	141.06
248.899	144.06
249.133	153.06
249.366	160.06
249.599	163.06
249.832	149.06
250.066	149.06
250.299	149.06
250.532	139.06
250.765	165.06
250.998	167.06
251.231	181.06
251.465	175.06
251.698	175.06
251.931	159.06
252.164	150.06
252.397	162.06
252.63	159.06
252.863	154.06
253.096	171.06
253.329	169.06
253.562	198.06
253.795	162.06
254.028	163.06
254.261	168.06
254.494	164.06
254.727	189.06
254.96	205.06
255.193	201.06
255.426	205.06
255.659	183.06
255.892	177.06
256.124	178.06
256.357	178.06
256.59	172.06
256.823	175.06
257.056	177.06
257.289	175.06
257.521	169.06
257.754	155.06
257.987	147.06
258.22	164.06
258.452	164.06
258.685	155.06
258.918	164.06
259.151	147.06
259.383	181.06
259.616	177.06
259.849	176.06
260.081	173.06
260.314	195.06
260.547	197.06
260.779	206.06
261.012	168.06
261.244	169.06
261.477	192.06
261.71	185.06
261.942	177.06
262.175	173.06
262.407	176.06
262.64	168.06
262.872	169.06
263.105	175.06
263.337	155.06
263.57	154.06
263.802	165.06
264.035	165.06
264.267	170.06
264.499	148.06
264.732	152.06
264.964	160.06
265.197	164.06
265.429	175.06
265.661	165.06
265.894	177.06
266.126	164.06
266.358	166.06
266.591	177.06
266.823	179.06
267.055	179.06
267.287	162.06
267.52	179.06
267.752	169.06
267.984	169.06
268.216	162.06
268.448	190.06
268.681	192.06
268.913	193.06
269.145	198.06
269.377	196.06
269.609	196.06
269.841	192.06
270.073	227.06
270.306	241.06
270.538	241.06
270.77	219.06
271.002	211.06
271.234	215.06
271.466	208.06
271.698	223.06
271.93	234.06
272.162	239.06
272.394	247.06
272.626	235.06
272.858	218.06
273.09	209.06
273.322	193.06
273.553	215.06
273.785	216.06
274.017	205.06
274.249	209.06
274.481	179.06
274.713	198.06
274.945	211.06
275.176	224.06
275.408	196.06
275.64	199.06
275.872	215.06
276.104	221.06
276.335	196.06
276.567	217.06
276.799	201.06
277.031	230.06
277.262	231.06
277.494	239.06
277.726	233.06
277.957	230.06
278.189	209.06
278.421	229.06
278.652	187.06
278.884	205.06
279.115	186.06
279.347	198.06
279.579	211.06
279.81	203.06
280.042	213.06
280.273	219.06
280.505	204.06
280.736	198.06
280.968	216.06
281.199	193.06
281.431	196.06
281.662	218.06
281.894	210.06
282.125	206.06
282.356	223.06
282.588	205.06
282.819	216.06
283.051	207.06
283.282	204.06
283.513	215.06
283.745	214.06
283.976	232.06
284.207	205.06
284.439	221.06
284.67	200.06
284.901	199.06
285.132	198.06
285.364	216.06
285.595	211.06
285.826	193.06
286.057	215.06
286.288	197.06
286.52	187.06
286.751	208.06
286.982	223.06
287.213	200.06
287.444	217.06
287.675	207.06
287.906	210.06
288.138	227.06
288.369	216.06
288.6	211.06
288.831	228.06
289.062	207.06
289.293	230.06
289.524	215.06
289.755	224.06
289.986	207.06
290.217	213.06
290.448	204.06
290.679	195.06
290.91	208.06
291.141	210.06
291.371	211.06
291.602	209.06
291.833	218.06
292.064	213.06
292.295	220.06
292.526	199.06
292.757	228.06
292.987	218.06
293.218	205.06
293.449	208.06
293.68	224.06
293.91	209.06
294.141	202.06
294.372	218.06
294.603	230.06
294.833	214.06
295.064	218.06
295.295	228.06
295.525	217.06
295.756	217.06
295.987	216.06
296.217	235.06
296.448	244.06
296.679	212.06
296.909	217.06
297.14	199.06
297.37	232.06
297.601	226.06
297.831	226.06
298.062	221.06
298.292	227.06
298.523	219.06
298.753	239.06
298.984	213.06
299.214	231.06
299.445	235.06
299.675	221.06
299.905	237.06
300.136	226.06
300.366	220.06
300.597	223.06
300.827	219.06
301.057	242.06
301.288	243.06
301.518	236.06
301.748	222.06
301.979	221.06
302.209	251.06
302.439	247.06
302.669	234.06
302.9	241.06
303.13	241.06
303.36	250.06
303.59	257.06
303.82	233.06
304.051	261.06
304.281	253.06
304.511	239.06
304.741	241.06
304.971	234.06
305.201	239.06
305.431	239.06
305.661	242.06
305.891	252.06
306.121	235.06
306.352	256.06
306.582	262.06
306.812	230.06
307.042	235.06
307.272	228.06
307.502	251.06
307.731	230.06
307.961	253.06
308.191	253.06
308.421	240.06
308.651	240.06
308.881	255.06
309.111	259.06
309.341	251.06
309.571	261.06
309.8	259.06
310.03	281.06
310.26	272.06
310.49	275.06
310.72	287.06
310.949	283.06
311.179	279.06
311.409	278.06
311.639	289.06
311.868	263.06
312.098	266.06
312.328	298.06
312.557	293.06
312.787	295.06
313.017	300.06
313.246	292.06
313.476	311.06
313.706	284.06
313.935	296.06
314.165	309.06
314.394	299.06
314.624	289.06
314.853	281.06
315.083	278.06
315.312	291.06
315.542	271.06
315.771	287.06
316.001	280.06
316.23	279.06
316.46	265.06
316.689	279.06
316.919	276.06
317.148	279.06
317.377	281.06
317.607	295.06
317.836	285.06
318.065	273.06
318.295	265.06
318.524	299.06
318.753	296.06
318.983	293.06
319.212	278.06
319.441	290.06
319.67	287.06
319.9	289.06
320.129	292.06
320.358	275.06
320.587	275.06
320.816	293.06
321.046	300.06
321.275	303.06
321.504	287.06
321.733	301.06
321.962	318.06
322.191	303.06
322.42	330.06
322.649	340.06
322.878	353.06
323.108	372.06
323.337	374.06
323.566	373.06
323.795	412.06
324.024	470.06
324.253	577.06
324.482	832.06
324.71	1253.06
324.939	1608.06
325.168	1308.06
325.397	679.06
325.626	477.06
325.855	416.06
326.084	378.06
326.313	370.06
326.542	375.06
326.77	434.06
326.999	551.06
327.228	750.06
327.457	1063.06
327.686	1150.06
327.914	772.06
328.143	533.06
328.372	473.06
328.6	449.06
328.829	432.06
329.058	453.06
329.287	435.06
329.515	408.06
329.744	378.06
329.972	369.06
330.201	379.06
330.43	446.06
330.658	419.06
330.887	435.06
331.115	448.06
331.344	377.06
331.572	371.06
331.801	355.06
332.03	367.06
332.258	340.06
332.486	316.06
332.715	307.06
332.943	326.06
333.172	309.06
333.4	330.06
333.629	332.06
333.857	330.06
334.085	336.06
334.314	334.06
334.542	376.06
334.771	385.06
334.999	344.06
335.227	331.06
335.455	313.06
335.684	335.06
335.912	337.06
336.14	325.06
336.369	299.06
336.597	315.06
336.825	325.06
337.053	308.06
337.281	321.06
337.51	303.06
337.738	315.06
337.966	315.06
338.194	317.06
338.422	306.06
338.65	318.06
338.878	329.06
339.106	305.06
339.334	312.06
339.562	284.06
339.79	312.06
340.018	313.06
340.246	297.06
340.474	321.06
340.702	309.06
340.93	305.06
341.158	311.06
341.386	290.06
341.614	311.06
341.842	299.06
342.07	296.06
342.298	286.06
342.526	288.06
342.754	295.06
342.981	276.06
343.209	293.06
343.437	294.06
343.665	311.06
343.893	306.06
344.12	293.06
344.348	319.06
344.576	305.06
344.804	309.06
345.031	311.06
345.259	323.06
345.487	316.06
345.714	307.06
345.942	292.06
346.17	305.06
346.397	295.06
346.625	290.06
346.853	294.06
347.08	282.06
347.308	288.06
347.535	300.06
347.763	297.06
347.99	314.06
348.218	320.06
348.445	303.06
348.673	297.06
348.9	292.06
349.128	297.06
349.355	319.06
349.583	299.06
349.81	272.06
350.037	286.06
350.265	297.06
350.492	291.06
350.72	299.06
350.947	287.06
351.174	302.06
351.402	300.06
351.629	303.06
351.856	294.06
352.083	296.06
352.311	307.06
352.538	313.06
352.765	317.06
352.992	310.06
353.22	303.06
353.447	293.06
353.674	296.06
353.901	298.06
354.128	283.06
354.355	283.06
354.583	256.06
354.81	279.06
355.037	265.06
355.264	287.06
355.491	268.06
355.718	291.06
355.945	264.06
356.172	284.06
356.399	268.06
356.626	267.06
356.853	260.06
357.08	282.06
357.307	265.06
357.534	263.06
357.761	264.06
357.988	260.06
358.215	295.06
358.441	283.06
358.668	268.06
358.895	274.06
359.122	267.06
359.349	298.06
359.576	287.06
359.802	313.06
360.029	338.06
360.256	333.06
360.483	317.06
360.709	310.06
360.936	290.06
361.163	306.06
361.39	285.06
361.616	274.06
361.843	303.06
362.07	299.06
362.296	305.06
362.523	303.06
362.749	294.06
362.976	300.06
363.203	293.06
363.429	281.06
363.656	295.06
363.882	273.06
364.109	271.06
364.335	292.06
364.562	271.06
364.788	281.06
365.015	280.06
365.241	273.06
365.468	266.06
365.694	284.06
365.92	291.06
366.147	267.06
366.373	263.06
366.599	266.06
366.826	281.06
367.052	268.06
367.278	274.06
367.505	280.06
367.731	268.06
367.957	272.06
368.184	286.06
368.41	268.06
368.636	264.06
368.862	287.06
369.089	260.06
369.315	287.06
369.541	259.06
369.767	280.06
369.993	275.06
370.219	272.06
370.445	264.06
370.672	292.06
370.898	259.06
371.124	287.06
371.35	257.06
371.576	267.06
371.802	264.06
372.028	266.06
372.254	278.06
372.48	269.06
372.706	268.06
372.932	272.06
373.158	261.06
373.384	283.06
373.61	282.06
373.835	276.06
374.061	276.06
374.287	261.06
374.513	274.06
374.739	285.06
374.965	260.06
375.191	285.06
375.416	286.06
375.642	275.06
375.868	260.06
376.094	273.06
376.319	269.06
376.545	271.06
376.771	255.06
376.997	249.06
377.222	278.06
377.448	277.06
377.674	260.06
377.899	263.06
378.125	262.06
378.35	275.06
378.576	264.06
378.802	252.06
379.027	262.06
379.253	259.06
379.478	254.06
379.704	253.06
379.929	268.06
380.155	272.06
380.38	287.06
380.606	268.06
380.831	257.06
381.057	268.06
381.282	261.06
381.507	269.06
381.733	267.06
381.958	265.06
382.184	265.06
382.409	270.06
382.634	258.06
382.86	280.06
383.085	272.06
383.31	256.06
383.535	259.06
383.761	277.06
383.986	287.06
384.211	270.06
384.436	290.06
384.662	273.06
384.887	277.06
385.112	271.06
385.337	277.06
385.562	276.06
385.787	278.06
386.013	278.06
386.238	280.06
386.463	297.06
386.688	276.06
386.913	265.06
387.138	297.06
387.363	275.06
387.588	267.06
387.813	272.06
388.038	294.06
388.263	260.06
388.488	274.06
388.713	267.06
388.938	267.06
389.163	284.06
389.387	279.06
389.612	287.06
389.837	271.06
390.062	276.06
390.287	279.06
390.512	271.06
390.736	280.06
390.961	262.06
391.186	250.06
391.411	269.06
391.636	268.06
391.86	292.06
392.085	272.06
392.31	301.06
392.534	268.06
392.759	278.06
392.984	269.06
393.208	276.06
393.433	263.06
393.658	257.06
393.882	264.06
394.107	279.06
394.331	268.06
394.556	262.06
394.78	263.06
395.005	277.06
395.229	280.06
395.454	279.06
395.678	264.06
395.903	289.06
396.127	293.06
396.352	308.06
396.576	295.06
396.801	287.06
397.025	271.06
397.249	290.06
397.474	285.06
397.698	260.06
397.922	293.06
398.147	309.06
398.371	326.06
398.595	311.06
398.82	299.06
399.044	303.06
399.268	308.06
399.492	330.06
399.717	341.06
399.941	377.06
400.165	363.06
400.389	363.06
400.613	353.06
400.837	323.06
401.062	321.06
401.286	303.06
401.51	277.06
401.734	299.06
401.958	299.06
402.182	310.06
402.406	308.06
402.63	322.06
402.854	329.06
403.078	304.06
403.302	323.06
403.526	322.06
403.75	319.06
403.974	321.06
404.198	313.06
404.422	318.06
404.645	306.06
404.869	329.06
405.093	340.06
405.317	355.06
405.541	382.06
405.765	368.06
405.988	334.06
406.212	346.06
406.436	375.06
406.66	372.06
406.883	348.06
407.107	352.06
407.331	381.06
407.555	385.06
407.778	411.06
408.002	377.06
408.226	346.06
408.449	343.06
408.673	343.06
408.896	357.06
409.12	389.06
409.344	352.06
409.567	333.06
409.791	315.06
410.014	318.06
410.238	303.06
410.461	308.06
410.685	306.06
410.908	339.06
411.132	353.06
411.355	359.06
411.578	346.06
411.802	335.06
412.025	333.06
412.249	304.06
412.472	340.06
412.695	339.06
412.919	340.06
413.142	320.06
413.365	310.06
413.589	293.06
413.812	289.06
414.035	286.06
414.258	303.06
414.482	305.06
414.705	312.06
414.928	289.06
415.151	301.06
415.374	281.06
415.597	297.06
415.821	292.06
416.044	296.06
416.267	306.06
416.49	288.06
416.713	295.06
416.936	308.06
417.159	304.06
417.382	303.06
417.605	310.06
417.828	297.06
418.051	315.06
418.274	305.06
418.497	290.06
418.72	302.06
418.943	274.06
419.166	310.06
419.389	294.06
419.611	303.06
419.834	322.06
420.057	314.06
420.28	310.06
420.503	315.06
420.726	309.06
420.948	314.06
421.171	330.06
421.394	352.06
421.617	323.06
421.839	300.06
422.062	307.06
422.285	339.06
422.507	347.06
422.73	403.06
422.953	375.06
423.175	335.06
423.398	340.06
423.621	322.06
423.843	338.06
424.066	324.06
424.288	348.06
424.511	331.06
424.733	383.06
424.956	415.06
425.178	425.06
425.401	421.06
425.623	415.06
425.846	367.06
426.068	355.06
426.291	333.06
426.513	346.06
426.735	345.06
426.958	365.06
427.18	412.06
427.402	483.06
427.625	555.06
427.847	473.06
428.069	395.06
428.292	366.06
428.514	320.06
428.736	324.06
428.958	328.06
429.181	308.06
429.403	328.06
429.625	341.06
429.847	352.06
430.069	388.06
430.292	383.06
430.514	309.06
430.736	317.06
430.958	298.06
431.18	307.06
431.402	284.06
431.624	295.06
431.846	275.06
432.068	301.06
432.29	291.06
432.512	301.06
432.734	310.06
432.956	289.06
433.178	307.06
433.4	301.06
433.622	292.06
433.844	297.06
434.066	305.06
434.287	311.06
434.509	312.06
434.731	310.06
434.953	315.06
435.175	321.06
435.397	328.06
435.618	355.06
435.84	369.06
436.062	418.06
436.284	448.06
436.505	394.06
436.727	340.06
436.949	344.06
437.17	315.06
437.392	310.06
437.614	310.06
437.835	351.06
438.057	410.06
438.278	461.06
438.5	467.06
438.721	498.06
438.943	472.06
439.165	394.06
439.386	369.06
439.608	349.06
439.829	358.06
440.05	379.06
440.272	387.06
440.493	379.06
440.715	354.06
440.936	319.06
441.158	325.06
441.379	293.06
441.6	331.06
441.822	340.06
442.043	360.06
442.264	412.06
442.486	425.06
442.707	377.06
442.928	361.06
443.149	361.06
443.371	361.06
443.592	415.06
443.813	438.06
444.034	484.06
444.255	401.06
444.476	363.06
444.698	348.06
444.919	333.06
445.14	405.06
445.361	388.06
445.582	365.06
445.803	407.06
446.024	447.06
446.245	471.06
446.466	443.06
446.687	364.06
446.908	359.06
447.129	331.06
447.35	310.06
447.571	309.06
447.792	319.06
448.013	322.06
448.234	333.06
448.455	392.06
448.675	408.06
448.896	460.06
449.117	420.06
449.338	401.06
449.559	469.06
449.779	510.06
450	412.06
450.221	357.06
450.442	323.06
450.662	324.06
450.883	327.06
451.104	330.06
451.324	299.06
451.545	303.06
451.766	309.06
451.986	298.06
452.207	280.06
452.428	283.06
452.648	280.06
452.869	271.06
453.089	291.06
453.31	313.06
453.53	298.06
453.751	298.06
453.971	279.06
454.192	307.06
454.412	299.06
454.633	288.06
454.853	261.06
455.073	274.06
455.294	322.06
455.514	350.06
455.734	329.06
455.955	286.06
456.175	265.06
456.395	270.06
456.616	277.06
456.836	271.06
457.056	278.06
457.276	268.06
457.497	287.06
457.717	275.06
457.937	269.06
458.157	278.06
458.377	276.06
458.598	301.06
458.818	334.06
459.038	370.06
459.258	381.06
459.478	328.06
459.698	292.06
459.918	312.06
460.138	296.06
460.358	309.06
460.578	289.06
460.798	289.06
461.018	282.06
461.238	280.06
461.458	284.06
461.678	296.06
461.898	281.06
462.118	289.06
462.338	283.06
462.558	287.06
462.777	301.06
462.997	306.06
463.217	319.06
463.437	311.06
463.657	321.06
463.876	307.06
464.096	300.06
464.316	296.06
464.536	297.06
464.755	314.06
464.975	309.06
465.195	348.06
465.414	386.06
465.634	347.06
465.854	315.06
466.073	305.06
466.293	307.06
466.512	287.06
466.732	267.06
466.951	278.06
467.171	286.06
467.391	298.06
467.61	291.06
467.829	298.06
468.049	284.06
468.268	289.06
468.488	290.06
468.707	291.06
468.927	267.06
469.146	269.06
469.365	270.06
469.585	287.06
469.804	282.06
470.023	305.06
470.243	287.06
470.462	326.06
470.681	316.06
470.901	308.06
471.12	311.06
471.339	307.06
471.558	303.06
471.777	291.06
471.997	283.06
472.216	281.06
472.435	289.06
472.654	306.06
472.873	283.06
473.092	302.06
473.311	287.06
473.53	286.06
473.749	309.06
473.968	323.06
474.187	407.06
474.406	395.06
474.625	325.06
474.844	307.06
475.063	291.06
475.282	308.06
475.501	305.06
475.72	303.06
475.939	295.06
476.158	308.06
476.377	289.06
476.596	281.06
476.814	287.06
477.033	291.06
477.252	300.06
477.471	304.06
477.69	312.06
477.908	320.06
478.127	309.06
478.346	333.06
478.564	302.06
478.783	327.06
479.002	319.06
479.22	336.06
479.439	340.06
479.658	333.06
479.876	321.06
480.095	369.06
480.313	345.06
480.532	341.06
480.751	373.06
480.969	372.06
481.188	389.06
481.406	403.06
481.624	368.06
481.843	331.06
482.061	354.06
482.28	337.06
482.498	343.06
482.717	324.06
482.935	337.06
483.153	361.06
483.372	345.06
483.59	355.06
483.808	340.06
484.027	339.06
484.245	337.06
484.463	331.06
484.681	344.06
484.9	355.06
485.118	348.06
485.336	347.06
485.554	325.06
485.772	334.06
485.99	345.06
486.209	341.06
486.427	356.06
486.645	348.06
486.863	380.06
487.081	380.06
487.299	378.06
487.517	361.06
487.735	354.06
487.953	353.06
488.171	345.06
488.389	349.06
488.607	353.06
488.825	338.06
489.043	350.06
489.261	357.06
489.479	371.06
489.696	364.06
489.914	375.06
490.132	382.06
490.35	376.06
490.568	371.06
490.786	385.06
491.003	410.06
491.221	397.06
491.439	401.06
491.657	421.06
491.874	409.06
492.092	420.06
492.31	414.06
492.527	423.06
492.745	429.06
492.963	412.06
493.18	428.06
493.398	448.06
493.615	417.06
493.833	416.06
494.05	418.06
494.268	411.06
494.485	412.06
494.703	420.06
494.92	411.06
495.138	419.06
495.355	407.06
495.573	419.06
495.79	424.06
496.008	413.06
496.225	416.06
496.442	408.06
496.66	430.06
496.877	435.06
497.094	435.06
497.312	411.06
497.529	441.06
497.746	430.06
497.963	422.06
498.181	449.06
498.398	431.06
498.615	474.06
498.832	449.06
499.049	465.06
499.267	460.06
499.484	503.06
499.701	515.06
499.918	497.06
500.135	515.06
500.352	510.06
500.569	510.06
500.786	528.06
501.003	522.06
501.22	513.06
501.437	509.06
501.654	499.06
501.871	490.06
502.088	502.06
502.305	487.06
502.522	465.06
502.739	447.06
502.956	450.06
503.172	446.06
503.389	442.06
503.606	447.06
503.823	433.06
504.04	424.06
504.256	419.06
504.473	415.06
504.69	413.06
504.907	421.06
505.123	423.06
505.34	408.06
505.557	424.06
505.773	413.06
505.99	398.06
506.207	439.06
506.423	397.06
506.64	406.06
506.856	394.06
507.073	393.06
507.289	410.06
507.506	393.06
507.722	415.06
507.939	435.06
508.155	408.06
508.372	391.06
508.588	392.06
508.805	408.06
509.021	389.06
509.238	410.06
509.454	392.06
509.67	397.06
509.887	404.06
510.103	413.06
510.319	411.06
510.536	465.06
510.752	798.06
510.968	613.06
511.184	407.06
511.401	391.06
511.617	373.06
511.833	360.06
512.049	387.06
512.265	370.06
512.481	371.06
512.698	368.06
512.914	381.06
513.13	377.06
513.346	364.06
513.562	391.06
513.778	364.06
513.994	373.06
514.21	394.06
514.426	418.06
514.642	420.06
514.858	437.06
515.074	485.06
515.29	590.06
515.506	837.06
515.721	673.06
515.937	449.06
516.153	415.06
516.369	391.06
516.585	384.06
516.801	377.06
517.016	385.06
517.232	379.06
517.448	381.06
517.664	374.06
517.879	387.06
518.095	396.06
518.311	382.06
518.527	382.06
518.742	375.06
518.958	376.06
519.173	372.06
519.389	355.06
519.605	356.06
519.82	365.06
520.036	377.06
520.251	400.06
520.467	426.06
520.682	454.06
520.898	413.06
521.113	431.06
521.329	460.06
521.544	556.06
521.76	688.06
521.975	1085.06
522.19	1047.06
522.406	577.06
522.621	430.06
522.836	411.06
523.052	375.06
523.267	358.06
523.482	371.06
523.698	347.06
523.913	340.06
524.128	353.06
524.343	332.06
524.559	324.06
524.774	324.06
524.989	338.06
525.204	334.06
525.419	332.06
525.634	332.06
525.849	345.06
526.064	321.06
526.28	303.06
526.495	314.06
526.71	323.06
526.925	326.06
527.14	315.06
527.355	312.06
527.57	298.06
527.785	308.06
527.999	324.06
528.214	325.06
528.429	303.06
528.644	311.06
528.859	306.06
529.074	309.06
529.289	304.06
529.503	376.06
529.718	373.06
529.933	332.06
530.148	325.06
530.363	319.06
530.577	301.06
530.792	290.06
531.007	296.06
531.221	305.06
531.436	296.06
531.651	307.06
531.865	293.06
532.08	309.06
532.295	296.06
532.509	282.06
532.724	282.06
532.938	279.06
533.153	297.06
533.367	291.06
533.582	297.06
533.796	289.06
534.011	287.06
534.225	290.06
534.44	276.06
534.654	295.06
534.868	287.06
535.083	292.06
535.297	285.06
535.511	276.06
535.726	315.06
535.94	308.06
536.154	283.06
536.369	293.06
536.583	281.06
536.797	288.06
537.011	287.06
537.225	282.06
537.44	270.06
537.654	269.06
537.868	283.06
538.082	268.06
538.296	293.06
538.51	292.06
538.724	292.06
538.938	279.06
539.153	279.06
539.367	285.06
539.581	277.06
539.795	275.06
540.009	292.06
540.222	317.06
540.436	288.06
540.65	278.06
540.864	307.06
541.078	275.06
541.292	303.06
541.506	291.06
541.72	283.06
541.934	301.06
542.147	300.06
542.361	283.06
542.575	261.06
542.789	270.06
543.002	279.06
543.216	275.06
543.43	298.06
543.644	294.06
543.857	276.06
544.071	267.06
544.285	275.06
544.498	273.06
544.712	266.06
544.925	276.06
545.139	282.06
545.352	271.06
545.566	269.06
545.779	271.06
545.993	264.06
546.206	285.06
546.42	292.06
546.633	271.06
546.847	275.06
547.06	276.06
547.274	272.06
547.487	267.06
547.7	274.06
547.914	276.06
548.127	250.06
548.34	246.06
548.554	264.06
548.767	283.06
548.98	267.06
549.193	263.06
549.407	264.06
549.62	279.06
549.833	257.06
550.046	268.06
550.259	273.06
550.473	263.06
550.686	264.06
550.899	263.06
551.112	281.06
551.325	270.06
551.538	250.06
551.751	274.06
551.964	254.06
552.177	261.06
552.39	271.06
552.603	269.06
552.816	264.06
553.029	284.06
553.242	271.06
553.455	276.06
553.667	283.06
553.88	275.06
554.093	280.06
554.306	280.06
554.519	275.06
554.732	263.06
554.944	269.06
555.157	252.06
555.37	254.06
555.583	248.06
555.795	257.06
556.008	245.06
556.221	240.06
556.433	244.06
556.646	253.06
556.859	236.06
557.071	248.06
557.284	250.06
557.496	264.06
557.709	267.06
557.921	243.06
558.134	253.06
558.346	239.06
558.559	244.06
558.771	229.06
558.984	242.06
559.196	233.06
559.409	243.06
559.621	235.06
559.833	243.06
560.046	241.06
560.258	240.06
560.47	228.06
560.683	235.06
560.895	235.06
561.107	250.06
561.32	236.06
561.532	232.06
561.744	247.06
561.956	240.06
562.168	231.06
562.381	239.06
562.593	235.06
562.805	250.06
563.017	242.06
563.229	248.06
563.441	222.06
563.653	244.06
563.865	245.06
564.077	229.06
564.289	243.06
564.501	251.06
564.713	243.06
564.925	246.06
565.137	244.06
565.349	245.06
565.561	268.06
565.773	241.06
565.985	265.06
566.197	249.06
566.408	247.06
566.62	252.06
566.832	267.06
567.044	259.06
567.255	267.06
567.467	265.06
567.679	274.06
567.891	286.06
568.102	273.06
568.314	275.06
568.526	265.06
568.737	264.06
568.949	278.06
569.161	245.06
569.372	242.06
569.584	235.06
569.795	235.06
570.007	264.06
570.218	294.06
570.43	258.06
570.641	236.06
570.853	237.06
571.064	228.06
571.276	227.06
571.487	222.06
571.698	221.06
571.91	231.06
572.121	224.06
572.333	214.06
572.544	210.06
572.755	233.06
572.966	224.06
573.178	212.06
573.389	217.06
573.6	236.06
573.811	222.06
574.023	206.06
574.234	209.06
574.445	220.06
574.656	203.06
574.867	209.06
575.078	198.06
575.289	201.06
575.501	225.06
575.712	228.06
575.923	219.06
576.134	217.06
576.345	193.06
576.556	218.06
576.767	202.06
576.978	204.06
577.188	210.06
577.399	225.06
577.61	201.06
577.821	208.06
578.032	219.06
578.243	249.06
578.454	368.06
578.665	285.06
578.875	227.06
579.086	211.06
579.297	192.06
579.508	207.06
579.718	201.06
579.929	215.06
580.14	197.06
580.35	200.06
580.561	185.06
580.772	190.06
580.982	189.06
581.193	185.06
581.403	200.06
581.614	205.06
581.825	201.06
582.035	194.06
582.246	201.06
582.456	192.06
582.667	195.06
582.877	192.06
583.087	200.06
583.298	202.06
583.508	208.06
583.719	204.06
583.929	208.06
584.139	189.06
584.35	185.06
584.56	189.06
584.77	191.06
584.981	195.06
585.191	212.06
585.401	192.06
585.611	207.06
585.821	202.06
586.032	181.06
586.242	187.06
586.452	193.06
586.662	202.06
586.872	190.06
587.082	203.06
587.292	184.06
587.502	181.06
587.713	192.06
587.923	193.06
588.133	187.06
588.343	194.06
588.553	190.06
588.762	181.06
588.972	187.06
589.182	195.06
589.392	195.06
589.602	180.06
589.812	193.06
590.022	196.06
590.232	205.06
590.441	204.06
590.651	187.06
590.861	180.06
591.071	189.06
591.281	193.06
591.49	186.06
591.7	200.06
591.91	197.06
592.119	188.06
592.329	188.06
592.539	189.06
592.748	209.06
592.958	193.06
593.167	191.06
593.377	192.06
593.587	195.06
593.796	188.06
594.006	191.06
594.215	186.06
594.424	191.06
594.634	202.06
594.843	186.06
595.053	201.06
595.262	181.06
595.472	193.06
595.681	167.06
595.89	195.06
596.1	188.06
596.309	189.06
596.518	173.06
596.727	197.06
596.937	185.06
597.146	196.06
597.355	181.06
597.564	179.06
597.774	193.06
597.983	171.06
598.192	170.06
598.401	171.06
598.61	173.06
598.819	188.06
599.028	171.06
599.237	164.06
599.446	179.06
599.655	192.06
599.864	178.06
600.073	176.06
600.282	181.06
600.491	164.06
600.7	168.06
600.909	177.06
601.118	177.06
601.327	173.06
601.536	168.06
601.745	159.06
601.953	175.06
602.162	172.06
602.371	168.06
602.58	167.06
602.789	181.06
602.997	165.06
603.206	169.06
603.415	166.06
603.623	178.06
603.832	163.06
604.041	162.06
604.249	167.06
604.458	167.06
604.666	156.06
604.875	167.06
605.084	163.06
605.292	175.06
605.501	185.06
605.709	165.06
605.918	177.06
606.126	171.06
606.334	159.06
606.543	172.06
606.751	169.06
606.96	177.06
607.168	167.06
607.376	162.06
607.585	171.06
607.793	171.06
608.001	183.06
608.21	158.06
608.418	163.06
608.626	162.06
608.834	164.06
609.043	173.06
609.251	181.06
609.459	163.06
609.667	170.06
609.875	149.06
610.083	158.06
610.291	155.06
610.499	162.06
610.707	168.06
610.916	162.06
611.124	173.06
611.332	165.06
611.54	179.06
611.748	175.06
611.955	181.06
612.163	167.06
612.371	176.06
612.579	162.06
612.787	163.06
612.995	153.06
613.203	165.06
613.411	172.06
613.618	167.06
613.826	158.06
614.034	178.06
614.242	182.06
614.449	163.06
614.657	163.06
614.865	141.06
615.072	172.06
615.28	151.06
615.488	160.06
615.695	169.06
615.903	157.06
616.111	163.06
616.318	161.06
616.526	165.06
616.733	166.06
616.941	155.06
617.148	157.06
617.356	169.06
617.563	159.06
617.771	153.06
617.978	149.06
618.185	160.06
618.393	157.06
618.6	163.06
618.807	161.06
619.015	150.06
619.222	161.06
619.429	159.06
619.637	161.06
619.844	150.06
620.051	161.06
620.258	153.06
620.466	156.06
620.673	159.06
620.88	143.06
621.087	161.06
621.294	141.06
621.501	151.06
621.708	167.06
621.915	151.06
622.122	153.06
622.329	155.06
622.536	158.06
622.743	153.06
622.95	167.06
623.157	150.06
623.364	156.06
623.571	144.06
623.778	154.06
623.985	168.06
624.192	156.06
624.399	153.06
624.606	173.06
624.812	147.06
625.019	157.06
625.226	151.06
625.433	133.06
625.639	140.06
625.846	152.06
626.053	147.06
626.259	163.06
626.466	158.06
626.673	163.06
626.879	153.06
627.086	161.06
627.293	154.06
627.499	137.06
627.706	143.06
627.912	145.06
628.119	157.06
628.325	162.06
628.532	148.06
628.738	154.06
628.945	128.06
629.151	141.06
629.357	147.06
629.564	160.06
629.77	144.06
629.976	153.06
630.183	133.06
630.389	151.06
630.595	157.06
630.802	142.06
631.008	131.06
631.214	143.06
631.42	156.06
631.627	153.06
631.833	143.06
632.039	130.06
632.245	141.06
632.451	133.06
632.657	149.06
632.863	134.06
633.069	125.06
633.275	141.06
633.481	149.06
633.688	134.06
633.893	130.06
634.099	145.06
634.305	138.06
634.511	136.06
634.717	147.06
634.923	137.06
635.129	140.06
635.335	132.06
635.541	141.06
635.747	142.06
635.952	131.06
636.158	143.06
636.364	132.06
636.57	150.06
636.775	141.06
636.981	133.06
637.187	141.06
637.392	120.06
637.598	128.06
637.804	131.06
638.009	128.06
638.215	142.06
638.421	129.06
638.626	136.06
638.832	135.06
639.037	129.06
639.243	121.06
639.448	141.06
639.654	138.06
639.859	124.06
640.065	132.06
640.27	124.06
640.475	146.06
640.681	129.06
640.886	131.06
641.091	132.06
641.297	119.06
641.502	137.06
641.707	129.06
641.913	117.06
642.118	131.06
642.323	124.06
642.528	131.06
642.733	127.06
642.939	149.06
643.144	127.06
643.349	123.06
643.554	127.06
643.759	135.06
643.964	135.06
644.169	123.06
644.374	121.06
644.579	143.06
644.784	123.06
644.989	138.06
645.194	133.06
645.399	121.06
645.604	139.06
645.809	134.06
646.014	123.06
646.219	131.06
646.423	129.06
646.628	129.06
646.833	126.06
647.038	130.06
647.243	122.06
647.447	131.06
647.652	138.06
647.857	129.06
648.062	135.06
648.266	136.06
648.471	133.06
648.676	131.06
648.88	133.06
649.085	128.06
649.289	131.06
649.494	120.06
649.698	148.06
649.903	144.06
650.107	135.06
650.312	117.06
650.516	113.06
650.721	123.06
650.925	115.06
651.13	129.06
651.334	112.06
651.539	126.06
651.743	120.06
651.947	124.06
652.152	125.06
652.356	147.06
652.56	109.06
652.764	119.06
652.969	119.06
653.173	122.06
653.377	114.06
653.581	116.06
653.785	113.06
653.99	103.06
654.194	101.06
654.398	100.06
654.602	111.06
654.806	110.06
655.01	116.06
655.214	122.06
655.418	103.06
655.622	113.06
655.826	126.06
656.03	112.06
656.234	108.06
656.438	107.06
656.642	107.06
656.846	106.06
657.049	110.06
657.253	105.06
657.457	116.06
657.661	106.06
657.865	116.06
658.068	106.06
658.272	101.06
658.476	107.06
658.68	94.06
658.883	91.06
659.087	97.06
659.291	97.06
659.494	88.06
659.698	92.06
659.901	90.06
660.105	80.06
660.309	95.06
660.512	93.06
660.716	88.06
660.919	98.06
661.123	85.06
661.326	97.06
661.53	86.06
661.733	92.06
661.936	80.06
662.14	85.06
662.343	100.06
662.546	75.06
662.75	99.06
662.953	79.06
663.156	100.06
663.36	82.06
663.563	76.06
663.766	93.06
663.969	98.06
664.173	85.06
664.376	76.06
664.579	65.06
664.782	86.06
664.985	79.06
665.188	87.06
665.391	61.06
665.594	85.06
665.797	82.06
666	81.06
666.203	68.06
666.406	75.06
666.609	66.06
666.812	96.06
667.015	85.06
667.218	85.06
667.421	84.06
667.624	84.06
667.827	77.06
668.03	63.06
668.232	70.06
668.435	74.06
668.638	75.06
668.841	78.06
669.043	85.06
669.246	83.06
669.449	97.06
669.651	89.06
669.854	90.06
670.057	91.06
670.259	81.06
670.462	65.06
670.665	73.06
670.867	91.06
671.07	79.06
671.272	78.06
671.475	82.06
671.677	86.06
671.88	82.06
672.082	77.06
672.284	80.06
672.487	80.06
672.689	90.06
672.892	76.06
