Data from 1982.PennyLincolnUp.Lamp.En5.5.200Scan.071819.P1_HRD10591_16-45-04-961.txt Node
Date: Thu Jul 18 16:45:04 EDT 2019
User: cochatt
Spectrometer: HR+D1059
Trigger mode: 1
Integration Time (sec): 1.000000E-1
Scans to average: 1
Electric dark correction enabled: true
Nonlinearity correction enabled: false
Boxcar width: 0
XAxis mode: Wavelengths
Number of Pixels in Spectrum: 2048
>>>>>Begin Spectral Data<<<<<
223.165	-15.94
223.4	-15.94
223.635	-15.94
223.869	-14.94
224.104	-18.94
224.338	-15.94
224.573	-21.94
224.808	-5.94
225.042	8.06
225.277	-8.94
225.511	-12.94
225.746	3.06
225.98	10.06
226.215	9.06
226.449	9.06
226.683	19.06
226.918	27.06
227.152	30.06
227.387	13.06
227.621	51.06
227.856	51.06
228.09	49.06
228.324	56.06
228.559	52.06
228.793	56.06
229.027	79.06
229.262	88.06
229.496	90.06
229.73	110.06
229.964	144.06
230.199	103.06
230.433	94.06
230.667	97.06
230.901	83.06
231.136	105.06
231.37	103.06
231.604	95.06
231.838	101.06
232.072	94.06
232.306	109.06
232.541	108.06
232.775	112.06
233.009	103.06
233.243	94.06
233.477	96.06
233.711	92.06
233.945	92.06
234.179	97.06
234.413	109.06
234.647	102.06
234.881	100.06
235.115	113.06
235.349	111.06
235.583	109.06
235.817	116.06
236.051	103.06
236.285	107.06
236.519	126.06
236.753	120.06
236.987	118.06
237.221	150.06
237.455	160.06
237.689	145.06
237.922	112.06
238.156	101.06
238.39	103.06
238.624	97.06
238.858	94.06
239.091	97.06
239.325	105.06
239.559	113.06
239.793	119.06
240.027	113.06
240.26	108.06
240.494	120.06
240.728	120.06
240.961	121.06
241.195	119.06
241.429	114.06
241.662	94.06
241.896	122.06
242.13	116.06
242.363	114.06
242.597	107.06
242.83	107.06
243.064	111.06
243.298	118.06
243.531	118.06
243.765	128.06
243.998	113.06
244.232	122.06
244.465	118.06
244.699	127.06
244.932	118.06
245.166	111.06
245.399	121.06
245.633	131.06
245.866	126.06
246.099	120.06
246.333	118.06
246.566	117.06
246.8	123.06
247.033	114.06
247.266	136.06
247.5	121.06
247.733	130.06
247.966	142.06
248.2	139.06
248.433	130.06
248.666	124.06
248.899	133.06
249.133	142.06
249.366	149.06
249.599	134.06
249.832	146.06
250.066	142.06
250.299	150.06
250.532	142.06
250.765	152.06
250.998	166.06
251.231	158.06
251.465	153.06
251.698	154.06
251.931	139.06
252.164	160.06
252.397	153.06
252.63	148.06
252.863	150.06
253.096	173.06
253.329	193.06
253.562	161.06
253.795	143.06
254.028	175.06
254.261	169.06
254.494	163.06
254.727	185.06
254.96	189.06
255.193	212.06
255.426	180.06
255.659	164.06
255.892	177.06
256.124	159.06
256.357	161.06
256.59	176.06
256.823	173.06
257.056	161.06
257.289	155.06
257.521	162.06
257.754	159.06
257.987	157.06
258.22	165.06
258.452	175.06
258.685	162.06
258.918	161.06
259.151	166.06
259.383	151.06
259.616	161.06
259.849	178.06
260.081	171.06
260.314	172.06
260.547	180.06
260.779	192.06
261.012	160.06
261.244	164.06
261.477	176.06
261.71	160.06
261.942	163.06
262.175	185.06
262.407	168.06
262.64	169.06
262.872	169.06
263.105	164.06
263.337	151.06
263.57	160.06
263.802	147.06
264.035	160.06
264.267	160.06
264.499	156.06
264.732	173.06
264.964	157.06
265.197	163.06
265.429	152.06
265.661	156.06
265.894	153.06
266.126	160.06
266.358	161.06
266.591	164.06
266.823	164.06
267.055	159.06
267.287	180.06
267.52	148.06
267.752	160.06
267.984	184.06
268.216	175.06
268.448	165.06
268.681	159.06
268.913	178.06
269.145	188.06
269.377	200.06
269.609	199.06
269.841	182.06
270.073	186.06
270.306	196.06
270.538	231.06
270.77	205.06
271.002	199.06
271.234	205.06
271.466	223.06
271.698	239.06
271.93	235.06
272.162	220.06
272.394	219.06
272.626	213.06
272.858	197.06
273.09	189.06
273.322	202.06
273.553	213.06
273.785	183.06
274.017	203.06
274.249	184.06
274.481	184.06
274.713	196.06
274.945	196.06
275.176	176.06
275.408	196.06
275.64	199.06
275.872	200.06
276.104	176.06
276.335	184.06
276.567	200.06
276.799	188.06
277.031	211.06
277.262	239.06
277.494	225.06
277.726	196.06
277.957	196.06
278.189	187.06
278.421	196.06
278.652	199.06
278.884	192.06
279.115	188.06
279.347	192.06
279.579	186.06
279.81	194.06
280.042	202.06
280.273	196.06
280.505	201.06
280.736	187.06
280.968	192.06
281.199	181.06
281.431	181.06
281.662	187.06
281.894	178.06
282.125	202.06
282.356	204.06
282.588	209.06
282.819	201.06
283.051	197.06
283.282	193.06
283.513	184.06
283.745	209.06
283.976	207.06
284.207	189.06
284.439	205.06
284.67	195.06
284.901	193.06
285.132	199.06
285.364	189.06
285.595	193.06
285.826	193.06
286.057	197.06
286.288	194.06
286.52	210.06
286.751	200.06
286.982	192.06
287.213	190.06
287.444	204.06
287.675	201.06
287.906	205.06
288.138	196.06
288.369	212.06
288.6	222.06
288.831	197.06
289.062	211.06
289.293	201.06
289.524	206.06
289.755	198.06
289.986	201.06
290.217	220.06
290.448	191.06
290.679	218.06
290.91	202.06
291.141	203.06
291.371	188.06
291.602	202.06
291.833	201.06
292.064	198.06
292.295	201.06
292.526	204.06
292.757	225.06
292.987	204.06
293.218	199.06
293.449	210.06
293.68	204.06
293.91	201.06
294.141	203.06
294.372	217.06
294.603	193.06
294.833	210.06
295.064	206.06
295.295	211.06
295.525	218.06
295.756	214.06
295.987	212.06
296.217	223.06
296.448	231.06
296.679	212.06
296.909	200.06
297.14	218.06
297.37	197.06
297.601	218.06
297.831	224.06
298.062	214.06
298.292	214.06
298.523	218.06
298.753	213.06
298.984	216.06
299.214	210.06
299.445	212.06
299.675	209.06
299.905	221.06
300.136	206.06
300.366	218.06
300.597	225.06
300.827	216.06
301.057	225.06
301.288	226.06
301.518	231.06
301.748	226.06
301.979	220.06
302.209	225.06
302.439	225.06
302.669	207.06
302.9	240.06
303.13	223.06
303.36	228.06
303.59	232.06
303.82	237.06
304.051	239.06
304.281	238.06
304.511	221.06
304.741	235.06
304.971	236.06
305.201	236.06
305.431	220.06
305.661	235.06
305.891	202.06
306.121	228.06
306.352	227.06
306.582	238.06
306.812	231.06
307.042	242.06
307.272	216.06
307.502	235.06
307.731	233.06
307.961	222.06
308.191	236.06
308.421	244.06
308.651	238.06
308.881	223.06
309.111	251.06
309.341	233.06
309.571	248.06
309.8	252.06
310.03	255.06
310.26	262.06
310.49	250.06
310.72	257.06
310.949	262.06
311.179	264.06
311.409	246.06
311.639	254.06
311.868	256.06
312.098	257.06
312.328	263.06
312.557	270.06
312.787	270.06
313.017	275.06
313.246	267.06
313.476	260.06
313.706	244.06
313.935	260.06
314.165	271.06
314.394	269.06
314.624	272.06
314.853	258.06
315.083	253.06
315.312	260.06
315.542	246.06
315.771	264.06
316.001	239.06
316.23	263.06
316.46	245.06
316.689	272.06
316.919	264.06
317.148	261.06
317.377	274.06
317.607	264.06
317.836	265.06
318.065	271.06
318.295	268.06
318.524	263.06
318.753	280.06
318.983	246.06
319.212	257.06
319.441	276.06
319.67	268.06
319.9	275.06
320.129	268.06
320.358	263.06
320.587	274.06
320.816	270.06
321.046	285.06
321.275	273.06
321.504	271.06
321.733	286.06
321.962	273.06
322.191	304.06
322.42	293.06
322.649	280.06
322.878	312.06
323.108	300.06
323.337	323.06
323.566	311.06
323.795	361.06
324.024	417.06
324.253	485.06
324.482	703.06
324.71	1036.06
324.939	1302.06
325.168	1039.06
325.397	581.06
325.626	394.06
325.855	355.06
326.084	336.06
326.313	338.06
326.542	340.06
326.77	369.06
326.999	461.06
327.228	602.06
327.457	886.06
327.686	930.06
327.914	652.06
328.143	463.06
328.372	405.06
328.6	374.06
328.829	365.06
329.058	378.06
329.287	356.06
329.515	342.06
329.744	328.06
329.972	331.06
330.201	351.06
330.43	372.06
330.658	393.06
330.887	412.06
331.115	379.06
331.344	335.06
331.572	329.06
331.801	328.06
332.03	309.06
332.258	333.06
332.486	316.06
332.715	281.06
332.943	294.06
333.172	302.06
333.4	296.06
333.629	319.06
333.857	296.06
334.085	326.06
334.314	321.06
334.542	327.06
334.771	316.06
334.999	312.06
335.227	323.06
335.455	310.06
335.684	313.06
335.912	291.06
336.14	294.06
336.369	297.06
336.597	289.06
336.825	299.06
337.053	298.06
337.281	297.06
337.51	310.06
337.738	286.06
337.966	301.06
338.194	310.06
338.422	273.06
338.65	271.06
338.878	297.06
339.106	286.06
339.334	287.06
339.562	287.06
339.79	274.06
340.018	289.06
340.246	278.06
340.474	292.06
340.702	283.06
340.93	280.06
341.158	280.06
341.386	287.06
341.614	288.06
341.842	275.06
342.07	290.06
342.298	278.06
342.526	282.06
342.754	292.06
342.981	271.06
343.209	288.06
343.437	289.06
343.665	272.06
343.893	273.06
344.12	280.06
344.348	290.06
344.576	272.06
344.804	276.06
345.031	302.06
345.259	292.06
345.487	281.06
345.714	291.06
345.942	279.06
346.17	273.06
346.397	270.06
346.625	286.06
346.853	273.06
347.08	264.06
347.308	282.06
347.535	276.06
347.763	278.06
347.99	309.06
348.218	292.06
348.445	294.06
348.673	290.06
348.9	288.06
349.128	276.06
349.355	255.06
349.583	262.06
349.81	265.06
350.037	262.06
350.265	268.06
350.492	260.06
350.72	283.06
350.947	267.06
351.174	292.06
351.402	282.06
351.629	294.06
351.856	256.06
352.083	287.06
352.311	277.06
352.538	267.06
352.765	280.06
352.992	276.06
353.22	260.06
353.447	268.06
353.674	273.06
353.901	264.06
354.128	256.06
354.355	269.06
354.583	265.06
354.81	252.06
355.037	259.06
355.264	227.06
355.491	271.06
355.718	241.06
355.945	260.06
356.172	280.06
356.399	243.06
356.626	249.06
356.853	253.06
357.08	261.06
357.307	268.06
357.534	251.06
357.761	264.06
357.988	243.06
358.215	264.06
358.441	259.06
358.668	260.06
358.895	248.06
359.122	261.06
359.349	272.06
359.576	275.06
359.802	271.06
360.029	316.06
360.256	310.06
360.483	290.06
360.709	292.06
360.936	263.06
361.163	281.06
361.39	272.06
361.616	280.06
361.843	269.06
362.07	268.06
362.296	280.06
362.523	251.06
362.749	282.06
362.976	249.06
363.203	250.06
363.429	256.06
363.656	256.06
363.882	260.06
364.109	244.06
364.335	246.06
364.562	266.06
364.788	270.06
365.015	257.06
365.241	267.06
365.468	258.06
365.694	274.06
365.92	286.06
366.147	267.06
366.373	253.06
366.599	257.06
366.826	252.06
367.052	261.06
367.278	265.06
367.505	258.06
367.731	268.06
367.957	258.06
368.184	257.06
368.41	251.06
368.636	265.06
368.862	272.06
369.089	278.06
369.315	260.06
369.541	268.06
369.767	245.06
369.993	254.06
370.219	245.06
370.445	258.06
370.672	255.06
370.898	260.06
371.124	244.06
371.35	241.06
371.576	258.06
371.802	248.06
372.028	252.06
372.254	258.06
372.48	260.06
372.706	247.06
372.932	261.06
373.158	254.06
373.384	264.06
373.61	286.06
373.835	268.06
374.061	262.06
374.287	257.06
374.513	255.06
374.739	248.06
374.965	255.06
375.191	258.06
375.416	248.06
375.642	251.06
375.868	247.06
376.094	254.06
376.319	260.06
376.545	253.06
376.771	249.06
376.997	266.06
377.222	248.06
377.448	246.06
377.674	249.06
377.899	256.06
378.125	233.06
378.35	248.06
378.576	241.06
378.802	249.06
379.027	253.06
379.253	255.06
379.478	246.06
379.704	244.06
379.929	249.06
380.155	258.06
380.38	253.06
380.606	258.06
380.831	264.06
381.057	250.06
381.282	250.06
381.507	248.06
381.733	279.06
381.958	257.06
382.184	264.06
382.409	242.06
382.634	250.06
382.86	266.06
383.085	252.06
383.31	272.06
383.535	252.06
383.761	235.06
383.986	258.06
384.211	259.06
384.436	278.06
384.662	267.06
384.887	261.06
385.112	238.06
385.337	250.06
385.562	274.06
385.787	267.06
386.013	280.06
386.238	266.06
386.463	281.06
386.688	269.06
386.913	256.06
387.138	281.06
387.363	294.06
387.588	276.06
387.813	267.06
388.038	270.06
388.263	254.06
388.488	262.06
388.713	276.06
388.938	272.06
389.163	261.06
389.387	261.06
389.612	261.06
389.837	273.06
390.062	258.06
390.287	253.06
390.512	269.06
390.736	265.06
390.961	266.06
391.186	273.06
391.411	266.06
391.636	255.06
391.86	268.06
392.085	275.06
392.31	250.06
392.534	275.06
392.759	272.06
392.984	274.06
393.208	267.06
393.433	268.06
393.658	256.06
393.882	265.06
394.107	266.06
394.331	265.06
394.556	282.06
394.78	262.06
395.005	279.06
395.229	266.06
395.454	276.06
395.678	276.06
395.903	299.06
396.127	282.06
396.352	264.06
396.576	278.06
396.801	295.06
397.025	271.06
397.249	277.06
397.474	285.06
397.698	287.06
397.922	276.06
398.147	291.06
398.371	303.06
398.595	296.06
398.82	305.06
399.044	302.06
399.268	295.06
399.492	288.06
399.717	320.06
399.941	349.06
400.165	335.06
400.389	338.06
400.613	318.06
400.837	319.06
401.062	300.06
401.286	282.06
401.51	296.06
401.734	284.06
401.958	304.06
402.182	299.06
402.406	295.06
402.63	293.06
402.854	312.06
403.078	282.06
403.302	286.06
403.526	327.06
403.75	303.06
403.974	296.06
404.198	297.06
404.422	298.06
404.645	293.06
404.869	303.06
405.093	328.06
405.317	334.06
405.541	362.06
405.765	311.06
405.988	308.06
406.212	314.06
406.436	307.06
406.66	321.06
406.883	322.06
407.107	317.06
407.331	334.06
407.555	371.06
407.778	388.06
408.002	360.06
408.226	331.06
408.449	334.06
408.673	329.06
408.896	344.06
409.12	356.06
409.344	344.06
409.567	324.06
409.791	321.06
410.014	286.06
410.238	308.06
410.461	311.06
410.685	295.06
410.908	307.06
411.132	340.06
411.355	343.06
411.578	332.06
411.802	326.06
412.025	298.06
412.249	304.06
412.472	312.06
412.695	315.06
412.919	324.06
413.142	297.06
413.365	304.06
413.589	294.06
413.812	282.06
414.035	285.06
414.258	274.06
414.482	282.06
414.705	307.06
414.928	286.06
415.151	281.06
415.374	278.06
415.597	319.06
415.821	282.06
416.044	268.06
416.267	292.06
416.49	276.06
416.713	263.06
416.936	286.06
417.159	287.06
417.382	309.06
417.605	294.06
417.828	293.06
418.051	304.06
418.274	320.06
418.497	298.06
418.72	292.06
418.943	296.06
419.166	297.06
419.389	304.06
419.611	292.06
419.834	288.06
420.057	313.06
420.28	302.06
420.503	298.06
420.726	308.06
420.948	298.06
421.171	315.06
421.394	350.06
421.617	308.06
421.839	295.06
422.062	296.06
422.285	315.06
422.507	338.06
422.73	356.06
422.953	347.06
423.175	330.06
423.398	298.06
423.621	325.06
423.843	317.06
424.066	326.06
424.288	296.06
424.511	325.06
424.733	365.06
424.956	398.06
425.178	390.06
425.401	378.06
425.623	381.06
425.846	333.06
426.068	334.06
426.291	311.06
426.513	309.06
426.735	334.06
426.958	358.06
427.18	390.06
427.402	452.06
427.625	490.06
427.847	433.06
428.069	375.06
428.292	325.06
428.514	297.06
428.736	303.06
428.958	304.06
429.181	302.06
429.403	297.06
429.625	304.06
429.847	349.06
430.069	365.06
430.292	360.06
430.514	322.06
430.736	288.06
430.958	294.06
431.18	284.06
431.402	273.06
431.624	293.06
431.846	294.06
432.068	277.06
432.29	271.06
432.512	264.06
432.734	305.06
432.956	290.06
433.178	301.06
433.4	303.06
433.622	293.06
433.844	282.06
434.066	271.06
434.287	273.06
434.509	300.06
434.731	277.06
434.953	289.06
435.175	280.06
435.397	323.06
435.618	310.06
435.84	345.06
436.062	377.06
436.284	410.06
436.505	353.06
436.727	341.06
436.949	290.06
437.17	282.06
437.392	329.06
437.614	310.06
437.835	343.06
438.057	399.06
438.278	428.06
438.5	420.06
438.721	458.06
438.943	430.06
439.165	345.06
439.386	318.06
439.608	324.06
439.829	329.06
440.05	328.06
440.272	359.06
440.493	362.06
440.715	334.06
440.936	297.06
441.158	297.06
441.379	289.06
441.6	304.06
441.822	309.06
442.043	338.06
442.264	391.06
442.486	398.06
442.707	356.06
442.928	324.06
443.149	328.06
443.371	331.06
443.592	360.06
443.813	382.06
444.034	433.06
444.255	363.06
444.476	337.06
444.698	328.06
444.919	312.06
445.14	401.06
445.361	365.06
445.582	342.06
445.803	374.06
446.024	430.06
446.245	450.06
446.466	384.06
446.687	342.06
446.908	322.06
447.129	316.06
447.35	301.06
447.571	300.06
447.792	285.06
448.013	312.06
448.234	323.06
448.455	350.06
448.675	394.06
448.896	464.06
449.117	391.06
449.338	385.06
449.559	435.06
449.779	467.06
450	383.06
450.221	345.06
450.442	299.06
450.662	274.06
450.883	310.06
451.104	313.06
451.324	301.06
451.545	280.06
451.766	287.06
451.986	265.06
452.207	263.06
452.428	257.06
452.648	250.06
452.869	269.06
453.089	292.06
453.31	269.06
453.53	258.06
453.751	280.06
453.971	276.06
454.192	295.06
454.412	289.06
454.633	254.06
454.853	267.06
455.073	280.06
455.294	274.06
455.514	320.06
455.734	296.06
455.955	277.06
456.175	255.06
456.395	249.06
456.616	258.06
456.836	243.06
457.056	255.06
457.276	268.06
457.497	244.06
457.717	264.06
457.937	267.06
458.157	281.06
458.377	273.06
458.598	259.06
458.818	306.06
459.038	333.06
459.258	361.06
459.478	306.06
459.698	290.06
459.918	270.06
460.138	285.06
460.358	266.06
460.578	290.06
460.798	281.06
461.018	295.06
461.238	283.06
461.458	283.06
461.678	287.06
461.898	287.06
462.118	287.06
462.338	288.06
462.558	289.06
462.777	276.06
462.997	292.06
463.217	301.06
463.437	272.06
463.657	302.06
463.876	296.06
464.096	305.06
464.316	285.06
464.536	306.06
464.755	296.06
464.975	312.06
465.195	317.06
465.414	354.06
465.634	305.06
465.854	290.06
466.073	288.06
466.293	271.06
466.512	280.06
466.732	256.06
466.951	278.06
467.171	268.06
467.391	272.06
467.61	281.06
467.829	270.06
468.049	276.06
468.268	281.06
468.488	245.06
468.707	280.06
468.927	254.06
469.146	280.06
469.365	257.06
469.585	270.06
469.804	266.06
470.023	281.06
470.243	286.06
470.462	292.06
470.681	298.06
470.901	296.06
471.12	273.06
471.339	276.06
471.558	286.06
471.777	266.06
471.997	269.06
472.216	293.06
472.435	297.06
472.654	286.06
472.873	271.06
473.092	278.06
473.311	288.06
473.53	281.06
473.749	301.06
473.968	306.06
474.187	356.06
474.406	372.06
474.625	303.06
474.844	305.06
475.063	289.06
475.282	277.06
475.501	288.06
475.72	275.06
475.939	292.06
476.158	296.06
476.377	298.06
476.596	283.06
476.814	292.06
477.033	297.06
477.252	293.06
477.471	297.06
477.69	298.06
477.908	292.06
478.127	300.06
478.346	289.06
478.564	297.06
478.783	302.06
479.002	287.06
479.22	316.06
479.439	303.06
479.658	326.06
479.876	321.06
480.095	339.06
480.313	334.06
480.532	340.06
480.751	304.06
480.969	313.06
481.188	344.06
481.406	345.06
481.624	334.06
481.843	342.06
482.061	332.06
482.28	341.06
482.498	329.06
482.717	330.06
482.935	323.06
483.153	316.06
483.372	312.06
483.59	322.06
483.808	327.06
484.027	312.06
484.245	328.06
484.463	294.06
484.681	323.06
484.9	325.06
485.118	323.06
485.336	314.06
485.554	335.06
485.772	314.06
485.99	348.06
486.209	337.06
486.427	324.06
486.645	341.06
486.863	338.06
487.081	332.06
487.299	341.06
487.517	341.06
487.735	345.06
487.953	343.06
488.171	354.06
488.389	372.06
488.607	356.06
488.825	342.06
489.043	353.06
489.261	330.06
489.479	333.06
489.696	333.06
489.914	339.06
490.132	362.06
490.35	368.06
490.568	353.06
490.786	360.06
491.003	364.06
491.221	358.06
491.439	367.06
491.657	366.06
491.874	373.06
492.092	398.06
492.31	386.06
492.527	380.06
492.745	384.06
492.963	372.06
493.18	372.06
493.398	385.06
493.615	394.06
493.833	417.06
494.05	392.06
494.268	376.06
494.485	388.06
494.703	392.06
494.92	393.06
495.138	397.06
495.355	382.06
495.573	402.06
495.79	398.06
496.008	394.06
496.225	405.06
496.442	391.06
496.66	412.06
496.877	392.06
497.094	401.06
497.312	403.06
497.529	397.06
497.746	410.06
497.963	401.06
498.181	425.06
498.398	430.06
498.615	428.06
498.832	433.06
499.049	428.06
499.267	424.06
499.484	452.06
499.701	471.06
499.918	462.06
500.135	464.06
500.352	475.06
500.569	488.06
500.786	487.06
501.003	494.06
501.22	480.06
501.437	488.06
501.654	456.06
501.871	481.06
502.088	452.06
502.305	440.06
502.522	419.06
502.739	444.06
502.956	421.06
503.172	405.06
503.389	432.06
503.606	422.06
503.823	402.06
504.04	402.06
504.256	385.06
504.473	398.06
504.69	399.06
504.907	394.06
505.123	376.06
505.34	387.06
505.557	402.06
505.773	399.06
505.99	396.06
506.207	398.06
506.423	384.06
506.64	366.06
506.856	393.06
507.073	365.06
507.289	384.06
507.506	364.06
507.722	382.06
507.939	391.06
508.155	393.06
508.372	379.06
508.588	381.06
508.805	377.06
509.021	379.06
509.238	389.06
509.454	373.06
509.67	382.06
509.887	362.06
510.103	366.06
510.319	394.06
510.536	440.06
510.752	685.06
510.968	538.06
511.184	397.06
511.401	379.06
511.617	365.06
511.833	360.06
512.049	341.06
512.265	347.06
512.481	360.06
512.698	358.06
512.914	353.06
513.13	340.06
513.346	338.06
513.562	350.06
513.778	363.06
513.994	360.06
514.21	376.06
514.426	377.06
514.642	374.06
514.858	400.06
515.074	421.06
515.29	510.06
515.506	730.06
515.721	584.06
515.937	416.06
516.153	368.06
516.369	374.06
516.585	377.06
516.801	368.06
517.016	364.06
517.232	343.06
517.448	352.06
517.664	355.06
517.879	377.06
518.095	346.06
518.311	346.06
518.527	365.06
518.742	356.06
518.958	353.06
519.173	350.06
519.389	346.06
519.605	357.06
519.82	356.06
520.036	349.06
520.251	372.06
520.467	373.06
520.682	368.06
520.898	384.06
521.113	397.06
521.329	416.06
521.544	458.06
521.76	559.06
521.975	910.06
522.19	848.06
522.406	504.06
522.621	393.06
522.836	356.06
523.052	358.06
523.267	338.06
523.482	329.06
523.698	323.06
523.913	341.06
524.128	318.06
524.343	318.06
524.559	309.06
524.774	338.06
524.989	312.06
525.204	308.06
525.419	307.06
525.634	297.06
525.849	310.06
526.064	290.06
526.28	310.06
526.495	295.06
526.71	302.06
526.925	299.06
527.14	299.06
527.355	290.06
527.57	299.06
527.785	302.06
527.999	281.06
528.214	295.06
528.429	288.06
528.644	297.06
528.859	306.06
529.074	288.06
529.289	320.06
529.503	327.06
529.718	316.06
529.933	311.06
530.148	318.06
530.363	294.06
530.577	295.06
530.792	277.06
531.007	279.06
531.221	282.06
531.436	275.06
531.651	285.06
531.865	285.06
532.08	281.06
532.295	278.06
532.509	293.06
532.724	277.06
532.938	278.06
533.153	294.06
533.367	304.06
533.582	288.06
533.796	283.06
534.011	273.06
534.225	275.06
534.44	271.06
534.654	283.06
534.868	287.06
535.083	288.06
535.297	283.06
535.511	279.06
535.726	282.06
535.94	277.06
536.154	275.06
536.369	296.06
536.583	264.06
536.797	279.06
537.011	288.06
537.225	287.06
537.44	292.06
537.654	260.06
537.868	270.06
538.082	268.06
538.296	262.06
538.51	289.06
538.724	294.06
538.938	278.06
539.153	272.06
539.367	254.06
539.581	284.06
539.795	286.06
540.009	262.06
540.222	266.06
540.436	273.06
540.65	272.06
540.864	286.06
541.078	259.06
541.292	262.06
541.506	274.06
541.72	267.06
541.934	283.06
542.147	278.06
542.361	280.06
542.575	275.06
542.789	269.06
543.002	246.06
543.216	290.06
543.43	265.06
543.644	284.06
543.857	280.06
544.071	287.06
544.285	278.06
544.498	281.06
544.712	283.06
544.925	252.06
545.139	272.06
545.352	261.06
545.566	268.06
545.779	264.06
545.993	264.06
546.206	267.06
546.42	264.06
546.633	292.06
546.847	265.06
547.06	271.06
547.274	249.06
547.487	279.06
547.7	247.06
547.914	260.06
548.127	279.06
548.34	268.06
548.554	273.06
548.767	273.06
548.98	264.06
549.193	242.06
549.407	249.06
549.62	250.06
549.833	270.06
550.046	257.06
550.259	248.06
550.473	273.06
550.686	247.06
550.899	266.06
551.112	245.06
551.325	249.06
551.538	252.06
551.751	260.06
551.964	260.06
552.177	256.06
552.39	237.06
552.603	253.06
552.816	245.06
553.029	270.06
553.242	253.06
553.455	248.06
553.667	273.06
553.88	271.06
554.093	258.06
554.306	274.06
554.519	264.06
554.732	248.06
554.944	261.06
555.157	258.06
555.37	260.06
555.583	230.06
555.795	266.06
556.008	257.06
556.221	252.06
556.433	248.06
556.646	236.06
556.859	255.06
557.071	253.06
557.284	251.06
557.496	236.06
557.709	246.06
557.921	243.06
558.134	239.06
558.346	247.06
558.559	229.06
558.771	235.06
558.984	235.06
559.196	235.06
559.409	244.06
559.621	225.06
559.833	228.06
560.046	234.06
560.258	229.06
560.47	246.06
560.683	234.06
560.895	223.06
561.107	237.06
561.32	226.06
561.532	221.06
561.744	232.06
561.956	249.06
562.168	205.06
562.381	239.06
562.593	223.06
562.805	233.06
563.017	252.06
563.229	239.06
563.441	246.06
563.653	241.06
563.865	233.06
564.077	237.06
564.289	236.06
564.501	234.06
564.713	247.06
564.925	229.06
565.137	239.06
565.349	219.06
565.561	234.06
565.773	250.06
565.985	250.06
566.197	234.06
566.408	266.06
566.62	272.06
566.832	272.06
567.044	274.06
567.255	262.06
567.467	264.06
567.679	274.06
567.891	275.06
568.102	254.06
568.314	262.06
568.526	286.06
568.737	244.06
568.949	260.06
569.161	245.06
569.372	247.06
569.584	218.06
569.795	245.06
570.007	247.06
570.218	296.06
570.43	257.06
570.641	223.06
570.853	241.06
571.064	231.06
571.276	218.06
571.487	217.06
571.698	221.06
571.91	218.06
572.121	207.06
572.333	215.06
572.544	214.06
572.755	210.06
572.966	220.06
573.178	211.06
573.389	200.06
573.6	206.06
573.811	199.06
574.023	220.06
574.234	199.06
574.445	208.06
574.656	208.06
574.867	205.06
575.078	213.06
575.289	225.06
575.501	201.06
575.712	219.06
575.923	203.06
576.134	207.06
576.345	220.06
576.556	189.06
576.767	202.06
576.978	212.06
577.188	214.06
577.399	216.06
577.61	218.06
577.821	214.06
578.032	212.06
578.243	215.06
578.454	335.06
578.665	264.06
578.875	214.06
579.086	194.06
579.297	189.06
579.508	214.06
579.718	217.06
579.929	210.06
580.14	201.06
580.35	206.06
580.561	192.06
580.772	212.06
580.982	195.06
581.193	199.06
581.403	183.06
581.614	215.06
581.825	184.06
582.035	188.06
582.246	202.06
582.456	192.06
582.667	168.06
582.877	194.06
583.087	201.06
583.298	192.06
583.508	203.06
583.719	186.06
583.929	178.06
584.139	198.06
584.35	188.06
584.56	176.06
584.77	181.06
584.981	192.06
585.191	187.06
585.401	192.06
585.611	185.06
585.821	220.06
586.032	198.06
586.242	177.06
586.452	199.06
586.662	190.06
586.872	182.06
587.082	190.06
587.292	197.06
587.502	178.06
587.713	202.06
587.923	194.06
588.133	194.06
588.343	187.06
588.553	177.06
588.762	203.06
588.972	193.06
589.182	198.06
589.392	203.06
589.602	176.06
589.812	200.06
590.022	197.06
590.232	182.06
590.441	188.06
590.651	188.06
590.861	196.06
591.071	189.06
591.281	168.06
591.49	189.06
591.7	190.06
591.91	192.06
592.119	181.06
592.329	203.06
592.539	185.06
592.748	201.06
592.958	191.06
593.167	188.06
593.377	175.06
593.587	196.06
593.796	198.06
594.006	202.06
594.215	189.06
594.424	186.06
594.634	200.06
594.843	180.06
595.053	198.06
595.262	191.06
595.472	185.06
595.681	170.06
595.89	188.06
596.1	193.06
596.309	177.06
596.518	184.06
596.727	174.06
596.937	188.06
597.146	174.06
597.355	170.06
597.564	172.06
597.774	171.06
597.983	180.06
598.192	190.06
598.401	181.06
598.61	178.06
598.819	180.06
599.028	175.06
599.237	174.06
599.446	183.06
599.655	190.06
599.864	172.06
600.073	166.06
600.282	176.06
600.491	165.06
600.7	172.06
600.909	174.06
601.118	169.06
601.327	169.06
601.536	158.06
601.745	170.06
601.953	167.06
602.162	188.06
602.371	180.06
602.58	185.06
602.789	164.06
602.997	174.06
603.206	188.06
603.415	177.06
603.623	162.06
603.832	161.06
604.041	167.06
604.249	156.06
604.458	159.06
604.666	185.06
604.875	170.06
605.084	176.06
605.292	168.06
605.501	156.06
605.709	164.06
605.918	169.06
606.126	168.06
606.334	172.06
606.543	161.06
606.751	159.06
606.96	169.06
607.168	168.06
607.376	170.06
607.585	169.06
607.793	160.06
608.001	167.06
608.21	172.06
608.418	163.06
608.626	166.06
608.834	157.06
609.043	146.06
609.251	159.06
609.459	170.06
609.667	167.06
609.875	154.06
610.083	148.06
610.291	156.06
610.499	155.06
610.707	173.06
610.916	161.06
611.124	174.06
611.332	161.06
611.54	168.06
611.748	174.06
611.955	174.06
612.163	182.06
612.371	163.06
612.579	166.06
612.787	166.06
612.995	172.06
613.203	176.06
613.411	172.06
613.618	166.06
613.826	166.06
614.034	166.06
614.242	166.06
614.449	159.06
614.657	166.06
614.865	151.06
615.072	159.06
615.28	165.06
615.488	145.06
615.695	156.06
615.903	155.06
616.111	163.06
616.318	175.06
616.526	161.06
616.733	168.06
616.941	168.06
617.148	162.06
617.356	159.06
617.563	157.06
617.771	161.06
617.978	157.06
618.185	159.06
618.393	164.06
618.6	160.06
618.807	165.06
619.015	168.06
619.222	166.06
619.429	156.06
619.637	157.06
619.844	171.06
620.051	147.06
620.258	144.06
620.466	152.06
620.673	148.06
620.88	167.06
621.087	148.06
621.294	153.06
621.501	141.06
621.708	152.06
621.915	170.06
622.122	164.06
622.329	158.06
622.536	154.06
622.743	166.06
622.95	146.06
623.157	150.06
623.364	155.06
623.571	145.06
623.778	140.06
623.985	148.06
624.192	128.06
624.399	149.06
624.606	150.06
624.812	147.06
625.019	138.06
625.226	144.06
625.433	158.06
625.639	167.06
625.846	145.06
626.053	145.06
626.259	150.06
626.466	140.06
626.673	137.06
626.879	145.06
627.086	147.06
627.293	147.06
627.499	161.06
627.706	146.06
627.912	149.06
628.119	127.06
628.325	159.06
628.532	144.06
628.738	138.06
628.945	139.06
629.151	136.06
629.357	154.06
629.564	147.06
629.77	161.06
629.976	141.06
630.183	164.06
630.389	140.06
630.595	145.06
630.802	132.06
631.008	137.06
631.214	138.06
631.42	150.06
631.627	153.06
631.833	140.06
632.039	141.06
632.245	125.06
632.451	138.06
632.657	146.06
632.863	136.06
633.069	146.06
633.275	150.06
633.481	145.06
633.688	164.06
633.893	134.06
634.099	128.06
634.305	142.06
634.511	128.06
634.717	142.06
634.923	145.06
635.129	129.06
635.335	134.06
635.541	133.06
635.747	133.06
635.952	155.06
636.158	136.06
636.364	143.06
636.57	140.06
636.775	129.06
636.981	138.06
637.187	145.06
637.392	133.06
637.598	135.06
637.804	126.06
638.009	131.06
638.215	130.06
638.421	142.06
638.626	148.06
638.832	146.06
639.037	137.06
639.243	138.06
639.448	136.06
639.654	143.06
639.859	135.06
640.065	126.06
640.27	139.06
640.475	150.06
640.681	132.06
640.886	123.06
641.091	129.06
641.297	129.06
641.502	140.06
641.707	141.06
641.913	143.06
642.118	118.06
642.323	130.06
642.528	139.06
642.733	130.06
642.939	137.06
643.144	125.06
643.349	130.06
643.554	152.06
643.759	138.06
643.964	137.06
644.169	140.06
644.374	127.06
644.579	126.06
644.784	130.06
644.989	125.06
645.194	125.06
645.399	152.06
645.604	128.06
645.809	130.06
646.014	113.06
646.219	125.06
646.423	137.06
646.628	131.06
646.833	129.06
647.038	130.06
647.243	144.06
647.447	133.06
647.652	136.06
647.857	127.06
648.062	125.06
648.266	127.06
648.471	128.06
648.676	136.06
648.88	126.06
649.085	121.06
649.289	134.06
649.494	137.06
649.698	155.06
649.903	145.06
650.107	134.06
650.312	131.06
650.516	120.06
650.721	122.06
650.925	136.06
651.13	122.06
651.334	112.06
651.539	138.06
651.743	129.06
651.947	116.06
652.152	127.06
652.356	118.06
652.56	118.06
652.764	114.06
652.969	113.06
653.173	108.06
653.377	111.06
653.581	109.06
653.785	135.06
653.99	118.06
654.194	132.06
654.398	121.06
654.602	120.06
654.806	113.06
655.01	136.06
655.214	126.06
655.418	121.06
655.622	128.06
655.826	116.06
656.03	116.06
656.234	129.06
656.438	117.06
656.642	111.06
656.846	113.06
657.049	112.06
657.253	117.06
657.457	101.06
657.661	101.06
657.865	120.06
658.068	101.06
658.272	102.06
658.476	100.06
658.68	104.06
658.883	91.06
659.087	97.06
659.291	95.06
659.494	105.06
659.698	93.06
659.901	99.06
660.105	101.06
660.309	95.06
660.512	95.06
660.716	85.06
660.919	82.06
661.123	97.06
661.326	99.06
661.53	86.06
661.733	88.06
661.936	95.06
662.14	85.06
662.343	96.06
662.546	87.06
662.75	94.06
662.953	96.06
663.156	92.06
663.36	83.06
663.563	79.06
663.766	91.06
663.969	86.06
664.173	84.06
664.376	87.06
664.579	88.06
664.782	85.06
664.985	76.06
665.188	79.06
665.391	87.06
665.594	87.06
665.797	80.06
666	82.06
666.203	95.06
666.406	105.06
666.609	85.06
666.812	77.06
667.015	95.06
667.218	94.06
667.421	90.06
667.624	91.06
667.827	92.06
668.03	81.06
668.232	79.06
668.435	89.06
668.638	81.06
668.841	93.06
669.043	74.06
669.246	89.06
669.449	97.06
669.651	86.06
669.854	71.06
670.057	88.06
670.259	89.06
670.462	82.06
670.665	73.06
670.867	100.06
671.07	82.06
671.272	93.06
671.475	92.06
671.677	93.06
671.88	85.06
672.082	94.06
672.284	87.06
672.487	88.06
672.689	81.06
672.892	83.06
