Data from 1982.PennyLincolnUp.Lamp.En5.5.200Scan.071819.P1_HRD10591_16-45-16-961.txt Node
Date: Thu Jul 18 16:45:16 EDT 2019
User: cochatt
Spectrometer: HR+D1059
Trigger mode: 1
Integration Time (sec): 1.000000E-1
Scans to average: 1
Electric dark correction enabled: true
Nonlinearity correction enabled: false
Boxcar width: 0
XAxis mode: Wavelengths
Number of Pixels in Spectrum: 2048
>>>>>Begin Spectral Data<<<<<
223.165	-14.94
223.4	-14.94
223.635	-14.94
223.869	-8.94
224.104	-10.94
224.338	-10.94
224.573	-29.94
224.808	-22.94
225.042	-1.94
225.277	-5.94
225.511	-4.94
225.746	16.06
225.98	8.06
226.215	-5.94
226.449	18.06
226.683	25.06
226.918	29.06
227.152	21.06
227.387	37.06
227.621	45.06
227.856	47.06
228.09	35.06
228.324	43.06
228.559	62.06
228.793	66.06
229.027	67.06
229.262	94.06
229.496	92.06
229.73	110.06
229.964	110.06
230.199	109.06
230.433	96.06
230.667	92.06
230.901	107.06
231.136	94.06
231.37	106.06
231.604	90.06
231.838	89.06
232.072	106.06
232.306	104.06
232.541	100.06
232.775	107.06
233.009	103.06
233.243	94.06
233.477	100.06
233.711	98.06
233.945	98.06
234.179	107.06
234.413	111.06
234.647	101.06
234.881	105.06
235.115	107.06
235.349	118.06
235.583	103.06
235.817	103.06
236.051	106.06
236.285	103.06
236.519	113.06
236.753	117.06
236.987	123.06
237.221	138.06
237.455	175.06
237.689	156.06
237.922	117.06
238.156	117.06
238.39	119.06
238.624	98.06
238.858	112.06
239.091	119.06
239.325	109.06
239.559	109.06
239.793	110.06
240.027	129.06
240.26	114.06
240.494	124.06
240.728	132.06
240.961	134.06
241.195	119.06
241.429	118.06
241.662	120.06
241.896	98.06
242.13	110.06
242.363	119.06
242.597	116.06
242.83	109.06
243.064	119.06
243.298	123.06
243.531	110.06
243.765	108.06
243.998	114.06
244.232	109.06
244.465	123.06
244.699	127.06
244.932	128.06
245.166	110.06
245.399	122.06
245.633	121.06
245.866	127.06
246.099	121.06
246.333	120.06
246.566	120.06
246.8	128.06
247.033	126.06
247.266	133.06
247.5	129.06
247.733	127.06
247.966	140.06
248.2	135.06
248.433	131.06
248.666	145.06
248.899	154.06
249.133	155.06
249.366	156.06
249.599	157.06
249.832	153.06
250.066	146.06
250.299	145.06
250.532	151.06
250.765	162.06
250.998	168.06
251.231	159.06
251.465	160.06
251.698	168.06
251.931	164.06
252.164	153.06
252.397	155.06
252.63	152.06
252.863	157.06
253.096	158.06
253.329	189.06
253.562	168.06
253.795	170.06
254.028	161.06
254.261	171.06
254.494	166.06
254.727	187.06
254.96	209.06
255.193	180.06
255.426	185.06
255.659	165.06
255.892	156.06
256.124	176.06
256.357	154.06
256.59	185.06
256.823	183.06
257.056	169.06
257.289	162.06
257.521	180.06
257.754	160.06
257.987	175.06
258.22	158.06
258.452	166.06
258.685	165.06
258.918	160.06
259.151	162.06
259.383	162.06
259.616	179.06
259.849	175.06
260.081	186.06
260.314	191.06
260.547	181.06
260.779	189.06
261.012	176.06
261.244	183.06
261.477	174.06
261.71	178.06
261.942	176.06
262.175	171.06
262.407	174.06
262.64	146.06
262.872	165.06
263.105	169.06
263.337	160.06
263.57	184.06
263.802	183.06
264.035	161.06
264.267	155.06
264.499	150.06
264.732	161.06
264.964	157.06
265.197	163.06
265.429	164.06
265.661	174.06
265.894	174.06
266.126	166.06
266.358	180.06
266.591	151.06
266.823	174.06
267.055	183.06
267.287	171.06
267.52	160.06
267.752	175.06
267.984	160.06
268.216	165.06
268.448	183.06
268.681	185.06
268.913	200.06
269.145	199.06
269.377	197.06
269.609	201.06
269.841	194.06
270.073	198.06
270.306	198.06
270.538	225.06
270.77	211.06
271.002	198.06
271.234	221.06
271.466	231.06
271.698	233.06
271.93	225.06
272.162	226.06
272.394	214.06
272.626	218.06
272.858	210.06
273.09	217.06
273.322	202.06
273.553	186.06
273.785	200.06
274.017	199.06
274.249	193.06
274.481	183.06
274.713	190.06
274.945	199.06
275.176	191.06
275.408	206.06
275.64	205.06
275.872	191.06
276.104	198.06
276.335	191.06
276.567	203.06
276.799	206.06
277.031	219.06
277.262	221.06
277.494	237.06
277.726	212.06
277.957	215.06
278.189	205.06
278.421	196.06
278.652	195.06
278.884	194.06
279.115	183.06
279.347	203.06
279.579	200.06
279.81	192.06
280.042	204.06
280.273	210.06
280.505	202.06
280.736	204.06
280.968	193.06
281.199	201.06
281.431	194.06
281.662	197.06
281.894	182.06
282.125	194.06
282.356	209.06
282.588	227.06
282.819	221.06
283.051	211.06
283.282	194.06
283.513	205.06
283.745	215.06
283.976	213.06
284.207	205.06
284.439	219.06
284.67	211.06
284.901	208.06
285.132	217.06
285.364	190.06
285.595	224.06
285.826	209.06
286.057	200.06
286.288	199.06
286.52	192.06
286.751	204.06
286.982	192.06
287.213	202.06
287.444	210.06
287.675	200.06
287.906	197.06
288.138	224.06
288.369	237.06
288.6	222.06
288.831	201.06
289.062	207.06
289.293	200.06
289.524	218.06
289.755	211.06
289.986	213.06
290.217	222.06
290.448	212.06
290.679	216.06
290.91	202.06
291.141	205.06
291.371	212.06
291.602	215.06
291.833	222.06
292.064	202.06
292.295	220.06
292.526	209.06
292.757	217.06
292.987	209.06
293.218	199.06
293.449	215.06
293.68	226.06
293.91	215.06
294.141	214.06
294.372	202.06
294.603	212.06
294.833	222.06
295.064	203.06
295.295	218.06
295.525	222.06
295.756	215.06
295.987	218.06
296.217	224.06
296.448	231.06
296.679	214.06
296.909	218.06
297.14	201.06
297.37	232.06
297.601	224.06
297.831	200.06
298.062	213.06
298.292	235.06
298.523	226.06
298.753	211.06
298.984	216.06
299.214	230.06
299.445	235.06
299.675	223.06
299.905	231.06
300.136	235.06
300.366	239.06
300.597	218.06
300.827	228.06
301.057	223.06
301.288	237.06
301.518	232.06
301.748	239.06
301.979	241.06
302.209	223.06
302.439	238.06
302.669	219.06
302.9	232.06
303.13	225.06
303.36	233.06
303.59	253.06
303.82	230.06
304.051	246.06
304.281	225.06
304.511	229.06
304.741	235.06
304.971	232.06
305.201	216.06
305.431	236.06
305.661	215.06
305.891	229.06
306.121	229.06
306.352	225.06
306.582	250.06
306.812	251.06
307.042	267.06
307.272	224.06
307.502	242.06
307.731	232.06
307.961	257.06
308.191	249.06
308.421	256.06
308.651	259.06
308.881	224.06
309.111	233.06
309.341	261.06
309.571	252.06
309.8	270.06
310.03	266.06
310.26	257.06
310.49	239.06
310.72	281.06
310.949	265.06
311.179	275.06
311.409	286.06
311.639	267.06
311.868	261.06
312.098	283.06
312.328	261.06
312.557	272.06
312.787	264.06
313.017	296.06
313.246	270.06
313.476	275.06
313.706	276.06
313.935	289.06
314.165	295.06
314.394	287.06
314.624	287.06
314.853	273.06
315.083	265.06
315.312	266.06
315.542	269.06
315.771	271.06
316.001	268.06
316.23	264.06
316.46	261.06
316.689	262.06
316.919	280.06
317.148	271.06
317.377	275.06
317.607	279.06
317.836	255.06
318.065	254.06
318.295	268.06
318.524	279.06
318.753	265.06
318.983	267.06
319.212	272.06
319.441	269.06
319.67	274.06
319.9	272.06
320.129	254.06
320.358	265.06
320.587	281.06
320.816	287.06
321.046	298.06
321.275	271.06
321.504	282.06
321.733	309.06
321.962	310.06
322.191	307.06
322.42	304.06
322.649	320.06
322.878	332.06
323.108	318.06
323.337	336.06
323.566	368.06
323.795	385.06
324.024	414.06
324.253	526.06
324.482	723.06
324.71	1111.06
324.939	1419.06
325.168	1191.06
325.397	616.06
325.626	447.06
325.855	377.06
326.084	374.06
326.313	361.06
326.542	375.06
326.77	399.06
326.999	481.06
327.228	663.06
327.457	931.06
327.686	1035.06
327.914	676.06
328.143	498.06
328.372	435.06
328.6	399.06
328.829	390.06
329.058	384.06
329.287	395.06
329.515	397.06
329.744	375.06
329.972	354.06
330.201	359.06
330.43	379.06
330.658	396.06
330.887	411.06
331.115	400.06
331.344	342.06
331.572	354.06
331.801	329.06
332.03	329.06
332.258	321.06
332.486	315.06
332.715	313.06
332.943	304.06
333.172	320.06
333.4	308.06
333.629	294.06
333.857	319.06
334.085	340.06
334.314	333.06
334.542	353.06
334.771	339.06
334.999	343.06
335.227	324.06
335.455	304.06
335.684	313.06
335.912	288.06
336.14	306.06
336.369	304.06
336.597	323.06
336.825	302.06
337.053	309.06
337.281	306.06
337.51	281.06
337.738	302.06
337.966	295.06
338.194	299.06
338.422	287.06
338.65	307.06
338.878	298.06
339.106	303.06
339.334	301.06
339.562	310.06
339.79	285.06
340.018	293.06
340.246	280.06
340.474	293.06
340.702	298.06
340.93	296.06
341.158	295.06
341.386	285.06
341.614	281.06
341.842	313.06
342.07	301.06
342.298	281.06
342.526	292.06
342.754	285.06
342.981	290.06
343.209	278.06
343.437	288.06
343.665	310.06
343.893	319.06
344.12	314.06
344.348	305.06
344.576	297.06
344.804	305.06
345.031	292.06
345.259	325.06
345.487	307.06
345.714	301.06
345.942	289.06
346.17	282.06
346.397	294.06
346.625	283.06
346.853	278.06
347.08	266.06
347.308	291.06
347.535	298.06
347.763	307.06
347.99	275.06
348.218	285.06
348.445	294.06
348.673	315.06
348.9	293.06
349.128	277.06
349.355	282.06
349.583	290.06
349.81	264.06
350.037	276.06
350.265	281.06
350.492	275.06
350.72	280.06
350.947	286.06
351.174	278.06
351.402	285.06
351.629	270.06
351.856	291.06
352.083	299.06
352.311	291.06
352.538	287.06
352.765	293.06
352.992	289.06
353.22	277.06
353.447	292.06
353.674	268.06
353.901	283.06
354.128	273.06
354.355	252.06
354.583	278.06
354.81	284.06
355.037	275.06
355.264	283.06
355.491	253.06
355.718	270.06
355.945	265.06
356.172	254.06
356.399	259.06
356.626	253.06
356.853	255.06
357.08	276.06
357.307	267.06
357.534	268.06
357.761	263.06
357.988	261.06
358.215	269.06
358.441	261.06
358.668	258.06
358.895	265.06
359.122	277.06
359.349	282.06
359.576	292.06
359.802	298.06
360.029	303.06
360.256	320.06
360.483	304.06
360.709	274.06
360.936	295.06
361.163	294.06
361.39	280.06
361.616	297.06
361.843	288.06
362.07	284.06
362.296	288.06
362.523	284.06
362.749	278.06
362.976	264.06
363.203	278.06
363.429	268.06
363.656	275.06
363.882	261.06
364.109	263.06
364.335	250.06
364.562	265.06
364.788	277.06
365.015	257.06
365.241	242.06
365.468	261.06
365.694	281.06
365.92	267.06
366.147	274.06
366.373	275.06
366.599	275.06
366.826	278.06
367.052	258.06
367.278	265.06
367.505	273.06
367.731	280.06
367.957	266.06
368.184	265.06
368.41	271.06
368.636	285.06
368.862	288.06
369.089	272.06
369.315	264.06
369.541	269.06
369.767	261.06
369.993	259.06
370.219	250.06
370.445	263.06
370.672	261.06
370.898	275.06
371.124	282.06
371.35	265.06
371.576	264.06
371.802	251.06
372.028	271.06
372.254	285.06
372.48	249.06
372.706	257.06
372.932	264.06
373.158	251.06
373.384	266.06
373.61	270.06
373.835	267.06
374.061	263.06
374.287	288.06
374.513	267.06
374.739	293.06
374.965	265.06
375.191	263.06
375.416	271.06
375.642	263.06
375.868	246.06
376.094	257.06
376.319	253.06
376.545	269.06
376.771	270.06
376.997	245.06
377.222	276.06
377.448	258.06
377.674	274.06
377.899	273.06
378.125	245.06
378.35	261.06
378.576	247.06
378.802	236.06
379.027	271.06
379.253	254.06
379.478	240.06
379.704	256.06
379.929	256.06
380.155	258.06
380.38	269.06
380.606	253.06
380.831	246.06
381.057	278.06
381.282	269.06
381.507	261.06
381.733	268.06
381.958	261.06
382.184	252.06
382.409	261.06
382.634	264.06
382.86	273.06
383.085	279.06
383.31	273.06
383.535	264.06
383.761	256.06
383.986	265.06
384.211	268.06
384.436	270.06
384.662	268.06
384.887	266.06
385.112	267.06
385.337	271.06
385.562	263.06
385.787	261.06
386.013	266.06
386.238	289.06
386.463	277.06
386.688	281.06
386.913	271.06
387.138	275.06
387.363	277.06
387.588	280.06
387.813	275.06
388.038	273.06
388.263	280.06
388.488	272.06
388.713	295.06
388.938	259.06
389.163	265.06
389.387	274.06
389.612	254.06
389.837	281.06
390.062	275.06
390.287	277.06
390.512	281.06
390.736	283.06
390.961	278.06
391.186	256.06
391.411	271.06
391.636	283.06
391.86	281.06
392.085	285.06
392.31	270.06
392.534	267.06
392.759	281.06
392.984	279.06
393.208	272.06
393.433	273.06
393.658	272.06
393.882	266.06
394.107	262.06
394.331	280.06
394.556	267.06
394.78	292.06
395.005	281.06
395.229	277.06
395.454	284.06
395.678	284.06
395.903	284.06
396.127	290.06
396.352	297.06
396.576	285.06
396.801	274.06
397.025	283.06
397.249	273.06
397.474	285.06
397.698	304.06
397.922	305.06
398.147	309.06
398.371	299.06
398.595	286.06
398.82	298.06
399.044	306.06
399.268	306.06
399.492	320.06
399.717	327.06
399.941	346.06
400.165	358.06
400.389	362.06
400.613	331.06
400.837	314.06
401.062	321.06
401.286	303.06
401.51	321.06
401.734	304.06
401.958	292.06
402.182	302.06
402.406	299.06
402.63	310.06
402.854	307.06
403.078	318.06
403.302	319.06
403.526	300.06
403.75	323.06
403.974	317.06
404.198	297.06
404.422	331.06
404.645	321.06
404.869	324.06
405.093	326.06
405.317	330.06
405.541	360.06
405.765	325.06
405.988	337.06
406.212	331.06
406.436	355.06
406.66	357.06
406.883	330.06
407.107	362.06
407.331	377.06
407.555	400.06
407.778	390.06
408.002	363.06
408.226	333.06
408.449	316.06
408.673	335.06
408.896	352.06
409.12	369.06
409.344	337.06
409.567	335.06
409.791	314.06
410.014	326.06
410.238	309.06
410.461	309.06
410.685	302.06
410.908	321.06
411.132	333.06
411.355	344.06
411.578	330.06
411.802	309.06
412.025	321.06
412.249	317.06
412.472	326.06
412.695	357.06
412.919	337.06
413.142	313.06
413.365	308.06
413.589	297.06
413.812	273.06
414.035	290.06
414.258	289.06
414.482	281.06
414.705	285.06
414.928	299.06
415.151	277.06
415.374	275.06
415.597	284.06
415.821	269.06
416.044	279.06
416.267	284.06
416.49	287.06
416.713	289.06
416.936	278.06
417.159	293.06
417.382	298.06
417.605	277.06
417.828	299.06
418.051	301.06
418.274	283.06
418.497	291.06
418.72	282.06
418.943	282.06
419.166	286.06
419.389	301.06
419.611	290.06
419.834	296.06
420.057	313.06
420.28	320.06
420.503	317.06
420.726	304.06
420.948	310.06
421.171	329.06
421.394	341.06
421.617	309.06
421.839	315.06
422.062	311.06
422.285	315.06
422.507	359.06
422.73	372.06
422.953	356.06
423.175	311.06
423.398	315.06
423.621	326.06
423.843	318.06
424.066	320.06
424.288	338.06
424.511	350.06
424.733	382.06
424.956	387.06
425.178	409.06
425.401	413.06
425.623	419.06
425.846	367.06
426.068	341.06
426.291	329.06
426.513	325.06
426.735	339.06
426.958	360.06
427.18	399.06
427.402	466.06
427.625	505.06
427.847	448.06
428.069	405.06
428.292	362.06
428.514	309.06
428.736	317.06
428.958	306.06
429.181	306.06
429.403	311.06
429.625	302.06
429.847	335.06
430.069	362.06
430.292	354.06
430.514	316.06
430.736	325.06
430.958	311.06
431.18	290.06
431.402	269.06
431.624	277.06
431.846	275.06
432.068	283.06
432.29	298.06
432.512	287.06
432.734	290.06
432.956	305.06
433.178	304.06
433.4	313.06
433.622	297.06
433.844	299.06
434.066	283.06
434.287	297.06
434.509	272.06
434.731	300.06
434.953	293.06
435.175	311.06
435.397	315.06
435.618	345.06
435.84	352.06
436.062	388.06
436.284	437.06
436.505	344.06
436.727	345.06
436.949	321.06
437.17	301.06
437.392	305.06
437.614	333.06
437.835	338.06
438.057	380.06
438.278	450.06
438.5	454.06
438.721	457.06
438.943	439.06
439.165	378.06
439.386	342.06
439.608	341.06
439.829	334.06
440.05	349.06
440.272	384.06
440.493	350.06
440.715	357.06
440.936	314.06
441.158	310.06
441.379	311.06
441.6	323.06
441.822	336.06
442.043	380.06
442.264	407.06
442.486	413.06
442.707	366.06
442.928	359.06
443.149	350.06
443.371	362.06
443.592	363.06
443.813	418.06
444.034	451.06
444.255	384.06
444.476	349.06
444.698	322.06
444.919	314.06
445.14	398.06
445.361	369.06
445.582	367.06
445.803	393.06
446.024	443.06
446.245	453.06
446.466	419.06
446.687	358.06
446.908	336.06
447.129	335.06
447.35	331.06
447.571	316.06
447.792	301.06
448.013	311.06
448.234	329.06
448.455	342.06
448.675	434.06
448.896	466.06
449.117	425.06
449.338	399.06
449.559	453.06
449.779	496.06
450	401.06
450.221	333.06
450.442	326.06
450.662	311.06
450.883	299.06
451.104	321.06
451.324	307.06
451.545	281.06
451.766	290.06
451.986	282.06
452.207	311.06
452.428	271.06
452.648	271.06
452.869	298.06
453.089	303.06
453.31	281.06
453.53	293.06
453.751	273.06
453.971	280.06
454.192	275.06
454.412	276.06
454.633	270.06
454.853	273.06
455.073	280.06
455.294	307.06
455.514	343.06
455.734	301.06
455.955	298.06
456.175	265.06
456.395	271.06
456.616	275.06
456.836	262.06
457.056	268.06
457.276	268.06
457.497	274.06
457.717	263.06
457.937	272.06
458.157	265.06
458.377	286.06
458.598	283.06
458.818	324.06
459.038	381.06
459.258	377.06
459.478	325.06
459.698	289.06
459.918	285.06
460.138	288.06
460.358	288.06
460.578	275.06
460.798	293.06
461.018	280.06
461.238	279.06
461.458	281.06
461.678	285.06
461.898	275.06
462.118	289.06
462.338	288.06
462.558	278.06
462.777	300.06
462.997	294.06
463.217	293.06
463.437	311.06
463.657	317.06
463.876	317.06
464.096	317.06
464.316	296.06
464.536	310.06
464.755	301.06
464.975	295.06
465.195	349.06
465.414	377.06
465.634	335.06
465.854	301.06
466.073	287.06
466.293	288.06
466.512	278.06
466.732	274.06
466.951	275.06
467.171	282.06
467.391	301.06
467.61	309.06
467.829	286.06
468.049	282.06
468.268	283.06
468.488	286.06
468.707	281.06
468.927	269.06
469.146	280.06
469.365	290.06
469.585	268.06
469.804	277.06
470.023	293.06
470.243	283.06
470.462	291.06
470.681	304.06
470.901	294.06
471.12	285.06
471.339	295.06
471.558	296.06
471.777	288.06
471.997	289.06
472.216	306.06
472.435	305.06
472.654	287.06
472.873	270.06
473.092	292.06
473.311	296.06
473.53	288.06
473.749	302.06
473.968	313.06
474.187	398.06
474.406	386.06
474.625	334.06
474.844	290.06
475.063	279.06
475.282	282.06
475.501	288.06
475.72	310.06
475.939	295.06
476.158	306.06
476.377	294.06
476.596	292.06
476.814	291.06
477.033	305.06
477.252	294.06
477.471	293.06
477.69	280.06
477.908	311.06
478.127	324.06
478.346	307.06
478.564	317.06
478.783	333.06
479.002	314.06
479.22	332.06
479.439	330.06
479.658	345.06
479.876	346.06
480.095	342.06
480.313	373.06
480.532	329.06
480.751	343.06
480.969	343.06
481.188	370.06
481.406	385.06
481.624	351.06
481.843	347.06
482.061	329.06
482.28	341.06
482.498	335.06
482.717	324.06
482.935	320.06
483.153	324.06
483.372	326.06
483.59	341.06
483.808	318.06
484.027	343.06
484.245	338.06
484.463	329.06
484.681	345.06
484.9	332.06
485.118	317.06
485.336	326.06
485.554	329.06
485.772	329.06
485.99	329.06
486.209	329.06
486.427	343.06
486.645	337.06
486.863	357.06
487.081	375.06
487.299	376.06
487.517	354.06
487.735	363.06
487.953	352.06
488.171	347.06
488.389	340.06
488.607	361.06
488.825	333.06
489.043	356.06
489.261	365.06
489.479	341.06
489.696	347.06
489.914	376.06
490.132	361.06
490.35	383.06
490.568	373.06
490.786	380.06
491.003	384.06
491.221	393.06
491.439	388.06
491.657	391.06
491.874	392.06
492.092	387.06
492.31	393.06
492.527	421.06
492.745	403.06
492.963	402.06
493.18	420.06
493.398	411.06
493.615	400.06
493.833	401.06
494.05	413.06
494.268	421.06
494.485	412.06
494.703	392.06
494.92	404.06
495.138	398.06
495.355	414.06
495.573	418.06
495.79	419.06
496.008	409.06
496.225	402.06
496.442	389.06
496.66	398.06
496.877	407.06
497.094	429.06
497.312	414.06
497.529	416.06
497.746	416.06
497.963	423.06
498.181	445.06
498.398	441.06
498.615	438.06
498.832	438.06
499.049	467.06
499.267	448.06
499.484	459.06
499.701	487.06
499.918	482.06
500.135	503.06
500.352	505.06
500.569	503.06
500.786	513.06
501.003	514.06
501.22	502.06
501.437	467.06
501.654	517.06
501.871	494.06
502.088	475.06
502.305	451.06
502.522	455.06
502.739	438.06
502.956	422.06
503.172	438.06
503.389	423.06
503.606	423.06
503.823	415.06
504.04	415.06
504.256	432.06
504.473	404.06
504.69	419.06
504.907	391.06
505.123	405.06
505.34	393.06
505.557	392.06
505.773	407.06
505.99	402.06
506.207	399.06
506.423	398.06
506.64	408.06
506.856	387.06
507.073	404.06
507.289	381.06
507.506	400.06
507.722	397.06
507.939	408.06
508.155	382.06
508.372	351.06
508.588	380.06
508.805	367.06
509.021	395.06
509.238	383.06
509.454	394.06
509.67	384.06
509.887	396.06
510.103	393.06
510.319	390.06
510.536	454.06
510.752	709.06
510.968	584.06
511.184	389.06
511.401	354.06
511.617	370.06
511.833	371.06
512.049	367.06
512.265	357.06
512.481	384.06
512.698	372.06
512.914	358.06
513.13	354.06
513.346	349.06
513.562	395.06
513.778	359.06
513.994	360.06
514.21	371.06
514.426	368.06
514.642	407.06
514.858	437.06
515.074	448.06
515.29	545.06
515.506	752.06
515.721	615.06
515.937	429.06
516.153	403.06
516.369	378.06
516.585	393.06
516.801	368.06
517.016	375.06
517.232	375.06
517.448	375.06
517.664	386.06
517.879	354.06
518.095	357.06
518.311	386.06
518.527	359.06
518.742	339.06
518.958	390.06
519.173	359.06
519.389	369.06
519.605	358.06
519.82	368.06
520.036	385.06
520.251	387.06
520.467	422.06
520.682	398.06
520.898	402.06
521.113	411.06
521.329	418.06
521.544	473.06
521.76	613.06
521.975	988.06
522.19	949.06
522.406	515.06
522.621	424.06
522.836	373.06
523.052	345.06
523.267	343.06
523.482	343.06
523.698	339.06
523.913	345.06
524.128	352.06
524.343	318.06
524.559	321.06
524.774	336.06
524.989	302.06
525.204	329.06
525.419	332.06
525.634	321.06
525.849	319.06
526.064	309.06
526.28	314.06
526.495	321.06
526.71	299.06
526.925	317.06
527.14	306.06
527.355	306.06
527.57	311.06
527.785	305.06
527.999	294.06
528.214	294.06
528.429	310.06
528.644	311.06
528.859	312.06
529.074	297.06
529.289	312.06
529.503	357.06
529.718	359.06
529.933	313.06
530.148	330.06
530.363	315.06
530.577	310.06
530.792	313.06
531.007	285.06
531.221	303.06
531.436	292.06
531.651	315.06
531.865	289.06
532.08	303.06
532.295	300.06
532.509	283.06
532.724	304.06
532.938	279.06
533.153	272.06
533.367	281.06
533.582	299.06
533.796	290.06
534.011	283.06
534.225	302.06
534.44	299.06
534.654	291.06
534.868	273.06
535.083	291.06
535.297	297.06
535.511	291.06
535.726	302.06
535.94	300.06
536.154	277.06
536.369	298.06
536.583	299.06
536.797	304.06
537.011	286.06
537.225	275.06
537.44	273.06
537.654	287.06
537.868	288.06
538.082	271.06
538.296	286.06
538.51	267.06
538.724	272.06
538.938	304.06
539.153	299.06
539.367	287.06
539.581	285.06
539.795	263.06
540.009	267.06
540.222	282.06
540.436	278.06
540.65	300.06
540.864	272.06
541.078	291.06
541.292	285.06
541.506	281.06
541.72	282.06
541.934	281.06
542.147	281.06
542.361	288.06
542.575	265.06
542.789	265.06
543.002	297.06
543.216	290.06
543.43	277.06
543.644	281.06
543.857	286.06
544.071	261.06
544.285	275.06
544.498	283.06
544.712	273.06
544.925	283.06
545.139	268.06
545.352	269.06
545.566	286.06
545.779	279.06
545.993	270.06
546.206	275.06
546.42	279.06
546.633	267.06
546.847	264.06
547.06	273.06
547.274	265.06
547.487	265.06
547.7	255.06
547.914	272.06
548.127	255.06
548.34	256.06
548.554	261.06
548.767	268.06
548.98	259.06
549.193	267.06
549.407	270.06
549.62	262.06
549.833	267.06
550.046	252.06
550.259	263.06
550.473	258.06
550.686	261.06
550.899	265.06
551.112	245.06
551.325	260.06
551.538	249.06
551.751	259.06
551.964	261.06
552.177	253.06
552.39	246.06
552.603	273.06
552.816	275.06
553.029	260.06
553.242	273.06
553.455	266.06
553.667	277.06
553.88	267.06
554.093	277.06
554.306	282.06
554.519	257.06
554.732	271.06
554.944	264.06
555.157	257.06
555.37	259.06
555.583	254.06
555.795	254.06
556.008	240.06
556.221	254.06
556.433	245.06
556.646	246.06
556.859	249.06
557.071	255.06
557.284	225.06
557.496	246.06
557.709	253.06
557.921	254.06
558.134	239.06
558.346	240.06
558.559	256.06
558.771	231.06
558.984	253.06
559.196	238.06
559.409	241.06
559.621	246.06
559.833	225.06
560.046	241.06
560.258	249.06
560.47	246.06
560.683	215.06
560.895	247.06
561.107	207.06
561.32	238.06
561.532	227.06
561.744	234.06
561.956	243.06
562.168	229.06
562.381	248.06
562.593	239.06
562.805	242.06
563.017	247.06
563.229	213.06
563.441	235.06
563.653	242.06
563.865	221.06
564.077	253.06
564.289	229.06
564.501	238.06
564.713	255.06
564.925	236.06
565.137	243.06
565.349	258.06
565.561	261.06
565.773	239.06
565.985	252.06
566.197	259.06
566.408	261.06
566.62	261.06
566.832	241.06
567.044	275.06
567.255	277.06
567.467	267.06
567.679	266.06
567.891	279.06
568.102	256.06
568.314	266.06
568.526	252.06
568.737	262.06
568.949	240.06
569.161	245.06
569.372	248.06
569.584	237.06
569.795	223.06
570.007	243.06
570.218	272.06
570.43	256.06
570.641	224.06
570.853	220.06
571.064	218.06
571.276	225.06
571.487	231.06
571.698	239.06
571.91	229.06
572.121	226.06
572.333	230.06
572.544	214.06
572.755	232.06
572.966	235.06
573.178	208.06
573.389	225.06
573.6	218.06
573.811	207.06
574.023	217.06
574.234	223.06
574.445	211.06
574.656	217.06
574.867	205.06
575.078	200.06
575.289	214.06
575.501	219.06
575.712	199.06
575.923	213.06
576.134	207.06
576.345	195.06
576.556	196.06
576.767	224.06
576.978	227.06
577.188	201.06
577.399	205.06
577.61	202.06
577.821	208.06
578.032	210.06
578.243	241.06
578.454	352.06
578.665	292.06
578.875	209.06
579.086	199.06
579.297	217.06
579.508	220.06
579.718	205.06
579.929	201.06
580.14	194.06
580.35	207.06
580.561	222.06
580.772	192.06
580.982	211.06
581.193	205.06
581.403	202.06
581.614	195.06
581.825	217.06
582.035	217.06
582.246	204.06
582.456	176.06
582.667	214.06
582.877	191.06
583.087	194.06
583.298	202.06
583.508	199.06
583.719	199.06
583.929	198.06
584.139	190.06
584.35	184.06
584.56	195.06
584.77	190.06
584.981	195.06
585.191	201.06
585.401	205.06
585.611	193.06
585.821	181.06
586.032	184.06
586.242	183.06
586.452	197.06
586.662	189.06
586.872	206.06
587.082	189.06
587.292	195.06
587.502	192.06
587.713	202.06
587.923	201.06
588.133	185.06
588.343	196.06
588.553	197.06
588.762	198.06
588.972	205.06
589.182	211.06
589.392	213.06
589.602	206.06
589.812	205.06
590.022	209.06
590.232	185.06
590.441	183.06
590.651	182.06
590.861	184.06
591.071	201.06
591.281	195.06
591.49	201.06
591.7	204.06
591.91	187.06
592.119	181.06
592.329	184.06
592.539	199.06
592.748	203.06
592.958	209.06
593.167	186.06
593.377	192.06
593.587	211.06
593.796	219.06
594.006	197.06
594.215	187.06
594.424	195.06
594.634	201.06
594.843	198.06
595.053	185.06
595.262	208.06
595.472	192.06
595.681	174.06
595.89	186.06
596.1	191.06
596.309	198.06
596.518	189.06
596.727	185.06
596.937	187.06
597.146	189.06
597.355	184.06
597.564	164.06
597.774	169.06
597.983	176.06
598.192	189.06
598.401	185.06
598.61	172.06
598.819	176.06
599.028	179.06
599.237	165.06
599.446	160.06
599.655	181.06
599.864	176.06
600.073	165.06
600.282	155.06
600.491	171.06
600.7	170.06
600.909	177.06
601.118	157.06
601.327	163.06
601.536	163.06
601.745	175.06
601.953	178.06
602.162	159.06
602.371	168.06
602.58	188.06
602.789	189.06
602.997	166.06
603.206	157.06
603.415	163.06
603.623	157.06
603.832	176.06
604.041	165.06
604.249	163.06
604.458	165.06
604.666	168.06
604.875	168.06
605.084	174.06
605.292	170.06
605.501	162.06
605.709	184.06
605.918	175.06
606.126	171.06
606.334	151.06
606.543	169.06
606.751	171.06
606.96	176.06
607.168	170.06
607.376	175.06
607.585	165.06
607.793	160.06
608.001	163.06
608.21	159.06
608.418	169.06
608.626	143.06
608.834	157.06
609.043	160.06
609.251	150.06
609.459	159.06
609.667	173.06
609.875	170.06
610.083	173.06
610.291	157.06
610.499	166.06
610.707	163.06
610.916	168.06
611.124	169.06
611.332	172.06
611.54	193.06
611.748	168.06
611.955	169.06
612.163	168.06
612.371	163.06
612.579	156.06
612.787	159.06
612.995	165.06
613.203	171.06
613.411	176.06
613.618	155.06
613.826	173.06
614.034	166.06
614.242	165.06
614.449	170.06
614.657	157.06
614.865	186.06
615.072	167.06
615.28	169.06
615.488	179.06
615.695	166.06
615.903	145.06
616.111	166.06
616.318	169.06
616.526	186.06
616.733	168.06
616.941	161.06
617.148	155.06
617.356	155.06
617.563	153.06
617.771	162.06
617.978	167.06
618.185	171.06
618.393	161.06
618.6	153.06
618.807	146.06
619.015	152.06
619.222	156.06
619.429	161.06
619.637	162.06
619.844	151.06
620.051	155.06
620.258	160.06
620.466	165.06
620.673	146.06
620.88	153.06
621.087	165.06
621.294	147.06
621.501	141.06
621.708	147.06
621.915	153.06
622.122	154.06
622.329	162.06
622.536	156.06
622.743	162.06
622.95	158.06
623.157	152.06
623.364	158.06
623.571	151.06
623.778	145.06
623.985	153.06
624.192	157.06
624.399	147.06
624.606	150.06
624.812	158.06
625.019	151.06
625.226	155.06
625.433	147.06
625.639	142.06
625.846	138.06
626.053	149.06
626.259	151.06
626.466	154.06
626.673	158.06
626.879	132.06
627.086	157.06
627.293	149.06
627.499	168.06
627.706	151.06
627.912	146.06
628.119	137.06
628.325	140.06
628.532	144.06
628.738	143.06
628.945	161.06
629.151	139.06
629.357	136.06
629.564	154.06
629.77	132.06
629.976	152.06
630.183	133.06
630.389	137.06
630.595	163.06
630.802	147.06
631.008	145.06
631.214	169.06
631.42	139.06
631.627	169.06
631.833	128.06
632.039	145.06
632.245	134.06
632.451	149.06
632.657	143.06
632.863	130.06
633.069	122.06
633.275	140.06
633.481	144.06
633.688	145.06
633.893	144.06
634.099	125.06
634.305	139.06
634.511	152.06
634.717	154.06
634.923	135.06
635.129	148.06
635.335	122.06
635.541	125.06
635.747	137.06
635.952	139.06
636.158	137.06
636.364	160.06
636.57	139.06
636.775	147.06
636.981	147.06
637.187	158.06
637.392	131.06
637.598	135.06
637.804	129.06
638.009	146.06
638.215	136.06
638.421	132.06
638.626	137.06
638.832	122.06
639.037	129.06
639.243	134.06
639.448	137.06
639.654	142.06
639.859	133.06
640.065	129.06
640.27	138.06
640.475	141.06
640.681	125.06
640.886	134.06
641.091	141.06
641.297	134.06
641.502	143.06
641.707	126.06
641.913	126.06
642.118	127.06
642.323	141.06
642.528	142.06
642.733	145.06
642.939	140.06
643.144	131.06
643.349	129.06
643.554	128.06
643.759	131.06
643.964	127.06
644.169	144.06
644.374	129.06
644.579	130.06
644.784	113.06
644.989	134.06
645.194	138.06
645.399	123.06
645.604	117.06
645.809	134.06
646.014	115.06
646.219	131.06
646.423	120.06
646.628	142.06
646.833	124.06
647.038	152.06
647.243	129.06
647.447	126.06
647.652	135.06
647.857	133.06
648.062	132.06
648.266	136.06
648.471	123.06
648.676	148.06
648.88	137.06
649.085	126.06
649.289	126.06
649.494	149.06
649.698	154.06
649.903	144.06
650.107	139.06
650.312	143.06
650.516	125.06
650.721	139.06
650.925	128.06
651.13	123.06
651.334	123.06
651.539	107.06
651.743	117.06
651.947	119.06
652.152	124.06
652.356	117.06
652.56	120.06
652.764	112.06
652.969	121.06
653.173	115.06
653.377	132.06
653.581	113.06
653.785	120.06
653.99	110.06
654.194	114.06
654.398	122.06
654.602	119.06
654.806	118.06
655.01	109.06
655.214	117.06
655.418	123.06
655.622	131.06
655.826	107.06
656.03	105.06
656.234	112.06
656.438	117.06
656.642	119.06
656.846	112.06
657.049	106.06
657.253	97.06
657.457	106.06
657.661	109.06
657.865	113.06
658.068	122.06
658.272	105.06
658.476	100.06
658.68	117.06
658.883	113.06
659.087	107.06
659.291	106.06
659.494	104.06
659.698	88.06
659.901	105.06
660.105	78.06
660.309	89.06
660.512	87.06
660.716	97.06
660.919	105.06
661.123	107.06
661.326	109.06
661.53	88.06
661.733	105.06
661.936	90.06
662.14	105.06
662.343	95.06
662.546	73.06
662.75	85.06
662.953	93.06
663.156	87.06
663.36	82.06
663.563	83.06
663.766	90.06
663.969	96.06
664.173	87.06
664.376	84.06
664.579	97.06
664.782	92.06
664.985	84.06
665.188	93.06
665.391	95.06
665.594	91.06
665.797	97.06
666	91.06
666.203	81.06
666.406	97.06
666.609	81.06
666.812	89.06
667.015	80.06
667.218	94.06
667.421	93.06
667.624	104.06
667.827	87.06
668.03	83.06
668.232	73.06
668.435	89.06
668.638	80.06
668.841	73.06
669.043	94.06
669.246	98.06
669.449	74.06
669.651	81.06
669.854	76.06
670.057	78.06
670.259	96.06
670.462	75.06
670.665	91.06
670.867	92.06
671.07	82.06
671.272	101.06
671.475	102.06
671.677	101.06
671.88	94.06
672.082	77.06
672.284	98.06
672.487	86.06
672.689	97.06
672.892	85.06
