Data from 1982.PennyLincolnUp.Lamp.En5.5.200Scan.071819.P1_HRD10591_16-44-49-961.txt Node
Date: Thu Jul 18 16:44:49 EDT 2019
User: cochatt
Spectrometer: HR+D1059
Trigger mode: 1
Integration Time (sec): 1.000000E-1
Scans to average: 1
Electric dark correction enabled: true
Nonlinearity correction enabled: false
Boxcar width: 0
XAxis mode: Wavelengths
Number of Pixels in Spectrum: 2048
>>>>>Begin Spectral Data<<<<<
223.165	-15.12
223.4	-15.12
223.635	-15.12
223.869	-16.12
224.104	-10.12
224.338	-27.12
224.573	-17.12
224.808	-25.12
225.042	-14.12
225.277	7.88
225.511	-3.12
225.746	12.88
225.98	5.88
226.215	18.88
226.449	13.88
226.683	21.88
226.918	15.88
227.152	30.88
227.387	33.88
227.621	42.88
227.856	46.88
228.09	48.88
228.324	55.88
228.559	64.88
228.793	59.88
229.027	72.88
229.262	76.88
229.496	87.88
229.73	113.88
229.964	109.88
230.199	109.88
230.433	80.88
230.667	100.88
230.901	101.88
231.136	100.88
231.37	102.88
231.604	89.88
231.838	87.88
232.072	97.88
232.306	93.88
232.541	105.88
232.775	88.88
233.009	101.88
233.243	98.88
233.477	94.88
233.711	93.88
233.945	100.88
234.179	105.88
234.413	84.88
234.647	94.88
234.881	107.88
235.115	104.88
235.349	113.88
235.583	88.88
235.817	94.88
236.051	104.88
236.285	97.88
236.519	102.88
236.753	101.88
236.987	105.88
237.221	94.88
237.455	140.88
237.689	128.88
237.922	110.88
238.156	94.88
238.39	85.88
238.624	104.88
238.858	87.88
239.091	105.88
239.325	92.88
239.559	101.88
239.793	108.88
240.027	101.88
240.26	119.88
240.494	113.88
240.728	116.88
240.961	116.88
241.195	114.88
241.429	107.88
241.662	109.88
241.896	104.88
242.13	110.88
242.363	102.88
242.597	103.88
242.83	109.88
243.064	106.88
243.298	109.88
243.531	104.88
243.765	119.88
243.998	117.88
244.232	108.88
244.465	113.88
244.699	103.88
244.932	106.88
245.166	122.88
245.399	126.88
245.633	116.88
245.866	108.88
246.099	109.88
246.333	112.88
246.566	116.88
246.8	113.88
247.033	124.88
247.266	123.88
247.5	125.88
247.733	121.88
247.966	133.88
248.2	132.88
248.433	119.88
248.666	133.88
248.899	130.88
249.133	157.88
249.366	145.88
249.599	138.88
249.832	123.88
250.066	139.88
250.299	125.88
250.532	144.88
250.765	138.88
250.998	146.88
251.231	138.88
251.465	141.88
251.698	149.88
251.931	160.88
252.164	142.88
252.397	141.88
252.63	136.88
252.863	138.88
253.096	149.88
253.329	150.88
253.562	160.88
253.795	142.88
254.028	171.88
254.261	148.88
254.494	152.88
254.727	166.88
254.96	182.88
255.193	175.88
255.426	159.88
255.659	158.88
255.892	161.88
256.124	146.88
256.357	153.88
256.59	170.88
256.823	166.88
257.056	160.88
257.289	142.88
257.521	149.88
257.754	141.88
257.987	152.88
258.22	148.88
258.452	144.88
258.685	141.88
258.918	144.88
259.151	138.88
259.383	161.88
259.616	166.88
259.849	149.88
260.081	160.88
260.314	170.88
260.547	167.88
260.779	173.88
261.012	153.88
261.244	153.88
261.477	146.88
261.71	151.88
261.942	164.88
262.175	152.88
262.407	150.88
262.64	138.88
262.872	146.88
263.105	151.88
263.337	147.88
263.57	151.88
263.802	134.88
264.035	134.88
264.267	152.88
264.499	134.88
264.732	149.88
264.964	138.88
265.197	135.88
265.429	156.88
265.661	145.88
265.894	143.88
266.126	143.88
266.358	152.88
266.591	154.88
266.823	152.88
267.055	159.88
267.287	168.88
267.52	150.88
267.752	160.88
267.984	171.88
268.216	158.88
268.448	159.88
268.681	164.88
268.913	153.88
269.145	157.88
269.377	172.88
269.609	184.88
269.841	173.88
270.073	178.88
270.306	198.88
270.538	190.88
270.77	216.88
271.002	188.88
271.234	194.88
271.466	208.88
271.698	177.88
271.93	198.88
272.162	196.88
272.394	184.88
272.626	193.88
272.858	189.88
273.09	177.88
273.322	197.88
273.553	172.88
273.785	180.88
274.017	177.88
274.249	183.88
274.481	166.88
274.713	191.88
274.945	191.88
275.176	184.88
275.408	181.88
275.64	182.88
275.872	169.88
276.104	178.88
276.335	172.88
276.567	158.88
276.799	188.88
277.031	181.88
277.262	201.88
277.494	199.88
277.726	201.88
277.957	191.88
278.189	197.88
278.421	183.88
278.652	189.88
278.884	186.88
279.115	172.88
279.347	185.88
279.579	183.88
279.81	177.88
280.042	203.88
280.273	172.88
280.505	174.88
280.736	165.88
280.968	173.88
281.199	172.88
281.431	164.88
281.662	172.88
281.894	174.88
282.125	189.88
282.356	187.88
282.588	194.88
282.819	190.88
283.051	168.88
283.282	180.88
283.513	180.88
283.745	178.88
283.976	191.88
284.207	188.88
284.439	191.88
284.67	177.88
284.901	171.88
285.132	170.88
285.364	179.88
285.595	175.88
285.826	184.88
286.057	193.88
286.288	176.88
286.52	184.88
286.751	189.88
286.982	181.88
287.213	176.88
287.444	184.88
287.675	188.88
287.906	201.88
288.138	174.88
288.369	196.88
288.6	195.88
288.831	191.88
289.062	194.88
289.293	168.88
289.524	182.88
289.755	191.88
289.986	199.88
290.217	196.88
290.448	185.88
290.679	184.88
290.91	184.88
291.141	182.88
291.371	192.88
291.602	198.88
291.833	184.88
292.064	174.88
292.295	190.88
292.526	174.88
292.757	189.88
292.987	184.88
293.218	202.88
293.449	175.88
293.68	189.88
293.91	197.88
294.141	192.88
294.372	198.88
294.603	198.88
294.833	196.88
295.064	188.88
295.295	186.88
295.525	194.88
295.756	203.88
295.987	206.88
296.217	203.88
296.448	203.88
296.679	194.88
296.909	219.88
297.14	207.88
297.37	216.88
297.601	194.88
297.831	180.88
298.062	184.88
298.292	196.88
298.523	184.88
298.753	203.88
298.984	203.88
299.214	190.88
299.445	200.88
299.675	199.88
299.905	200.88
300.136	196.88
300.366	195.88
300.597	190.88
300.827	206.88
301.057	202.88
301.288	214.88
301.518	222.88
301.748	217.88
301.979	215.88
302.209	210.88
302.439	203.88
302.669	207.88
302.9	210.88
303.13	209.88
303.36	218.88
303.59	205.88
303.82	205.88
304.051	208.88
304.281	207.88
304.511	194.88
304.741	208.88
304.971	207.88
305.201	202.88
305.431	220.88
305.661	210.88
305.891	192.88
306.121	207.88
306.352	206.88
306.582	218.88
306.812	218.88
307.042	210.88
307.272	211.88
307.502	206.88
307.731	219.88
307.961	220.88
308.191	218.88
308.421	214.88
308.651	203.88
308.881	199.88
309.111	215.88
309.341	206.88
309.571	217.88
309.8	220.88
310.03	234.88
310.26	225.88
310.49	239.88
310.72	251.88
310.949	231.88
311.179	238.88
311.409	228.88
311.639	227.88
311.868	237.88
312.098	238.88
312.328	238.88
312.557	252.88
312.787	261.88
313.017	232.88
313.246	224.88
313.476	232.88
313.706	235.88
313.935	252.88
314.165	232.88
314.394	248.88
314.624	231.88
314.853	249.88
315.083	234.88
315.312	231.88
315.542	237.88
315.771	240.88
316.001	236.88
316.23	221.88
316.46	239.88
316.689	231.88
316.919	227.88
317.148	238.88
317.377	230.88
317.607	250.88
317.836	238.88
318.065	245.88
318.295	230.88
318.524	230.88
318.753	230.88
318.983	220.88
319.212	231.88
319.441	250.88
319.67	244.88
319.9	236.88
320.129	243.88
320.358	221.88
320.587	245.88
320.816	251.88
321.046	239.88
321.275	237.88
321.504	241.88
321.733	225.88
321.962	249.88
322.191	251.88
322.42	278.88
322.649	281.88
322.878	275.88
323.108	280.88
323.337	292.88
323.566	288.88
323.795	310.88
324.024	343.88
324.253	422.88
324.482	548.88
324.71	831.88
324.939	1063.88
325.168	867.88
325.397	488.88
325.626	367.88
325.855	309.88
326.084	297.88
326.313	316.88
326.542	304.88
326.77	322.88
326.999	376.88
327.228	501.88
327.457	704.88
327.686	801.88
327.914	530.88
328.143	377.88
328.372	345.88
328.6	346.88
328.829	323.88
329.058	314.88
329.287	338.88
329.515	300.88
329.744	278.88
329.972	303.88
330.201	310.88
330.43	292.88
330.658	334.88
330.887	328.88
331.115	321.88
331.344	282.88
331.572	289.88
331.801	278.88
332.03	290.88
332.258	278.88
332.486	253.88
332.715	276.88
332.943	270.88
333.172	285.88
333.4	286.88
333.629	271.88
333.857	274.88
334.085	279.88
334.314	292.88
334.542	289.88
334.771	300.88
334.999	275.88
335.227	282.88
335.455	270.88
335.684	253.88
335.912	260.88
336.14	273.88
336.369	268.88
336.597	269.88
336.825	275.88
337.053	246.88
337.281	265.88
337.51	264.88
337.738	259.88
337.966	250.88
338.194	264.88
338.422	266.88
338.65	284.88
338.878	268.88
339.106	247.88
339.334	266.88
339.562	257.88
339.79	263.88
340.018	262.88
340.246	259.88
340.474	251.88
340.702	270.88
340.93	249.88
341.158	245.88
341.386	257.88
341.614	258.88
341.842	252.88
342.07	256.88
342.298	261.88
342.526	266.88
342.754	263.88
342.981	244.88
343.209	250.88
343.437	270.88
343.665	247.88
343.893	260.88
344.12	259.88
344.348	243.88
344.576	260.88
344.804	269.88
345.031	245.88
345.259	263.88
345.487	249.88
345.714	262.88
345.942	250.88
346.17	262.88
346.397	257.88
346.625	240.88
346.853	232.88
347.08	258.88
347.308	250.88
347.535	265.88
347.763	254.88
347.99	265.88
348.218	251.88
348.445	268.88
348.673	241.88
348.9	258.88
349.128	266.88
349.355	242.88
349.583	246.88
349.81	232.88
350.037	244.88
350.265	263.88
350.492	233.88
350.72	256.88
350.947	240.88
351.174	260.88
351.402	266.88
351.629	264.88
351.856	253.88
352.083	260.88
352.311	263.88
352.538	257.88
352.765	250.88
352.992	259.88
353.22	231.88
353.447	236.88
353.674	240.88
353.901	247.88
354.128	252.88
354.355	242.88
354.583	226.88
354.81	220.88
355.037	236.88
355.264	233.88
355.491	241.88
355.718	234.88
355.945	239.88
356.172	231.88
356.399	249.88
356.626	235.88
356.853	247.88
357.08	250.88
357.307	234.88
357.534	232.88
357.761	229.88
357.988	230.88
358.215	251.88
358.441	244.88
358.668	239.88
358.895	236.88
359.122	237.88
359.349	248.88
359.576	247.88
359.802	256.88
360.029	276.88
360.256	273.88
360.483	251.88
360.709	248.88
360.936	242.88
361.163	240.88
361.39	244.88
361.616	237.88
361.843	230.88
362.07	241.88
362.296	247.88
362.523	234.88
362.749	229.88
362.976	242.88
363.203	245.88
363.429	254.88
363.656	240.88
363.882	220.88
364.109	235.88
364.335	241.88
364.562	225.88
364.788	261.88
365.015	225.88
365.241	240.88
365.468	240.88
365.694	238.88
365.92	246.88
366.147	216.88
366.373	222.88
366.599	239.88
366.826	218.88
367.052	211.88
367.278	246.88
367.505	237.88
367.731	246.88
367.957	238.88
368.184	226.88
368.41	237.88
368.636	249.88
368.862	258.88
369.089	244.88
369.315	238.88
369.541	229.88
369.767	225.88
369.993	246.88
370.219	218.88
370.445	241.88
370.672	234.88
370.898	236.88
371.124	246.88
371.35	235.88
371.576	213.88
371.802	235.88
372.028	238.88
372.254	245.88
372.48	233.88
372.706	232.88
372.932	228.88
373.158	258.88
373.384	236.88
373.61	248.88
373.835	237.88
374.061	232.88
374.287	241.88
374.513	238.88
374.739	246.88
374.965	244.88
375.191	248.88
375.416	221.88
375.642	227.88
375.868	230.88
376.094	239.88
376.319	239.88
376.545	221.88
376.771	238.88
376.997	233.88
377.222	225.88
377.448	244.88
377.674	227.88
377.899	218.88
378.125	249.88
378.35	252.88
378.576	215.88
378.802	239.88
379.027	243.88
379.253	228.88
379.478	221.88
379.704	225.88
379.929	229.88
380.155	264.88
380.38	227.88
380.606	238.88
380.831	232.88
381.057	237.88
381.282	239.88
381.507	225.88
381.733	234.88
381.958	235.88
382.184	237.88
382.409	247.88
382.634	225.88
382.86	247.88
383.085	224.88
383.31	228.88
383.535	237.88
383.761	238.88
383.986	231.88
384.211	235.88
384.436	236.88
384.662	257.88
384.887	237.88
385.112	240.88
385.337	250.88
385.562	240.88
385.787	236.88
386.013	233.88
386.238	252.88
386.463	260.88
386.688	258.88
386.913	235.88
387.138	250.88
387.363	246.88
387.588	236.88
387.813	252.88
388.038	238.88
388.263	245.88
388.488	237.88
388.713	251.88
388.938	251.88
389.163	268.88
389.387	262.88
389.612	246.88
389.837	255.88
390.062	241.88
390.287	241.88
390.512	245.88
390.736	249.88
390.961	225.88
391.186	237.88
391.411	244.88
391.636	244.88
391.86	259.88
392.085	266.88
392.31	240.88
392.534	244.88
392.759	250.88
392.984	250.88
393.208	223.88
393.433	253.88
393.658	253.88
393.882	248.88
394.107	235.88
394.331	252.88
394.556	254.88
394.78	270.88
395.005	251.88
395.229	239.88
395.454	260.88
395.678	256.88
395.903	259.88
396.127	273.88
396.352	263.88
396.576	251.88
396.801	253.88
397.025	265.88
397.249	256.88
397.474	230.88
397.698	263.88
397.922	254.88
398.147	275.88
398.371	265.88
398.595	258.88
398.82	276.88
399.044	298.88
399.268	271.88
399.492	285.88
399.717	287.88
399.941	317.88
400.165	344.88
400.389	344.88
400.613	296.88
400.837	284.88
401.062	271.88
401.286	266.88
401.51	254.88
401.734	279.88
401.958	267.88
402.182	268.88
402.406	272.88
402.63	267.88
402.854	279.88
403.078	272.88
403.302	296.88
403.526	288.88
403.75	290.88
403.974	273.88
404.198	274.88
404.422	277.88
404.645	281.88
404.869	272.88
405.093	296.88
405.317	306.88
405.541	318.88
405.765	308.88
405.988	274.88
406.212	303.88
406.436	293.88
406.66	303.88
406.883	288.88
407.107	329.88
407.331	334.88
407.555	346.88
407.778	336.88
408.002	324.88
408.226	306.88
408.449	308.88
408.673	308.88
408.896	308.88
409.12	318.88
409.344	329.88
409.567	292.88
409.791	290.88
410.014	292.88
410.238	266.88
410.461	283.88
410.685	283.88
410.908	293.88
411.132	301.88
411.355	300.88
411.578	286.88
411.802	276.88
412.025	279.88
412.249	289.88
412.472	295.88
412.695	301.88
412.919	278.88
413.142	277.88
413.365	254.88
413.589	269.88
413.812	278.88
414.035	266.88
414.258	265.88
414.482	257.88
414.705	266.88
414.928	271.88
415.151	252.88
415.374	249.88
415.597	256.88
415.821	258.88
416.044	254.88
416.267	264.88
416.49	257.88
416.713	249.88
416.936	261.88
417.159	274.88
417.382	279.88
417.605	260.88
417.828	262.88
418.051	269.88
418.274	262.88
418.497	282.88
418.72	258.88
418.943	262.88
419.166	268.88
419.389	254.88
419.611	281.88
419.834	269.88
420.057	280.88
420.28	278.88
420.503	279.88
420.726	273.88
420.948	274.88
421.171	282.88
421.394	315.88
421.617	278.88
421.839	273.88
422.062	280.88
422.285	264.88
422.507	325.88
422.73	315.88
422.953	314.88
423.175	306.88
423.398	273.88
423.621	281.88
423.843	284.88
424.066	288.88
424.288	274.88
424.511	325.88
424.733	327.88
424.956	358.88
425.178	344.88
425.401	313.88
425.623	333.88
425.846	324.88
426.068	306.88
426.291	296.88
426.513	301.88
426.735	301.88
426.958	298.88
427.18	350.88
427.402	416.88
427.625	459.88
427.847	384.88
428.069	340.88
428.292	303.88
428.514	281.88
428.736	278.88
428.958	278.88
429.181	270.88
429.403	284.88
429.625	284.88
429.847	302.88
430.069	322.88
430.292	310.88
430.514	289.88
430.736	254.88
430.958	242.88
431.18	262.88
431.402	265.88
431.624	272.88
431.846	271.88
432.068	265.88
432.29	272.88
432.512	247.88
432.734	261.88
432.956	257.88
433.178	275.88
433.4	273.88
433.622	253.88
433.844	266.88
434.066	273.88
434.287	273.88
434.509	253.88
434.731	270.88
434.953	265.88
435.175	255.88
435.397	281.88
435.618	289.88
435.84	322.88
436.062	353.88
436.284	375.88
436.505	315.88
436.727	298.88
436.949	271.88
437.17	280.88
437.392	271.88
437.614	280.88
437.835	303.88
438.057	335.88
438.278	373.88
438.5	388.88
438.721	423.88
438.943	393.88
439.165	327.88
439.386	310.88
439.608	278.88
439.829	299.88
440.05	294.88
440.272	329.88
440.493	308.88
440.715	289.88
440.936	282.88
441.158	274.88
441.379	269.88
441.6	290.88
441.822	284.88
442.043	299.88
442.264	322.88
442.486	360.88
442.707	303.88
442.928	317.88
443.149	292.88
443.371	293.88
443.592	336.88
443.813	381.88
444.034	396.88
444.255	349.88
444.476	294.88
444.698	284.88
444.919	293.88
445.14	374.88
445.361	337.88
445.582	328.88
445.803	328.88
446.024	381.88
446.245	388.88
446.466	340.88
446.687	309.88
446.908	290.88
447.129	289.88
447.35	297.88
447.571	273.88
447.792	284.88
448.013	288.88
448.234	289.88
448.455	323.88
448.675	373.88
448.896	413.88
449.117	374.88
449.338	356.88
449.559	390.88
449.779	421.88
450	345.88
450.221	284.88
450.442	284.88
450.662	260.88
450.883	289.88
451.104	286.88
451.324	261.88
451.545	248.88
451.766	250.88
451.986	253.88
452.207	239.88
452.428	238.88
452.648	230.88
452.869	244.88
453.089	254.88
453.31	253.88
453.53	238.88
453.751	240.88
453.971	255.88
454.192	243.88
454.412	240.88
454.633	244.88
454.853	229.88
455.073	240.88
455.294	242.88
455.514	294.88
455.734	288.88
455.955	237.88
456.175	267.88
456.395	247.88
456.616	250.88
456.836	232.88
457.056	236.88
457.276	239.88
457.497	248.88
457.717	224.88
457.937	236.88
458.157	238.88
458.377	226.88
458.598	248.88
458.818	258.88
459.038	319.88
459.258	306.88
459.478	281.88
459.698	273.88
459.918	254.88
460.138	239.88
460.358	254.88
460.578	249.88
460.798	262.88
461.018	261.88
461.238	246.88
461.458	256.88
461.678	262.88
461.898	262.88
462.118	258.88
462.338	260.88
462.558	263.88
462.777	270.88
462.997	288.88
463.217	265.88
463.437	286.88
463.657	282.88
463.876	269.88
464.096	281.88
464.316	286.88
464.536	274.88
464.755	279.88
464.975	269.88
465.195	284.88
465.414	303.88
465.634	284.88
465.854	261.88
466.073	260.88
466.293	255.88
466.512	251.88
466.732	260.88
466.951	248.88
467.171	240.88
467.391	252.88
467.61	260.88
467.829	246.88
468.049	263.88
468.268	260.88
468.488	256.88
468.707	258.88
468.927	240.88
469.146	241.88
469.365	267.88
469.585	246.88
469.804	249.88
470.023	260.88
470.243	264.88
470.462	254.88
470.681	270.88
470.901	268.88
471.12	257.88
471.339	236.88
471.558	256.88
471.777	256.88
471.997	239.88
472.216	273.88
472.435	273.88
472.654	278.88
472.873	246.88
473.092	255.88
473.311	234.88
473.53	250.88
473.749	256.88
473.968	289.88
474.187	324.88
474.406	334.88
474.625	285.88
474.844	269.88
475.063	265.88
475.282	270.88
475.501	262.88
475.72	262.88
475.939	246.88
476.158	268.88
476.377	248.88
476.596	258.88
476.814	271.88
477.033	268.88
477.252	262.88
477.471	253.88
477.69	275.88
477.908	278.88
478.127	284.88
478.346	267.88
478.564	277.88
478.783	278.88
479.002	285.88
479.22	282.88
479.439	289.88
479.658	294.88
479.876	301.88
480.095	274.88
480.313	296.88
480.532	294.88
480.751	300.88
480.969	304.88
481.188	325.88
481.406	312.88
481.624	289.88
481.843	317.88
482.061	303.88
482.28	274.88
482.498	286.88
482.717	286.88
482.935	305.88
483.153	302.88
483.372	296.88
483.59	291.88
483.808	287.88
484.027	304.88
484.245	303.88
484.463	295.88
484.681	298.88
484.9	299.88
485.118	297.88
485.336	282.88
485.554	289.88
485.772	326.88
485.99	289.88
486.209	293.88
486.427	294.88
486.645	303.88
486.863	304.88
487.081	301.88
487.299	316.88
487.517	308.88
487.735	318.88
487.953	317.88
488.171	290.88
488.389	320.88
488.607	303.88
488.825	301.88
489.043	320.88
489.261	317.88
489.479	314.88
489.696	320.88
489.914	326.88
490.132	313.88
490.35	298.88
490.568	335.88
490.786	320.88
491.003	310.88
491.221	326.88
491.439	339.88
491.657	362.88
491.874	346.88
492.092	351.88
492.31	348.88
492.527	355.88
492.745	349.88
492.963	322.88
493.18	346.88
493.398	352.88
493.615	333.88
493.833	378.88
494.05	361.88
494.268	344.88
494.485	334.88
494.703	363.88
494.92	362.88
495.138	361.88
495.355	364.88
495.573	350.88
495.79	354.88
496.008	361.88
496.225	340.88
496.442	376.88
496.66	356.88
496.877	363.88
497.094	359.88
497.312	369.88
497.529	365.88
497.746	369.88
497.963	378.88
498.181	380.88
498.398	385.88
498.615	405.88
498.832	385.88
499.049	410.88
499.267	401.88
499.484	415.88
499.701	424.88
499.918	422.88
500.135	463.88
500.352	466.88
500.569	457.88
500.786	471.88
501.003	478.88
501.22	450.88
501.437	443.88
501.654	436.88
501.871	454.88
502.088	415.88
502.305	412.88
502.522	385.88
502.739	385.88
502.956	391.88
503.172	380.88
503.389	366.88
503.606	376.88
503.823	372.88
504.04	389.88
504.256	369.88
504.473	367.88
504.69	363.88
504.907	356.88
505.123	360.88
505.34	362.88
505.557	340.88
505.773	348.88
505.99	354.88
506.207	335.88
506.423	353.88
506.64	347.88
506.856	354.88
507.073	360.88
507.289	337.88
507.506	350.88
507.722	376.88
507.939	355.88
508.155	340.88
508.372	341.88
508.588	321.88
508.805	316.88
509.021	321.88
509.238	358.88
509.454	351.88
509.67	343.88
509.887	326.88
510.103	331.88
510.319	344.88
510.536	384.88
510.752	558.88
510.968	452.88
511.184	338.88
511.401	321.88
511.617	300.88
511.833	324.88
512.049	326.88
512.265	320.88
512.481	321.88
512.698	324.88
512.914	301.88
513.13	308.88
513.346	308.88
513.562	319.88
513.778	315.88
513.994	332.88
514.21	327.88
514.426	336.88
514.642	363.88
514.858	364.88
515.074	376.88
515.29	414.88
515.506	562.88
515.721	479.88
515.937	367.88
516.153	342.88
516.369	329.88
516.585	329.88
516.801	335.88
517.016	330.88
517.232	329.88
517.448	325.88
517.664	311.88
517.879	319.88
518.095	317.88
518.311	320.88
518.527	321.88
518.742	322.88
518.958	319.88
519.173	313.88
519.389	329.88
519.605	306.88
519.82	294.88
520.036	331.88
520.251	310.88
520.467	336.88
520.682	338.88
520.898	330.88
521.113	342.88
521.329	377.88
521.544	420.88
521.76	474.88
521.975	721.88
522.19	667.88
522.406	426.88
522.621	348.88
522.836	320.88
523.052	325.88
523.267	311.88
523.482	308.88
523.698	312.88
523.913	284.88
524.128	309.88
524.343	292.88
524.559	286.88
524.774	280.88
524.989	282.88
525.204	315.88
525.419	277.88
525.634	287.88
525.849	283.88
526.064	270.88
526.28	280.88
526.495	249.88
526.71	281.88
526.925	273.88
527.14	276.88
527.355	266.88
527.57	262.88
527.785	271.88
527.999	258.88
528.214	254.88
528.429	266.88
528.644	276.88
528.859	249.88
529.074	246.88
529.289	283.88
529.503	297.88
529.718	308.88
529.933	284.88
530.148	258.88
530.363	281.88
530.577	269.88
530.792	273.88
531.007	259.88
531.221	262.88
531.436	260.88
531.651	243.88
531.865	293.88
532.08	253.88
532.295	258.88
532.509	245.88
532.724	235.88
532.938	252.88
533.153	248.88
533.367	242.88
533.582	259.88
533.796	246.88
534.011	251.88
534.225	271.88
534.44	239.88
534.654	254.88
534.868	262.88
535.083	254.88
535.297	262.88
535.511	247.88
535.726	268.88
535.94	265.88
536.154	265.88
536.369	237.88
536.583	264.88
536.797	267.88
537.011	252.88
537.225	245.88
537.44	260.88
537.654	246.88
537.868	235.88
538.082	246.88
538.296	262.88
538.51	235.88
538.724	252.88
538.938	260.88
539.153	256.88
539.367	257.88
539.581	252.88
539.795	240.88
540.009	275.88
540.222	240.88
540.436	249.88
540.65	258.88
540.864	241.88
541.078	254.88
541.292	251.88
541.506	253.88
541.72	261.88
541.934	249.88
542.147	244.88
542.361	264.88
542.575	261.88
542.789	254.88
543.002	253.88
543.216	277.88
543.43	258.88
543.644	242.88
543.857	252.88
544.071	262.88
544.285	246.88
544.498	263.88
544.712	261.88
544.925	265.88
545.139	252.88
545.352	241.88
545.566	236.88
545.779	253.88
545.993	256.88
546.206	242.88
546.42	261.88
546.633	266.88
546.847	240.88
547.06	260.88
547.274	241.88
547.487	244.88
547.7	268.88
547.914	243.88
548.127	244.88
548.34	242.88
548.554	233.88
548.767	265.88
548.98	239.88
549.193	234.88
549.407	221.88
549.62	229.88
549.833	246.88
550.046	246.88
550.259	252.88
550.473	225.88
550.686	242.88
550.899	247.88
551.112	228.88
551.325	225.88
551.538	249.88
551.751	228.88
551.964	222.88
552.177	246.88
552.39	241.88
552.603	236.88
552.816	263.88
553.029	244.88
553.242	236.88
553.455	238.88
553.667	240.88
553.88	247.88
554.093	239.88
554.306	244.88
554.519	242.88
554.732	244.88
554.944	220.88
555.157	232.88
555.37	234.88
555.583	235.88
555.795	228.88
556.008	233.88
556.221	233.88
556.433	257.88
556.646	223.88
556.859	208.88
557.071	214.88
557.284	210.88
557.496	213.88
557.709	223.88
557.921	209.88
558.134	221.88
558.346	238.88
558.559	208.88
558.771	218.88
558.984	230.88
559.196	212.88
559.409	229.88
559.621	221.88
559.833	222.88
560.046	209.88
560.258	216.88
560.47	210.88
560.683	215.88
560.895	226.88
561.107	196.88
561.32	225.88
561.532	230.88
561.744	225.88
561.956	205.88
562.168	229.88
562.381	228.88
562.593	240.88
562.805	235.88
563.017	207.88
563.229	230.88
563.441	223.88
563.653	217.88
563.865	211.88
564.077	201.88
564.289	241.88
564.501	218.88
564.713	240.88
564.925	227.88
565.137	223.88
565.349	234.88
565.561	236.88
565.773	254.88
565.985	250.88
566.197	232.88
566.408	229.88
566.62	249.88
566.832	251.88
567.044	248.88
567.255	239.88
567.467	239.88
567.679	271.88
567.891	262.88
568.102	262.88
568.314	259.88
568.526	249.88
568.737	251.88
568.949	236.88
569.161	236.88
569.372	240.88
569.584	236.88
569.795	223.88
570.007	220.88
570.218	244.88
570.43	214.88
570.641	215.88
570.853	206.88
571.064	216.88
571.276	204.88
571.487	205.88
571.698	215.88
571.91	204.88
572.121	205.88
572.333	201.88
572.544	197.88
572.755	195.88
572.966	197.88
573.178	196.88
573.389	206.88
573.6	200.88
573.811	200.88
574.023	208.88
574.234	199.88
574.445	178.88
574.656	204.88
574.867	191.88
575.078	199.88
575.289	192.88
575.501	204.88
575.712	188.88
575.923	208.88
576.134	200.88
576.345	186.88
576.556	193.88
576.767	194.88
576.978	198.88
577.188	206.88
577.399	193.88
577.61	203.88
577.821	198.88
578.032	208.88
578.243	207.88
578.454	292.88
578.665	225.88
578.875	197.88
579.086	193.88
579.297	181.88
579.508	189.88
579.718	206.88
579.929	196.88
580.14	174.88
580.35	171.88
580.561	183.88
580.772	198.88
580.982	170.88
581.193	184.88
581.403	189.88
581.614	187.88
581.825	199.88
582.035	183.88
582.246	188.88
582.456	176.88
582.667	186.88
582.877	190.88
583.087	177.88
583.298	176.88
583.508	188.88
583.719	181.88
583.929	173.88
584.139	189.88
584.35	193.88
584.56	192.88
584.77	180.88
584.981	176.88
585.191	180.88
585.401	186.88
585.611	186.88
585.821	181.88
586.032	180.88
586.242	199.88
586.452	182.88
586.662	174.88
586.872	186.88
587.082	173.88
587.292	174.88
587.502	187.88
587.713	196.88
587.923	181.88
588.133	180.88
588.343	176.88
588.553	190.88
588.762	177.88
588.972	180.88
589.182	206.88
589.392	199.88
589.602	182.88
589.812	205.88
590.022	188.88
590.232	172.88
590.441	187.88
590.651	166.88
590.861	183.88
591.071	177.88
591.281	180.88
591.49	170.88
591.7	190.88
591.91	179.88
592.119	183.88
592.329	193.88
592.539	189.88
592.748	194.88
592.958	169.88
593.167	174.88
593.377	186.88
593.587	188.88
593.796	199.88
594.006	197.88
594.215	191.88
594.424	200.88
594.634	183.88
594.843	172.88
595.053	172.88
595.262	191.88
595.472	175.88
595.681	167.88
595.89	166.88
596.1	183.88
596.309	170.88
596.518	160.88
596.727	183.88
596.937	185.88
597.146	173.88
597.355	181.88
597.564	179.88
597.774	178.88
597.983	176.88
598.192	157.88
598.401	167.88
598.61	170.88
598.819	180.88
599.028	157.88
599.237	170.88
599.446	191.88
599.655	161.88
599.864	169.88
600.073	162.88
600.282	180.88
600.491	156.88
600.7	160.88
600.909	180.88
601.118	179.88
601.327	169.88
601.536	157.88
601.745	176.88
601.953	157.88
602.162	164.88
602.371	160.88
602.58	169.88
602.789	164.88
602.997	174.88
603.206	170.88
603.415	172.88
603.623	157.88
603.832	148.88
604.041	163.88
604.249	161.88
604.458	171.88
604.666	174.88
604.875	156.88
605.084	159.88
605.292	165.88
605.501	162.88
605.709	160.88
605.918	168.88
606.126	145.88
606.334	164.88
606.543	164.88
606.751	164.88
606.96	164.88
607.168	162.88
607.376	151.88
607.585	157.88
607.793	160.88
608.001	155.88
608.21	146.88
608.418	148.88
608.626	137.88
608.834	161.88
609.043	172.88
609.251	154.88
609.459	158.88
609.667	153.88
609.875	142.88
610.083	148.88
610.291	156.88
610.499	156.88
610.707	175.88
610.916	151.88
611.124	162.88
611.332	164.88
611.54	171.88
611.748	160.88
611.955	158.88
612.163	160.88
612.371	167.88
612.579	164.88
612.787	151.88
612.995	157.88
613.203	160.88
613.411	158.88
613.618	161.88
613.826	153.88
614.034	155.88
614.242	168.88
614.449	170.88
614.657	166.88
614.865	157.88
615.072	160.88
615.28	180.88
615.488	169.88
615.695	152.88
615.903	145.88
616.111	154.88
616.318	154.88
616.526	161.88
616.733	155.88
616.941	154.88
617.148	164.88
617.356	142.88
617.563	146.88
617.771	165.88
617.978	161.88
618.185	152.88
618.393	147.88
618.6	158.88
618.807	152.88
619.015	159.88
619.222	152.88
619.429	154.88
619.637	149.88
619.844	150.88
620.051	148.88
620.258	153.88
620.466	153.88
620.673	154.88
620.88	157.88
621.087	144.88
621.294	152.88
621.501	153.88
621.708	125.88
621.915	146.88
622.122	165.88
622.329	145.88
622.536	154.88
622.743	157.88
622.95	153.88
623.157	171.88
623.364	153.88
623.571	158.88
623.778	152.88
623.985	149.88
624.192	142.88
624.399	151.88
624.606	156.88
624.812	157.88
625.019	157.88
625.226	140.88
625.433	146.88
625.639	135.88
625.846	144.88
626.053	143.88
626.259	148.88
626.466	140.88
626.673	136.88
626.879	158.88
627.086	137.88
627.293	140.88
627.499	152.88
627.706	152.88
627.912	150.88
628.119	145.88
628.325	156.88
628.532	152.88
628.738	121.88
628.945	138.88
629.151	124.88
629.357	143.88
629.564	134.88
629.77	158.88
629.976	136.88
630.183	153.88
630.389	142.88
630.595	125.88
630.802	130.88
631.008	158.88
631.214	145.88
631.42	132.88
631.627	142.88
631.833	140.88
632.039	140.88
632.245	135.88
632.451	136.88
632.657	133.88
632.863	128.88
633.069	140.88
633.275	133.88
633.481	128.88
633.688	134.88
633.893	135.88
634.099	131.88
634.305	147.88
634.511	137.88
634.717	125.88
634.923	125.88
635.129	132.88
635.335	124.88
635.541	139.88
635.747	144.88
635.952	142.88
636.158	125.88
636.364	128.88
636.57	144.88
636.775	148.88
636.981	127.88
637.187	138.88
637.392	144.88
637.598	131.88
637.804	138.88
638.009	128.88
638.215	125.88
638.421	128.88
638.626	129.88
638.832	130.88
639.037	150.88
639.243	122.88
639.448	114.88
639.654	129.88
639.859	126.88
640.065	136.88
640.27	144.88
640.475	131.88
640.681	139.88
640.886	129.88
641.091	132.88
641.297	156.88
641.502	122.88
641.707	120.88
641.913	147.88
642.118	123.88
642.323	129.88
642.528	129.88
642.733	131.88
642.939	134.88
643.144	129.88
643.349	128.88
643.554	129.88
643.759	121.88
643.964	133.88
644.169	123.88
644.374	140.88
644.579	128.88
644.784	124.88
644.989	125.88
645.194	143.88
645.399	124.88
645.604	121.88
645.809	130.88
646.014	126.88
646.219	135.88
646.423	136.88
646.628	121.88
646.833	127.88
647.038	123.88
647.243	125.88
647.447	135.88
647.652	132.88
647.857	119.88
648.062	137.88
648.266	142.88
648.471	129.88
648.676	122.88
648.88	124.88
649.085	122.88
649.289	129.88
649.494	144.88
649.698	145.88
649.903	119.88
650.107	144.88
650.312	119.88
650.516	127.88
650.721	131.88
650.925	123.88
651.13	123.88
651.334	108.88
651.539	105.88
651.743	105.88
651.947	119.88
652.152	118.88
652.356	120.88
652.56	121.88
652.764	106.88
652.969	107.88
653.173	120.88
653.377	126.88
653.581	116.88
653.785	109.88
653.99	123.88
654.194	124.88
654.398	135.88
654.602	116.88
654.806	111.88
655.01	122.88
655.214	121.88
655.418	105.88
655.622	116.88
655.826	119.88
656.03	102.88
656.234	118.88
656.438	104.88
656.642	120.88
656.846	107.88
657.049	108.88
657.253	111.88
657.457	97.88
657.661	116.88
657.865	96.88
658.068	111.88
658.272	94.88
658.476	112.88
658.68	107.88
658.883	112.88
659.087	112.88
659.291	102.88
659.494	116.88
659.698	95.88
659.901	96.88
660.105	91.88
660.309	103.88
660.512	92.88
660.716	96.88
660.919	82.88
661.123	100.88
661.326	94.88
661.53	93.88
661.733	88.88
661.936	91.88
662.14	87.88
662.343	93.88
662.546	90.88
662.75	92.88
662.953	77.88
663.156	111.88
663.36	85.88
663.563	102.88
663.766	90.88
663.969	83.88
664.173	88.88
664.376	81.88
664.579	94.88
664.782	100.88
664.985	88.88
665.188	93.88
665.391	97.88
665.594	88.88
665.797	92.88
666	98.88
666.203	88.88
666.406	91.88
666.609	83.88
666.812	90.88
667.015	77.88
667.218	90.88
667.421	84.88
667.624	88.88
667.827	87.88
668.03	95.88
668.232	87.88
668.435	85.88
668.638	79.88
668.841	88.88
669.043	76.88
669.246	93.88
669.449	79.88
669.651	91.88
669.854	84.88
670.057	83.88
670.259	80.88
670.462	90.88
670.665	87.88
670.867	94.88
671.07	87.88
671.272	86.88
671.475	69.88
671.677	81.88
671.88	85.88
672.082	87.88
672.284	91.88
672.487	77.88
672.689	89.88
672.892	87.88
