Data from 1982.PennyLincolnUp.Lamp.En5.5.200Scan.071819.P1_HRD10591_16-45-44-961.txt Node
Date: Thu Jul 18 16:45:44 EDT 2019
User: cochatt
Spectrometer: HR+D1059
Trigger mode: 1
Integration Time (sec): 1.000000E-1
Scans to average: 1
Electric dark correction enabled: true
Nonlinearity correction enabled: false
Boxcar width: 0
XAxis mode: Wavelengths
Number of Pixels in Spectrum: 2048
>>>>>Begin Spectral Data<<<<<
223.165	-11.62
223.4	-11.62
223.635	-11.62
223.869	-1.62
224.104	-19.62
224.338	-3.62
224.573	-16.62
224.808	-15.62
225.042	-17.62
225.277	-10.62
225.511	1.38
225.746	8.38
225.98	-1.62
226.215	13.38
226.449	15.38
226.683	12.38
226.918	15.38
227.152	32.38
227.387	29.38
227.621	37.38
227.856	59.38
228.09	34.38
228.324	49.38
228.559	47.38
228.793	67.38
229.027	82.38
229.262	78.38
229.496	98.38
229.73	89.38
229.964	114.38
230.199	96.38
230.433	94.38
230.667	110.38
230.901	109.38
231.136	90.38
231.37	105.38
231.604	99.38
231.838	93.38
232.072	103.38
232.306	104.38
232.541	84.38
232.775	89.38
233.009	89.38
233.243	82.38
233.477	98.38
233.711	110.38
233.945	89.38
234.179	103.38
234.413	105.38
234.647	111.38
234.881	104.38
235.115	101.38
235.349	100.38
235.583	105.38
235.817	103.38
236.051	76.38
236.285	97.38
236.519	111.38
236.753	109.38
236.987	129.38
237.221	150.38
237.455	170.38
237.689	141.38
237.922	122.38
238.156	120.38
238.39	106.38
238.624	94.38
238.858	102.38
239.091	98.38
239.325	105.38
239.559	107.38
239.793	122.38
240.027	105.38
240.26	106.38
240.494	123.38
240.728	114.38
240.961	126.38
241.195	109.38
241.429	115.38
241.662	122.38
241.896	93.38
242.13	110.38
242.363	106.38
242.597	105.38
242.83	108.38
243.064	121.38
243.298	114.38
243.531	113.38
243.765	108.38
243.998	112.38
244.232	126.38
244.465	118.38
244.699	114.38
244.932	114.38
245.166	114.38
245.399	116.38
245.633	115.38
245.866	102.38
246.099	122.38
246.333	119.38
246.566	136.38
246.8	121.38
247.033	120.38
247.266	112.38
247.5	132.38
247.733	127.38
247.966	128.38
248.2	122.38
248.433	135.38
248.666	116.38
248.899	143.38
249.133	152.38
249.366	160.38
249.599	160.38
249.832	140.38
250.066	126.38
250.299	148.38
250.532	149.38
250.765	161.38
250.998	164.38
251.231	170.38
251.465	167.38
251.698	161.38
251.931	157.38
252.164	151.38
252.397	159.38
252.63	155.38
252.863	152.38
253.096	187.38
253.329	170.38
253.562	164.38
253.795	162.38
254.028	172.38
254.261	174.38
254.494	183.38
254.727	190.38
254.96	216.38
255.193	204.38
255.426	185.38
255.659	192.38
255.892	182.38
256.124	191.38
256.357	176.38
256.59	182.38
256.823	166.38
257.056	155.38
257.289	138.38
257.521	154.38
257.754	158.38
257.987	155.38
258.22	166.38
258.452	167.38
258.685	154.38
258.918	161.38
259.151	163.38
259.383	181.38
259.616	152.38
259.849	185.38
260.081	170.38
260.314	196.38
260.547	183.38
260.779	182.38
261.012	164.38
261.244	180.38
261.477	186.38
261.71	164.38
261.942	162.38
262.175	179.38
262.407	165.38
262.64	172.38
262.872	160.38
263.105	165.38
263.337	164.38
263.57	172.38
263.802	171.38
264.035	169.38
264.267	153.38
264.499	149.38
264.732	154.38
264.964	153.38
265.197	169.38
265.429	171.38
265.661	167.38
265.894	163.38
266.126	155.38
266.358	160.38
266.591	170.38
266.823	173.38
267.055	174.38
267.287	186.38
267.52	174.38
267.752	182.38
267.984	170.38
268.216	172.38
268.448	182.38
268.681	175.38
268.913	195.38
269.145	194.38
269.377	205.38
269.609	189.38
269.841	204.38
270.073	215.38
270.306	203.38
270.538	247.38
270.77	230.38
271.002	232.38
271.234	225.38
271.466	215.38
271.698	222.38
271.93	223.38
272.162	230.38
272.394	246.38
272.626	242.38
272.858	203.38
273.09	199.38
273.322	185.38
273.553	211.38
273.785	195.38
274.017	177.38
274.249	202.38
274.481	191.38
274.713	209.38
274.945	200.38
275.176	187.38
275.408	204.38
275.64	188.38
275.872	187.38
276.104	207.38
276.335	195.38
276.567	198.38
276.799	214.38
277.031	214.38
277.262	244.38
277.494	243.38
277.726	236.38
277.957	226.38
278.189	210.38
278.421	216.38
278.652	200.38
278.884	199.38
279.115	189.38
279.347	190.38
279.579	207.38
279.81	198.38
280.042	190.38
280.273	193.38
280.505	204.38
280.736	180.38
280.968	210.38
281.199	196.38
281.431	205.38
281.662	202.38
281.894	196.38
282.125	206.38
282.356	208.38
282.588	202.38
282.819	218.38
283.051	208.38
283.282	197.38
283.513	202.38
283.745	216.38
283.976	202.38
284.207	215.38
284.439	201.38
284.67	198.38
284.901	202.38
285.132	204.38
285.364	215.38
285.595	208.38
285.826	207.38
286.057	208.38
286.288	204.38
286.52	222.38
286.751	207.38
286.982	206.38
287.213	206.38
287.444	216.38
287.675	223.38
287.906	217.38
288.138	210.38
288.369	223.38
288.6	220.38
288.831	214.38
289.062	228.38
289.293	213.38
289.524	191.38
289.755	206.38
289.986	207.38
290.217	201.38
290.448	206.38
290.679	195.38
290.91	214.38
291.141	220.38
291.371	209.38
291.602	199.38
291.833	223.38
292.064	210.38
292.295	215.38
292.526	221.38
292.757	203.38
292.987	214.38
293.218	231.38
293.449	238.38
293.68	230.38
293.91	200.38
294.141	211.38
294.372	202.38
294.603	220.38
294.833	202.38
295.064	208.38
295.295	212.38
295.525	208.38
295.756	216.38
295.987	219.38
296.217	228.38
296.448	228.38
296.679	230.38
296.909	203.38
297.14	212.38
297.37	202.38
297.601	207.38
297.831	219.38
298.062	215.38
298.292	218.38
298.523	228.38
298.753	243.38
298.984	228.38
299.214	218.38
299.445	204.38
299.675	202.38
299.905	229.38
300.136	239.38
300.366	234.38
300.597	222.38
300.827	231.38
301.057	228.38
301.288	246.38
301.518	235.38
301.748	236.38
301.979	235.38
302.209	221.38
302.439	245.38
302.669	226.38
302.9	240.38
303.13	272.38
303.36	225.38
303.59	235.38
303.82	241.38
304.051	242.38
304.281	239.38
304.511	242.38
304.741	239.38
304.971	232.38
305.201	229.38
305.431	232.38
305.661	238.38
305.891	240.38
306.121	246.38
306.352	256.38
306.582	231.38
306.812	242.38
307.042	233.38
307.272	234.38
307.502	234.38
307.731	239.38
307.961	230.38
308.191	247.38
308.421	246.38
308.651	245.38
308.881	245.38
309.111	250.38
309.341	264.38
309.571	251.38
309.8	242.38
310.03	260.38
310.26	255.38
310.49	262.38
310.72	276.38
310.949	282.38
311.179	295.38
311.409	285.38
311.639	275.38
311.868	273.38
312.098	255.38
312.328	281.38
312.557	310.38
312.787	304.38
313.017	289.38
313.246	282.38
313.476	266.38
313.706	276.38
313.935	289.38
314.165	294.38
314.394	283.38
314.624	274.38
314.853	294.38
315.083	280.38
315.312	267.38
315.542	273.38
315.771	282.38
316.001	269.38
316.23	282.38
316.46	249.38
316.689	241.38
316.919	289.38
317.148	276.38
317.377	304.38
317.607	275.38
317.836	270.38
318.065	273.38
318.295	276.38
318.524	267.38
318.753	279.38
318.983	269.38
319.212	278.38
319.441	287.38
319.67	276.38
319.9	280.38
320.129	290.38
320.358	282.38
320.587	292.38
320.816	284.38
321.046	286.38
321.275	300.38
321.504	274.38
321.733	307.38
321.962	304.38
322.191	312.38
322.42	311.38
322.649	338.38
322.878	345.38
323.108	351.38
323.337	373.38
323.566	364.38
323.795	404.38
324.024	437.38
324.253	533.38
324.482	805.38
324.71	1191.38
324.939	1579.38
325.168	1262.38
325.397	655.38
325.626	491.38
325.855	397.38
326.084	388.38
326.313	362.38
326.542	348.38
326.77	426.38
326.999	518.38
327.228	671.38
327.457	1028.38
327.686	1142.38
327.914	784.38
328.143	516.38
328.372	468.38
328.6	439.38
328.829	432.38
329.058	406.38
329.287	412.38
329.515	382.38
329.744	371.38
329.972	374.38
330.201	404.38
330.43	396.38
330.658	411.38
330.887	452.38
331.115	416.38
331.344	367.38
331.572	349.38
331.801	361.38
332.03	345.38
332.258	327.38
332.486	330.38
332.715	324.38
332.943	315.38
333.172	345.38
333.4	315.38
333.629	312.38
333.857	333.38
334.085	338.38
334.314	340.38
334.542	359.38
334.771	379.38
334.999	348.38
335.227	324.38
335.455	333.38
335.684	325.38
335.912	332.38
336.14	313.38
336.369	309.38
336.597	324.38
336.825	314.38
337.053	303.38
337.281	317.38
337.51	299.38
337.738	306.38
337.966	298.38
338.194	303.38
338.422	294.38
338.65	315.38
338.878	296.38
339.106	303.38
339.334	304.38
339.562	309.38
339.79	315.38
340.018	292.38
340.246	308.38
340.474	308.38
340.702	295.38
340.93	312.38
341.158	297.38
341.386	307.38
341.614	299.38
341.842	281.38
342.07	297.38
342.298	284.38
342.526	279.38
342.754	289.38
342.981	278.38
343.209	292.38
343.437	276.38
343.665	296.38
343.893	305.38
344.12	307.38
344.348	307.38
344.576	302.38
344.804	319.38
345.031	303.38
345.259	311.38
345.487	314.38
345.714	296.38
345.942	294.38
346.17	280.38
346.397	290.38
346.625	302.38
346.853	289.38
347.08	305.38
347.308	286.38
347.535	296.38
347.763	299.38
347.99	313.38
348.218	310.38
348.445	302.38
348.673	283.38
348.9	294.38
349.128	294.38
349.355	279.38
349.583	291.38
349.81	284.38
350.037	276.38
350.265	294.38
350.492	289.38
350.72	282.38
350.947	278.38
351.174	298.38
351.402	304.38
351.629	318.38
351.856	304.38
352.083	307.38
352.311	287.38
352.538	295.38
352.765	298.38
352.992	304.38
353.22	272.38
353.447	281.38
353.674	299.38
353.901	289.38
354.128	287.38
354.355	274.38
354.583	265.38
354.81	269.38
355.037	274.38
355.264	282.38
355.491	267.38
355.718	276.38
355.945	256.38
356.172	278.38
356.399	273.38
356.626	254.38
356.853	265.38
357.08	264.38
357.307	275.38
357.534	266.38
357.761	276.38
357.988	278.38
358.215	272.38
358.441	285.38
358.668	275.38
358.895	290.38
359.122	300.38
359.349	300.38
359.576	283.38
359.802	297.38
360.029	327.38
360.256	315.38
360.483	315.38
360.709	278.38
360.936	298.38
361.163	287.38
361.39	297.38
361.616	287.38
361.843	274.38
362.07	278.38
362.296	287.38
362.523	287.38
362.749	296.38
362.976	278.38
363.203	283.38
363.429	272.38
363.656	268.38
363.882	288.38
364.109	277.38
364.335	279.38
364.562	264.38
364.788	246.38
365.015	266.38
365.241	267.38
365.468	275.38
365.694	281.38
365.92	276.38
366.147	266.38
366.373	267.38
366.599	274.38
366.826	292.38
367.052	247.38
367.278	257.38
367.505	264.38
367.731	275.38
367.957	252.38
368.184	260.38
368.41	273.38
368.636	264.38
368.862	268.38
369.089	292.38
369.315	268.38
369.541	262.38
369.767	265.38
369.993	274.38
370.219	249.38
370.445	275.38
370.672	277.38
370.898	267.38
371.124	267.38
371.35	264.38
371.576	245.38
371.802	255.38
372.028	246.38
372.254	263.38
372.48	268.38
372.706	266.38
372.932	257.38
373.158	269.38
373.384	289.38
373.61	274.38
373.835	281.38
374.061	266.38
374.287	278.38
374.513	269.38
374.739	282.38
374.965	269.38
375.191	256.38
375.416	255.38
375.642	269.38
375.868	277.38
376.094	273.38
376.319	267.38
376.545	269.38
376.771	263.38
376.997	252.38
377.222	258.38
377.448	254.38
377.674	264.38
377.899	264.38
378.125	266.38
378.35	247.38
378.576	272.38
378.802	267.38
379.027	269.38
379.253	265.38
379.478	279.38
379.704	263.38
379.929	260.38
380.155	260.38
380.38	271.38
380.606	266.38
380.831	272.38
381.057	261.38
381.282	272.38
381.507	260.38
381.733	273.38
381.958	272.38
382.184	254.38
382.409	255.38
382.634	262.38
382.86	251.38
383.085	261.38
383.31	262.38
383.535	273.38
383.761	266.38
383.986	273.38
384.211	265.38
384.436	267.38
384.662	242.38
384.887	266.38
385.112	265.38
385.337	293.38
385.562	283.38
385.787	264.38
386.013	299.38
386.238	274.38
386.463	276.38
386.688	255.38
386.913	264.38
387.138	275.38
387.363	264.38
387.588	275.38
387.813	274.38
388.038	258.38
388.263	286.38
388.488	283.38
388.713	275.38
388.938	271.38
389.163	259.38
389.387	264.38
389.612	280.38
389.837	257.38
390.062	276.38
390.287	273.38
390.512	264.38
390.736	260.38
390.961	263.38
391.186	265.38
391.411	249.38
391.636	272.38
391.86	267.38
392.085	271.38
392.31	265.38
392.534	280.38
392.759	274.38
392.984	288.38
393.208	277.38
393.433	264.38
393.658	277.38
393.882	284.38
394.107	266.38
394.331	279.38
394.556	272.38
394.78	278.38
395.005	285.38
395.229	262.38
395.454	281.38
395.678	276.38
395.903	285.38
396.127	308.38
396.352	294.38
396.576	267.38
396.801	270.38
397.025	275.38
397.249	286.38
397.474	287.38
397.698	294.38
397.922	297.38
398.147	308.38
398.371	299.38
398.595	303.38
398.82	320.38
399.044	295.38
399.268	299.38
399.492	324.38
399.717	326.38
399.941	344.38
400.165	361.38
400.389	360.38
400.613	346.38
400.837	310.38
401.062	311.38
401.286	293.38
401.51	296.38
401.734	312.38
401.958	292.38
402.182	311.38
402.406	311.38
402.63	321.38
402.854	316.38
403.078	307.38
403.302	305.38
403.526	314.38
403.75	314.38
403.974	296.38
404.198	322.38
404.422	315.38
404.645	316.38
404.869	341.38
405.093	334.38
405.317	365.38
405.541	367.38
405.765	347.38
405.988	322.38
406.212	331.38
406.436	349.38
406.66	366.38
406.883	341.38
407.107	347.38
407.331	371.38
407.555	400.38
407.778	387.38
408.002	369.38
408.226	339.38
408.449	334.38
408.673	346.38
408.896	367.38
409.12	392.38
409.344	370.38
409.567	317.38
409.791	307.38
410.014	313.38
410.238	307.38
410.461	312.38
410.685	320.38
410.908	319.38
411.132	336.38
411.355	346.38
411.578	326.38
411.802	312.38
412.025	315.38
412.249	316.38
412.472	323.38
412.695	328.38
412.919	358.38
413.142	308.38
413.365	306.38
413.589	304.38
413.812	297.38
414.035	294.38
414.258	324.38
414.482	296.38
414.705	294.38
414.928	279.38
415.151	283.38
415.374	299.38
415.597	287.38
415.821	300.38
416.044	296.38
416.267	303.38
416.49	296.38
416.713	290.38
416.936	291.38
417.159	286.38
417.382	281.38
417.605	307.38
417.828	287.38
418.051	306.38
418.274	323.38
418.497	314.38
418.72	294.38
418.943	282.38
419.166	283.38
419.389	296.38
419.611	308.38
419.834	306.38
420.057	311.38
420.28	281.38
420.503	299.38
420.726	302.38
420.948	318.38
421.171	350.38
421.394	351.38
421.617	314.38
421.839	302.38
422.062	300.38
422.285	327.38
422.507	332.38
422.73	383.38
422.953	391.38
423.175	332.38
423.398	310.38
423.621	328.38
423.843	350.38
424.066	324.38
424.288	324.38
424.511	341.38
424.733	376.38
424.956	431.38
425.178	409.38
425.401	402.38
425.623	417.38
425.846	360.38
426.068	331.38
426.291	343.38
426.513	323.38
426.735	366.38
426.958	381.38
427.18	420.38
427.402	470.38
427.625	528.38
427.847	473.38
428.069	419.38
428.292	364.38
428.514	341.38
428.736	340.38
428.958	330.38
429.181	299.38
429.403	304.38
429.625	318.38
429.847	342.38
430.069	379.38
430.292	370.38
430.514	332.38
430.736	302.38
430.958	296.38
431.18	297.38
431.402	305.38
431.624	302.38
431.846	266.38
432.068	288.38
432.29	282.38
432.512	287.38
432.734	296.38
432.956	302.38
433.178	292.38
433.4	292.38
433.622	304.38
433.844	277.38
434.066	286.38
434.287	286.38
434.509	283.38
434.731	295.38
434.953	296.38
435.175	303.38
435.397	312.38
435.618	322.38
435.84	366.38
436.062	425.38
436.284	428.38
436.505	371.38
436.727	349.38
436.949	330.38
437.17	314.38
437.392	299.38
437.614	319.38
437.835	341.38
438.057	404.38
438.278	441.38
438.5	453.38
438.721	491.38
438.943	457.38
439.165	379.38
439.386	347.38
439.608	360.38
439.829	332.38
440.05	358.38
440.272	378.38
440.493	370.38
440.715	331.38
440.936	321.38
441.158	316.38
441.379	317.38
441.6	326.38
441.822	316.38
442.043	373.38
442.264	408.38
442.486	434.38
442.707	343.38
442.928	347.38
443.149	343.38
443.371	362.38
443.592	370.38
443.813	438.38
444.034	472.38
444.255	401.38
444.476	342.38
444.698	340.38
444.919	323.38
445.14	410.38
445.361	380.38
445.582	351.38
445.803	394.38
446.024	459.38
446.245	462.38
446.466	427.38
446.687	362.38
446.908	351.38
447.129	324.38
447.35	339.38
447.571	309.38
447.792	328.38
448.013	320.38
448.234	338.38
448.455	353.38
448.675	423.38
448.896	462.38
449.117	436.38
449.338	380.38
449.559	454.38
449.779	495.38
450	406.38
450.221	352.38
450.442	310.38
450.662	311.38
450.883	318.38
451.104	340.38
451.324	320.38
451.545	299.38
451.766	274.38
451.986	289.38
452.207	283.38
452.428	270.38
452.648	285.38
452.869	280.38
453.089	292.38
453.31	298.38
453.53	283.38
453.751	296.38
453.971	296.38
454.192	295.38
454.412	290.38
454.633	297.38
454.853	271.38
455.073	287.38
455.294	302.38
455.514	352.38
455.734	321.38
455.955	290.38
456.175	277.38
456.395	269.38
456.616	263.38
456.836	258.38
457.056	252.38
457.276	257.38
457.497	259.38
457.717	272.38
457.937	267.38
458.157	263.38
458.377	284.38
458.598	294.38
458.818	324.38
459.038	369.38
459.258	407.38
459.478	328.38
459.698	306.38
459.918	292.38
460.138	287.38
460.358	305.38
460.578	302.38
460.798	295.38
461.018	284.38
461.238	290.38
461.458	277.38
461.678	271.38
461.898	292.38
462.118	285.38
462.338	292.38
462.558	299.38
462.777	304.38
462.997	306.38
463.217	323.38
463.437	305.38
463.657	309.38
463.876	311.38
464.096	308.38
464.316	310.38
464.536	316.38
464.755	312.38
464.975	318.38
465.195	350.38
465.414	401.38
465.634	347.38
465.854	314.38
466.073	293.38
466.293	298.38
466.512	293.38
466.732	292.38
466.951	294.38
467.171	288.38
467.391	279.38
467.61	299.38
467.829	296.38
468.049	290.38
468.268	295.38
468.488	275.38
468.707	271.38
468.927	279.38
469.146	274.38
469.365	276.38
469.585	276.38
469.804	285.38
470.023	291.38
470.243	288.38
470.462	295.38
470.681	304.38
470.901	302.38
471.12	276.38
471.339	293.38
471.558	292.38
471.777	291.38
471.997	292.38
472.216	295.38
472.435	313.38
472.654	296.38
472.873	302.38
473.092	300.38
473.311	297.38
473.53	298.38
473.749	315.38
473.968	336.38
474.187	384.38
474.406	396.38
474.625	324.38
474.844	308.38
475.063	299.38
475.282	288.38
475.501	275.38
475.72	312.38
475.939	306.38
476.158	303.38
476.377	310.38
476.596	288.38
476.814	304.38
477.033	307.38
477.252	298.38
477.471	308.38
477.69	304.38
477.908	305.38
478.127	320.38
478.346	279.38
478.564	309.38
478.783	340.38
479.002	327.38
479.22	327.38
479.439	329.38
479.658	343.38
479.876	338.38
480.095	336.38
480.313	363.38
480.532	334.38
480.751	343.38
480.969	358.38
481.188	387.38
481.406	414.38
481.624	366.38
481.843	344.38
482.061	324.38
482.28	324.38
482.498	350.38
482.717	326.38
482.935	328.38
483.153	338.38
483.372	331.38
483.59	346.38
483.808	319.38
484.027	352.38
484.245	350.38
484.463	346.38
484.681	345.38
484.9	327.38
485.118	335.38
485.336	332.38
485.554	340.38
485.772	342.38
485.99	338.38
486.209	330.38
486.427	352.38
486.645	357.38
486.863	377.38
487.081	352.38
487.299	363.38
487.517	353.38
487.735	358.38
487.953	347.38
488.171	338.38
488.389	346.38
488.607	351.38
488.825	352.38
489.043	355.38
489.261	367.38
489.479	345.38
489.696	344.38
489.914	371.38
490.132	375.38
490.35	386.38
490.568	386.38
490.786	391.38
491.003	380.38
491.221	403.38
491.439	398.38
491.657	405.38
491.874	389.38
492.092	414.38
492.31	400.38
492.527	420.38
492.745	402.38
492.963	410.38
493.18	400.38
493.398	391.38
493.615	402.38
493.833	411.38
494.05	423.38
494.268	435.38
494.485	422.38
494.703	418.38
494.92	401.38
495.138	418.38
495.355	435.38
495.573	430.38
495.79	427.38
496.008	430.38
496.225	416.38
496.442	399.38
496.66	434.38
496.877	442.38
497.094	413.38
497.312	414.38
497.529	428.38
497.746	449.38
497.963	455.38
498.181	465.38
498.398	423.38
498.615	458.38
498.832	458.38
499.049	462.38
499.267	472.38
499.484	488.38
499.701	478.38
499.918	471.38
500.135	520.38
500.352	541.38
500.569	519.38
500.786	511.38
501.003	541.38
501.22	505.38
501.437	498.38
501.654	491.38
501.871	504.38
502.088	487.38
502.305	463.38
502.522	466.38
502.739	418.38
502.956	431.38
503.172	457.38
503.389	427.38
503.606	431.38
503.823	449.38
504.04	427.38
504.256	423.38
504.473	414.38
504.69	449.38
504.907	435.38
505.123	400.38
505.34	406.38
505.557	417.38
505.773	424.38
505.99	387.38
506.207	415.38
506.423	402.38
506.64	406.38
506.856	398.38
507.073	396.38
507.289	394.38
507.506	395.38
507.722	395.38
507.939	423.38
508.155	423.38
508.372	395.38
508.588	377.38
508.805	388.38
509.021	403.38
509.238	411.38
509.454	413.38
509.67	409.38
509.887	385.38
510.103	385.38
510.319	407.38
510.536	488.38
510.752	750.38
510.968	598.38
511.184	407.38
511.401	403.38
511.617	368.38
511.833	371.38
512.049	373.38
512.265	371.38
512.481	375.38
512.698	359.38
512.914	379.38
513.13	379.38
513.346	340.38
513.562	377.38
513.778	380.38
513.994	392.38
514.21	390.38
514.426	423.38
514.642	441.38
514.858	440.38
515.074	450.38
515.29	569.38
515.506	839.38
515.721	640.38
515.937	457.38
516.153	420.38
516.369	401.38
516.585	386.38
516.801	370.38
517.016	373.38
517.232	390.38
517.448	371.38
517.664	375.38
517.879	376.38
518.095	379.38
518.311	367.38
518.527	373.38
518.742	366.38
518.958	379.38
519.173	384.38
519.389	360.38
519.605	362.38
519.82	357.38
520.036	365.38
520.251	387.38
520.467	415.38
520.682	423.38
520.898	419.38
521.113	423.38
521.329	475.38
521.544	518.38
521.76	682.38
521.975	1073.38
522.19	991.38
522.406	583.38
522.621	429.38
522.836	403.38
523.052	364.38
523.267	356.38
523.482	352.38
523.698	336.38
523.913	350.38
524.128	349.38
524.343	353.38
524.559	322.38
524.774	321.38
524.989	312.38
525.204	347.38
525.419	338.38
525.634	329.38
525.849	303.38
526.064	298.38
526.28	312.38
526.495	320.38
526.71	312.38
526.925	307.38
527.14	297.38
527.355	318.38
527.57	306.38
527.785	304.38
527.999	308.38
528.214	308.38
528.429	312.38
528.644	286.38
528.859	300.38
529.074	303.38
529.289	323.38
529.503	355.38
529.718	361.38
529.933	323.38
530.148	313.38
530.363	293.38
530.577	307.38
530.792	303.38
531.007	303.38
531.221	299.38
531.436	300.38
531.651	285.38
531.865	299.38
532.08	290.38
532.295	280.38
532.509	285.38
532.724	288.38
532.938	271.38
533.153	287.38
533.367	288.38
533.582	304.38
533.796	290.38
534.011	279.38
534.225	284.38
534.44	268.38
534.654	274.38
534.868	278.38
535.083	288.38
535.297	275.38
535.511	277.38
535.726	281.38
535.94	309.38
536.154	276.38
536.369	283.38
536.583	285.38
536.797	291.38
537.011	289.38
537.225	282.38
537.44	275.38
537.654	262.38
537.868	276.38
538.082	307.38
538.296	292.38
538.51	282.38
538.724	271.38
538.938	273.38
539.153	283.38
539.367	287.38
539.581	284.38
539.795	301.38
540.009	276.38
540.222	292.38
540.436	268.38
540.65	292.38
540.864	277.38
541.078	274.38
541.292	293.38
541.506	302.38
541.72	292.38
541.934	297.38
542.147	288.38
542.361	287.38
542.575	293.38
542.789	291.38
543.002	274.38
543.216	284.38
543.43	284.38
543.644	299.38
543.857	295.38
544.071	289.38
544.285	279.38
544.498	294.38
544.712	298.38
544.925	274.38
545.139	289.38
545.352	280.38
545.566	282.38
545.779	272.38
545.993	279.38
546.206	293.38
546.42	287.38
546.633	272.38
546.847	246.38
547.06	282.38
547.274	267.38
547.487	254.38
547.7	257.38
547.914	264.38
548.127	260.38
548.34	278.38
548.554	258.38
548.767	276.38
548.98	252.38
549.193	260.38
549.407	244.38
549.62	264.38
549.833	260.38
550.046	271.38
550.259	257.38
550.473	271.38
550.686	268.38
550.899	258.38
551.112	256.38
551.325	273.38
551.538	256.38
551.751	266.38
551.964	260.38
552.177	252.38
552.39	269.38
552.603	257.38
552.816	272.38
553.029	251.38
553.242	273.38
553.455	271.38
553.667	286.38
553.88	260.38
554.093	259.38
554.306	273.38
554.519	260.38
554.732	268.38
554.944	263.38
555.157	255.38
555.37	238.38
555.583	259.38
555.795	255.38
556.008	266.38
556.221	254.38
556.433	236.38
556.646	234.38
556.859	238.38
557.071	234.38
557.284	241.38
557.496	252.38
557.709	229.38
557.921	231.38
558.134	230.38
558.346	249.38
558.559	261.38
558.771	241.38
558.984	242.38
559.196	247.38
559.409	229.38
559.621	226.38
559.833	243.38
560.046	238.38
560.258	231.38
560.47	226.38
560.683	238.38
560.895	258.38
561.107	232.38
561.32	229.38
561.532	243.38
561.744	227.38
561.956	225.38
562.168	242.38
562.381	247.38
562.593	243.38
562.805	256.38
563.017	260.38
563.229	246.38
563.441	250.38
563.653	230.38
563.865	250.38
564.077	250.38
564.289	242.38
564.501	239.38
564.713	260.38
564.925	247.38
565.137	241.38
565.349	249.38
565.561	265.38
565.773	257.38
565.985	252.38
566.197	259.38
566.408	258.38
566.62	258.38
566.832	271.38
567.044	279.38
567.255	263.38
567.467	271.38
567.679	280.38
567.891	274.38
568.102	279.38
568.314	277.38
568.526	268.38
568.737	265.38
568.949	246.38
569.161	252.38
569.372	239.38
569.584	247.38
569.795	251.38
570.007	247.38
570.218	269.38
570.43	259.38
570.641	231.38
570.853	226.38
571.064	235.38
571.276	248.38
571.487	227.38
571.698	240.38
571.91	240.38
572.121	235.38
572.333	196.38
572.544	227.38
572.755	236.38
572.966	218.38
573.178	227.38
573.389	214.38
573.6	202.38
573.811	223.38
574.023	217.38
574.234	209.38
574.445	231.38
574.656	217.38
574.867	215.38
575.078	199.38
575.289	214.38
575.501	210.38
575.712	215.38
575.923	216.38
576.134	210.38
576.345	219.38
576.556	224.38
576.767	210.38
576.978	225.38
577.188	220.38
577.399	202.38
577.61	216.38
577.821	217.38
578.032	226.38
578.243	212.38
578.454	378.38
578.665	288.38
578.875	214.38
579.086	208.38
579.297	213.38
579.508	200.38
579.718	216.38
579.929	203.38
580.14	203.38
580.35	191.38
580.561	209.38
580.772	196.38
580.982	198.38
581.193	197.38
581.403	188.38
581.614	192.38
581.825	209.38
582.035	201.38
582.246	196.38
582.456	184.38
582.667	192.38
582.877	200.38
583.087	187.38
583.298	195.38
583.508	209.38
583.719	198.38
583.929	198.38
584.139	189.38
584.35	192.38
584.56	195.38
584.77	201.38
584.981	190.38
585.191	184.38
585.401	186.38
585.611	197.38
585.821	193.38
586.032	184.38
586.242	195.38
586.452	200.38
586.662	193.38
586.872	187.38
587.082	184.38
587.292	183.38
587.502	175.38
587.713	193.38
587.923	194.38
588.133	197.38
588.343	192.38
588.553	181.38
588.762	182.38
588.972	190.38
589.182	184.38
589.392	191.38
589.602	191.38
589.812	195.38
590.022	191.38
590.232	186.38
590.441	202.38
590.651	183.38
590.861	182.38
591.071	172.38
591.281	184.38
591.49	190.38
591.7	190.38
591.91	199.38
592.119	186.38
592.329	195.38
592.539	195.38
592.748	191.38
592.958	199.38
593.167	187.38
593.377	188.38
593.587	190.38
593.796	192.38
594.006	205.38
594.215	207.38
594.424	199.38
594.634	178.38
594.843	194.38
595.053	206.38
595.262	178.38
595.472	190.38
595.681	184.38
595.89	190.38
596.1	198.38
596.309	187.38
596.518	186.38
596.727	195.38
596.937	196.38
597.146	194.38
597.355	177.38
597.564	163.38
597.774	174.38
597.983	182.38
598.192	174.38
598.401	173.38
598.61	168.38
598.819	167.38
599.028	182.38
599.237	170.38
599.446	180.38
599.655	175.38
599.864	179.38
600.073	158.38
600.282	166.38
600.491	177.38
600.7	172.38
600.909	171.38
601.118	154.38
601.327	169.38
601.536	171.38
601.745	169.38
601.953	169.38
602.162	150.38
602.371	180.38
602.58	166.38
602.789	182.38
602.997	171.38
603.206	178.38
603.415	179.38
603.623	165.38
603.832	169.38
604.041	166.38
604.249	166.38
604.458	175.38
604.666	155.38
604.875	152.38
605.084	155.38
605.292	165.38
605.501	179.38
605.709	175.38
605.918	166.38
606.126	171.38
606.334	152.38
606.543	155.38
606.751	172.38
606.96	172.38
607.168	156.38
607.376	156.38
607.585	158.38
607.793	164.38
608.001	167.38
608.21	161.38
608.418	164.38
608.626	153.38
608.834	180.38
609.043	170.38
609.251	162.38
609.459	158.38
609.667	169.38
609.875	161.38
610.083	169.38
610.291	180.38
610.499	174.38
610.707	162.38
610.916	165.38
611.124	176.38
611.332	164.38
611.54	171.38
611.748	190.38
611.955	173.38
612.163	171.38
612.371	160.38
612.579	169.38
612.787	163.38
612.995	177.38
613.203	162.38
613.411	171.38
613.618	160.38
613.826	161.38
614.034	166.38
614.242	167.38
614.449	152.38
614.657	156.38
614.865	183.38
615.072	172.38
615.28	176.38
615.488	157.38
615.695	171.38
615.903	155.38
616.111	150.38
616.318	166.38
616.526	148.38
616.733	170.38
616.941	162.38
617.148	160.38
617.356	160.38
617.563	150.38
617.771	154.38
617.978	143.38
618.185	149.38
618.393	148.38
618.6	171.38
618.807	173.38
619.015	154.38
619.222	169.38
619.429	155.38
619.637	170.38
619.844	162.38
620.051	146.38
620.258	151.38
620.466	144.38
620.673	146.38
620.88	149.38
621.087	163.38
621.294	135.38
621.501	143.38
621.708	161.38
621.915	170.38
622.122	158.38
622.329	162.38
622.536	155.38
622.743	138.38
622.95	149.38
623.157	150.38
623.364	161.38
623.571	169.38
623.778	153.38
623.985	163.38
624.192	149.38
624.399	139.38
624.606	135.38
624.812	140.38
625.019	144.38
625.226	156.38
625.433	152.38
625.639	152.38
625.846	147.38
626.053	148.38
626.259	138.38
626.466	143.38
626.673	152.38
626.879	147.38
627.086	151.38
627.293	141.38
627.499	148.38
627.706	140.38
627.912	134.38
628.119	147.38
628.325	147.38
628.532	139.38
628.738	144.38
628.945	153.38
629.151	135.38
629.357	133.38
629.564	148.38
629.77	146.38
629.976	139.38
630.183	126.38
630.389	118.38
630.595	136.38
630.802	144.38
631.008	138.38
631.214	136.38
631.42	150.38
631.627	140.38
631.833	144.38
632.039	131.38
632.245	132.38
632.451	130.38
632.657	134.38
632.863	144.38
633.069	135.38
633.275	141.38
633.481	119.38
633.688	150.38
633.893	133.38
634.099	150.38
634.305	140.38
634.511	131.38
634.717	141.38
634.923	126.38
635.129	148.38
635.335	151.38
635.541	128.38
635.747	132.38
635.952	129.38
636.158	126.38
636.364	137.38
636.57	135.38
636.775	154.38
636.981	133.38
637.187	142.38
637.392	138.38
637.598	132.38
637.804	132.38
638.009	133.38
638.215	133.38
638.421	122.38
638.626	107.38
638.832	134.38
639.037	130.38
639.243	139.38
639.448	121.38
639.654	139.38
639.859	138.38
640.065	131.38
640.27	130.38
640.475	122.38
640.681	132.38
640.886	134.38
641.091	152.38
641.297	131.38
641.502	146.38
641.707	134.38
641.913	142.38
642.118	135.38
642.323	119.38
642.528	131.38
642.733	144.38
642.939	140.38
643.144	122.38
643.349	125.38
643.554	130.38
643.759	135.38
643.964	123.38
644.169	125.38
644.374	128.38
644.579	128.38
644.784	122.38
644.989	130.38
645.194	132.38
645.399	122.38
645.604	133.38
645.809	124.38
646.014	116.38
646.219	123.38
646.423	147.38
646.628	133.38
646.833	128.38
647.038	126.38
647.243	127.38
647.447	132.38
647.652	123.38
647.857	113.38
648.062	136.38
648.266	120.38
648.471	118.38
648.676	128.38
648.88	136.38
649.085	118.38
649.289	122.38
649.494	126.38
649.698	140.38
649.903	127.38
650.107	139.38
650.312	138.38
650.516	120.38
650.721	122.38
650.925	127.38
651.13	131.38
651.334	134.38
651.539	111.38
651.743	111.38
651.947	120.38
652.152	112.38
652.356	118.38
652.56	126.38
652.764	111.38
652.969	114.38
653.173	106.38
653.377	121.38
653.581	118.38
653.785	112.38
653.99	113.38
654.194	107.38
654.398	126.38
654.602	98.38
654.806	120.38
655.01	126.38
655.214	119.38
655.418	110.38
655.622	105.38
655.826	118.38
656.03	97.38
656.234	97.38
656.438	110.38
656.642	114.38
656.846	103.38
657.049	111.38
657.253	121.38
657.457	113.38
657.661	118.38
657.865	104.38
658.068	101.38
658.272	96.38
658.476	90.38
658.68	95.38
658.883	96.38
659.087	86.38
659.291	90.38
659.494	109.38
659.698	93.38
659.901	90.38
660.105	86.38
660.309	95.38
660.512	90.38
660.716	89.38
660.919	89.38
661.123	87.38
661.326	82.38
661.53	86.38
661.733	93.38
661.936	84.38
662.14	91.38
662.343	79.38
662.546	85.38
662.75	73.38
662.953	74.38
663.156	84.38
663.36	75.38
663.563	74.38
663.766	79.38
663.969	78.38
664.173	93.38
664.376	82.38
664.579	74.38
664.782	77.38
664.985	82.38
665.188	87.38
665.391	82.38
665.594	75.38
665.797	85.38
666	88.38
666.203	72.38
666.406	87.38
666.609	83.38
666.812	88.38
667.015	81.38
667.218	77.38
667.421	87.38
667.624	86.38
667.827	76.38
668.03	94.38
668.232	80.38
668.435	86.38
668.638	75.38
668.841	80.38
669.043	67.38
669.246	77.38
669.449	80.38
669.651	95.38
669.854	90.38
670.057	83.38
670.259	82.38
670.462	63.38
670.665	94.38
670.867	67.38
671.07	83.38
671.272	78.38
671.475	97.38
671.677	92.38
671.88	69.38
672.082	86.38
672.284	91.38
672.487	71.38
672.689	75.38
672.892	76.38
