Data from 1982.PennyLincolnUp.Lamp.En5.5.200Scan.071819.P1_HRD10591_16-47-01-962.txt Node
Date: Thu Jul 18 16:47:01 EDT 2019
User: cochatt
Spectrometer: HR+D1059
Trigger mode: 1
Integration Time (sec): 1.000000E-1
Scans to average: 1
Electric dark correction enabled: true
Nonlinearity correction enabled: false
Boxcar width: 0
XAxis mode: Wavelengths
Number of Pixels in Spectrum: 2048
>>>>>Begin Spectral Data<<<<<
223.165	-20.31
223.4	-20.31
223.635	-20.31
223.869	-20.31
224.104	-12.31
224.338	-15.31
224.573	-11.31
224.808	-11.31
225.042	-9.31
225.277	-10.31
225.511	-4.31
225.746	-8.31
225.98	13.69
226.215	22.69
226.449	17.69
226.683	8.69
226.918	16.69
227.152	43.69
227.387	36.69
227.621	42.69
227.856	56.69
228.09	43.69
228.324	56.69
228.559	52.69
228.793	73.69
229.027	78.69
229.262	100.69
229.496	103.69
229.73	122.69
229.964	134.69
230.199	115.69
230.433	104.69
230.667	108.69
230.901	117.69
231.136	100.69
231.37	106.69
231.604	119.69
231.838	102.69
232.072	100.69
232.306	115.69
232.541	103.69
232.775	102.69
233.009	111.69
233.243	107.69
233.477	96.69
233.711	90.69
233.945	94.69
234.179	108.69
234.413	119.69
234.647	109.69
234.881	92.69
235.115	105.69
235.349	107.69
235.583	123.69
235.817	110.69
236.051	116.69
236.285	118.69
236.519	118.69
236.753	112.69
236.987	120.69
237.221	149.69
237.455	177.69
237.689	150.69
237.922	139.69
238.156	113.69
238.39	102.69
238.624	111.69
238.858	117.69
239.091	122.69
239.325	112.69
239.559	103.69
239.793	110.69
240.027	132.69
240.26	118.69
240.494	137.69
240.728	128.69
240.961	131.69
241.195	128.69
241.429	126.69
241.662	111.69
241.896	109.69
242.13	109.69
242.363	104.69
242.597	118.69
242.83	111.69
243.064	120.69
243.298	120.69
243.531	116.69
243.765	115.69
243.998	107.69
244.232	112.69
244.465	131.69
244.699	130.69
244.932	126.69
245.166	113.69
245.399	121.69
245.633	135.69
245.866	116.69
246.099	113.69
246.333	129.69
246.566	124.69
246.8	130.69
247.033	119.69
247.266	123.69
247.5	137.69
247.733	134.69
247.966	152.69
248.2	136.69
248.433	147.69
248.666	147.69
248.899	144.69
249.133	155.69
249.366	154.69
249.599	151.69
249.832	140.69
250.066	160.69
250.299	158.69
250.532	170.69
250.765	147.69
250.998	185.69
251.231	171.69
251.465	167.69
251.698	174.69
251.931	160.69
252.164	168.69
252.397	168.69
252.63	140.69
252.863	167.69
253.096	178.69
253.329	157.69
253.562	164.69
253.795	164.69
254.028	174.69
254.261	183.69
254.494	171.69
254.727	193.69
254.96	226.69
255.193	208.69
255.426	211.69
255.659	203.69
255.892	195.69
256.124	179.69
256.357	172.69
256.59	174.69
256.823	185.69
257.056	185.69
257.289	172.69
257.521	175.69
257.754	180.69
257.987	173.69
258.22	164.69
258.452	163.69
258.685	157.69
258.918	180.69
259.151	186.69
259.383	190.69
259.616	171.69
259.849	175.69
260.081	196.69
260.314	196.69
260.547	199.69
260.779	195.69
261.012	199.69
261.244	167.69
261.477	202.69
261.71	176.69
261.942	169.69
262.175	182.69
262.407	199.69
262.64	163.69
262.872	166.69
263.105	167.69
263.337	170.69
263.57	180.69
263.802	165.69
264.035	174.69
264.267	173.69
264.499	172.69
264.732	176.69
264.964	170.69
265.197	179.69
265.429	184.69
265.661	178.69
265.894	164.69
266.126	154.69
266.358	181.69
266.591	182.69
266.823	182.69
267.055	172.69
267.287	173.69
267.52	184.69
267.752	170.69
267.984	182.69
268.216	188.69
268.448	185.69
268.681	191.69
268.913	202.69
269.145	203.69
269.377	195.69
269.609	219.69
269.841	224.69
270.073	223.69
270.306	239.69
270.538	242.69
270.77	266.69
271.002	239.69
271.234	250.69
271.466	246.69
271.698	263.69
271.93	254.69
272.162	256.69
272.394	255.69
272.626	240.69
272.858	229.69
273.09	220.69
273.322	204.69
273.553	222.69
273.785	219.69
274.017	210.69
274.249	220.69
274.481	202.69
274.713	208.69
274.945	217.69
275.176	215.69
275.408	207.69
275.64	205.69
275.872	198.69
276.104	213.69
276.335	211.69
276.567	219.69
276.799	226.69
277.031	235.69
277.262	242.69
277.494	255.69
277.726	241.69
277.957	224.69
278.189	234.69
278.421	205.69
278.652	209.69
278.884	212.69
279.115	230.69
279.347	206.69
279.579	196.69
279.81	203.69
280.042	201.69
280.273	208.69
280.505	214.69
280.736	206.69
280.968	201.69
281.199	206.69
281.431	195.69
281.662	227.69
281.894	204.69
282.125	213.69
282.356	240.69
282.588	238.69
282.819	244.69
283.051	207.69
283.282	215.69
283.513	198.69
283.745	205.69
283.976	208.69
284.207	219.69
284.439	214.69
284.67	191.69
284.901	215.69
285.132	208.69
285.364	200.69
285.595	238.69
285.826	217.69
286.057	218.69
286.288	199.69
286.52	210.69
286.751	217.69
286.982	211.69
287.213	223.69
287.444	215.69
287.675	210.69
287.906	242.69
288.138	228.69
288.369	246.69
288.6	226.69
288.831	220.69
289.062	226.69
289.293	212.69
289.524	221.69
289.755	214.69
289.986	229.69
290.217	212.69
290.448	207.69
290.679	222.69
290.91	208.69
291.141	211.69
291.371	237.69
291.602	227.69
291.833	218.69
292.064	222.69
292.295	219.69
292.526	207.69
292.757	221.69
292.987	214.69
293.218	206.69
293.449	224.69
293.68	224.69
293.91	230.69
294.141	246.69
294.372	218.69
294.603	228.69
294.833	227.69
295.064	228.69
295.295	216.69
295.525	228.69
295.756	229.69
295.987	233.69
296.217	256.69
296.448	254.69
296.679	234.69
296.909	232.69
297.14	221.69
297.37	227.69
297.601	226.69
297.831	226.69
298.062	221.69
298.292	221.69
298.523	213.69
298.753	245.69
298.984	223.69
299.214	248.69
299.445	238.69
299.675	242.69
299.905	239.69
300.136	232.69
300.366	216.69
300.597	236.69
300.827	238.69
301.057	239.69
301.288	250.69
301.518	254.69
301.748	255.69
301.979	237.69
302.209	237.69
302.439	245.69
302.669	250.69
302.9	230.69
303.13	228.69
303.36	250.69
303.59	252.69
303.82	254.69
304.051	260.69
304.281	252.69
304.511	256.69
304.741	243.69
304.971	250.69
305.201	244.69
305.431	242.69
305.661	254.69
305.891	228.69
306.121	248.69
306.352	242.69
306.582	259.69
306.812	247.69
307.042	245.69
307.272	254.69
307.502	264.69
307.731	271.69
307.961	248.69
308.191	253.69
308.421	245.69
308.651	245.69
308.881	259.69
309.111	251.69
309.341	262.69
309.571	260.69
309.8	265.69
310.03	286.69
310.26	291.69
310.49	274.69
310.72	296.69
310.949	301.69
311.179	303.69
311.409	298.69
311.639	293.69
311.868	291.69
312.098	283.69
312.328	300.69
312.557	302.69
312.787	317.69
313.017	298.69
313.246	296.69
313.476	286.69
313.706	300.69
313.935	298.69
314.165	306.69
314.394	306.69
314.624	293.69
314.853	306.69
315.083	285.69
315.312	282.69
315.542	292.69
315.771	260.69
316.001	283.69
316.23	264.69
316.46	272.69
316.689	279.69
316.919	306.69
317.148	291.69
317.377	302.69
317.607	296.69
317.836	294.69
318.065	295.69
318.295	277.69
318.524	285.69
318.753	283.69
318.983	287.69
319.212	287.69
319.441	286.69
319.67	292.69
319.9	294.69
320.129	293.69
320.358	308.69
320.587	295.69
320.816	300.69
321.046	308.69
321.275	310.69
321.504	332.69
321.733	308.69
321.962	299.69
322.191	324.69
322.42	347.69
322.649	332.69
322.878	351.69
323.108	376.69
323.337	380.69
323.566	405.69
323.795	438.69
324.024	483.69
324.253	619.69
324.482	910.69
324.71	1317.69
324.939	1768.69
325.168	1408.69
325.397	764.69
325.626	525.69
325.855	433.69
326.084	390.69
326.313	403.69
326.542	404.69
326.77	446.69
326.999	570.69
327.228	803.69
327.457	1148.69
327.686	1302.69
327.914	862.69
328.143	572.69
328.372	490.69
328.6	480.69
328.829	445.69
329.058	444.69
329.287	465.69
329.515	438.69
329.744	408.69
329.972	404.69
330.201	417.69
330.43	434.69
330.658	453.69
330.887	482.69
331.115	455.69
331.344	386.69
331.572	383.69
331.801	368.69
332.03	347.69
332.258	350.69
332.486	341.69
332.715	340.69
332.943	345.69
333.172	333.69
333.4	324.69
333.629	333.69
333.857	335.69
334.085	358.69
334.314	379.69
334.542	377.69
334.771	398.69
334.999	379.69
335.227	343.69
335.455	346.69
335.684	328.69
335.912	329.69
336.14	326.69
336.369	343.69
336.597	329.69
336.825	323.69
337.053	335.69
337.281	309.69
337.51	313.69
337.738	318.69
337.966	309.69
338.194	341.69
338.422	338.69
338.65	314.69
338.878	315.69
339.106	323.69
339.334	302.69
339.562	320.69
339.79	302.69
340.018	310.69
340.246	326.69
340.474	300.69
340.702	301.69
340.93	316.69
341.158	308.69
341.386	321.69
341.614	324.69
341.842	298.69
342.07	292.69
342.298	303.69
342.526	304.69
342.754	290.69
342.981	307.69
343.209	289.69
343.437	291.69
343.665	287.69
343.893	303.69
344.12	323.69
344.348	299.69
344.576	321.69
344.804	323.69
345.031	324.69
345.259	335.69
345.487	324.69
345.714	294.69
345.942	303.69
346.17	317.69
346.397	310.69
346.625	296.69
346.853	298.69
347.08	297.69
347.308	305.69
347.535	316.69
347.763	292.69
347.99	310.69
348.218	302.69
348.445	322.69
348.673	325.69
348.9	316.69
349.128	296.69
349.355	289.69
349.583	290.69
349.81	284.69
350.037	281.69
350.265	286.69
350.492	270.69
350.72	281.69
350.947	295.69
351.174	303.69
351.402	291.69
351.629	317.69
351.856	295.69
352.083	312.69
352.311	316.69
352.538	302.69
352.765	318.69
352.992	311.69
353.22	300.69
353.447	300.69
353.674	288.69
353.901	271.69
354.128	284.69
354.355	290.69
354.583	277.69
354.81	279.69
355.037	277.69
355.264	284.69
355.491	274.69
355.718	268.69
355.945	286.69
356.172	282.69
356.399	272.69
356.626	262.69
356.853	287.69
357.08	274.69
357.307	275.69
357.534	259.69
357.761	269.69
357.988	287.69
358.215	265.69
358.441	272.69
358.668	267.69
358.895	274.69
359.122	283.69
359.349	286.69
359.576	292.69
359.802	310.69
360.029	316.69
360.256	336.69
360.483	331.69
360.709	303.69
360.936	292.69
361.163	293.69
361.39	303.69
361.616	287.69
361.843	288.69
362.07	298.69
362.296	303.69
362.523	313.69
362.749	306.69
362.976	292.69
363.203	272.69
363.429	283.69
363.656	295.69
363.882	283.69
364.109	282.69
364.335	261.69
364.562	280.69
364.788	277.69
365.015	282.69
365.241	265.69
365.468	262.69
365.694	287.69
365.92	301.69
366.147	278.69
366.373	273.69
366.599	259.69
366.826	271.69
367.052	277.69
367.278	269.69
367.505	273.69
367.731	284.69
367.957	285.69
368.184	273.69
368.41	278.69
368.636	290.69
368.862	300.69
369.089	269.69
369.315	273.69
369.541	249.69
369.767	278.69
369.993	263.69
370.219	266.69
370.445	274.69
370.672	252.69
370.898	255.69
371.124	262.69
371.35	263.69
371.576	259.69
371.802	264.69
372.028	291.69
372.254	262.69
372.48	266.69
372.706	238.69
372.932	265.69
373.158	265.69
373.384	291.69
373.61	266.69
373.835	274.69
374.061	278.69
374.287	273.69
374.513	264.69
374.739	276.69
374.965	274.69
375.191	278.69
375.416	272.69
375.642	258.69
375.868	270.69
376.094	260.69
376.319	273.69
376.545	268.69
376.771	261.69
376.997	270.69
377.222	248.69
377.448	247.69
377.674	255.69
377.899	261.69
378.125	250.69
378.35	251.69
378.576	264.69
378.802	249.69
379.027	270.69
379.253	268.69
379.478	278.69
379.704	246.69
379.929	238.69
380.155	277.69
380.38	256.69
380.606	281.69
380.831	271.69
381.057	273.69
381.282	266.69
381.507	251.69
381.733	263.69
381.958	261.69
382.184	254.69
382.409	274.69
382.634	277.69
382.86	262.69
383.085	263.69
383.31	265.69
383.535	266.69
383.761	269.69
383.986	267.69
384.211	271.69
384.436	275.69
384.662	269.69
384.887	252.69
385.112	280.69
385.337	271.69
385.562	264.69
385.787	271.69
386.013	270.69
386.238	290.69
386.463	280.69
386.688	272.69
386.913	288.69
387.138	283.69
387.363	266.69
387.588	269.69
387.813	292.69
388.038	273.69
388.263	262.69
388.488	267.69
388.713	284.69
388.938	261.69
389.163	277.69
389.387	302.69
389.612	268.69
389.837	261.69
390.062	272.69
390.287	273.69
390.512	286.69
390.736	279.69
390.961	287.69
391.186	278.69
391.411	289.69
391.636	281.69
391.86	284.69
392.085	271.69
392.31	278.69
392.534	281.69
392.759	294.69
392.984	281.69
393.208	263.69
393.433	271.69
393.658	272.69
393.882	262.69
394.107	258.69
394.331	267.69
394.556	279.69
394.78	272.69
395.005	281.69
395.229	278.69
395.454	255.69
395.678	263.69
395.903	272.69
396.127	309.69
396.352	312.69
396.576	289.69
396.801	289.69
397.025	279.69
397.249	315.69
397.474	299.69
397.698	283.69
397.922	323.69
398.147	304.69
398.371	304.69
398.595	311.69
398.82	300.69
399.044	300.69
399.268	321.69
399.492	328.69
399.717	348.69
399.941	357.69
400.165	342.69
400.389	359.69
400.613	329.69
400.837	320.69
401.062	319.69
401.286	298.69
401.51	288.69
401.734	292.69
401.958	289.69
402.182	296.69
402.406	308.69
402.63	302.69
402.854	314.69
403.078	311.69
403.302	302.69
403.526	308.69
403.75	292.69
403.974	302.69
404.198	309.69
404.422	312.69
404.645	305.69
404.869	330.69
405.093	342.69
405.317	351.69
405.541	371.69
405.765	345.69
405.988	322.69
406.212	338.69
406.436	342.69
406.66	360.69
406.883	351.69
407.107	372.69
407.331	372.69
407.555	422.69
407.778	420.69
408.002	380.69
408.226	352.69
408.449	338.69
408.673	354.69
408.896	352.69
409.12	360.69
409.344	351.69
409.567	325.69
409.791	319.69
410.014	308.69
410.238	315.69
410.461	284.69
410.685	318.69
410.908	309.69
411.132	350.69
411.355	350.69
411.578	357.69
411.802	326.69
412.025	320.69
412.249	322.69
412.472	347.69
412.695	362.69
412.919	363.69
413.142	313.69
413.365	323.69
413.589	312.69
413.812	290.69
414.035	304.69
414.258	289.69
414.482	291.69
414.705	298.69
414.928	282.69
415.151	293.69
415.374	286.69
415.597	285.69
415.821	293.69
416.044	291.69
416.267	290.69
416.49	303.69
416.713	290.69
416.936	276.69
417.159	302.69
417.382	286.69
417.605	301.69
417.828	309.69
418.051	302.69
418.274	319.69
418.497	293.69
418.72	295.69
418.943	293.69
419.166	311.69
419.389	317.69
419.611	309.69
419.834	327.69
420.057	326.69
420.28	321.69
420.503	318.69
420.726	289.69
420.948	317.69
421.171	360.69
421.394	364.69
421.617	322.69
421.839	306.69
422.062	311.69
422.285	341.69
422.507	341.69
422.73	402.69
422.953	400.69
423.175	347.69
423.398	318.69
423.621	333.69
423.843	328.69
424.066	347.69
424.288	322.69
424.511	350.69
424.733	390.69
424.956	412.69
425.178	404.69
425.401	414.69
425.623	421.69
425.846	361.69
426.068	342.69
426.291	331.69
426.513	343.69
426.735	360.69
426.958	389.69
427.18	428.69
427.402	515.69
427.625	554.69
427.847	475.69
428.069	422.69
428.292	379.69
428.514	350.69
428.736	319.69
428.958	333.69
429.181	318.69
429.403	333.69
429.625	328.69
429.847	338.69
430.069	384.69
430.292	372.69
430.514	327.69
430.736	315.69
430.958	314.69
431.18	304.69
431.402	313.69
431.624	296.69
431.846	282.69
432.068	289.69
432.29	296.69
432.512	312.69
432.734	309.69
432.956	296.69
433.178	306.69
433.4	304.69
433.622	276.69
433.844	294.69
434.066	284.69
434.287	285.69
434.509	288.69
434.731	290.69
434.953	308.69
435.175	297.69
435.397	318.69
435.618	352.69
435.84	376.69
436.062	414.69
436.284	459.69
436.505	376.69
436.727	355.69
436.949	346.69
437.17	324.69
437.392	331.69
437.614	335.69
437.835	350.69
438.057	429.69
438.278	463.69
438.5	465.69
438.721	500.69
438.943	475.69
439.165	386.69
439.386	347.69
439.608	344.69
439.829	356.69
440.05	376.69
440.272	414.69
440.493	376.69
440.715	345.69
440.936	316.69
441.158	335.69
441.379	323.69
441.6	327.69
441.822	353.69
442.043	365.69
442.264	417.69
442.486	434.69
442.707	384.69
442.928	349.69
443.149	343.69
443.371	383.69
443.592	397.69
443.813	461.69
444.034	475.69
444.255	405.69
444.476	346.69
444.698	345.69
444.919	336.69
445.14	445.69
445.361	388.69
445.582	374.69
445.803	411.69
446.024	480.69
446.245	496.69
446.466	454.69
446.687	381.69
446.908	352.69
447.129	336.69
447.35	320.69
447.571	310.69
447.792	319.69
448.013	312.69
448.234	335.69
448.455	379.69
448.675	434.69
448.896	486.69
449.117	443.69
449.338	416.69
449.559	478.69
449.779	499.69
450	404.69
450.221	347.69
450.442	333.69
450.662	315.69
450.883	326.69
451.104	346.69
451.324	316.69
451.545	308.69
451.766	306.69
451.986	285.69
452.207	279.69
452.428	295.69
452.648	279.69
452.869	273.69
453.089	321.69
453.31	306.69
453.53	296.69
453.751	306.69
453.971	295.69
454.192	310.69
454.412	292.69
454.633	266.69
454.853	282.69
455.073	299.69
455.294	327.69
455.514	378.69
455.734	338.69
455.955	292.69
456.175	279.69
456.395	271.69
456.616	274.69
456.836	275.69
457.056	266.69
457.276	271.69
457.497	260.69
457.717	272.69
457.937	267.69
458.157	277.69
458.377	282.69
458.598	312.69
458.818	321.69
459.038	365.69
459.258	379.69
459.478	338.69
459.698	314.69
459.918	302.69
460.138	303.69
460.358	278.69
460.578	290.69
460.798	280.69
461.018	288.69
461.238	290.69
461.458	299.69
461.678	280.69
461.898	297.69
462.118	290.69
462.338	287.69
462.558	298.69
462.777	285.69
462.997	284.69
463.217	310.69
463.437	312.69
463.657	298.69
463.876	290.69
464.096	310.69
464.316	300.69
464.536	322.69
464.755	312.69
464.975	323.69
465.195	374.69
465.414	398.69
465.634	343.69
465.854	311.69
466.073	310.69
466.293	290.69
466.512	300.69
466.732	295.69
466.951	281.69
467.171	260.69
467.391	298.69
467.61	281.69
467.829	307.69
468.049	306.69
468.268	305.69
468.488	295.69
468.707	270.69
468.927	281.69
469.146	279.69
469.365	273.69
469.585	268.69
469.804	276.69
470.023	302.69
470.243	291.69
470.462	301.69
470.681	320.69
470.901	314.69
471.12	306.69
471.339	303.69
471.558	298.69
471.777	289.69
471.997	283.69
472.216	310.69
472.435	319.69
472.654	311.69
472.873	286.69
473.092	300.69
473.311	293.69
473.53	285.69
473.749	275.69
473.968	320.69
474.187	402.69
474.406	414.69
474.625	340.69
474.844	294.69
475.063	306.69
475.282	291.69
475.501	300.69
475.72	301.69
475.939	313.69
476.158	295.69
476.377	294.69
476.596	297.69
476.814	318.69
477.033	299.69
477.252	297.69
477.471	316.69
477.69	309.69
477.908	303.69
478.127	306.69
478.346	305.69
478.564	312.69
478.783	326.69
479.002	321.69
479.22	327.69
479.439	331.69
479.658	341.69
479.876	330.69
480.095	353.69
480.313	360.69
480.532	318.69
480.751	352.69
480.969	359.69
481.188	401.69
481.406	442.69
481.624	376.69
481.843	355.69
482.061	363.69
482.28	344.69
482.498	343.69
482.717	326.69
482.935	332.69
483.153	337.69
483.372	338.69
483.59	356.69
483.808	327.69
484.027	339.69
484.245	338.69
484.463	345.69
484.681	349.69
484.9	338.69
485.118	332.69
485.336	343.69
485.554	354.69
485.772	347.69
485.99	350.69
486.209	365.69
486.427	351.69
486.645	359.69
486.863	391.69
487.081	370.69
487.299	356.69
487.517	357.69
487.735	361.69
487.953	363.69
488.171	382.69
488.389	356.69
488.607	378.69
488.825	387.69
489.043	354.69
489.261	358.69
489.479	380.69
489.696	372.69
489.914	382.69
490.132	376.69
490.35	370.69
490.568	393.69
490.786	380.69
491.003	390.69
491.221	394.69
491.439	395.69
491.657	416.69
491.874	396.69
492.092	423.69
492.31	431.69
492.527	430.69
492.745	415.69
492.963	419.69
493.18	419.69
493.398	419.69
493.615	424.69
493.833	428.69
494.05	430.69
494.268	425.69
494.485	436.69
494.703	415.69
494.92	421.69
495.138	438.69
495.355	438.69
495.573	439.69
495.79	418.69
496.008	434.69
496.225	429.69
496.442	422.69
496.66	435.69
496.877	417.69
497.094	431.69
497.312	434.69
497.529	443.69
497.746	435.69
497.963	449.69
498.181	461.69
498.398	465.69
498.615	453.69
498.832	452.69
499.049	447.69
499.267	456.69
499.484	469.69
499.701	479.69
499.918	480.69
500.135	495.69
500.352	515.69
500.569	520.69
500.786	516.69
501.003	534.69
501.22	532.69
501.437	507.69
501.654	509.69
501.871	535.69
502.088	508.69
502.305	466.69
502.522	451.69
502.739	450.69
502.956	446.69
503.172	456.69
503.389	435.69
503.606	423.69
503.823	452.69
504.04	445.69
504.256	416.69
504.473	428.69
504.69	413.69
504.907	422.69
505.123	427.69
505.34	406.69
505.557	424.69
505.773	415.69
505.99	382.69
506.207	444.69
506.423	407.69
506.64	410.69
506.856	403.69
507.073	378.69
507.289	416.69
507.506	395.69
507.722	408.69
507.939	448.69
508.155	414.69
508.372	396.69
508.588	410.69
508.805	406.69
509.021	391.69
509.238	410.69
509.454	436.69
509.67	396.69
509.887	406.69
510.103	401.69
510.319	419.69
510.536	484.69
510.752	800.69
510.968	641.69
511.184	427.69
511.401	398.69
511.617	393.69
511.833	403.69
512.049	379.69
512.265	394.69
512.481	390.69
512.698	387.69
512.914	394.69
513.13	379.69
513.346	365.69
513.562	390.69
513.778	402.69
513.994	400.69
514.21	416.69
514.426	396.69
514.642	435.69
514.858	446.69
515.074	495.69
515.29	611.69
515.506	871.69
515.721	720.69
515.937	503.69
516.153	413.69
516.369	418.69
516.585	383.69
516.801	394.69
517.016	374.69
517.232	404.69
517.448	395.69
517.664	400.69
517.879	363.69
518.095	371.69
518.311	390.69
518.527	388.69
518.742	371.69
518.958	363.69
519.173	386.69
519.389	359.69
519.605	376.69
519.82	374.69
520.036	386.69
520.251	401.69
520.467	455.69
520.682	437.69
520.898	425.69
521.113	448.69
521.329	490.69
521.544	551.69
521.76	728.69
521.975	1227.69
522.19	1114.69
522.406	632.69
522.621	455.69
522.836	404.69
523.052	394.69
523.267	384.69
523.482	376.69
523.698	358.69
523.913	370.69
524.128	356.69
524.343	335.69
524.559	348.69
524.774	339.69
524.989	355.69
525.204	344.69
525.419	359.69
525.634	328.69
525.849	326.69
526.064	331.69
526.28	333.69
526.495	309.69
526.71	313.69
526.925	311.69
527.14	324.69
527.355	285.69
527.57	333.69
527.785	317.69
527.999	311.69
528.214	312.69
528.429	313.69
528.644	335.69
528.859	298.69
529.074	325.69
529.289	340.69
529.503	390.69
529.718	360.69
529.933	335.69
530.148	316.69
530.363	316.69
530.577	328.69
530.792	306.69
531.007	303.69
531.221	319.69
531.436	303.69
531.651	275.69
531.865	320.69
532.08	300.69
532.295	295.69
532.509	303.69
532.724	288.69
532.938	296.69
533.153	302.69
533.367	285.69
533.582	302.69
533.796	288.69
534.011	283.69
534.225	275.69
534.44	278.69
534.654	290.69
534.868	298.69
535.083	282.69
535.297	286.69
535.511	287.69
535.726	300.69
535.94	301.69
536.154	298.69
536.369	280.69
536.583	292.69
536.797	298.69
537.011	278.69
537.225	280.69
537.44	289.69
537.654	282.69
537.868	292.69
538.082	283.69
538.296	291.69
538.51	275.69
538.724	292.69
538.938	282.69
539.153	270.69
539.367	290.69
539.581	280.69
539.795	282.69
540.009	278.69
540.222	299.69
540.436	294.69
540.65	297.69
540.864	295.69
541.078	285.69
541.292	278.69
541.506	291.69
541.72	296.69
541.934	298.69
542.147	274.69
542.361	272.69
542.575	303.69
542.789	281.69
543.002	279.69
543.216	310.69
543.43	282.69
543.644	287.69
543.857	291.69
544.071	282.69
544.285	301.69
544.498	290.69
544.712	276.69
544.925	272.69
545.139	283.69
545.352	285.69
545.566	275.69
545.779	289.69
545.993	269.69
546.206	281.69
546.42	271.69
546.633	265.69
546.847	261.69
547.06	286.69
547.274	260.69
547.487	261.69
547.7	281.69
547.914	272.69
548.127	272.69
548.34	267.69
548.554	270.69
548.767	267.69
548.98	263.69
549.193	269.69
549.407	283.69
549.62	286.69
549.833	271.69
550.046	263.69
550.259	260.69
550.473	268.69
550.686	267.69
550.899	273.69
551.112	266.69
551.325	258.69
551.538	246.69
551.751	266.69
551.964	267.69
552.177	258.69
552.39	252.69
552.603	250.69
552.816	274.69
553.029	271.69
553.242	237.69
553.455	262.69
553.667	262.69
553.88	279.69
554.093	275.69
554.306	270.69
554.519	287.69
554.732	281.69
554.944	252.69
555.157	255.69
555.37	254.69
555.583	263.69
555.795	274.69
556.008	250.69
556.221	246.69
556.433	264.69
556.646	236.69
556.859	232.69
557.071	239.69
557.284	239.69
557.496	245.69
557.709	238.69
557.921	253.69
558.134	242.69
558.346	252.69
558.559	246.69
558.771	258.69
558.984	251.69
559.196	227.69
559.409	246.69
559.621	237.69
559.833	234.69
560.046	252.69
560.258	235.69
560.47	223.69
560.683	242.69
560.895	261.69
561.107	232.69
561.32	229.69
561.532	236.69
561.744	246.69
561.956	224.69
562.168	227.69
562.381	251.69
562.593	246.69
562.805	251.69
563.017	251.69
563.229	234.69
563.441	216.69
563.653	233.69
563.865	235.69
564.077	235.69
564.289	243.69
564.501	251.69
564.713	240.69
564.925	248.69
565.137	268.69
565.349	267.69
565.561	255.69
565.773	243.69
565.985	261.69
566.197	260.69
566.408	252.69
566.62	255.69
566.832	262.69
567.044	269.69
567.255	262.69
567.467	266.69
567.679	264.69
567.891	254.69
568.102	250.69
568.314	273.69
568.526	243.69
568.737	256.69
568.949	267.69
569.161	252.69
569.372	265.69
569.584	250.69
569.795	244.69
570.007	237.69
570.218	278.69
570.43	262.69
570.641	230.69
570.853	231.69
571.064	232.69
571.276	228.69
571.487	233.69
571.698	231.69
571.91	207.69
572.121	244.69
572.333	232.69
572.544	203.69
572.755	201.69
572.966	221.69
573.178	208.69
573.389	217.69
573.6	227.69
573.811	224.69
574.023	199.69
574.234	206.69
574.445	204.69
574.656	220.69
574.867	208.69
575.078	212.69
575.289	212.69
575.501	209.69
575.712	208.69
575.923	227.69
576.134	204.69
576.345	204.69
576.556	237.69
576.767	206.69
576.978	197.69
577.188	210.69
577.399	207.69
577.61	210.69
577.821	213.69
578.032	214.69
578.243	238.69
578.454	396.69
578.665	281.69
578.875	208.69
579.086	215.69
579.297	208.69
579.508	210.69
579.718	204.69
579.929	212.69
580.14	201.69
580.35	206.69
580.561	205.69
580.772	189.69
580.982	197.69
581.193	191.69
581.403	191.69
581.614	215.69
581.825	204.69
582.035	205.69
582.246	201.69
582.456	192.69
582.667	195.69
582.877	194.69
583.087	190.69
583.298	199.69
583.508	197.69
583.719	199.69
583.929	199.69
584.139	207.69
584.35	193.69
584.56	198.69
584.77	191.69
584.981	188.69
585.191	172.69
585.401	191.69
585.611	202.69
585.821	200.69
586.032	183.69
586.242	197.69
586.452	198.69
586.662	196.69
586.872	203.69
587.082	181.69
587.292	185.69
587.502	192.69
587.713	181.69
587.923	203.69
588.133	186.69
588.343	187.69
588.553	178.69
588.762	191.69
588.972	199.69
589.182	189.69
589.392	206.69
589.602	193.69
589.812	183.69
590.022	185.69
590.232	181.69
590.441	184.69
590.651	184.69
590.861	172.69
591.071	192.69
591.281	186.69
591.49	189.69
591.7	199.69
591.91	215.69
592.119	191.69
592.329	185.69
592.539	206.69
592.748	188.69
592.958	198.69
593.167	185.69
593.377	176.69
593.587	206.69
593.796	187.69
594.006	186.69
594.215	196.69
594.424	190.69
594.634	184.69
594.843	199.69
595.053	207.69
595.262	180.69
595.472	204.69
595.681	172.69
595.89	176.69
596.1	182.69
596.309	175.69
596.518	180.69
596.727	189.69
596.937	187.69
597.146	188.69
597.355	184.69
597.564	184.69
597.774	184.69
597.983	176.69
598.192	181.69
598.401	182.69
598.61	166.69
598.819	179.69
599.028	178.69
599.237	159.69
599.446	175.69
599.655	180.69
599.864	187.69
600.073	166.69
600.282	190.69
600.491	182.69
600.7	176.69
600.909	170.69
601.118	191.69
601.327	169.69
601.536	168.69
601.745	171.69
601.953	182.69
602.162	165.69
602.371	178.69
602.58	176.69
602.789	173.69
602.997	156.69
603.206	180.69
603.415	180.69
603.623	176.69
603.832	163.69
604.041	162.69
604.249	166.69
604.458	173.69
604.666	170.69
604.875	168.69
605.084	153.69
605.292	156.69
605.501	179.69
605.709	162.69
605.918	177.69
606.126	164.69
606.334	157.69
606.543	164.69
606.751	165.69
606.96	165.69
607.168	163.69
607.376	172.69
607.585	164.69
607.793	157.69
608.001	161.69
608.21	156.69
608.418	150.69
608.626	164.69
608.834	162.69
609.043	171.69
609.251	162.69
609.459	156.69
609.667	173.69
609.875	149.69
610.083	161.69
610.291	170.69
610.499	177.69
610.707	163.69
610.916	163.69
611.124	176.69
611.332	166.69
611.54	178.69
611.748	168.69
611.955	164.69
612.163	186.69
612.371	168.69
612.579	165.69
612.787	174.69
612.995	153.69
613.203	165.69
613.411	158.69
613.618	158.69
613.826	164.69
614.034	162.69
614.242	150.69
614.449	170.69
614.657	165.69
614.865	167.69
615.072	168.69
615.28	139.69
615.488	147.69
615.695	153.69
615.903	175.69
616.111	177.69
616.318	171.69
616.526	171.69
616.733	164.69
616.941	170.69
617.148	177.69
617.356	170.69
617.563	175.69
617.771	176.69
617.978	149.69
618.185	162.69
618.393	168.69
618.6	166.69
618.807	166.69
619.015	152.69
619.222	158.69
619.429	160.69
619.637	150.69
619.844	172.69
620.051	146.69
620.258	150.69
620.466	158.69
620.673	159.69
620.88	159.69
621.087	147.69
621.294	165.69
621.501	150.69
621.708	167.69
621.915	137.69
622.122	142.69
622.329	145.69
622.536	153.69
622.743	158.69
622.95	151.69
623.157	153.69
623.364	151.69
623.571	159.69
623.778	153.69
623.985	166.69
624.192	161.69
624.399	158.69
624.606	148.69
624.812	151.69
625.019	146.69
625.226	150.69
625.433	158.69
625.639	155.69
625.846	149.69
626.053	152.69
626.259	159.69
626.466	150.69
626.673	140.69
626.879	158.69
627.086	153.69
627.293	152.69
627.499	150.69
627.706	138.69
627.912	150.69
628.119	142.69
628.325	152.69
628.532	147.69
628.738	133.69
628.945	145.69
629.151	150.69
629.357	147.69
629.564	144.69
629.77	145.69
629.976	139.69
630.183	133.69
630.389	144.69
630.595	148.69
630.802	146.69
631.008	149.69
631.214	145.69
631.42	137.69
631.627	149.69
631.833	136.69
632.039	130.69
632.245	150.69
632.451	141.69
632.657	141.69
632.863	126.69
633.069	130.69
633.275	141.69
633.481	158.69
633.688	136.69
633.893	127.69
634.099	135.69
634.305	139.69
634.511	138.69
634.717	134.69
634.923	134.69
635.129	140.69
635.335	134.69
635.541	132.69
635.747	150.69
635.952	139.69
636.158	137.69
636.364	134.69
636.57	147.69
636.775	140.69
636.981	142.69
637.187	153.69
637.392	146.69
637.598	152.69
637.804	132.69
638.009	139.69
638.215	134.69
638.421	140.69
638.626	144.69
638.832	130.69
639.037	131.69
639.243	142.69
639.448	131.69
639.654	136.69
639.859	127.69
640.065	132.69
640.27	142.69
640.475	134.69
640.681	132.69
640.886	127.69
641.091	133.69
641.297	130.69
641.502	127.69
641.707	128.69
641.913	127.69
642.118	117.69
642.323	136.69
642.528	128.69
642.733	135.69
642.939	135.69
643.144	117.69
643.349	133.69
643.554	152.69
643.759	123.69
643.964	118.69
644.169	134.69
644.374	127.69
644.579	132.69
644.784	125.69
644.989	143.69
645.194	150.69
645.399	140.69
645.604	142.69
645.809	143.69
646.014	131.69
646.219	125.69
646.423	132.69
646.628	130.69
646.833	135.69
647.038	145.69
647.243	119.69
647.447	133.69
647.652	133.69
647.857	135.69
648.062	114.69
648.266	128.69
648.471	127.69
648.676	132.69
648.88	140.69
649.085	137.69
649.289	145.69
649.494	127.69
649.698	143.69
649.903	143.69
650.107	130.69
650.312	129.69
650.516	126.69
650.721	122.69
650.925	131.69
651.13	128.69
651.334	114.69
651.539	114.69
651.743	141.69
651.947	117.69
652.152	106.69
652.356	116.69
652.56	121.69
652.764	124.69
652.969	111.69
653.173	114.69
653.377	128.69
653.581	119.69
653.785	115.69
653.99	116.69
654.194	119.69
654.398	110.69
654.602	114.69
654.806	116.69
655.01	119.69
655.214	130.69
655.418	124.69
655.622	115.69
655.826	108.69
656.03	108.69
656.234	114.69
656.438	122.69
656.642	110.69
656.846	126.69
657.049	111.69
657.253	121.69
657.457	106.69
657.661	102.69
657.865	117.69
658.068	107.69
658.272	92.69
658.476	81.69
658.68	98.69
658.883	112.69
659.087	95.69
659.291	92.69
659.494	106.69
659.698	91.69
659.901	105.69
660.105	91.69
660.309	97.69
660.512	104.69
660.716	91.69
660.919	96.69
661.123	101.69
661.326	89.69
661.53	94.69
661.733	102.69
661.936	99.69
662.14	86.69
662.343	94.69
662.546	88.69
662.75	90.69
662.953	89.69
663.156	90.69
663.36	98.69
663.563	84.69
663.766	81.69
663.969	90.69
664.173	70.69
664.376	88.69
664.579	85.69
664.782	78.69
664.985	82.69
665.188	83.69
665.391	67.69
665.594	76.69
665.797	86.69
666	88.69
666.203	79.69
666.406	83.69
666.609	75.69
666.812	88.69
667.015	83.69
667.218	97.69
667.421	87.69
667.624	86.69
667.827	98.69
668.03	90.69
668.232	84.69
668.435	89.69
668.638	88.69
668.841	80.69
669.043	89.69
669.246	90.69
669.449	78.69
669.651	80.69
669.854	84.69
670.057	101.69
670.259	77.69
670.462	85.69
670.665	93.69
670.867	80.69
671.07	94.69
671.272	85.69
671.475	83.69
671.677	91.69
671.88	98.69
672.082	92.69
672.284	85.69
672.487	83.69
672.689	78.69
672.892	79.69
