Data from 1982.PennyLincolnUp.Lamp.En5.5.200Scan.071819.P1_HRD10591_16-47-57-963.txt Node
Date: Thu Jul 18 16:47:57 EDT 2019
User: cochatt
Spectrometer: HR+D1059
Trigger mode: 1
Integration Time (sec): 1.000000E-1
Scans to average: 1
Electric dark correction enabled: true
Nonlinearity correction enabled: false
Boxcar width: 0
XAxis mode: Wavelengths
Number of Pixels in Spectrum: 2048
>>>>>Begin Spectral Data<<<<<
223.165	1.69
223.4	1.69
223.635	1.69
223.869	-12.31
224.104	-29.31
224.338	-11.31
224.573	-16.31
224.808	-1.31
225.042	-12.31
225.277	-7.31
225.511	-8.31
225.746	-0.31
225.98	13.69
226.215	-4.31
226.449	16.69
226.683	29.69
226.918	19.69
227.152	21.69
227.387	35.69
227.621	33.69
227.856	53.69
228.09	54.69
228.324	59.69
228.559	55.69
228.793	45.69
229.027	83.69
229.262	96.69
229.496	101.69
229.73	126.69
229.964	119.69
230.199	109.69
230.433	93.69
230.667	101.69
230.901	98.69
231.136	86.69
231.37	100.69
231.604	93.69
231.838	87.69
232.072	107.69
232.306	104.69
232.541	110.69
232.775	103.69
233.009	109.69
233.243	95.69
233.477	90.69
233.711	93.69
233.945	104.69
234.179	92.69
234.413	108.69
234.647	105.69
234.881	102.69
235.115	88.69
235.349	114.69
235.583	108.69
235.817	124.69
236.051	114.69
236.285	107.69
236.519	117.69
236.753	109.69
236.987	123.69
237.221	150.69
237.455	170.69
237.689	149.69
237.922	118.69
238.156	109.69
238.39	113.69
238.624	105.69
238.858	120.69
239.091	117.69
239.325	106.69
239.559	122.69
239.793	129.69
240.027	124.69
240.26	130.69
240.494	144.69
240.728	132.69
240.961	126.69
241.195	121.69
241.429	115.69
241.662	119.69
241.896	118.69
242.13	123.69
242.363	125.69
242.597	116.69
242.83	121.69
243.064	108.69
243.298	113.69
243.531	109.69
243.765	117.69
243.998	132.69
244.232	134.69
244.465	116.69
244.699	129.69
244.932	125.69
245.166	125.69
245.399	109.69
245.633	121.69
245.866	125.69
246.099	138.69
246.333	133.69
246.566	126.69
246.8	136.69
247.033	132.69
247.266	131.69
247.5	136.69
247.733	146.69
247.966	142.69
248.2	145.69
248.433	145.69
248.666	148.69
248.899	162.69
249.133	161.69
249.366	167.69
249.599	162.69
249.832	150.69
250.066	145.69
250.299	151.69
250.532	163.69
250.765	180.69
250.998	190.69
251.231	201.69
251.465	182.69
251.698	158.69
251.931	169.69
252.164	163.69
252.397	173.69
252.63	167.69
252.863	158.69
253.096	174.69
253.329	196.69
253.562	182.69
253.795	180.69
254.028	189.69
254.261	186.69
254.494	188.69
254.727	204.69
254.96	227.69
255.193	213.69
255.426	198.69
255.659	182.69
255.892	198.69
256.124	188.69
256.357	186.69
256.59	169.69
256.823	179.69
257.056	176.69
257.289	187.69
257.521	171.69
257.754	168.69
257.987	163.69
258.22	167.69
258.452	170.69
258.685	169.69
258.918	165.69
259.151	162.69
259.383	178.69
259.616	183.69
259.849	169.69
260.081	183.69
260.314	207.69
260.547	207.69
260.779	184.69
261.012	184.69
261.244	188.69
261.477	190.69
261.71	185.69
261.942	186.69
262.175	192.69
262.407	187.69
262.64	183.69
262.872	180.69
263.105	171.69
263.337	161.69
263.57	172.69
263.802	179.69
264.035	178.69
264.267	166.69
264.499	168.69
264.732	175.69
264.964	171.69
265.197	178.69
265.429	173.69
265.661	173.69
265.894	175.69
266.126	169.69
266.358	173.69
266.591	186.69
266.823	176.69
267.055	190.69
267.287	188.69
267.52	170.69
267.752	195.69
267.984	193.69
268.216	185.69
268.448	196.69
268.681	194.69
268.913	217.69
269.145	213.69
269.377	227.69
269.609	212.69
269.841	230.69
270.073	229.69
270.306	254.69
270.538	242.69
270.77	261.69
271.002	247.69
271.234	232.69
271.466	247.69
271.698	265.69
271.93	266.69
272.162	259.69
272.394	245.69
272.626	251.69
272.858	222.69
273.09	228.69
273.322	220.69
273.553	214.69
273.785	211.69
274.017	218.69
274.249	218.69
274.481	209.69
274.713	226.69
274.945	214.69
275.176	210.69
275.408	217.69
275.64	214.69
275.872	228.69
276.104	219.69
276.335	226.69
276.567	221.69
276.799	215.69
277.031	244.69
277.262	268.69
277.494	248.69
277.726	241.69
277.957	245.69
278.189	239.69
278.421	208.69
278.652	220.69
278.884	215.69
279.115	227.69
279.347	198.69
279.579	211.69
279.81	203.69
280.042	221.69
280.273	210.69
280.505	221.69
280.736	222.69
280.968	209.69
281.199	217.69
281.431	213.69
281.662	198.69
281.894	211.69
282.125	228.69
282.356	226.69
282.588	237.69
282.819	254.69
283.051	235.69
283.282	221.69
283.513	217.69
283.745	205.69
283.976	211.69
284.207	211.69
284.439	215.69
284.67	212.69
284.901	227.69
285.132	222.69
285.364	208.69
285.595	215.69
285.826	228.69
286.057	214.69
286.288	195.69
286.52	215.69
286.751	214.69
286.982	211.69
287.213	205.69
287.444	217.69
287.675	223.69
287.906	224.69
288.138	237.69
288.369	212.69
288.6	226.69
288.831	224.69
289.062	221.69
289.293	218.69
289.524	228.69
289.755	237.69
289.986	222.69
290.217	212.69
290.448	217.69
290.679	233.69
290.91	231.69
291.141	230.69
291.371	213.69
291.602	214.69
291.833	221.69
292.064	225.69
292.295	236.69
292.526	238.69
292.757	230.69
292.987	228.69
293.218	238.69
293.449	231.69
293.68	228.69
293.91	207.69
294.141	221.69
294.372	226.69
294.603	228.69
294.833	224.69
295.064	221.69
295.295	220.69
295.525	226.69
295.756	225.69
295.987	250.69
296.217	237.69
296.448	265.69
296.679	247.69
296.909	218.69
297.14	234.69
297.37	226.69
297.601	246.69
297.831	228.69
298.062	227.69
298.292	234.69
298.523	255.69
298.753	246.69
298.984	241.69
299.214	235.69
299.445	246.69
299.675	247.69
299.905	258.69
300.136	235.69
300.366	229.69
300.597	228.69
300.827	249.69
301.057	265.69
301.288	262.69
301.518	260.69
301.748	266.69
301.979	262.69
302.209	263.69
302.439	270.69
302.669	243.69
302.9	249.69
303.13	252.69
303.36	262.69
303.59	249.69
303.82	246.69
304.051	271.69
304.281	244.69
304.511	269.69
304.741	247.69
304.971	249.69
305.201	249.69
305.431	259.69
305.661	248.69
305.891	261.69
306.121	261.69
306.352	257.69
306.582	259.69
306.812	266.69
307.042	248.69
307.272	266.69
307.502	275.69
307.731	265.69
307.961	267.69
308.191	261.69
308.421	272.69
308.651	265.69
308.881	274.69
309.111	285.69
309.341	256.69
309.571	281.69
309.8	278.69
310.03	275.69
310.26	279.69
310.49	293.69
310.72	310.69
310.949	313.69
311.179	308.69
311.409	305.69
311.639	304.69
311.868	289.69
312.098	299.69
312.328	296.69
312.557	307.69
312.787	314.69
313.017	323.69
313.246	301.69
313.476	295.69
313.706	303.69
313.935	292.69
314.165	305.69
314.394	308.69
314.624	297.69
314.853	300.69
315.083	300.69
315.312	316.69
315.542	306.69
315.771	291.69
316.001	282.69
316.23	314.69
316.46	296.69
316.689	283.69
316.919	291.69
317.148	319.69
317.377	309.69
317.607	303.69
317.836	313.69
318.065	294.69
318.295	300.69
318.524	308.69
318.753	286.69
318.983	288.69
319.212	289.69
319.441	313.69
319.67	312.69
319.9	303.69
320.129	309.69
320.358	305.69
320.587	287.69
320.816	310.69
321.046	321.69
321.275	320.69
321.504	312.69
321.733	311.69
321.962	317.69
322.191	347.69
322.42	362.69
322.649	361.69
322.878	365.69
323.108	364.69
323.337	390.69
323.566	427.69
323.795	433.69
324.024	505.69
324.253	622.69
324.482	939.69
324.71	1415.69
324.939	1829.69
325.168	1457.69
325.397	795.69
325.626	531.69
325.855	451.69
326.084	403.69
326.313	429.69
326.542	419.69
326.77	481.69
326.999	576.69
327.228	801.69
327.457	1209.69
327.686	1311.69
327.914	865.69
328.143	575.69
328.372	508.69
328.6	471.69
328.829	458.69
329.058	485.69
329.287	461.69
329.515	441.69
329.744	415.69
329.972	420.69
330.201	443.69
330.43	445.69
330.658	497.69
330.887	490.69
331.115	471.69
331.344	418.69
331.572	379.69
331.801	389.69
332.03	376.69
332.258	350.69
332.486	359.69
332.715	353.69
332.943	353.69
333.172	347.69
333.4	347.69
333.629	361.69
333.857	359.69
334.085	371.69
334.314	377.69
334.542	399.69
334.771	439.69
334.999	383.69
335.227	356.69
335.455	341.69
335.684	335.69
335.912	343.69
336.14	323.69
336.369	331.69
336.597	350.69
336.825	335.69
337.053	322.69
337.281	329.69
337.51	348.69
337.738	337.69
337.966	333.69
338.194	348.69
338.422	340.69
338.65	330.69
338.878	319.69
339.106	329.69
339.334	323.69
339.562	335.69
339.79	315.69
340.018	329.69
340.246	322.69
340.474	325.69
340.702	318.69
340.93	319.69
341.158	334.69
341.386	338.69
341.614	339.69
341.842	314.69
342.07	331.69
342.298	325.69
342.526	310.69
342.754	310.69
342.981	299.69
343.209	314.69
343.437	308.69
343.665	345.69
343.893	325.69
344.12	334.69
344.348	317.69
344.576	323.69
344.804	321.69
345.031	359.69
345.259	333.69
345.487	326.69
345.714	343.69
345.942	323.69
346.17	299.69
346.397	315.69
346.625	322.69
346.853	317.69
347.08	293.69
347.308	310.69
347.535	323.69
347.763	325.69
347.99	339.69
348.218	339.69
348.445	326.69
348.673	304.69
348.9	317.69
349.128	300.69
349.355	291.69
349.583	317.69
349.81	309.69
350.037	301.69
350.265	302.69
350.492	310.69
350.72	309.69
350.947	318.69
351.174	314.69
351.402	321.69
351.629	339.69
351.856	327.69
352.083	344.69
352.311	327.69
352.538	330.69
352.765	318.69
352.992	324.69
353.22	310.69
353.447	311.69
353.674	310.69
353.901	299.69
354.128	295.69
354.355	306.69
354.583	292.69
354.81	309.69
355.037	284.69
355.264	286.69
355.491	281.69
355.718	272.69
355.945	293.69
356.172	292.69
356.399	293.69
356.626	275.69
356.853	283.69
357.08	284.69
357.307	280.69
357.534	275.69
357.761	275.69
357.988	294.69
358.215	294.69
358.441	292.69
358.668	289.69
358.895	301.69
359.122	272.69
359.349	305.69
359.576	299.69
359.802	338.69
360.029	353.69
360.256	345.69
360.483	333.69
360.709	321.69
360.936	322.69
361.163	327.69
361.39	319.69
361.616	314.69
361.843	302.69
362.07	298.69
362.296	302.69
362.523	290.69
362.749	321.69
362.976	293.69
363.203	294.69
363.429	300.69
363.656	287.69
363.882	310.69
364.109	288.69
364.335	318.69
364.562	302.69
364.788	297.69
365.015	282.69
365.241	287.69
365.468	297.69
365.694	297.69
365.92	295.69
366.147	303.69
366.373	294.69
366.599	295.69
366.826	305.69
367.052	271.69
367.278	280.69
367.505	276.69
367.731	302.69
367.957	269.69
368.184	270.69
368.41	294.69
368.636	285.69
368.862	302.69
369.089	310.69
369.315	315.69
369.541	298.69
369.767	299.69
369.993	272.69
370.219	268.69
370.445	283.69
370.672	288.69
370.898	302.69
371.124	275.69
371.35	275.69
371.576	278.69
371.802	282.69
372.028	284.69
372.254	270.69
372.48	267.69
372.706	268.69
372.932	269.69
373.158	266.69
373.384	263.69
373.61	280.69
373.835	279.69
374.061	289.69
374.287	290.69
374.513	277.69
374.739	286.69
374.965	284.69
375.191	285.69
375.416	297.69
375.642	265.69
375.868	281.69
376.094	276.69
376.319	270.69
376.545	264.69
376.771	277.69
376.997	273.69
377.222	269.69
377.448	258.69
377.674	281.69
377.899	279.69
378.125	285.69
378.35	280.69
378.576	279.69
378.802	267.69
379.027	277.69
379.253	277.69
379.478	269.69
379.704	264.69
379.929	289.69
380.155	286.69
380.38	287.69
380.606	287.69
380.831	281.69
381.057	274.69
381.282	273.69
381.507	265.69
381.733	282.69
381.958	275.69
382.184	279.69
382.409	276.69
382.634	288.69
382.86	267.69
383.085	277.69
383.31	287.69
383.535	298.69
383.761	265.69
383.986	265.69
384.211	260.69
384.436	285.69
384.662	309.69
384.887	300.69
385.112	281.69
385.337	300.69
385.562	284.69
385.787	292.69
386.013	308.69
386.238	311.69
386.463	298.69
386.688	282.69
386.913	280.69
387.138	282.69
387.363	283.69
387.588	286.69
387.813	290.69
388.038	265.69
388.263	294.69
388.488	301.69
388.713	305.69
388.938	299.69
389.163	286.69
389.387	292.69
389.612	264.69
389.837	287.69
390.062	302.69
390.287	308.69
390.512	286.69
390.736	295.69
390.961	288.69
391.186	298.69
391.411	296.69
391.636	290.69
391.86	284.69
392.085	305.69
392.31	298.69
392.534	309.69
392.759	290.69
392.984	284.69
393.208	267.69
393.433	302.69
393.658	298.69
393.882	301.69
394.107	302.69
394.331	296.69
394.556	294.69
394.78	267.69
395.005	282.69
395.229	301.69
395.454	289.69
395.678	281.69
395.903	305.69
396.127	308.69
396.352	325.69
396.576	313.69
396.801	299.69
397.025	303.69
397.249	300.69
397.474	309.69
397.698	305.69
397.922	323.69
398.147	317.69
398.371	314.69
398.595	318.69
398.82	309.69
399.044	308.69
399.268	334.69
399.492	334.69
399.717	335.69
399.941	354.69
400.165	371.69
400.389	377.69
400.613	331.69
400.837	336.69
401.062	316.69
401.286	336.69
401.51	321.69
401.734	305.69
401.958	306.69
402.182	323.69
402.406	326.69
402.63	319.69
402.854	329.69
403.078	329.69
403.302	330.69
403.526	329.69
403.75	325.69
403.974	323.69
404.198	319.69
404.422	328.69
404.645	346.69
404.869	344.69
405.093	364.69
405.317	378.69
405.541	396.69
405.765	364.69
405.988	361.69
406.212	350.69
406.436	370.69
406.66	371.69
406.883	365.69
407.107	377.69
407.331	377.69
407.555	429.69
407.778	436.69
408.002	382.69
408.226	349.69
408.449	360.69
408.673	359.69
408.896	376.69
409.12	397.69
409.344	372.69
409.567	366.69
409.791	338.69
410.014	311.69
410.238	342.69
410.461	324.69
410.685	316.69
410.908	361.69
411.132	378.69
411.355	392.69
411.578	369.69
411.802	345.69
412.025	331.69
412.249	348.69
412.472	345.69
412.695	364.69
412.919	372.69
413.142	329.69
413.365	317.69
413.589	328.69
413.812	315.69
414.035	321.69
414.258	327.69
414.482	325.69
414.705	313.69
414.928	308.69
415.151	309.69
415.374	301.69
415.597	310.69
415.821	307.69
416.044	315.69
416.267	318.69
416.49	313.69
416.713	298.69
416.936	304.69
417.159	310.69
417.382	305.69
417.605	326.69
417.828	308.69
418.051	334.69
418.274	321.69
418.497	315.69
418.72	296.69
418.943	316.69
419.166	300.69
419.389	324.69
419.611	327.69
419.834	337.69
420.057	328.69
420.28	345.69
420.503	344.69
420.726	346.69
420.948	361.69
421.171	359.69
421.394	368.69
421.617	355.69
421.839	340.69
422.062	330.69
422.285	329.69
422.507	366.69
422.73	413.69
422.953	406.69
423.175	361.69
423.398	345.69
423.621	355.69
423.843	368.69
424.066	357.69
424.288	351.69
424.511	379.69
424.733	407.69
424.956	459.69
425.178	439.69
425.401	431.69
425.623	430.69
425.846	393.69
426.068	346.69
426.291	354.69
426.513	370.69
426.735	358.69
426.958	408.69
427.18	465.69
427.402	548.69
427.625	572.69
427.847	500.69
428.069	439.69
428.292	397.69
428.514	370.69
428.736	334.69
428.958	342.69
429.181	335.69
429.403	341.69
429.625	329.69
429.847	369.69
430.069	403.69
430.292	391.69
430.514	359.69
430.736	332.69
430.958	318.69
431.18	335.69
431.402	298.69
431.624	296.69
431.846	310.69
432.068	338.69
432.29	323.69
432.512	302.69
432.734	334.69
432.956	316.69
433.178	329.69
433.4	331.69
433.622	322.69
433.844	321.69
434.066	310.69
434.287	320.69
434.509	329.69
434.731	313.69
434.953	333.69
435.175	332.69
435.397	354.69
435.618	354.69
435.84	384.69
436.062	446.69
436.284	488.69
436.505	411.69
436.727	391.69
436.949	352.69
437.17	355.69
437.392	347.69
437.614	351.69
437.835	379.69
438.057	431.69
438.278	497.69
438.5	498.69
438.721	537.69
438.943	484.69
439.165	411.69
439.386	379.69
439.608	385.69
439.829	367.69
440.05	373.69
440.272	421.69
440.493	393.69
440.715	351.69
440.936	327.69
441.158	346.69
441.379	325.69
441.6	332.69
441.822	334.69
442.043	364.69
442.264	439.69
442.486	445.69
442.707	402.69
442.928	367.69
443.149	379.69
443.371	398.69
443.592	422.69
443.813	473.69
444.034	492.69
444.255	436.69
444.476	365.69
444.698	362.69
444.919	346.69
445.14	467.69
445.361	414.69
445.582	386.69
445.803	459.69
446.024	525.69
446.245	521.69
446.466	477.69
446.687	393.69
446.908	370.69
447.129	345.69
447.35	317.69
447.571	346.69
447.792	302.69
448.013	342.69
448.234	347.69
448.455	395.69
448.675	449.69
448.896	513.69
449.117	443.69
449.338	414.69
449.559	494.69
449.779	525.69
450	457.69
450.221	371.69
450.442	348.69
450.662	351.69
450.883	340.69
451.104	347.69
451.324	334.69
451.545	337.69
451.766	305.69
451.986	312.69
452.207	278.69
452.428	293.69
452.648	309.69
452.869	309.69
453.089	309.69
453.31	327.69
453.53	323.69
453.751	295.69
453.971	308.69
454.192	325.69
454.412	289.69
454.633	307.69
454.853	302.69
455.073	311.69
455.294	326.69
455.514	368.69
455.734	350.69
455.955	311.69
456.175	274.69
456.395	275.69
456.616	284.69
456.836	277.69
457.056	296.69
457.276	294.69
457.497	267.69
457.717	269.69
457.937	283.69
458.157	289.69
458.377	297.69
458.598	313.69
458.818	358.69
459.038	403.69
459.258	416.69
459.478	347.69
459.698	316.69
459.918	318.69
460.138	315.69
460.358	313.69
460.578	310.69
460.798	315.69
461.018	317.69
461.238	286.69
461.458	309.69
461.678	308.69
461.898	316.69
462.118	306.69
462.338	307.69
462.558	308.69
462.777	315.69
462.997	310.69
463.217	305.69
463.437	320.69
463.657	295.69
463.876	327.69
464.096	323.69
464.316	316.69
464.536	338.69
464.755	326.69
464.975	340.69
465.195	371.69
465.414	408.69
465.634	351.69
465.854	329.69
466.073	327.69
466.293	333.69
466.512	312.69
466.732	292.69
466.951	308.69
467.171	296.69
467.391	315.69
467.61	322.69
467.829	322.69
468.049	310.69
468.268	314.69
468.488	309.69
468.707	301.69
468.927	297.69
469.146	302.69
469.365	296.69
469.585	285.69
469.804	303.69
470.023	298.69
470.243	282.69
470.462	302.69
470.681	330.69
470.901	318.69
471.12	302.69
471.339	311.69
471.558	302.69
471.777	316.69
471.997	300.69
472.216	321.69
472.435	319.69
472.654	316.69
472.873	316.69
473.092	303.69
473.311	314.69
473.53	302.69
473.749	315.69
473.968	351.69
474.187	410.69
474.406	414.69
474.625	351.69
474.844	316.69
475.063	317.69
475.282	326.69
475.501	308.69
475.72	310.69
475.939	325.69
476.158	300.69
476.377	333.69
476.596	299.69
476.814	328.69
477.033	328.69
477.252	322.69
477.471	327.69
477.69	303.69
477.908	314.69
478.127	317.69
478.346	318.69
478.564	328.69
478.783	354.69
479.002	348.69
479.22	339.69
479.439	349.69
479.658	370.69
479.876	371.69
480.095	347.69
480.313	377.69
480.532	386.69
480.751	350.69
480.969	365.69
481.188	406.69
481.406	452.69
481.624	391.69
481.843	376.69
482.061	373.69
482.28	362.69
482.498	353.69
482.717	334.69
482.935	343.69
483.153	342.69
483.372	352.69
483.59	362.69
483.808	353.69
484.027	375.69
484.245	358.69
484.463	341.69
484.681	348.69
484.9	369.69
485.118	361.69
485.336	356.69
485.554	360.69
485.772	373.69
485.99	367.69
486.209	373.69
486.427	383.69
486.645	372.69
486.863	384.69
487.081	372.69
487.299	388.69
487.517	370.69
487.735	386.69
487.953	378.69
488.171	396.69
488.389	375.69
488.607	373.69
488.825	359.69
489.043	375.69
489.261	381.69
489.479	397.69
489.696	383.69
489.914	372.69
490.132	408.69
490.35	400.69
490.568	398.69
490.786	406.69
491.003	420.69
491.221	417.69
491.439	404.69
491.657	425.69
491.874	429.69
492.092	422.69
492.31	422.69
492.527	443.69
492.745	441.69
492.963	426.69
493.18	430.69
493.398	433.69
493.615	436.69
493.833	451.69
494.05	453.69
494.268	459.69
494.485	427.69
494.703	438.69
494.92	470.69
495.138	430.69
495.355	445.69
495.573	432.69
495.79	450.69
496.008	439.69
496.225	445.69
496.442	434.69
496.66	431.69
496.877	449.69
497.094	458.69
497.312	442.69
497.529	461.69
497.746	457.69
497.963	470.69
498.181	480.69
498.398	462.69
498.615	463.69
498.832	481.69
499.049	483.69
499.267	474.69
499.484	465.69
499.701	510.69
499.918	517.69
500.135	533.69
500.352	546.69
500.569	562.69
500.786	560.69
501.003	547.69
501.22	535.69
501.437	515.69
501.654	526.69
501.871	537.69
502.088	515.69
502.305	509.69
502.522	483.69
502.739	459.69
502.956	460.69
503.172	463.69
503.389	469.69
503.606	468.69
503.823	472.69
504.04	449.69
504.256	451.69
504.473	443.69
504.69	434.69
504.907	438.69
505.123	430.69
505.34	437.69
505.557	434.69
505.773	417.69
505.99	453.69
506.207	440.69
506.423	441.69
506.64	402.69
506.856	424.69
507.073	426.69
507.289	426.69
507.506	429.69
507.722	430.69
507.939	440.69
508.155	424.69
508.372	409.69
508.588	435.69
508.805	396.69
509.021	407.69
509.238	421.69
509.454	435.69
509.67	428.69
509.887	422.69
510.103	425.69
510.319	430.69
510.536	492.69
510.752	829.69
510.968	647.69
511.184	447.69
511.401	401.69
511.617	401.69
511.833	403.69
512.049	389.69
512.265	389.69
512.481	390.69
512.698	395.69
512.914	387.69
513.13	378.69
513.346	382.69
513.562	389.69
513.778	393.69
513.994	412.69
514.21	418.69
514.426	437.69
514.642	467.69
514.858	471.69
515.074	534.69
515.29	600.69
515.506	883.69
515.721	708.69
515.937	467.69
516.153	443.69
516.369	438.69
516.585	422.69
516.801	421.69
517.016	399.69
517.232	390.69
517.448	409.69
517.664	409.69
517.879	385.69
518.095	415.69
518.311	393.69
518.527	397.69
518.742	385.69
518.958	402.69
519.173	400.69
519.389	392.69
519.605	381.69
519.82	383.69
520.036	422.69
520.251	410.69
520.467	453.69
520.682	411.69
520.898	428.69
521.113	462.69
521.329	496.69
521.544	558.69
521.76	734.69
521.975	1182.69
522.19	1105.69
522.406	611.69
522.621	458.69
522.836	438.69
523.052	403.69
523.267	387.69
523.482	373.69
523.698	387.69
523.913	371.69
524.128	385.69
524.343	356.69
524.559	356.69
524.774	336.69
524.989	351.69
525.204	334.69
525.419	356.69
525.634	347.69
525.849	336.69
526.064	341.69
526.28	332.69
526.495	342.69
526.71	335.69
526.925	339.69
527.14	327.69
527.355	326.69
527.57	330.69
527.785	323.69
527.999	334.69
528.214	324.69
528.429	331.69
528.644	327.69
528.859	323.69
529.074	342.69
529.289	365.69
529.503	383.69
529.718	378.69
529.933	342.69
530.148	329.69
530.363	323.69
530.577	326.69
530.792	317.69
531.007	295.69
531.221	307.69
531.436	315.69
531.651	327.69
531.865	318.69
532.08	302.69
532.295	285.69
532.509	321.69
532.724	288.69
532.938	310.69
533.153	300.69
533.367	307.69
533.582	312.69
533.796	296.69
534.011	290.69
534.225	306.69
534.44	305.69
534.654	297.69
534.868	296.69
535.083	293.69
535.297	298.69
535.511	316.69
535.726	314.69
535.94	308.69
536.154	314.69
536.369	318.69
536.583	319.69
536.797	289.69
537.011	300.69
537.225	292.69
537.44	291.69
537.654	305.69
537.868	303.69
538.082	284.69
538.296	309.69
538.51	299.69
538.724	278.69
538.938	306.69
539.153	284.69
539.367	316.69
539.581	329.69
539.795	311.69
540.009	294.69
540.222	305.69
540.436	302.69
540.65	295.69
540.864	302.69
541.078	307.69
541.292	297.69
541.506	295.69
541.72	293.69
541.934	290.69
542.147	305.69
542.361	299.69
542.575	287.69
542.789	274.69
543.002	291.69
543.216	301.69
543.43	305.69
543.644	291.69
543.857	300.69
544.071	284.69
544.285	294.69
544.498	285.69
544.712	289.69
544.925	294.69
545.139	294.69
545.352	282.69
545.566	297.69
545.779	281.69
545.993	298.69
546.206	283.69
546.42	300.69
546.633	281.69
546.847	290.69
547.06	295.69
547.274	284.69
547.487	263.69
547.7	283.69
547.914	279.69
548.127	271.69
548.34	275.69
548.554	285.69
548.767	285.69
548.98	263.69
549.193	280.69
549.407	267.69
549.62	262.69
549.833	267.69
550.046	281.69
550.259	274.69
550.473	268.69
550.686	263.69
550.899	268.69
551.112	247.69
551.325	265.69
551.538	283.69
551.751	280.69
551.964	284.69
552.177	270.69
552.39	254.69
552.603	278.69
552.816	269.69
553.029	277.69
553.242	283.69
553.455	283.69
553.667	282.69
553.88	286.69
554.093	289.69
554.306	291.69
554.519	276.69
554.732	277.69
554.944	287.69
555.157	283.69
555.37	274.69
555.583	276.69
555.795	276.69
556.008	254.69
556.221	263.69
556.433	269.69
556.646	277.69
556.859	253.69
557.071	243.69
557.284	254.69
557.496	253.69
557.709	240.69
557.921	261.69
558.134	257.69
558.346	261.69
558.559	246.69
558.771	246.69
558.984	242.69
559.196	249.69
559.409	251.69
559.621	262.69
559.833	235.69
560.046	263.69
560.258	251.69
560.47	255.69
560.683	249.69
560.895	236.69
561.107	259.69
561.32	263.69
561.532	259.69
561.744	260.69
561.956	231.69
562.168	240.69
562.381	243.69
562.593	251.69
562.805	241.69
563.017	263.69
563.229	246.69
563.441	247.69
563.653	261.69
563.865	238.69
564.077	268.69
564.289	232.69
564.501	242.69
564.713	254.69
564.925	262.69
565.137	262.69
565.349	250.69
565.561	237.69
565.773	263.69
565.985	244.69
566.197	281.69
566.408	283.69
566.62	264.69
566.832	282.69
567.044	290.69
567.255	271.69
567.467	269.69
567.679	271.69
567.891	265.69
568.102	279.69
568.314	281.69
568.526	280.69
568.737	267.69
568.949	258.69
569.161	255.69
569.372	229.69
569.584	258.69
569.795	251.69
570.007	267.69
570.218	292.69
570.43	276.69
570.641	234.69
570.853	241.69
571.064	255.69
571.276	212.69
571.487	229.69
571.698	229.69
571.91	238.69
572.121	248.69
572.333	237.69
572.544	236.69
572.755	239.69
572.966	219.69
573.178	230.69
573.389	225.69
573.6	210.69
573.811	214.69
574.023	224.69
574.234	212.69
574.445	218.69
574.656	210.69
574.867	235.69
575.078	228.69
575.289	208.69
575.501	209.69
575.712	227.69
575.923	226.69
576.134	219.69
576.345	199.69
576.556	204.69
576.767	232.69
576.978	217.69
577.188	222.69
577.399	217.69
577.61	211.69
577.821	215.69
578.032	219.69
578.243	241.69
578.454	418.69
578.665	309.69
578.875	220.69
579.086	198.69
579.297	222.69
579.508	220.69
579.718	220.69
579.929	204.69
580.14	223.69
580.35	221.69
580.561	199.69
580.772	227.69
580.982	198.69
581.193	212.69
581.403	194.69
581.614	198.69
581.825	198.69
582.035	211.69
582.246	209.69
582.456	194.69
582.667	212.69
582.877	196.69
583.087	198.69
583.298	204.69
583.508	224.69
583.719	189.69
583.929	203.69
584.139	219.69
584.35	199.69
584.56	191.69
584.77	186.69
584.981	189.69
585.191	220.69
585.401	193.69
585.611	193.69
585.821	201.69
586.032	212.69
586.242	197.69
586.452	203.69
586.662	190.69
586.872	200.69
587.082	201.69
587.292	210.69
587.502	196.69
587.713	195.69
587.923	203.69
588.133	189.69
588.343	179.69
588.553	182.69
588.762	195.69
588.972	194.69
589.182	190.69
589.392	207.69
589.602	214.69
589.812	184.69
590.022	189.69
590.232	186.69
590.441	207.69
590.651	206.69
590.861	186.69
591.071	201.69
591.281	199.69
591.49	181.69
591.7	191.69
591.91	186.69
592.119	181.69
592.329	210.69
592.539	197.69
592.748	194.69
592.958	194.69
593.167	205.69
593.377	199.69
593.587	212.69
593.796	187.69
594.006	198.69
594.215	212.69
594.424	199.69
594.634	205.69
594.843	205.69
595.053	189.69
595.262	189.69
595.472	191.69
595.681	187.69
595.89	187.69
596.1	190.69
596.309	181.69
596.518	194.69
596.727	185.69
596.937	170.69
597.146	180.69
597.355	181.69
597.564	187.69
597.774	192.69
597.983	186.69
598.192	177.69
598.401	183.69
598.61	191.69
598.819	183.69
599.028	190.69
599.237	189.69
599.446	186.69
599.655	178.69
599.864	177.69
600.073	185.69
600.282	182.69
600.491	182.69
600.7	180.69
600.909	172.69
601.118	169.69
601.327	186.69
601.536	163.69
601.745	175.69
601.953	168.69
602.162	158.69
602.371	179.69
602.58	177.69
602.789	181.69
602.997	174.69
603.206	177.69
603.415	167.69
603.623	181.69
603.832	179.69
604.041	170.69
604.249	173.69
604.458	181.69
604.666	163.69
604.875	174.69
605.084	174.69
605.292	168.69
605.501	162.69
605.709	151.69
605.918	165.69
606.126	185.69
606.334	167.69
606.543	169.69
606.751	188.69
606.96	186.69
607.168	171.69
607.376	160.69
607.585	181.69
607.793	183.69
608.001	170.69
608.21	195.69
608.418	163.69
608.626	185.69
608.834	185.69
609.043	175.69
609.251	168.69
609.459	174.69
609.667	187.69
609.875	173.69
610.083	168.69
610.291	174.69
610.499	161.69
610.707	181.69
610.916	180.69
611.124	184.69
611.332	168.69
611.54	182.69
611.748	181.69
611.955	177.69
612.163	174.69
612.371	173.69
612.579	178.69
612.787	161.69
612.995	167.69
613.203	178.69
613.411	180.69
613.618	166.69
613.826	168.69
614.034	173.69
614.242	160.69
614.449	169.69
614.657	156.69
614.865	169.69
615.072	159.69
615.28	169.69
615.488	165.69
615.695	157.69
615.903	166.69
616.111	165.69
616.318	158.69
616.526	173.69
616.733	169.69
616.941	171.69
617.148	157.69
617.356	159.69
617.563	165.69
617.771	170.69
617.978	169.69
618.185	168.69
618.393	164.69
618.6	153.69
618.807	184.69
619.015	182.69
619.222	170.69
619.429	170.69
619.637	157.69
619.844	162.69
620.051	172.69
620.258	173.69
620.466	174.69
620.673	158.69
620.88	148.69
621.087	150.69
621.294	169.69
621.501	157.69
621.708	137.69
621.915	161.69
622.122	158.69
622.329	156.69
622.536	162.69
622.743	156.69
622.95	171.69
623.157	156.69
623.364	170.69
623.571	145.69
623.778	157.69
623.985	172.69
624.192	149.69
624.399	159.69
624.606	143.69
624.812	162.69
625.019	160.69
625.226	172.69
625.433	164.69
625.639	153.69
625.846	150.69
626.053	154.69
626.259	153.69
626.466	162.69
626.673	142.69
626.879	139.69
627.086	161.69
627.293	163.69
627.499	154.69
627.706	151.69
627.912	146.69
628.119	165.69
628.325	161.69
628.532	141.69
628.738	156.69
628.945	140.69
629.151	156.69
629.357	150.69
629.564	151.69
629.77	147.69
629.976	153.69
630.183	138.69
630.389	162.69
630.595	134.69
630.802	148.69
631.008	138.69
631.214	138.69
631.42	144.69
631.627	146.69
631.833	139.69
632.039	151.69
632.245	134.69
632.451	146.69
632.657	133.69
632.863	148.69
633.069	153.69
633.275	146.69
633.481	136.69
633.688	139.69
633.893	146.69
634.099	144.69
634.305	142.69
634.511	133.69
634.717	143.69
634.923	148.69
635.129	146.69
635.335	148.69
635.541	127.69
635.747	128.69
635.952	148.69
636.158	130.69
636.364	133.69
636.57	157.69
636.775	152.69
636.981	137.69
637.187	136.69
637.392	131.69
637.598	153.69
637.804	117.69
638.009	123.69
638.215	135.69
638.421	132.69
638.626	136.69
638.832	131.69
639.037	133.69
639.243	123.69
639.448	128.69
639.654	140.69
639.859	145.69
640.065	133.69
640.27	143.69
640.475	132.69
640.681	106.69
640.886	137.69
641.091	136.69
641.297	137.69
641.502	131.69
641.707	143.69
641.913	135.69
642.118	137.69
642.323	138.69
642.528	120.69
642.733	146.69
642.939	130.69
643.144	128.69
643.349	136.69
643.554	134.69
643.759	143.69
643.964	139.69
644.169	137.69
644.374	125.69
644.579	139.69
644.784	111.69
644.989	139.69
645.194	138.69
645.399	133.69
645.604	127.69
645.809	127.69
646.014	142.69
646.219	131.69
646.423	125.69
646.628	134.69
646.833	130.69
647.038	138.69
647.243	130.69
647.447	145.69
647.652	131.69
647.857	129.69
648.062	133.69
648.266	127.69
648.471	139.69
648.676	139.69
648.88	147.69
649.085	128.69
649.289	116.69
649.494	127.69
649.698	146.69
649.903	156.69
650.107	142.69
650.312	143.69
650.516	135.69
650.721	130.69
650.925	137.69
651.13	123.69
651.334	135.69
651.539	123.69
651.743	123.69
651.947	123.69
652.152	135.69
652.356	123.69
652.56	125.69
652.764	130.69
652.969	117.69
653.173	117.69
653.377	122.69
653.581	137.69
653.785	119.69
653.99	131.69
654.194	122.69
654.398	115.69
654.602	113.69
654.806	116.69
655.01	122.69
655.214	114.69
655.418	119.69
655.622	123.69
655.826	115.69
656.03	123.69
656.234	122.69
656.438	97.69
656.642	115.69
656.846	109.69
657.049	110.69
657.253	118.69
657.457	106.69
657.661	98.69
657.865	107.69
658.068	117.69
658.272	97.69
658.476	96.69
658.68	92.69
658.883	109.69
659.087	105.69
659.291	106.69
659.494	89.69
659.698	91.69
659.901	93.69
660.105	97.69
660.309	91.69
660.512	107.69
660.716	93.69
660.919	100.69
661.123	94.69
661.326	92.69
661.53	90.69
661.733	98.69
661.936	92.69
662.14	70.69
662.343	89.69
662.546	89.69
662.75	86.69
662.953	96.69
663.156	86.69
663.36	85.69
663.563	79.69
663.766	93.69
663.969	94.69
664.173	85.69
664.376	78.69
664.579	63.69
664.782	70.69
664.985	94.69
665.188	83.69
665.391	78.69
665.594	77.69
665.797	99.69
666	88.69
666.203	84.69
666.406	74.69
666.609	75.69
666.812	83.69
667.015	86.69
667.218	82.69
667.421	96.69
667.624	81.69
667.827	77.69
668.03	71.69
668.232	77.69
668.435	79.69
668.638	88.69
668.841	87.69
669.043	79.69
669.246	79.69
669.449	89.69
669.651	94.69
669.854	100.69
670.057	78.69
670.259	76.69
670.462	89.69
670.665	87.69
670.867	87.69
671.07	91.69
671.272	86.69
671.475	74.69
671.677	71.69
671.88	76.69
672.082	84.69
672.284	87.69
672.487	72.69
672.689	83.69
672.892	79.69
