Data from 1982.PennyLincolnUp.Lamp.En5.5.200Scan.071819.P1_HRD10591_16-45-50-962.txt Node
Date: Thu Jul 18 16:45:50 EDT 2019
User: cochatt
Spectrometer: HR+D1059
Trigger mode: 1
Integration Time (sec): 1.000000E-1
Scans to average: 1
Electric dark correction enabled: true
Nonlinearity correction enabled: false
Boxcar width: 0
XAxis mode: Wavelengths
Number of Pixels in Spectrum: 2048
>>>>>Begin Spectral Data<<<<<
223.165	-10.62
223.4	-10.62
223.635	-10.62
223.869	-18.62
224.104	-23.62
224.338	-16.62
224.573	-13.62
224.808	-9.62
225.042	0.38
225.277	0.38
225.511	2.38
225.746	9.38
225.98	12.38
226.215	11.38
226.449	11.38
226.683	15.38
226.918	5.38
227.152	24.38
227.387	40.38
227.621	29.38
227.856	43.38
228.09	42.38
228.324	57.38
228.559	54.38
228.793	63.38
229.027	77.38
229.262	103.38
229.496	94.38
229.73	114.38
229.964	133.38
230.199	101.38
230.433	100.38
230.667	106.38
230.901	102.38
231.136	107.38
231.37	83.38
231.604	94.38
231.838	100.38
232.072	99.38
232.306	91.38
232.541	100.38
232.775	108.38
233.009	111.38
233.243	109.38
233.477	92.38
233.711	98.38
233.945	99.38
234.179	115.38
234.413	107.38
234.647	97.38
234.881	90.38
235.115	104.38
235.349	90.38
235.583	119.38
235.817	109.38
236.051	110.38
236.285	115.38
236.519	106.38
236.753	114.38
236.987	130.38
237.221	145.38
237.455	167.38
237.689	140.38
237.922	114.38
238.156	108.38
238.39	99.38
238.624	111.38
238.858	120.38
239.091	101.38
239.325	118.38
239.559	110.38
239.793	105.38
240.027	121.38
240.26	132.38
240.494	118.38
240.728	120.38
240.961	119.38
241.195	119.38
241.429	135.38
241.662	119.38
241.896	120.38
242.13	110.38
242.363	108.38
242.597	116.38
242.83	123.38
243.064	122.38
243.298	117.38
243.531	127.38
243.765	124.38
243.998	122.38
244.232	110.38
244.465	134.38
244.699	121.38
244.932	125.38
245.166	122.38
245.399	110.38
245.633	105.38
245.866	141.38
246.099	134.38
246.333	126.38
246.566	126.38
246.8	121.38
247.033	125.38
247.266	119.38
247.5	122.38
247.733	141.38
247.966	149.38
248.2	145.38
248.433	131.38
248.666	155.38
248.899	154.38
249.133	159.38
249.366	181.38
249.599	172.38
249.832	152.38
250.066	134.38
250.299	148.38
250.532	147.38
250.765	157.38
250.998	175.38
251.231	169.38
251.465	172.38
251.698	157.38
251.931	162.38
252.164	161.38
252.397	164.38
252.63	163.38
252.863	152.38
253.096	180.38
253.329	188.38
253.562	163.38
253.795	165.38
254.028	172.38
254.261	175.38
254.494	189.38
254.727	200.38
254.96	220.38
255.193	213.38
255.426	205.38
255.659	202.38
255.892	185.38
256.124	185.38
256.357	179.38
256.59	178.38
256.823	170.38
257.056	176.38
257.289	186.38
257.521	174.38
257.754	168.38
257.987	170.38
258.22	169.38
258.452	162.38
258.685	171.38
258.918	151.38
259.151	162.38
259.383	166.38
259.616	182.38
259.849	186.38
260.081	183.38
260.314	203.38
260.547	197.38
260.779	180.38
261.012	200.38
261.244	182.38
261.477	182.38
261.71	170.38
261.942	181.38
262.175	182.38
262.407	178.38
262.64	161.38
262.872	176.38
263.105	171.38
263.337	159.38
263.57	164.38
263.802	158.38
264.035	169.38
264.267	180.38
264.499	170.38
264.732	164.38
264.964	192.38
265.197	180.38
265.429	164.38
265.661	170.38
265.894	175.38
266.126	163.38
266.358	177.38
266.591	182.38
266.823	171.38
267.055	186.38
267.287	170.38
267.52	166.38
267.752	167.38
267.984	182.38
268.216	164.38
268.448	178.38
268.681	183.38
268.913	206.38
269.145	208.38
269.377	232.38
269.609	201.38
269.841	204.38
270.073	190.38
270.306	237.38
270.538	239.38
270.77	242.38
271.002	226.38
271.234	245.38
271.466	237.38
271.698	245.38
271.93	249.38
272.162	243.38
272.394	235.38
272.626	224.38
272.858	231.38
273.09	223.38
273.322	214.38
273.553	220.38
273.785	195.38
274.017	193.38
274.249	207.38
274.481	215.38
274.713	208.38
274.945	189.38
275.176	192.38
275.408	197.38
275.64	210.38
275.872	205.38
276.104	210.38
276.335	185.38
276.567	222.38
276.799	232.38
277.031	250.38
277.262	242.38
277.494	249.38
277.726	231.38
277.957	219.38
278.189	197.38
278.421	204.38
278.652	198.38
278.884	198.38
279.115	201.38
279.347	224.38
279.579	205.38
279.81	191.38
280.042	202.38
280.273	203.38
280.505	201.38
280.736	212.38
280.968	206.38
281.199	217.38
281.431	212.38
281.662	194.38
281.894	200.38
282.125	204.38
282.356	236.38
282.588	249.38
282.819	226.38
283.051	229.38
283.282	197.38
283.513	205.38
283.745	203.38
283.976	215.38
284.207	218.38
284.439	231.38
284.67	205.38
284.901	202.38
285.132	216.38
285.364	223.38
285.595	215.38
285.826	184.38
286.057	216.38
286.288	231.38
286.52	225.38
286.751	207.38
286.982	221.38
287.213	231.38
287.444	223.38
287.675	230.38
287.906	239.38
288.138	245.38
288.369	234.38
288.6	221.38
288.831	212.38
289.062	212.38
289.293	233.38
289.524	198.38
289.755	226.38
289.986	236.38
290.217	215.38
290.448	214.38
290.679	213.38
290.91	199.38
291.141	210.38
291.371	213.38
291.602	227.38
291.833	228.38
292.064	208.38
292.295	213.38
292.526	220.38
292.757	212.38
292.987	218.38
293.218	219.38
293.449	209.38
293.68	202.38
293.91	207.38
294.141	219.38
294.372	210.38
294.603	220.38
294.833	224.38
295.064	218.38
295.295	216.38
295.525	226.38
295.756	234.38
295.987	224.38
296.217	240.38
296.448	255.38
296.679	248.38
296.909	227.38
297.14	222.38
297.37	227.38
297.601	214.38
297.831	224.38
298.062	232.38
298.292	233.38
298.523	250.38
298.753	242.38
298.984	218.38
299.214	232.38
299.445	232.38
299.675	230.38
299.905	233.38
300.136	214.38
300.366	238.38
300.597	235.38
300.827	246.38
301.057	246.38
301.288	254.38
301.518	234.38
301.748	222.38
301.979	242.38
302.209	251.38
302.439	251.38
302.669	241.38
302.9	244.38
303.13	235.38
303.36	256.38
303.59	231.38
303.82	248.38
304.051	266.38
304.281	252.38
304.511	234.38
304.741	228.38
304.971	226.38
305.201	238.38
305.431	251.38
305.661	259.38
305.891	238.38
306.121	235.38
306.352	264.38
306.582	270.38
306.812	257.38
307.042	258.38
307.272	246.38
307.502	239.38
307.731	232.38
307.961	247.38
308.191	252.38
308.421	263.38
308.651	285.38
308.881	249.38
309.111	258.38
309.341	258.38
309.571	257.38
309.8	290.38
310.03	279.38
310.26	272.38
310.49	286.38
310.72	283.38
310.949	297.38
311.179	300.38
311.409	276.38
311.639	275.38
311.868	284.38
312.098	296.38
312.328	282.38
312.557	297.38
312.787	312.38
313.017	297.38
313.246	299.38
313.476	278.38
313.706	282.38
313.935	289.38
314.165	296.38
314.394	297.38
314.624	308.38
314.853	300.38
315.083	278.38
315.312	300.38
315.542	294.38
315.771	281.38
316.001	284.38
316.23	268.38
316.46	268.38
316.689	276.38
316.919	280.38
317.148	309.38
317.377	304.38
317.607	318.38
317.836	296.38
318.065	268.38
318.295	274.38
318.524	272.38
318.753	291.38
318.983	309.38
319.212	284.38
319.441	286.38
319.67	318.38
319.9	290.38
320.129	277.38
320.358	290.38
320.587	303.38
320.816	296.38
321.046	301.38
321.275	288.38
321.504	306.38
321.733	322.38
321.962	314.38
322.191	313.38
322.42	328.38
322.649	332.38
322.878	344.38
323.108	364.38
323.337	366.38
323.566	383.38
323.795	424.38
324.024	454.38
324.253	588.38
324.482	872.38
324.71	1243.38
324.939	1607.38
325.168	1300.38
325.397	714.38
325.626	496.38
325.855	428.38
326.084	401.38
326.313	390.38
326.542	384.38
326.77	451.38
326.999	535.38
327.228	741.38
327.457	1045.38
327.686	1192.38
327.914	777.38
328.143	553.38
328.372	478.38
328.6	466.38
328.829	420.38
329.058	429.38
329.287	430.38
329.515	408.38
329.744	381.38
329.972	390.38
330.201	395.38
330.43	434.38
330.658	452.38
330.887	456.38
331.115	435.38
331.344	392.38
331.572	378.38
331.801	347.38
332.03	354.38
332.258	336.38
332.486	333.38
332.715	334.38
332.943	326.38
333.172	322.38
333.4	339.38
333.629	341.38
333.857	353.38
334.085	370.38
334.314	359.38
334.542	381.38
334.771	384.38
334.999	363.38
335.227	357.38
335.455	343.38
335.684	316.38
335.912	346.38
336.14	325.38
336.369	331.38
336.597	343.38
336.825	333.38
337.053	320.38
337.281	338.38
337.51	317.38
337.738	326.38
337.966	324.38
338.194	333.38
338.422	301.38
338.65	319.38
338.878	309.38
339.106	316.38
339.334	303.38
339.562	294.38
339.79	308.38
340.018	314.38
340.246	321.38
340.474	308.38
340.702	318.38
340.93	300.38
341.158	303.38
341.386	297.38
341.614	317.38
341.842	308.38
342.07	302.38
342.298	313.38
342.526	308.38
342.754	300.38
342.981	289.38
343.209	299.38
343.437	308.38
343.665	299.38
343.893	286.38
344.12	318.38
344.348	300.38
344.576	317.38
344.804	321.38
345.031	320.38
345.259	346.38
345.487	325.38
345.714	320.38
345.942	301.38
346.17	307.38
346.397	314.38
346.625	300.38
346.853	301.38
347.08	292.38
347.308	309.38
347.535	299.38
347.763	302.38
347.99	306.38
348.218	319.38
348.445	312.38
348.673	311.38
348.9	306.38
349.128	288.38
349.355	309.38
349.583	297.38
349.81	292.38
350.037	283.38
350.265	291.38
350.492	288.38
350.72	289.38
350.947	295.38
351.174	308.38
351.402	322.38
351.629	322.38
351.856	331.38
352.083	294.38
352.311	320.38
352.538	312.38
352.765	315.38
352.992	300.38
353.22	304.38
353.447	287.38
353.674	298.38
353.901	306.38
354.128	290.38
354.355	289.38
354.583	278.38
354.81	269.38
355.037	282.38
355.264	264.38
355.491	294.38
355.718	273.38
355.945	271.38
356.172	263.38
356.399	269.38
356.626	280.38
356.853	272.38
357.08	291.38
357.307	286.38
357.534	273.38
357.761	277.38
357.988	291.38
358.215	288.38
358.441	273.38
358.668	285.38
358.895	282.38
359.122	269.38
359.349	300.38
359.576	306.38
359.802	331.38
360.029	335.38
360.256	325.38
360.483	320.38
360.709	315.38
360.936	303.38
361.163	294.38
361.39	307.38
361.616	295.38
361.843	294.38
362.07	285.38
362.296	295.38
362.523	293.38
362.749	321.38
362.976	289.38
363.203	299.38
363.429	290.38
363.656	291.38
363.882	282.38
364.109	292.38
364.335	270.38
364.562	299.38
364.788	276.38
365.015	279.38
365.241	280.38
365.468	300.38
365.694	305.38
365.92	296.38
366.147	279.38
366.373	281.38
366.599	288.38
366.826	269.38
367.052	278.38
367.278	279.38
367.505	264.38
367.731	276.38
367.957	271.38
368.184	270.38
368.41	290.38
368.636	287.38
368.862	308.38
369.089	271.38
369.315	272.38
369.541	283.38
369.767	266.38
369.993	286.38
370.219	267.38
370.445	293.38
370.672	270.38
370.898	263.38
371.124	265.38
371.35	269.38
371.576	267.38
371.802	287.38
372.028	268.38
372.254	269.38
372.48	266.38
372.706	273.38
372.932	265.38
373.158	273.38
373.384	263.38
373.61	264.38
373.835	272.38
374.061	274.38
374.287	284.38
374.513	261.38
374.739	266.38
374.965	266.38
375.191	284.38
375.416	261.38
375.642	283.38
375.868	282.38
376.094	254.38
376.319	282.38
376.545	262.38
376.771	271.38
376.997	277.38
377.222	269.38
377.448	266.38
377.674	273.38
377.899	264.38
378.125	275.38
378.35	266.38
378.576	263.38
378.802	268.38
379.027	272.38
379.253	280.38
379.478	272.38
379.704	276.38
379.929	260.38
380.155	276.38
380.38	265.38
380.606	276.38
380.831	274.38
381.057	268.38
381.282	258.38
381.507	265.38
381.733	276.38
381.958	280.38
382.184	268.38
382.409	292.38
382.634	277.38
382.86	286.38
383.085	263.38
383.31	285.38
383.535	282.38
383.761	273.38
383.986	286.38
384.211	302.38
384.436	264.38
384.662	288.38
384.887	285.38
385.112	286.38
385.337	281.38
385.562	298.38
385.787	287.38
386.013	288.38
386.238	270.38
386.463	278.38
386.688	288.38
386.913	284.38
387.138	300.38
387.363	281.38
387.588	286.38
387.813	271.38
388.038	288.38
388.263	299.38
388.488	270.38
388.713	271.38
388.938	284.38
389.163	263.38
389.387	270.38
389.612	268.38
389.837	284.38
390.062	288.38
390.287	280.38
390.512	275.38
390.736	269.38
390.961	276.38
391.186	250.38
391.411	273.38
391.636	300.38
391.86	276.38
392.085	269.38
392.31	304.38
392.534	288.38
392.759	277.38
392.984	275.38
393.208	285.38
393.433	290.38
393.658	282.38
393.882	268.38
394.107	290.38
394.331	292.38
394.556	277.38
394.78	275.38
395.005	287.38
395.229	281.38
395.454	284.38
395.678	288.38
395.903	293.38
396.127	324.38
396.352	316.38
396.576	289.38
396.801	282.38
397.025	307.38
397.249	290.38
397.474	300.38
397.698	316.38
397.922	311.38
398.147	318.38
398.371	306.38
398.595	304.38
398.82	306.38
399.044	316.38
399.268	321.38
399.492	346.38
399.717	350.38
399.941	371.38
400.165	376.38
400.389	372.38
400.613	343.38
400.837	327.38
401.062	318.38
401.286	309.38
401.51	310.38
401.734	308.38
401.958	318.38
402.182	332.38
402.406	317.38
402.63	331.38
402.854	312.38
403.078	314.38
403.302	333.38
403.526	312.38
403.75	340.38
403.974	333.38
404.198	301.38
404.422	303.38
404.645	346.38
404.869	323.38
405.093	340.38
405.317	372.38
405.541	395.38
405.765	370.38
405.988	328.38
406.212	351.38
406.436	343.38
406.66	363.38
406.883	343.38
407.107	375.38
407.331	389.38
407.555	422.38
407.778	422.38
408.002	406.38
408.226	342.38
408.449	356.38
408.673	360.38
408.896	377.38
409.12	383.38
409.344	364.38
409.567	348.38
409.791	331.38
410.014	324.38
410.238	318.38
410.461	306.38
410.685	326.38
410.908	326.38
411.132	353.38
411.355	355.38
411.578	376.38
411.802	330.38
412.025	322.38
412.249	334.38
412.472	348.38
412.695	338.38
412.919	347.38
413.142	329.38
413.365	302.38
413.589	320.38
413.812	306.38
414.035	299.38
414.258	288.38
414.482	312.38
414.705	288.38
414.928	299.38
415.151	300.38
415.374	303.38
415.597	323.38
415.821	301.38
416.044	286.38
416.267	330.38
416.49	293.38
416.713	286.38
416.936	316.38
417.159	304.38
417.382	322.38
417.605	317.38
417.828	307.38
418.051	322.38
418.274	318.38
418.497	321.38
418.72	304.38
418.943	300.38
419.166	327.38
419.389	315.38
419.611	311.38
419.834	321.38
420.057	313.38
420.28	318.38
420.503	320.38
420.726	326.38
420.948	322.38
421.171	343.38
421.394	362.38
421.617	324.38
421.839	329.38
422.062	322.38
422.285	336.38
422.507	361.38
422.73	401.38
422.953	411.38
423.175	359.38
423.398	343.38
423.621	316.38
423.843	324.38
424.066	339.38
424.288	345.38
424.511	338.38
424.733	393.38
424.956	420.38
425.178	425.38
425.401	388.38
425.623	408.38
425.846	378.38
426.068	354.38
426.291	360.38
426.513	345.38
426.735	333.38
426.958	376.38
427.18	428.38
427.402	510.38
427.625	568.38
427.847	474.38
428.069	438.38
428.292	381.38
428.514	368.38
428.736	324.38
428.958	335.38
429.181	321.38
429.403	313.38
429.625	342.38
429.847	353.38
430.069	388.38
430.292	391.38
430.514	327.38
430.736	317.38
430.958	330.38
431.18	311.38
431.402	292.38
431.624	309.38
431.846	302.38
432.068	326.38
432.29	309.38
432.512	296.38
432.734	330.38
432.956	296.38
433.178	300.38
433.4	315.38
433.622	314.38
433.844	306.38
434.066	308.38
434.287	292.38
434.509	306.38
434.731	306.38
434.953	324.38
435.175	330.38
435.397	356.38
435.618	349.38
435.84	391.38
436.062	454.38
436.284	460.38
436.505	394.38
436.727	366.38
436.949	340.38
437.17	320.38
437.392	320.38
437.614	347.38
437.835	351.38
438.057	417.38
438.278	463.38
438.5	474.38
438.721	511.38
438.943	466.38
439.165	418.38
439.386	354.38
439.608	360.38
439.829	360.38
440.05	371.38
440.272	386.38
440.493	364.38
440.715	338.38
440.936	337.38
441.158	323.38
441.379	333.38
441.6	340.38
441.822	336.38
442.043	367.38
442.264	419.38
442.486	424.38
442.707	394.38
442.928	384.38
443.149	354.38
443.371	391.38
443.592	408.38
443.813	437.38
444.034	478.38
444.255	398.38
444.476	365.38
444.698	334.38
444.919	347.38
445.14	438.38
445.361	384.38
445.582	367.38
445.803	414.38
446.024	460.38
446.245	486.38
446.466	444.38
446.687	386.38
446.908	356.38
447.129	338.38
447.35	339.38
447.571	320.38
447.792	317.38
448.013	322.38
448.234	351.38
448.455	375.38
448.675	437.38
448.896	523.38
449.117	415.38
449.338	429.38
449.559	487.38
449.779	535.38
450	419.38
450.221	355.38
450.442	346.38
450.662	343.38
450.883	342.38
451.104	336.38
451.324	332.38
451.545	295.38
451.766	298.38
451.986	294.38
452.207	278.38
452.428	285.38
452.648	291.38
452.869	319.38
453.089	308.38
453.31	299.38
453.53	312.38
453.751	310.38
453.971	300.38
454.192	319.38
454.412	303.38
454.633	287.38
454.853	298.38
455.073	299.38
455.294	310.38
455.514	343.38
455.734	338.38
455.955	296.38
456.175	272.38
456.395	284.38
456.616	292.38
456.836	290.38
457.056	283.38
457.276	268.38
457.497	283.38
457.717	263.38
457.937	300.38
458.157	288.38
458.377	299.38
458.598	292.38
458.818	353.38
459.038	370.38
459.258	370.38
459.478	320.38
459.698	306.38
459.918	282.38
460.138	301.38
460.358	291.38
460.578	304.38
460.798	303.38
461.018	293.38
461.238	299.38
461.458	286.38
461.678	292.38
461.898	292.38
462.118	291.38
462.338	307.38
462.558	316.38
462.777	300.38
462.997	302.38
463.217	331.38
463.437	317.38
463.657	309.38
463.876	305.38
464.096	323.38
464.316	306.38
464.536	301.38
464.755	317.38
464.975	344.38
465.195	359.38
465.414	390.38
465.634	378.38
465.854	311.38
466.073	302.38
466.293	297.38
466.512	303.38
466.732	297.38
466.951	307.38
467.171	307.38
467.391	292.38
467.61	307.38
467.829	310.38
468.049	319.38
468.268	295.38
468.488	306.38
468.707	286.38
468.927	291.38
469.146	280.38
469.365	279.38
469.585	280.38
469.804	300.38
470.023	294.38
470.243	304.38
470.462	290.38
470.681	330.38
470.901	312.38
471.12	296.38
471.339	301.38
471.558	303.38
471.777	302.38
471.997	289.38
472.216	296.38
472.435	323.38
472.654	311.38
472.873	297.38
473.092	282.38
473.311	309.38
473.53	303.38
473.749	318.38
473.968	356.38
474.187	404.38
474.406	403.38
474.625	340.38
474.844	329.38
475.063	304.38
475.282	293.38
475.501	312.38
475.72	311.38
475.939	304.38
476.158	308.38
476.377	323.38
476.596	304.38
476.814	314.38
477.033	318.38
477.252	320.38
477.471	313.38
477.69	322.38
477.908	326.38
478.127	315.38
478.346	319.38
478.564	325.38
478.783	345.38
479.002	322.38
479.22	324.38
479.439	346.38
479.658	364.38
479.876	367.38
480.095	345.38
480.313	377.38
480.532	360.38
480.751	350.38
480.969	378.38
481.188	399.38
481.406	410.38
481.624	387.38
481.843	363.38
482.061	342.38
482.28	364.38
482.498	365.38
482.717	332.38
482.935	360.38
483.153	363.38
483.372	346.38
483.59	334.38
483.808	345.38
484.027	330.38
484.245	347.38
484.463	341.38
484.681	370.38
484.9	354.38
485.118	357.38
485.336	345.38
485.554	341.38
485.772	357.38
485.99	350.38
486.209	358.38
486.427	353.38
486.645	363.38
486.863	378.38
487.081	386.38
487.299	375.38
487.517	375.38
487.735	351.38
487.953	383.38
488.171	358.38
488.389	362.38
488.607	367.38
488.825	338.38
489.043	399.38
489.261	372.38
489.479	376.38
489.696	361.38
489.914	373.38
490.132	384.38
490.35	390.38
490.568	400.38
490.786	398.38
491.003	387.38
491.221	392.38
491.439	420.38
491.657	412.38
491.874	412.38
492.092	429.38
492.31	440.38
492.527	404.38
492.745	410.38
492.963	417.38
493.18	406.38
493.398	436.38
493.615	434.38
493.833	446.38
494.05	429.38
494.268	442.38
494.485	420.38
494.703	403.38
494.92	434.38
495.138	420.38
495.355	451.38
495.573	431.38
495.79	429.38
496.008	445.38
496.225	429.38
496.442	426.38
496.66	439.38
496.877	427.38
497.094	441.38
497.312	443.38
497.529	449.38
497.746	423.38
497.963	463.38
498.181	484.38
498.398	461.38
498.615	479.38
498.832	474.38
499.049	463.38
499.267	467.38
499.484	494.38
499.701	500.38
499.918	513.38
500.135	518.38
500.352	554.38
500.569	542.38
500.786	520.38
501.003	539.38
501.22	518.38
501.437	499.38
501.654	526.38
501.871	516.38
502.088	520.38
502.305	487.38
502.522	454.38
502.739	478.38
502.956	455.38
503.172	438.38
503.389	455.38
503.606	454.38
503.823	435.38
504.04	418.38
504.256	431.38
504.473	430.38
504.69	425.38
504.907	444.38
505.123	429.38
505.34	417.38
505.557	405.38
505.773	412.38
505.99	412.38
506.207	420.38
506.423	442.38
506.64	391.38
506.856	415.38
507.073	419.38
507.289	424.38
507.506	398.38
507.722	420.38
507.939	410.38
508.155	419.38
508.372	408.38
508.588	406.38
508.805	401.38
509.021	413.38
509.238	395.38
509.454	423.38
509.67	404.38
509.887	407.38
510.103	400.38
510.319	410.38
510.536	484.38
510.752	789.38
510.968	617.38
511.184	434.38
511.401	403.38
511.617	398.38
511.833	392.38
512.049	364.38
512.265	384.38
512.481	388.38
512.698	394.38
512.914	376.38
513.13	373.38
513.346	371.38
513.562	411.38
513.778	390.38
513.994	398.38
514.21	381.38
514.426	398.38
514.642	432.38
514.858	479.38
515.074	501.38
515.29	610.38
515.506	875.38
515.721	675.38
515.937	456.38
516.153	426.38
516.369	422.38
516.585	391.38
516.801	393.38
517.016	378.38
517.232	383.38
517.448	397.38
517.664	401.38
517.879	389.38
518.095	396.38
518.311	380.38
518.527	375.38
518.742	379.38
518.958	388.38
519.173	370.38
519.389	362.38
519.605	384.38
519.82	393.38
520.036	408.38
520.251	416.38
520.467	427.38
520.682	425.38
520.898	431.38
521.113	443.38
521.329	480.38
521.544	532.38
521.76	692.38
521.975	1164.38
522.19	1056.38
522.406	580.38
522.621	445.38
522.836	408.38
523.052	391.38
523.267	376.38
523.482	378.38
523.698	374.38
523.913	350.38
524.128	345.38
524.343	346.38
524.559	352.38
524.774	343.38
524.989	331.38
525.204	355.38
525.419	336.38
525.634	332.38
525.849	318.38
526.064	308.38
526.28	318.38
526.495	326.38
526.71	333.38
526.925	319.38
527.14	316.38
527.355	300.38
527.57	319.38
527.785	322.38
527.999	312.38
528.214	327.38
528.429	319.38
528.644	346.38
528.859	324.38
529.074	307.38
529.289	341.38
529.503	399.38
529.718	370.38
529.933	345.38
530.148	316.38
530.363	310.38
530.577	301.38
530.792	326.38
531.007	322.38
531.221	314.38
531.436	322.38
531.651	303.38
531.865	308.38
532.08	311.38
532.295	312.38
532.509	301.38
532.724	294.38
532.938	303.38
533.153	320.38
533.367	285.38
533.582	300.38
533.796	301.38
534.011	291.38
534.225	300.38
534.44	313.38
534.654	290.38
534.868	290.38
535.083	286.38
535.297	300.38
535.511	298.38
535.726	294.38
535.94	327.38
536.154	302.38
536.369	287.38
536.583	295.38
536.797	295.38
537.011	304.38
537.225	306.38
537.44	287.38
537.654	290.38
537.868	300.38
538.082	296.38
538.296	280.38
538.51	292.38
538.724	299.38
538.938	309.38
539.153	311.38
539.367	310.38
539.581	303.38
539.795	289.38
540.009	286.38
540.222	289.38
540.436	303.38
540.65	290.38
540.864	298.38
541.078	317.38
541.292	316.38
541.506	288.38
541.72	287.38
541.934	282.38
542.147	296.38
542.361	293.38
542.575	285.38
542.789	280.38
543.002	285.38
543.216	284.38
543.43	286.38
543.644	297.38
543.857	312.38
544.071	304.38
544.285	299.38
544.498	292.38
544.712	298.38
544.925	278.38
545.139	291.38
545.352	300.38
545.566	282.38
545.779	296.38
545.993	275.38
546.206	275.38
546.42	287.38
546.633	301.38
546.847	284.38
547.06	285.38
547.274	266.38
547.487	270.38
547.7	256.38
547.914	258.38
548.127	284.38
548.34	277.38
548.554	282.38
548.767	292.38
548.98	279.38
549.193	294.38
549.407	268.38
549.62	287.38
549.833	269.38
550.046	282.38
550.259	270.38
550.473	268.38
550.686	277.38
550.899	269.38
551.112	263.38
551.325	272.38
551.538	259.38
551.751	275.38
551.964	262.38
552.177	251.38
552.39	262.38
552.603	265.38
552.816	268.38
553.029	263.38
553.242	286.38
553.455	272.38
553.667	272.38
553.88	277.38
554.093	296.38
554.306	261.38
554.519	262.38
554.732	271.38
554.944	282.38
555.157	262.38
555.37	251.38
555.583	268.38
555.795	270.38
556.008	261.38
556.221	259.38
556.433	250.38
556.646	246.38
556.859	255.38
557.071	244.38
557.284	243.38
557.496	239.38
557.709	248.38
557.921	265.38
558.134	234.38
558.346	249.38
558.559	260.38
558.771	265.38
558.984	239.38
559.196	232.38
559.409	247.38
559.621	246.38
559.833	250.38
560.046	235.38
560.258	232.38
560.47	243.38
560.683	254.38
560.895	246.38
561.107	243.38
561.32	253.38
561.532	236.38
561.744	247.38
561.956	258.38
562.168	267.38
562.381	244.38
562.593	236.38
562.805	239.38
563.017	242.38
563.229	249.38
563.441	237.38
563.653	237.38
563.865	250.38
564.077	250.38
564.289	258.38
564.501	249.38
564.713	269.38
564.925	265.38
565.137	262.38
565.349	252.38
565.561	274.38
565.773	249.38
565.985	262.38
566.197	268.38
566.408	266.38
566.62	283.38
566.832	272.38
567.044	294.38
567.255	272.38
567.467	276.38
567.679	271.38
567.891	297.38
568.102	261.38
568.314	269.38
568.526	287.38
568.737	257.38
568.949	275.38
569.161	269.38
569.372	259.38
569.584	244.38
569.795	239.38
570.007	267.38
570.218	305.38
570.43	277.38
570.641	232.38
570.853	252.38
571.064	252.38
571.276	224.38
571.487	238.38
571.698	235.38
571.91	238.38
572.121	221.38
572.333	236.38
572.544	215.38
572.755	228.38
572.966	226.38
573.178	218.38
573.389	215.38
573.6	229.38
573.811	222.38
574.023	213.38
574.234	205.38
574.445	212.38
574.656	216.38
574.867	220.38
575.078	218.38
575.289	238.38
575.501	226.38
575.712	210.38
575.923	213.38
576.134	212.38
576.345	223.38
576.556	210.38
576.767	207.38
576.978	208.38
577.188	234.38
577.399	204.38
577.61	211.38
577.821	220.38
578.032	224.38
578.243	239.38
578.454	389.38
578.665	295.38
578.875	225.38
579.086	208.38
579.297	207.38
579.508	216.38
579.718	196.38
579.929	212.38
580.14	213.38
580.35	219.38
580.561	222.38
580.772	215.38
580.982	211.38
581.193	202.38
581.403	198.38
581.614	193.38
581.825	206.38
582.035	192.38
582.246	199.38
582.456	194.38
582.667	187.38
582.877	221.38
583.087	212.38
583.298	194.38
583.508	214.38
583.719	203.38
583.929	204.38
584.139	208.38
584.35	199.38
584.56	211.38
584.77	212.38
584.981	208.38
585.191	194.38
585.401	202.38
585.611	196.38
585.821	208.38
586.032	197.38
586.242	192.38
586.452	204.38
586.662	167.38
586.872	191.38
587.082	206.38
587.292	187.38
587.502	191.38
587.713	189.38
587.923	208.38
588.133	207.38
588.343	187.38
588.553	194.38
588.762	189.38
588.972	209.38
589.182	202.38
589.392	199.38
589.602	206.38
589.812	222.38
590.022	202.38
590.232	195.38
590.441	191.38
590.651	175.38
590.861	205.38
591.071	182.38
591.281	202.38
591.49	196.38
591.7	201.38
591.91	196.38
592.119	211.38
592.329	183.38
592.539	190.38
592.748	193.38
592.958	208.38
593.167	189.38
593.377	191.38
593.587	191.38
593.796	204.38
594.006	212.38
594.215	200.38
594.424	218.38
594.634	187.38
594.843	194.38
595.053	194.38
595.262	197.38
595.472	189.38
595.681	207.38
595.89	192.38
596.1	196.38
596.309	197.38
596.518	184.38
596.727	187.38
596.937	183.38
597.146	185.38
597.355	204.38
597.564	198.38
597.774	183.38
597.983	182.38
598.192	195.38
598.401	194.38
598.61	191.38
598.819	194.38
599.028	174.38
599.237	184.38
599.446	187.38
599.655	188.38
599.864	186.38
600.073	171.38
600.282	202.38
600.491	172.38
600.7	186.38
600.909	189.38
601.118	170.38
601.327	168.38
601.536	188.38
601.745	191.38
601.953	184.38
602.162	181.38
602.371	192.38
602.58	179.38
602.789	178.38
602.997	176.38
603.206	166.38
603.415	172.38
603.623	192.38
603.832	179.38
604.041	179.38
604.249	182.38
604.458	174.38
604.666	173.38
604.875	179.38
605.084	166.38
605.292	186.38
605.501	152.38
605.709	164.38
605.918	174.38
606.126	171.38
606.334	160.38
606.543	173.38
606.751	166.38
606.96	175.38
607.168	174.38
607.376	163.38
607.585	172.38
607.793	182.38
608.001	186.38
608.21	164.38
608.418	165.38
608.626	163.38
608.834	167.38
609.043	175.38
609.251	169.38
609.459	169.38
609.667	159.38
609.875	162.38
610.083	187.38
610.291	166.38
610.499	163.38
610.707	175.38
610.916	181.38
611.124	188.38
611.332	171.38
611.54	187.38
611.748	169.38
611.955	163.38
612.163	185.38
612.371	176.38
612.579	182.38
612.787	170.38
612.995	172.38
613.203	195.38
613.411	184.38
613.618	161.38
613.826	155.38
614.034	144.38
614.242	183.38
614.449	166.38
614.657	172.38
614.865	169.38
615.072	174.38
615.28	181.38
615.488	164.38
615.695	180.38
615.903	171.38
616.111	156.38
616.318	167.38
616.526	170.38
616.733	176.38
616.941	170.38
617.148	180.38
617.356	178.38
617.563	160.38
617.771	170.38
617.978	158.38
618.185	174.38
618.393	174.38
618.6	161.38
618.807	156.38
619.015	189.38
619.222	174.38
619.429	166.38
619.637	163.38
619.844	156.38
620.051	155.38
620.258	158.38
620.466	165.38
620.673	158.38
620.88	166.38
621.087	162.38
621.294	173.38
621.501	140.38
621.708	156.38
621.915	155.38
622.122	167.38
622.329	146.38
622.536	162.38
622.743	160.38
622.95	152.38
623.157	156.38
623.364	162.38
623.571	155.38
623.778	151.38
623.985	167.38
624.192	160.38
624.399	168.38
624.606	159.38
624.812	160.38
625.019	155.38
625.226	152.38
625.433	165.38
625.639	160.38
625.846	152.38
626.053	164.38
626.259	148.38
626.466	149.38
626.673	151.38
626.879	163.38
627.086	169.38
627.293	162.38
627.499	144.38
627.706	152.38
627.912	156.38
628.119	162.38
628.325	158.38
628.532	151.38
628.738	142.38
628.945	148.38
629.151	154.38
629.357	149.38
629.564	160.38
629.77	144.38
629.976	146.38
630.183	154.38
630.389	143.38
630.595	140.38
630.802	150.38
631.008	150.38
631.214	160.38
631.42	153.38
631.627	142.38
631.833	151.38
632.039	151.38
632.245	134.38
632.451	139.38
632.657	133.38
632.863	127.38
633.069	130.38
633.275	159.38
633.481	125.38
633.688	148.38
633.893	149.38
634.099	134.38
634.305	138.38
634.511	136.38
634.717	144.38
634.923	152.38
635.129	126.38
635.335	135.38
635.541	130.38
635.747	145.38
635.952	119.38
636.158	139.38
636.364	127.38
636.57	128.38
636.775	151.38
636.981	144.38
637.187	140.38
637.392	140.38
637.598	160.38
637.804	151.38
638.009	140.38
638.215	132.38
638.421	138.38
638.626	132.38
638.832	128.38
639.037	120.38
639.243	140.38
639.448	138.38
639.654	121.38
639.859	134.38
640.065	140.38
640.27	145.38
640.475	125.38
640.681	130.38
640.886	154.38
641.091	136.38
641.297	134.38
641.502	130.38
641.707	131.38
641.913	145.38
642.118	130.38
642.323	134.38
642.528	132.38
642.733	139.38
642.939	137.38
643.144	139.38
643.349	136.38
643.554	148.38
643.759	137.38
643.964	125.38
644.169	122.38
644.374	139.38
644.579	130.38
644.784	123.38
644.989	145.38
645.194	129.38
645.399	126.38
645.604	133.38
645.809	118.38
646.014	131.38
646.219	134.38
646.423	126.38
646.628	134.38
646.833	126.38
647.038	141.38
647.243	126.38
647.447	135.38
647.652	127.38
647.857	145.38
648.062	141.38
648.266	142.38
648.471	133.38
648.676	141.38
648.88	120.38
649.085	118.38
649.289	131.38
649.494	146.38
649.698	158.38
649.903	147.38
650.107	141.38
650.312	138.38
650.516	120.38
650.721	129.38
650.925	128.38
651.13	123.38
651.334	128.38
651.539	130.38
651.743	99.38
651.947	113.38
652.152	132.38
652.356	126.38
652.56	128.38
652.764	115.38
652.969	117.38
653.173	109.38
653.377	123.38
653.581	126.38
653.785	111.38
653.99	119.38
654.194	119.38
654.398	118.38
654.602	122.38
654.806	103.38
655.01	124.38
655.214	118.38
655.418	128.38
655.622	121.38
655.826	124.38
656.03	123.38
656.234	113.38
656.438	109.38
656.642	116.38
656.846	103.38
657.049	103.38
657.253	104.38
657.457	114.38
657.661	98.38
657.865	111.38
658.068	121.38
658.272	101.38
658.476	98.38
658.68	87.38
658.883	99.38
659.087	103.38
659.291	95.38
659.494	91.38
659.698	96.38
659.901	95.38
660.105	102.38
660.309	93.38
660.512	94.38
660.716	101.38
660.919	94.38
661.123	86.38
661.326	95.38
661.53	80.38
661.733	92.38
661.936	95.38
662.14	85.38
662.343	86.38
662.546	98.38
662.75	95.38
662.953	94.38
663.156	103.38
663.36	87.38
663.563	88.38
663.766	97.38
663.969	93.38
664.173	81.38
664.376	84.38
664.579	83.38
664.782	93.38
664.985	74.38
665.188	88.38
665.391	77.38
665.594	83.38
665.797	81.38
666	89.38
666.203	93.38
666.406	83.38
666.609	70.38
666.812	74.38
667.015	84.38
667.218	92.38
667.421	89.38
667.624	79.38
667.827	86.38
668.03	85.38
668.232	78.38
668.435	92.38
668.638	79.38
668.841	85.38
669.043	78.38
669.246	88.38
669.449	94.38
669.651	87.38
669.854	75.38
670.057	79.38
670.259	86.38
670.462	77.38
670.665	78.38
670.867	78.38
671.07	80.38
671.272	77.38
671.475	83.38
671.677	87.38
671.88	85.38
672.082	80.38
672.284	88.38
672.487	100.38
672.689	89.38
672.892	90.38
