Data from 1982.PennyLincolnUp.Lamp.En5.5.200Scan.071819.P1_HRD10591_16-45-56-961.txt Node
Date: Thu Jul 18 16:45:56 EDT 2019
User: cochatt
Spectrometer: HR+D1059
Trigger mode: 1
Integration Time (sec): 1.000000E-1
Scans to average: 1
Electric dark correction enabled: true
Nonlinearity correction enabled: false
Boxcar width: 0
XAxis mode: Wavelengths
Number of Pixels in Spectrum: 2048
>>>>>Begin Spectral Data<<<<<
223.165	-35.94
223.4	-35.94
223.635	-35.94
223.869	-16.94
224.104	-21.94
224.338	-7.94
224.573	-14.94
224.808	-13.94
225.042	-15.94
225.277	-2.94
225.511	1.06
225.746	4.06
225.98	17.06
226.215	9.06
226.449	22.06
226.683	30.06
226.918	28.06
227.152	19.06
227.387	37.06
227.621	54.06
227.856	50.06
228.09	44.06
228.324	42.06
228.559	51.06
228.793	70.06
229.027	82.06
229.262	88.06
229.496	113.06
229.73	100.06
229.964	110.06
230.199	104.06
230.433	103.06
230.667	97.06
230.901	96.06
231.136	106.06
231.37	102.06
231.604	92.06
231.838	102.06
232.072	92.06
232.306	100.06
232.541	99.06
232.775	85.06
233.009	98.06
233.243	112.06
233.477	99.06
233.711	120.06
233.945	106.06
234.179	96.06
234.413	104.06
234.647	120.06
234.881	105.06
235.115	104.06
235.349	99.06
235.583	88.06
235.817	111.06
236.051	97.06
236.285	118.06
236.519	103.06
236.753	123.06
236.987	112.06
237.221	131.06
237.455	170.06
237.689	142.06
237.922	120.06
238.156	117.06
238.39	102.06
238.624	116.06
238.858	102.06
239.091	92.06
239.325	120.06
239.559	120.06
239.793	107.06
240.027	115.06
240.26	120.06
240.494	117.06
240.728	105.06
240.961	132.06
241.195	111.06
241.429	104.06
241.662	103.06
241.896	112.06
242.13	119.06
242.363	103.06
242.597	96.06
242.83	111.06
243.064	120.06
243.298	130.06
243.531	107.06
243.765	111.06
243.998	134.06
244.232	107.06
244.465	118.06
244.699	111.06
244.932	114.06
245.166	123.06
245.399	110.06
245.633	120.06
245.866	119.06
246.099	127.06
246.333	134.06
246.566	134.06
246.8	125.06
247.033	114.06
247.266	128.06
247.5	136.06
247.733	147.06
247.966	149.06
248.2	140.06
248.433	118.06
248.666	139.06
248.899	155.06
249.133	153.06
249.366	175.06
249.599	152.06
249.832	143.06
250.066	147.06
250.299	147.06
250.532	159.06
250.765	145.06
250.998	159.06
251.231	176.06
251.465	170.06
251.698	142.06
251.931	160.06
252.164	154.06
252.397	158.06
252.63	144.06
252.863	177.06
253.096	180.06
253.329	169.06
253.562	157.06
253.795	163.06
254.028	171.06
254.261	169.06
254.494	171.06
254.727	190.06
254.96	213.06
255.193	199.06
255.426	186.06
255.659	166.06
255.892	178.06
256.124	174.06
256.357	170.06
256.59	164.06
256.823	173.06
257.056	172.06
257.289	164.06
257.521	166.06
257.754	158.06
257.987	154.06
258.22	194.06
258.452	168.06
258.685	156.06
258.918	167.06
259.151	174.06
259.383	178.06
259.616	166.06
259.849	187.06
260.081	179.06
260.314	175.06
260.547	190.06
260.779	196.06
261.012	180.06
261.244	174.06
261.477	177.06
261.71	167.06
261.942	152.06
262.175	180.06
262.407	185.06
262.64	171.06
262.872	170.06
263.105	148.06
263.337	174.06
263.57	154.06
263.802	157.06
264.035	155.06
264.267	149.06
264.499	179.06
264.732	159.06
264.964	160.06
265.197	172.06
265.429	159.06
265.661	154.06
265.894	161.06
266.126	165.06
266.358	167.06
266.591	163.06
266.823	178.06
267.055	180.06
267.287	178.06
267.52	181.06
267.752	178.06
267.984	179.06
268.216	163.06
268.448	181.06
268.681	178.06
268.913	184.06
269.145	205.06
269.377	212.06
269.609	194.06
269.841	205.06
270.073	226.06
270.306	206.06
270.538	237.06
270.77	218.06
271.002	229.06
271.234	203.06
271.466	218.06
271.698	232.06
271.93	243.06
272.162	252.06
272.394	229.06
272.626	224.06
272.858	229.06
273.09	193.06
273.322	202.06
273.553	193.06
273.785	208.06
274.017	207.06
274.249	211.06
274.481	183.06
274.713	193.06
274.945	186.06
275.176	206.06
275.408	200.06
275.64	215.06
275.872	190.06
276.104	212.06
276.335	197.06
276.567	207.06
276.799	228.06
277.031	228.06
277.262	224.06
277.494	223.06
277.726	224.06
277.957	220.06
278.189	211.06
278.421	196.06
278.652	212.06
278.884	207.06
279.115	200.06
279.347	206.06
279.579	180.06
279.81	193.06
280.042	190.06
280.273	194.06
280.505	195.06
280.736	198.06
280.968	202.06
281.199	195.06
281.431	198.06
281.662	196.06
281.894	204.06
282.125	217.06
282.356	215.06
282.588	232.06
282.819	218.06
283.051	199.06
283.282	208.06
283.513	206.06
283.745	208.06
283.976	208.06
284.207	210.06
284.439	207.06
284.67	218.06
284.901	209.06
285.132	203.06
285.364	203.06
285.595	203.06
285.826	204.06
286.057	213.06
286.288	205.06
286.52	189.06
286.751	223.06
286.982	192.06
287.213	188.06
287.444	207.06
287.675	214.06
287.906	225.06
288.138	205.06
288.369	213.06
288.6	222.06
288.831	217.06
289.062	209.06
289.293	194.06
289.524	197.06
289.755	185.06
289.986	210.06
290.217	224.06
290.448	208.06
290.679	219.06
290.91	208.06
291.141	195.06
291.371	200.06
291.602	215.06
291.833	206.06
292.064	217.06
292.295	204.06
292.526	199.06
292.757	198.06
292.987	196.06
293.218	206.06
293.449	201.06
293.68	203.06
293.91	219.06
294.141	210.06
294.372	209.06
294.603	203.06
294.833	209.06
295.064	216.06
295.295	224.06
295.525	203.06
295.756	203.06
295.987	214.06
296.217	227.06
296.448	237.06
296.679	225.06
296.909	212.06
297.14	214.06
297.37	228.06
297.601	194.06
297.831	196.06
298.062	217.06
298.292	207.06
298.523	209.06
298.753	212.06
298.984	230.06
299.214	223.06
299.445	211.06
299.675	225.06
299.905	220.06
300.136	232.06
300.366	233.06
300.597	214.06
300.827	229.06
301.057	234.06
301.288	223.06
301.518	246.06
301.748	227.06
301.979	237.06
302.209	233.06
302.439	226.06
302.669	235.06
302.9	236.06
303.13	223.06
303.36	242.06
303.59	233.06
303.82	223.06
304.051	256.06
304.281	227.06
304.511	227.06
304.741	234.06
304.971	221.06
305.201	241.06
305.431	235.06
305.661	230.06
305.891	232.06
306.121	231.06
306.352	237.06
306.582	248.06
306.812	216.06
307.042	240.06
307.272	223.06
307.502	244.06
307.731	229.06
307.961	237.06
308.191	248.06
308.421	223.06
308.651	248.06
308.881	233.06
309.111	232.06
309.341	242.06
309.571	240.06
309.8	249.06
310.03	248.06
310.26	273.06
310.49	277.06
310.72	267.06
310.949	285.06
311.179	281.06
311.409	266.06
311.639	264.06
311.868	267.06
312.098	272.06
312.328	296.06
312.557	291.06
312.787	291.06
313.017	293.06
313.246	269.06
313.476	276.06
313.706	254.06
313.935	278.06
314.165	275.06
314.394	289.06
314.624	281.06
314.853	279.06
315.083	274.06
315.312	260.06
315.542	275.06
315.771	268.06
316.001	260.06
316.23	260.06
316.46	282.06
316.689	256.06
316.919	256.06
317.148	282.06
317.377	274.06
317.607	266.06
317.836	276.06
318.065	281.06
318.295	280.06
318.524	261.06
318.753	265.06
318.983	271.06
319.212	260.06
319.441	246.06
319.67	281.06
319.9	271.06
320.129	266.06
320.358	271.06
320.587	280.06
320.816	272.06
321.046	292.06
321.275	282.06
321.504	286.06
321.733	291.06
321.962	290.06
322.191	311.06
322.42	306.06
322.649	318.06
322.878	339.06
323.108	328.06
323.337	363.06
323.566	390.06
323.795	386.06
324.024	447.06
324.253	559.06
324.482	813.06
324.71	1186.06
324.939	1559.06
325.168	1261.06
325.397	682.06
325.626	479.06
325.855	400.06
326.084	372.06
326.313	380.06
326.542	368.06
326.77	421.06
326.999	506.06
327.228	715.06
327.457	997.06
327.686	1141.06
327.914	733.06
328.143	514.06
328.372	438.06
328.6	426.06
328.829	433.06
329.058	410.06
329.287	429.06
329.515	406.06
329.744	376.06
329.972	375.06
330.201	408.06
330.43	392.06
330.658	445.06
330.887	431.06
331.115	426.06
331.344	359.06
331.572	364.06
331.801	355.06
332.03	371.06
332.258	339.06
332.486	301.06
332.715	306.06
332.943	302.06
333.172	317.06
333.4	319.06
333.629	325.06
333.857	339.06
334.085	334.06
334.314	336.06
334.542	348.06
334.771	373.06
334.999	324.06
335.227	321.06
335.455	314.06
335.684	296.06
335.912	298.06
336.14	310.06
336.369	313.06
336.597	316.06
336.825	322.06
337.053	289.06
337.281	311.06
337.51	312.06
337.738	295.06
337.966	316.06
338.194	307.06
338.422	314.06
338.65	312.06
338.878	310.06
339.106	287.06
339.334	278.06
339.562	294.06
339.79	307.06
340.018	312.06
340.246	294.06
340.474	289.06
340.702	284.06
340.93	296.06
341.158	298.06
341.386	280.06
341.614	307.06
341.842	302.06
342.07	307.06
342.298	307.06
342.526	285.06
342.754	284.06
342.981	270.06
343.209	269.06
343.437	284.06
343.665	279.06
343.893	291.06
344.12	286.06
344.348	287.06
344.576	302.06
344.804	286.06
345.031	296.06
345.259	319.06
345.487	307.06
345.714	306.06
345.942	281.06
346.17	295.06
346.397	282.06
346.625	288.06
346.853	297.06
347.08	272.06
347.308	288.06
347.535	293.06
347.763	310.06
347.99	291.06
348.218	300.06
348.445	298.06
348.673	315.06
348.9	302.06
349.128	292.06
349.355	303.06
349.583	270.06
349.81	266.06
350.037	264.06
350.265	270.06
350.492	278.06
350.72	287.06
350.947	303.06
351.174	299.06
351.402	286.06
351.629	286.06
351.856	287.06
352.083	305.06
352.311	311.06
352.538	312.06
352.765	290.06
352.992	294.06
353.22	279.06
353.447	284.06
353.674	280.06
353.901	279.06
354.128	281.06
354.355	251.06
354.583	254.06
354.81	270.06
355.037	262.06
355.264	275.06
355.491	264.06
355.718	259.06
355.945	257.06
356.172	255.06
356.399	259.06
356.626	239.06
356.853	261.06
357.08	277.06
357.307	252.06
357.534	252.06
357.761	279.06
357.988	252.06
358.215	250.06
358.441	257.06
358.668	265.06
358.895	258.06
359.122	283.06
359.349	262.06
359.576	274.06
359.802	298.06
360.029	313.06
360.256	334.06
360.483	308.06
360.709	282.06
360.936	266.06
361.163	284.06
361.39	275.06
361.616	289.06
361.843	283.06
362.07	264.06
362.296	273.06
362.523	289.06
362.749	287.06
362.976	279.06
363.203	263.06
363.429	250.06
363.656	237.06
363.882	255.06
364.109	264.06
364.335	257.06
364.562	262.06
364.788	266.06
365.015	260.06
365.241	266.06
365.468	266.06
365.694	279.06
365.92	277.06
366.147	254.06
366.373	257.06
366.599	258.06
366.826	267.06
367.052	276.06
367.278	283.06
367.505	257.06
367.731	252.06
367.957	251.06
368.184	271.06
368.41	251.06
368.636	272.06
368.862	281.06
369.089	276.06
369.315	270.06
369.541	243.06
369.767	244.06
369.993	259.06
370.219	264.06
370.445	252.06
370.672	253.06
370.898	245.06
371.124	261.06
371.35	260.06
371.576	253.06
371.802	262.06
372.028	261.06
372.254	264.06
372.48	247.06
372.706	259.06
372.932	249.06
373.158	268.06
373.384	262.06
373.61	258.06
373.835	278.06
374.061	245.06
374.287	281.06
374.513	277.06
374.739	249.06
374.965	250.06
375.191	250.06
375.416	259.06
375.642	249.06
375.868	263.06
376.094	248.06
376.319	244.06
376.545	260.06
376.771	242.06
376.997	259.06
377.222	251.06
377.448	255.06
377.674	258.06
377.899	252.06
378.125	251.06
378.35	271.06
378.576	256.06
378.802	236.06
379.027	250.06
379.253	272.06
379.478	253.06
379.704	254.06
379.929	263.06
380.155	253.06
380.38	236.06
380.606	268.06
380.831	265.06
381.057	257.06
381.282	225.06
381.507	238.06
381.733	247.06
381.958	243.06
382.184	253.06
382.409	248.06
382.634	245.06
382.86	247.06
383.085	265.06
383.31	252.06
383.535	272.06
383.761	269.06
383.986	265.06
384.211	265.06
384.436	264.06
384.662	264.06
384.887	268.06
385.112	256.06
385.337	263.06
385.562	260.06
385.787	264.06
386.013	274.06
386.238	256.06
386.463	278.06
386.688	269.06
386.913	268.06
387.138	274.06
387.363	267.06
387.588	274.06
387.813	268.06
388.038	252.06
388.263	245.06
388.488	260.06
388.713	262.06
388.938	277.06
389.163	244.06
389.387	262.06
389.612	262.06
389.837	267.06
390.062	283.06
390.287	248.06
390.512	256.06
390.736	272.06
390.961	252.06
391.186	260.06
391.411	253.06
391.636	258.06
391.86	266.06
392.085	264.06
392.31	264.06
392.534	271.06
392.759	279.06
392.984	265.06
393.208	270.06
393.433	271.06
393.658	264.06
393.882	270.06
394.107	261.06
394.331	284.06
394.556	259.06
394.78	266.06
395.005	267.06
395.229	263.06
395.454	263.06
395.678	265.06
395.903	271.06
396.127	265.06
396.352	286.06
396.576	276.06
396.801	287.06
397.025	270.06
397.249	276.06
397.474	263.06
397.698	263.06
397.922	272.06
398.147	290.06
398.371	290.06
398.595	296.06
398.82	275.06
399.044	282.06
399.268	297.06
399.492	310.06
399.717	323.06
399.941	331.06
400.165	352.06
400.389	351.06
400.613	332.06
400.837	303.06
401.062	298.06
401.286	288.06
401.51	289.06
401.734	295.06
401.958	304.06
402.182	304.06
402.406	305.06
402.63	289.06
402.854	311.06
403.078	289.06
403.302	298.06
403.526	298.06
403.75	306.06
403.974	295.06
404.198	312.06
404.422	300.06
404.645	306.06
404.869	302.06
405.093	329.06
405.317	334.06
405.541	346.06
405.765	303.06
405.988	306.06
406.212	319.06
406.436	327.06
406.66	358.06
406.883	341.06
407.107	348.06
407.331	363.06
407.555	393.06
407.778	381.06
408.002	354.06
408.226	328.06
408.449	306.06
408.673	319.06
408.896	344.06
409.12	365.06
409.344	341.06
409.567	311.06
409.791	294.06
410.014	305.06
410.238	294.06
410.461	301.06
410.685	322.06
410.908	322.06
411.132	349.06
411.355	363.06
411.578	335.06
411.802	316.06
412.025	290.06
412.249	283.06
412.472	322.06
412.695	321.06
412.919	327.06
413.142	302.06
413.365	298.06
413.589	280.06
413.812	290.06
414.035	299.06
414.258	282.06
414.482	294.06
414.705	270.06
414.928	297.06
415.151	278.06
415.374	296.06
415.597	279.06
415.821	283.06
416.044	279.06
416.267	269.06
416.49	274.06
416.713	284.06
416.936	284.06
417.159	283.06
417.382	279.06
417.605	286.06
417.828	287.06
418.051	294.06
418.274	307.06
418.497	290.06
418.72	270.06
418.943	263.06
419.166	285.06
419.389	302.06
419.611	289.06
419.834	292.06
420.057	293.06
420.28	289.06
420.503	293.06
420.726	303.06
420.948	310.06
421.171	324.06
421.394	357.06
421.617	314.06
421.839	309.06
422.062	312.06
422.285	335.06
422.507	332.06
422.73	378.06
422.953	374.06
423.175	331.06
423.398	310.06
423.621	310.06
423.843	303.06
424.066	318.06
424.288	324.06
424.511	334.06
424.733	373.06
424.956	396.06
425.178	402.06
425.401	371.06
425.623	404.06
425.846	357.06
426.068	316.06
426.291	309.06
426.513	330.06
426.735	341.06
426.958	361.06
427.18	408.06
427.402	458.06
427.625	527.06
427.847	460.06
428.069	394.06
428.292	361.06
428.514	340.06
428.736	312.06
428.958	308.06
429.181	319.06
429.403	321.06
429.625	314.06
429.847	322.06
430.069	382.06
430.292	365.06
430.514	316.06
430.736	303.06
430.958	312.06
431.18	278.06
431.402	289.06
431.624	298.06
431.846	294.06
432.068	297.06
432.29	270.06
432.512	289.06
432.734	291.06
432.956	316.06
433.178	308.06
433.4	311.06
433.622	285.06
433.844	281.06
434.066	291.06
434.287	269.06
434.509	292.06
434.731	301.06
434.953	291.06
435.175	285.06
435.397	321.06
435.618	328.06
435.84	355.06
436.062	418.06
436.284	431.06
436.505	382.06
436.727	330.06
436.949	320.06
437.17	313.06
437.392	308.06
437.614	318.06
437.835	345.06
438.057	409.06
438.278	452.06
438.5	463.06
438.721	480.06
438.943	429.06
439.165	385.06
439.386	357.06
439.608	338.06
439.829	336.06
440.05	376.06
440.272	382.06
440.493	367.06
440.715	304.06
440.936	310.06
441.158	310.06
441.379	311.06
441.6	326.06
441.822	320.06
442.043	360.06
442.264	408.06
442.486	420.06
442.707	357.06
442.928	334.06
443.149	336.06
443.371	357.06
443.592	384.06
443.813	432.06
444.034	469.06
444.255	374.06
444.476	326.06
444.698	306.06
444.919	324.06
445.14	412.06
445.361	356.06
445.582	370.06
445.803	399.06
446.024	445.06
446.245	459.06
446.466	408.06
446.687	363.06
446.908	338.06
447.129	334.06
447.35	301.06
447.571	306.06
447.792	298.06
448.013	312.06
448.234	318.06
448.455	353.06
448.675	431.06
448.896	466.06
449.117	422.06
449.338	388.06
449.559	441.06
449.779	486.06
450	405.06
450.221	334.06
450.442	308.06
450.662	338.06
450.883	307.06
451.104	319.06
451.324	316.06
451.545	294.06
451.766	297.06
451.986	260.06
452.207	279.06
452.428	280.06
452.648	261.06
452.869	264.06
453.089	287.06
453.31	285.06
453.53	301.06
453.751	287.06
453.971	277.06
454.192	303.06
454.412	295.06
454.633	272.06
454.853	266.06
455.073	281.06
455.294	313.06
455.514	343.06
455.734	340.06
455.955	270.06
456.175	278.06
456.395	252.06
456.616	274.06
456.836	268.06
457.056	239.06
457.276	247.06
457.497	243.06
457.717	264.06
457.937	272.06
458.157	275.06
458.377	268.06
458.598	291.06
458.818	336.06
459.038	375.06
459.258	383.06
459.478	329.06
459.698	270.06
459.918	283.06
460.138	276.06
460.358	284.06
460.578	287.06
460.798	292.06
461.018	274.06
461.238	282.06
461.458	271.06
461.678	270.06
461.898	276.06
462.118	289.06
462.338	297.06
462.558	278.06
462.777	297.06
462.997	279.06
463.217	292.06
463.437	284.06
463.657	290.06
463.876	295.06
464.096	278.06
464.316	276.06
464.536	304.06
464.755	314.06
464.975	301.06
465.195	333.06
465.414	374.06
465.634	331.06
465.854	316.06
466.073	317.06
466.293	282.06
466.512	292.06
466.732	271.06
466.951	256.06
467.171	280.06
467.391	267.06
467.61	282.06
467.829	289.06
468.049	272.06
468.268	272.06
468.488	275.06
468.707	275.06
468.927	270.06
469.146	278.06
469.365	273.06
469.585	264.06
469.804	271.06
470.023	293.06
470.243	291.06
470.462	291.06
470.681	297.06
470.901	297.06
471.12	281.06
471.339	287.06
471.558	287.06
471.777	281.06
471.997	283.06
472.216	270.06
472.435	318.06
472.654	277.06
472.873	291.06
473.092	288.06
473.311	286.06
473.53	272.06
473.749	296.06
473.968	340.06
474.187	347.06
474.406	364.06
474.625	311.06
474.844	282.06
475.063	297.06
475.282	283.06
475.501	277.06
475.72	290.06
475.939	290.06
476.158	277.06
476.377	280.06
476.596	292.06
476.814	311.06
477.033	299.06
477.252	291.06
477.471	294.06
477.69	284.06
477.908	298.06
478.127	299.06
478.346	293.06
478.564	296.06
478.783	309.06
479.002	325.06
479.22	323.06
479.439	314.06
479.658	340.06
479.876	340.06
480.095	344.06
480.313	354.06
480.532	348.06
480.751	334.06
480.969	366.06
481.188	388.06
481.406	412.06
481.624	364.06
481.843	337.06
482.061	326.06
482.28	318.06
482.498	316.06
482.717	327.06
482.935	332.06
483.153	323.06
483.372	331.06
483.59	323.06
483.808	305.06
484.027	335.06
484.245	327.06
484.463	305.06
484.681	331.06
484.9	349.06
485.118	323.06
485.336	320.06
485.554	328.06
485.772	339.06
485.99	332.06
486.209	327.06
486.427	347.06
486.645	339.06
486.863	348.06
487.081	357.06
487.299	351.06
487.517	347.06
487.735	352.06
487.953	358.06
488.171	340.06
488.389	354.06
488.607	347.06
488.825	363.06
489.043	367.06
489.261	356.06
489.479	362.06
489.696	355.06
489.914	348.06
490.132	361.06
490.35	351.06
490.568	371.06
490.786	366.06
491.003	362.06
491.221	384.06
491.439	387.06
491.657	396.06
491.874	396.06
492.092	396.06
492.31	410.06
492.527	414.06
492.745	380.06
492.963	373.06
493.18	399.06
493.398	411.06
493.615	398.06
493.833	396.06
494.05	393.06
494.268	401.06
494.485	407.06
494.703	405.06
494.92	424.06
495.138	391.06
495.355	412.06
495.573	401.06
495.79	394.06
496.008	395.06
496.225	408.06
496.442	397.06
496.66	409.06
496.877	402.06
497.094	399.06
497.312	396.06
497.529	408.06
497.746	414.06
497.963	420.06
498.181	435.06
498.398	441.06
498.615	444.06
498.832	443.06
499.049	435.06
499.267	446.06
499.484	456.06
499.701	458.06
499.918	473.06
500.135	490.06
500.352	494.06
500.569	514.06
500.786	514.06
501.003	514.06
501.22	487.06
501.437	480.06
501.654	498.06
501.871	502.06
502.088	470.06
502.305	450.06
502.522	456.06
502.739	442.06
502.956	438.06
503.172	447.06
503.389	404.06
503.606	431.06
503.823	409.06
504.04	428.06
504.256	407.06
504.473	398.06
504.69	405.06
504.907	420.06
505.123	399.06
505.34	395.06
505.557	397.06
505.773	422.06
505.99	395.06
506.207	382.06
506.423	390.06
506.64	405.06
506.856	396.06
507.073	394.06
507.289	392.06
507.506	374.06
507.722	398.06
507.939	408.06
508.155	394.06
508.372	360.06
508.588	390.06
508.805	383.06
509.021	376.06
509.238	371.06
509.454	397.06
509.67	381.06
509.887	371.06
510.103	371.06
510.319	400.06
510.536	458.06
510.752	723.06
510.968	589.06
511.184	405.06
511.401	364.06
511.617	373.06
511.833	362.06
512.049	380.06
512.265	343.06
512.481	370.06
512.698	365.06
512.914	362.06
513.13	357.06
513.346	347.06
513.562	354.06
513.778	363.06
513.994	358.06
514.21	376.06
514.426	401.06
514.642	424.06
514.858	451.06
515.074	467.06
515.29	551.06
515.506	807.06
515.721	637.06
515.937	460.06
516.153	406.06
516.369	399.06
516.585	384.06
516.801	361.06
517.016	376.06
517.232	356.06
517.448	372.06
517.664	370.06
517.879	375.06
518.095	382.06
518.311	362.06
518.527	361.06
518.742	335.06
518.958	351.06
519.173	358.06
519.389	365.06
519.605	350.06
519.82	368.06
520.036	404.06
520.251	390.06
520.467	408.06
520.682	425.06
520.898	398.06
521.113	419.06
521.329	452.06
521.544	508.06
521.76	677.06
521.975	1078.06
522.19	994.06
522.406	587.06
522.621	440.06
522.836	395.06
523.052	364.06
523.267	364.06
523.482	345.06
523.698	329.06
523.913	332.06
524.128	335.06
524.343	331.06
524.559	311.06
524.774	315.06
524.989	331.06
525.204	341.06
525.419	327.06
525.634	299.06
525.849	296.06
526.064	300.06
526.28	312.06
526.495	301.06
526.71	308.06
526.925	288.06
527.14	308.06
527.355	314.06
527.57	300.06
527.785	286.06
527.999	310.06
528.214	309.06
528.429	297.06
528.644	289.06
528.859	296.06
529.074	310.06
529.289	333.06
529.503	375.06
529.718	345.06
529.933	335.06
530.148	316.06
530.363	319.06
530.577	318.06
530.792	278.06
531.007	298.06
531.221	290.06
531.436	295.06
531.651	291.06
531.865	294.06
532.08	294.06
532.295	295.06
532.509	299.06
532.724	270.06
532.938	277.06
533.153	280.06
533.367	298.06
533.582	279.06
533.796	281.06
534.011	279.06
534.225	273.06
534.44	280.06
534.654	267.06
534.868	285.06
535.083	280.06
535.297	255.06
535.511	289.06
535.726	292.06
535.94	295.06
536.154	293.06
536.369	283.06
536.583	276.06
536.797	280.06
537.011	286.06
537.225	268.06
537.44	289.06
537.654	252.06
537.868	291.06
538.082	258.06
538.296	278.06
538.51	266.06
538.724	284.06
538.938	279.06
539.153	273.06
539.367	282.06
539.581	297.06
539.795	279.06
540.009	269.06
540.222	295.06
540.436	290.06
540.65	270.06
540.864	280.06
541.078	301.06
541.292	281.06
541.506	281.06
541.72	283.06
541.934	270.06
542.147	276.06
542.361	282.06
542.575	271.06
542.789	275.06
543.002	267.06
543.216	274.06
543.43	276.06
543.644	277.06
543.857	298.06
544.071	279.06
544.285	283.06
544.498	263.06
544.712	270.06
544.925	286.06
545.139	267.06
545.352	258.06
545.566	255.06
545.779	268.06
545.993	246.06
546.206	266.06
546.42	256.06
546.633	251.06
546.847	261.06
547.06	276.06
547.274	262.06
547.487	278.06
547.7	261.06
547.914	278.06
548.127	270.06
548.34	272.06
548.554	249.06
548.767	254.06
548.98	263.06
549.193	251.06
549.407	263.06
549.62	267.06
549.833	269.06
550.046	251.06
550.259	248.06
550.473	263.06
550.686	264.06
550.899	235.06
551.112	232.06
551.325	237.06
551.538	251.06
551.751	267.06
551.964	263.06
552.177	255.06
552.39	252.06
552.603	268.06
552.816	245.06
553.029	247.06
553.242	245.06
553.455	251.06
553.667	272.06
553.88	274.06
554.093	268.06
554.306	249.06
554.519	268.06
554.732	268.06
554.944	249.06
555.157	236.06
555.37	242.06
555.583	246.06
555.795	231.06
556.008	247.06
556.221	234.06
556.433	239.06
556.646	244.06
556.859	250.06
557.071	248.06
557.284	235.06
557.496	229.06
557.709	243.06
557.921	234.06
558.134	217.06
558.346	235.06
558.559	243.06
558.771	227.06
558.984	243.06
559.196	231.06
559.409	213.06
559.621	227.06
559.833	233.06
560.046	241.06
560.258	233.06
560.47	243.06
560.683	223.06
560.895	223.06
561.107	215.06
561.32	232.06
561.532	229.06
561.744	252.06
561.956	222.06
562.168	231.06
562.381	224.06
562.593	231.06
562.805	245.06
563.017	244.06
563.229	232.06
563.441	235.06
563.653	239.06
563.865	251.06
564.077	225.06
564.289	222.06
564.501	235.06
564.713	244.06
564.925	239.06
565.137	262.06
565.349	258.06
565.561	236.06
565.773	235.06
565.985	239.06
566.197	239.06
566.408	256.06
566.62	259.06
566.832	245.06
567.044	264.06
567.255	237.06
567.467	260.06
567.679	264.06
567.891	274.06
568.102	262.06
568.314	262.06
568.526	252.06
568.737	256.06
568.949	234.06
569.161	222.06
569.372	245.06
569.584	222.06
569.795	239.06
570.007	234.06
570.218	253.06
570.43	246.06
570.641	229.06
570.853	220.06
571.064	226.06
571.276	214.06
571.487	218.06
571.698	221.06
571.91	235.06
572.121	205.06
572.333	224.06
572.544	222.06
572.755	219.06
572.966	208.06
573.178	212.06
573.389	220.06
573.6	213.06
573.811	217.06
574.023	192.06
574.234	232.06
574.445	202.06
574.656	216.06
574.867	216.06
575.078	211.06
575.289	211.06
575.501	200.06
575.712	208.06
575.923	203.06
576.134	211.06
576.345	196.06
576.556	196.06
576.767	201.06
576.978	203.06
577.188	204.06
577.399	204.06
577.61	195.06
577.821	213.06
578.032	210.06
578.243	242.06
578.454	375.06
578.665	286.06
578.875	229.06
579.086	206.06
579.297	205.06
579.508	185.06
579.718	204.06
579.929	199.06
580.14	190.06
580.35	184.06
580.561	198.06
580.772	204.06
580.982	188.06
581.193	186.06
581.403	189.06
581.614	193.06
581.825	210.06
582.035	192.06
582.246	202.06
582.456	217.06
582.667	181.06
582.877	190.06
583.087	192.06
583.298	202.06
583.508	194.06
583.719	196.06
583.929	197.06
584.139	204.06
584.35	200.06
584.56	198.06
584.77	191.06
584.981	201.06
585.191	202.06
585.401	175.06
585.611	202.06
585.821	196.06
586.032	196.06
586.242	186.06
586.452	196.06
586.662	195.06
586.872	176.06
587.082	172.06
587.292	184.06
587.502	181.06
587.713	196.06
587.923	194.06
588.133	182.06
588.343	186.06
588.553	191.06
588.762	198.06
588.972	179.06
589.182	184.06
589.392	185.06
589.602	188.06
589.812	179.06
590.022	201.06
590.232	193.06
590.441	168.06
590.651	193.06
590.861	175.06
591.071	168.06
591.281	183.06
591.49	179.06
591.7	175.06
591.91	184.06
592.119	193.06
592.329	186.06
592.539	198.06
592.748	198.06
592.958	202.06
593.167	188.06
593.377	192.06
593.587	189.06
593.796	173.06
594.006	183.06
594.215	185.06
594.424	189.06
594.634	179.06
594.843	196.06
595.053	166.06
595.262	187.06
595.472	178.06
595.681	187.06
595.89	188.06
596.1	176.06
596.309	190.06
596.518	194.06
596.727	192.06
596.937	180.06
597.146	186.06
597.355	175.06
597.564	186.06
597.774	160.06
597.983	168.06
598.192	165.06
598.401	170.06
598.61	181.06
598.819	180.06
599.028	183.06
599.237	162.06
599.446	182.06
599.655	178.06
599.864	185.06
600.073	181.06
600.282	162.06
600.491	174.06
600.7	171.06
600.909	157.06
601.118	173.06
601.327	160.06
601.536	151.06
601.745	173.06
601.953	179.06
602.162	160.06
602.371	166.06
602.58	156.06
602.789	173.06
602.997	180.06
603.206	166.06
603.415	176.06
603.623	158.06
603.832	164.06
604.041	168.06
604.249	176.06
604.458	155.06
604.666	166.06
604.875	159.06
605.084	172.06
605.292	157.06
605.501	166.06
605.709	164.06
605.918	156.06
606.126	153.06
606.334	171.06
606.543	148.06
606.751	173.06
606.96	175.06
607.168	147.06
607.376	166.06
607.585	162.06
607.793	148.06
608.001	174.06
608.21	166.06
608.418	157.06
608.626	158.06
608.834	175.06
609.043	150.06
609.251	163.06
609.459	166.06
609.667	163.06
609.875	155.06
610.083	155.06
610.291	172.06
610.499	162.06
610.707	195.06
610.916	167.06
611.124	172.06
611.332	164.06
611.54	184.06
611.748	160.06
611.955	181.06
612.163	169.06
612.371	159.06
612.579	163.06
612.787	170.06
612.995	157.06
613.203	162.06
613.411	171.06
613.618	159.06
613.826	148.06
614.034	165.06
614.242	152.06
614.449	163.06
614.657	153.06
614.865	159.06
615.072	154.06
615.28	180.06
615.488	158.06
615.695	156.06
615.903	155.06
616.111	165.06
616.318	157.06
616.526	177.06
616.733	175.06
616.941	182.06
617.148	165.06
617.356	154.06
617.563	158.06
617.771	150.06
617.978	156.06
618.185	148.06
618.393	149.06
618.6	182.06
618.807	142.06
619.015	167.06
619.222	164.06
619.429	154.06
619.637	158.06
619.844	151.06
620.051	148.06
620.258	159.06
620.466	139.06
620.673	149.06
620.88	138.06
621.087	144.06
621.294	154.06
621.501	156.06
621.708	144.06
621.915	163.06
622.122	156.06
622.329	155.06
622.536	164.06
622.743	162.06
622.95	152.06
623.157	150.06
623.364	148.06
623.571	150.06
623.778	153.06
623.985	156.06
624.192	132.06
624.399	138.06
624.606	145.06
624.812	146.06
625.019	160.06
625.226	151.06
625.433	146.06
625.639	150.06
625.846	150.06
626.053	138.06
626.259	142.06
626.466	142.06
626.673	140.06
626.879	148.06
627.086	141.06
627.293	166.06
627.499	135.06
627.706	152.06
627.912	154.06
628.119	140.06
628.325	128.06
628.532	131.06
628.738	145.06
628.945	147.06
629.151	152.06
629.357	148.06
629.564	140.06
629.77	133.06
629.976	148.06
630.183	128.06
630.389	136.06
630.595	140.06
630.802	138.06
631.008	143.06
631.214	136.06
631.42	144.06
631.627	148.06
631.833	134.06
632.039	127.06
632.245	158.06
632.451	146.06
632.657	132.06
632.863	143.06
633.069	140.06
633.275	134.06
633.481	127.06
633.688	143.06
633.893	149.06
634.099	141.06
634.305	136.06
634.511	130.06
634.717	138.06
634.923	130.06
635.129	147.06
635.335	132.06
635.541	140.06
635.747	130.06
635.952	134.06
636.158	123.06
636.364	125.06
636.57	135.06
636.775	118.06
636.981	146.06
637.187	140.06
637.392	132.06
637.598	117.06
637.804	144.06
638.009	133.06
638.215	142.06
638.421	133.06
638.626	134.06
638.832	136.06
639.037	129.06
639.243	123.06
639.448	135.06
639.654	127.06
639.859	132.06
640.065	128.06
640.27	128.06
640.475	132.06
640.681	143.06
640.886	124.06
641.091	138.06
641.297	135.06
641.502	148.06
641.707	126.06
641.913	133.06
642.118	137.06
642.323	127.06
642.528	134.06
642.733	134.06
642.939	143.06
643.144	132.06
643.349	123.06
643.554	130.06
643.759	127.06
643.964	132.06
644.169	136.06
644.374	114.06
644.579	124.06
644.784	129.06
644.989	122.06
645.194	119.06
645.399	127.06
645.604	138.06
645.809	136.06
646.014	115.06
646.219	135.06
646.423	129.06
646.628	128.06
646.833	134.06
647.038	142.06
647.243	126.06
647.447	140.06
647.652	128.06
647.857	141.06
648.062	121.06
648.266	142.06
648.471	121.06
648.676	138.06
648.88	135.06
649.085	118.06
649.289	136.06
649.494	133.06
649.698	134.06
649.903	158.06
650.107	138.06
650.312	134.06
650.516	133.06
650.721	122.06
650.925	125.06
651.13	116.06
651.334	112.06
651.539	111.06
651.743	126.06
651.947	109.06
652.152	124.06
652.356	113.06
652.56	124.06
652.764	126.06
652.969	119.06
653.173	107.06
653.377	112.06
653.581	116.06
653.785	125.06
653.99	122.06
654.194	117.06
654.398	128.06
654.602	103.06
654.806	105.06
655.01	127.06
655.214	124.06
655.418	120.06
655.622	115.06
655.826	116.06
656.03	117.06
656.234	118.06
656.438	122.06
656.642	115.06
656.846	110.06
657.049	120.06
657.253	107.06
657.457	103.06
657.661	118.06
657.865	107.06
658.068	90.06
658.272	111.06
658.476	102.06
658.68	80.06
658.883	110.06
659.087	99.06
659.291	101.06
659.494	101.06
659.698	97.06
659.901	93.06
660.105	96.06
660.309	91.06
660.512	91.06
660.716	100.06
660.919	89.06
661.123	86.06
661.326	86.06
661.53	91.06
661.733	83.06
661.936	95.06
662.14	78.06
662.343	89.06
662.546	91.06
662.75	84.06
662.953	90.06
663.156	90.06
663.36	83.06
663.563	90.06
663.766	85.06
663.969	84.06
664.173	88.06
664.376	83.06
664.579	81.06
664.782	80.06
664.985	79.06
665.188	102.06
665.391	77.06
665.594	86.06
665.797	80.06
666	80.06
666.203	82.06
666.406	91.06
666.609	91.06
666.812	65.06
667.015	94.06
667.218	88.06
667.421	74.06
667.624	82.06
667.827	87.06
668.03	84.06
668.232	88.06
668.435	96.06
668.638	103.06
668.841	83.06
669.043	75.06
669.246	85.06
669.449	75.06
669.651	101.06
669.854	88.06
670.057	86.06
670.259	73.06
670.462	84.06
670.665	76.06
670.867	94.06
671.07	79.06
671.272	85.06
671.475	86.06
671.677	86.06
671.88	97.06
672.082	76.06
672.284	80.06
672.487	77.06
672.689	74.06
672.892	85.06
