Data from 1982.PennyLincolnUp.Lamp.En5.5.200Scan.071819.P1_HRD10591_16-47-23-962.txt Node
Date: Thu Jul 18 16:47:23 EDT 2019
User: cochatt
Spectrometer: HR+D1059
Trigger mode: 1
Integration Time (sec): 1.000000E-1
Scans to average: 1
Electric dark correction enabled: true
Nonlinearity correction enabled: false
Boxcar width: 0
XAxis mode: Wavelengths
Number of Pixels in Spectrum: 2048
>>>>>Begin Spectral Data<<<<<
223.165	-22.25
223.4	-22.25
223.635	-22.25
223.869	-23.25
224.104	-34.25
224.338	-4.25
224.573	-5.25
224.808	-10.25
225.042	1.75
225.277	-2.25
225.511	-2.25
225.746	6.75
225.98	12.75
226.215	12.75
226.449	10.75
226.683	12.75
226.918	13.75
227.152	32.75
227.387	38.75
227.621	20.75
227.856	47.75
228.09	37.75
228.324	52.75
228.559	57.75
228.793	59.75
229.027	85.75
229.262	92.75
229.496	96.75
229.73	106.75
229.964	134.75
230.199	118.75
230.433	97.75
230.667	86.75
230.901	121.75
231.136	111.75
231.37	93.75
231.604	91.75
231.838	112.75
232.072	95.75
232.306	94.75
232.541	106.75
232.775	99.75
233.009	98.75
233.243	104.75
233.477	100.75
233.711	103.75
233.945	92.75
234.179	117.75
234.413	109.75
234.647	97.75
234.881	96.75
235.115	108.75
235.349	114.75
235.583	113.75
235.817	98.75
236.051	121.75
236.285	104.75
236.519	103.75
236.753	117.75
236.987	129.75
237.221	145.75
237.455	200.75
237.689	153.75
237.922	109.75
238.156	115.75
238.39	113.75
238.624	108.75
238.858	101.75
239.091	105.75
239.325	115.75
239.559	125.75
239.793	103.75
240.027	116.75
240.26	123.75
240.494	133.75
240.728	130.75
240.961	136.75
241.195	116.75
241.429	120.75
241.662	116.75
241.896	118.75
242.13	119.75
242.363	131.75
242.597	117.75
242.83	117.75
243.064	127.75
243.298	127.75
243.531	129.75
243.765	112.75
243.998	111.75
244.232	129.75
244.465	117.75
244.699	106.75
244.932	125.75
245.166	128.75
245.399	139.75
245.633	128.75
245.866	124.75
246.099	118.75
246.333	129.75
246.566	122.75
246.8	119.75
247.033	123.75
247.266	134.75
247.5	132.75
247.733	153.75
247.966	137.75
248.2	139.75
248.433	146.75
248.666	139.75
248.899	151.75
249.133	164.75
249.366	159.75
249.599	165.75
249.832	147.75
250.066	147.75
250.299	149.75
250.532	160.75
250.765	181.75
250.998	197.75
251.231	184.75
251.465	178.75
251.698	163.75
251.931	152.75
252.164	169.75
252.397	169.75
252.63	164.75
252.863	151.75
253.096	186.75
253.329	174.75
253.562	169.75
253.795	175.75
254.028	175.75
254.261	172.75
254.494	186.75
254.727	212.75
254.96	240.75
255.193	221.75
255.426	202.75
255.659	172.75
255.892	207.75
256.124	168.75
256.357	205.75
256.59	185.75
256.823	179.75
257.056	175.75
257.289	184.75
257.521	190.75
257.754	172.75
257.987	176.75
258.22	161.75
258.452	161.75
258.685	180.75
258.918	170.75
259.151	175.75
259.383	191.75
259.616	189.75
259.849	202.75
260.081	183.75
260.314	203.75
260.547	210.75
260.779	181.75
261.012	180.75
261.244	181.75
261.477	163.75
261.71	188.75
261.942	179.75
262.175	205.75
262.407	187.75
262.64	193.75
262.872	175.75
263.105	181.75
263.337	184.75
263.57	174.75
263.802	192.75
264.035	179.75
264.267	150.75
264.499	183.75
264.732	179.75
264.964	193.75
265.197	186.75
265.429	185.75
265.661	183.75
265.894	181.75
266.126	181.75
266.358	173.75
266.591	169.75
266.823	184.75
267.055	205.75
267.287	193.75
267.52	173.75
267.752	177.75
267.984	200.75
268.216	185.75
268.448	189.75
268.681	201.75
268.913	212.75
269.145	221.75
269.377	221.75
269.609	235.75
269.841	203.75
270.073	219.75
270.306	228.75
270.538	268.75
270.77	242.75
271.002	264.75
271.234	225.75
271.466	256.75
271.698	263.75
271.93	249.75
272.162	263.75
272.394	262.75
272.626	244.75
272.858	228.75
273.09	238.75
273.322	216.75
273.553	223.75
273.785	238.75
274.017	208.75
274.249	224.75
274.481	217.75
274.713	208.75
274.945	228.75
275.176	228.75
275.408	221.75
275.64	221.75
275.872	212.75
276.104	201.75
276.335	224.75
276.567	222.75
276.799	245.75
277.031	261.75
277.262	273.75
277.494	264.75
277.726	228.75
277.957	253.75
278.189	246.75
278.421	214.75
278.652	235.75
278.884	203.75
279.115	221.75
279.347	216.75
279.579	231.75
279.81	202.75
280.042	226.75
280.273	212.75
280.505	217.75
280.736	221.75
280.968	222.75
281.199	219.75
281.431	210.75
281.662	217.75
281.894	224.75
282.125	220.75
282.356	234.75
282.588	240.75
282.819	234.75
283.051	246.75
283.282	224.75
283.513	221.75
283.745	221.75
283.976	231.75
284.207	216.75
284.439	205.75
284.67	216.75
284.901	219.75
285.132	217.75
285.364	205.75
285.595	229.75
285.826	221.75
286.057	228.75
286.288	239.75
286.52	204.75
286.751	216.75
286.982	213.75
287.213	219.75
287.444	224.75
287.675	228.75
287.906	231.75
288.138	243.75
288.369	227.75
288.6	236.75
288.831	242.75
289.062	247.75
289.293	238.75
289.524	230.75
289.755	236.75
289.986	235.75
290.217	218.75
290.448	221.75
290.679	214.75
290.91	229.75
291.141	233.75
291.371	228.75
291.602	217.75
291.833	228.75
292.064	232.75
292.295	221.75
292.526	225.75
292.757	228.75
292.987	222.75
293.218	221.75
293.449	227.75
293.68	226.75
293.91	224.75
294.141	255.75
294.372	253.75
294.603	220.75
294.833	216.75
295.064	235.75
295.295	230.75
295.525	222.75
295.756	241.75
295.987	234.75
296.217	251.75
296.448	267.75
296.679	231.75
296.909	224.75
297.14	226.75
297.37	219.75
297.601	213.75
297.831	239.75
298.062	235.75
298.292	239.75
298.523	226.75
298.753	261.75
298.984	227.75
299.214	256.75
299.445	242.75
299.675	246.75
299.905	246.75
300.136	249.75
300.366	235.75
300.597	242.75
300.827	269.75
301.057	256.75
301.288	261.75
301.518	265.75
301.748	265.75
301.979	246.75
302.209	241.75
302.439	252.75
302.669	263.75
302.9	252.75
303.13	270.75
303.36	265.75
303.59	255.75
303.82	266.75
304.051	249.75
304.281	244.75
304.511	236.75
304.741	240.75
304.971	249.75
305.201	243.75
305.431	268.75
305.661	250.75
305.891	240.75
306.121	255.75
306.352	257.75
306.582	248.75
306.812	258.75
307.042	249.75
307.272	260.75
307.502	265.75
307.731	268.75
307.961	260.75
308.191	263.75
308.421	255.75
308.651	263.75
308.881	285.75
309.111	274.75
309.341	266.75
309.571	282.75
309.8	287.75
310.03	276.75
310.26	291.75
310.49	296.75
310.72	305.75
310.949	323.75
311.179	309.75
311.409	320.75
311.639	283.75
311.868	285.75
312.098	310.75
312.328	307.75
312.557	323.75
312.787	323.75
313.017	308.75
313.246	303.75
313.476	312.75
313.706	298.75
313.935	307.75
314.165	316.75
314.394	341.75
314.624	314.75
314.853	305.75
315.083	295.75
315.312	303.75
315.542	315.75
315.771	277.75
316.001	285.75
316.23	299.75
316.46	307.75
316.689	290.75
316.919	311.75
317.148	288.75
317.377	325.75
317.607	311.75
317.836	292.75
318.065	294.75
318.295	299.75
318.524	278.75
318.753	290.75
318.983	315.75
319.212	300.75
319.441	331.75
319.67	309.75
319.9	299.75
320.129	307.75
320.358	322.75
320.587	324.75
320.816	319.75
321.046	328.75
321.275	328.75
321.504	329.75
321.733	351.75
321.962	339.75
322.191	339.75
322.42	350.75
322.649	360.75
322.878	374.75
323.108	360.75
323.337	390.75
323.566	441.75
323.795	444.75
324.024	505.75
324.253	636.75
324.482	992.75
324.71	1441.75
324.939	1842.75
325.168	1505.75
325.397	805.75
325.626	547.75
325.855	450.75
326.084	423.75
326.313	414.75
326.542	426.75
326.77	473.75
326.999	586.75
327.228	825.75
327.457	1203.75
327.686	1323.75
327.914	874.75
328.143	615.75
328.372	515.75
328.6	498.75
328.829	468.75
329.058	488.75
329.287	484.75
329.515	439.75
329.744	422.75
329.972	409.75
330.201	441.75
330.43	456.75
330.658	497.75
330.887	481.75
331.115	493.75
331.344	417.75
331.572	398.75
331.801	411.75
332.03	392.75
332.258	367.75
332.486	373.75
332.715	360.75
332.943	370.75
333.172	348.75
333.4	363.75
333.629	355.75
333.857	364.75
334.085	354.75
334.314	396.75
334.542	415.75
334.771	431.75
334.999	372.75
335.227	361.75
335.455	346.75
335.684	358.75
335.912	342.75
336.14	342.75
336.369	357.75
336.597	336.75
336.825	356.75
337.053	333.75
337.281	353.75
337.51	318.75
337.738	332.75
337.966	337.75
338.194	328.75
338.422	362.75
338.65	332.75
338.878	327.75
339.106	319.75
339.334	329.75
339.562	310.75
339.79	326.75
340.018	331.75
340.246	314.75
340.474	323.75
340.702	331.75
340.93	329.75
341.158	316.75
341.386	305.75
341.614	331.75
341.842	347.75
342.07	311.75
342.298	303.75
342.526	321.75
342.754	314.75
342.981	305.75
343.209	311.75
343.437	310.75
343.665	304.75
343.893	320.75
344.12	324.75
344.348	320.75
344.576	322.75
344.804	324.75
345.031	338.75
345.259	343.75
345.487	345.75
345.714	321.75
345.942	313.75
346.17	313.75
346.397	319.75
346.625	328.75
346.853	306.75
347.08	320.75
347.308	332.75
347.535	336.75
347.763	338.75
347.99	326.75
348.218	343.75
348.445	340.75
348.673	320.75
348.9	319.75
349.128	336.75
349.355	296.75
349.583	310.75
349.81	285.75
350.037	296.75
350.265	299.75
350.492	332.75
350.72	317.75
350.947	299.75
351.174	318.75
351.402	335.75
351.629	333.75
351.856	316.75
352.083	311.75
352.311	344.75
352.538	355.75
352.765	332.75
352.992	327.75
353.22	334.75
353.447	337.75
353.674	314.75
353.901	291.75
354.128	296.75
354.355	314.75
354.583	288.75
354.81	289.75
355.037	277.75
355.264	301.75
355.491	290.75
355.718	295.75
355.945	288.75
356.172	289.75
356.399	293.75
356.626	262.75
356.853	283.75
357.08	290.75
357.307	301.75
357.534	298.75
357.761	280.75
357.988	290.75
358.215	270.75
358.441	281.75
358.668	306.75
358.895	299.75
359.122	295.75
359.349	297.75
359.576	324.75
359.802	326.75
360.029	313.75
360.256	344.75
360.483	328.75
360.709	311.75
360.936	320.75
361.163	307.75
361.39	294.75
361.616	300.75
361.843	300.75
362.07	298.75
362.296	312.75
362.523	322.75
362.749	321.75
362.976	291.75
363.203	296.75
363.429	299.75
363.656	304.75
363.882	297.75
364.109	282.75
364.335	306.75
364.562	299.75
364.788	304.75
365.015	280.75
365.241	298.75
365.468	292.75
365.694	295.75
365.92	319.75
366.147	308.75
366.373	283.75
366.599	296.75
366.826	281.75
367.052	285.75
367.278	295.75
367.505	295.75
367.731	290.75
367.957	283.75
368.184	283.75
368.41	279.75
368.636	296.75
368.862	313.75
369.089	273.75
369.315	289.75
369.541	287.75
369.767	286.75
369.993	291.75
370.219	273.75
370.445	284.75
370.672	276.75
370.898	271.75
371.124	275.75
371.35	295.75
371.576	292.75
371.802	292.75
372.028	288.75
372.254	279.75
372.48	268.75
372.706	277.75
372.932	292.75
373.158	283.75
373.384	289.75
373.61	280.75
373.835	281.75
374.061	289.75
374.287	292.75
374.513	293.75
374.739	280.75
374.965	292.75
375.191	290.75
375.416	287.75
375.642	299.75
375.868	288.75
376.094	288.75
376.319	267.75
376.545	258.75
376.771	266.75
376.997	266.75
377.222	262.75
377.448	260.75
377.674	284.75
377.899	271.75
378.125	281.75
378.35	274.75
378.576	284.75
378.802	261.75
379.027	280.75
379.253	265.75
379.478	299.75
379.704	289.75
379.929	291.75
380.155	267.75
380.38	266.75
380.606	258.75
380.831	286.75
381.057	274.75
381.282	268.75
381.507	273.75
381.733	267.75
381.958	277.75
382.184	273.75
382.409	261.75
382.634	279.75
382.86	278.75
383.085	269.75
383.31	289.75
383.535	281.75
383.761	296.75
383.986	287.75
384.211	285.75
384.436	302.75
384.662	297.75
384.887	273.75
385.112	275.75
385.337	284.75
385.562	269.75
385.787	289.75
386.013	299.75
386.238	291.75
386.463	282.75
386.688	303.75
386.913	290.75
387.138	307.75
387.363	287.75
387.588	297.75
387.813	287.75
388.038	280.75
388.263	304.75
388.488	293.75
388.713	273.75
388.938	290.75
389.163	301.75
389.387	285.75
389.612	280.75
389.837	290.75
390.062	292.75
390.287	276.75
390.512	290.75
390.736	281.75
390.961	298.75
391.186	276.75
391.411	278.75
391.636	285.75
391.86	298.75
392.085	296.75
392.31	282.75
392.534	291.75
392.759	290.75
392.984	296.75
393.208	289.75
393.433	295.75
393.658	279.75
393.882	295.75
394.107	281.75
394.331	290.75
394.556	289.75
394.78	284.75
395.005	283.75
395.229	299.75
395.454	298.75
395.678	282.75
395.903	293.75
396.127	320.75
396.352	323.75
396.576	307.75
396.801	296.75
397.025	292.75
397.249	287.75
397.474	307.75
397.698	306.75
397.922	307.75
398.147	318.75
398.371	306.75
398.595	315.75
398.82	317.75
399.044	326.75
399.268	329.75
399.492	348.75
399.717	351.75
399.941	365.75
400.165	391.75
400.389	396.75
400.613	353.75
400.837	328.75
401.062	335.75
401.286	320.75
401.51	311.75
401.734	304.75
401.958	318.75
402.182	320.75
402.406	329.75
402.63	330.75
402.854	325.75
403.078	329.75
403.302	316.75
403.526	317.75
403.75	344.75
403.974	332.75
404.198	335.75
404.422	343.75
404.645	363.75
404.869	341.75
405.093	353.75
405.317	379.75
405.541	388.75
405.765	370.75
405.988	347.75
406.212	361.75
406.436	376.75
406.66	367.75
406.883	366.75
407.107	378.75
407.331	401.75
407.555	436.75
407.778	433.75
408.002	396.75
408.226	363.75
408.449	346.75
408.673	353.75
408.896	363.75
409.12	411.75
409.344	385.75
409.567	328.75
409.791	353.75
410.014	329.75
410.238	323.75
410.461	336.75
410.685	339.75
410.908	358.75
411.132	373.75
411.355	387.75
411.578	382.75
411.802	323.75
412.025	307.75
412.249	340.75
412.472	351.75
412.695	379.75
412.919	381.75
413.142	341.75
413.365	318.75
413.589	312.75
413.812	325.75
414.035	317.75
414.258	321.75
414.482	324.75
414.705	312.75
414.928	308.75
415.151	299.75
415.374	311.75
415.597	306.75
415.821	311.75
416.044	306.75
416.267	315.75
416.49	313.75
416.713	307.75
416.936	298.75
417.159	307.75
417.382	338.75
417.605	317.75
417.828	313.75
418.051	337.75
418.274	331.75
418.497	291.75
418.72	317.75
418.943	322.75
419.166	308.75
419.389	347.75
419.611	330.75
419.834	323.75
420.057	332.75
420.28	330.75
420.503	325.75
420.726	324.75
420.948	328.75
421.171	368.75
421.394	396.75
421.617	328.75
421.839	331.75
422.062	344.75
422.285	328.75
422.507	400.75
422.73	420.75
422.953	407.75
423.175	375.75
423.398	344.75
423.621	333.75
423.843	369.75
424.066	360.75
424.288	360.75
424.511	371.75
424.733	397.75
424.956	472.75
425.178	443.75
425.401	431.75
425.623	423.75
425.846	389.75
426.068	359.75
426.291	363.75
426.513	351.75
426.735	386.75
426.958	419.75
427.18	448.75
427.402	539.75
427.625	610.75
427.847	516.75
428.069	437.75
428.292	418.75
428.514	351.75
428.736	346.75
428.958	354.75
429.181	338.75
429.403	329.75
429.625	338.75
429.847	363.75
430.069	403.75
430.292	387.75
430.514	354.75
430.736	299.75
430.958	345.75
431.18	323.75
431.402	315.75
431.624	321.75
431.846	306.75
432.068	314.75
432.29	315.75
432.512	315.75
432.734	344.75
432.956	326.75
433.178	322.75
433.4	337.75
433.622	295.75
433.844	297.75
434.066	329.75
434.287	321.75
434.509	318.75
434.731	331.75
434.953	314.75
435.175	328.75
435.397	347.75
435.618	377.75
435.84	385.75
436.062	461.75
436.284	493.75
436.505	411.75
436.727	390.75
436.949	377.75
437.17	361.75
437.392	349.75
437.614	340.75
437.835	394.75
438.057	447.75
438.278	500.75
438.5	519.75
438.721	545.75
438.943	513.75
439.165	404.75
439.386	376.75
439.608	373.75
439.829	383.75
440.05	399.75
440.272	436.75
440.493	397.75
440.715	357.75
440.936	346.75
441.158	326.75
441.379	337.75
441.6	357.75
441.822	346.75
442.043	398.75
442.264	449.75
442.486	415.75
442.707	377.75
442.928	380.75
443.149	385.75
443.371	396.75
443.592	441.75
443.813	470.75
444.034	495.75
444.255	418.75
444.476	374.75
444.698	355.75
444.919	332.75
445.14	437.75
445.361	429.75
445.582	403.75
445.803	461.75
446.024	514.75
446.245	531.75
446.466	478.75
446.687	412.75
446.908	374.75
447.129	343.75
447.35	331.75
447.571	356.75
447.792	342.75
448.013	348.75
448.234	369.75
448.455	409.75
448.675	476.75
448.896	541.75
449.117	452.75
449.338	444.75
449.559	519.75
449.779	545.75
450	437.75
450.221	377.75
450.442	319.75
450.662	333.75
450.883	348.75
451.104	355.75
451.324	359.75
451.545	301.75
451.766	312.75
451.986	315.75
452.207	307.75
452.428	305.75
452.648	315.75
452.869	293.75
453.089	320.75
453.31	318.75
453.53	311.75
453.751	300.75
453.971	300.75
454.192	313.75
454.412	329.75
454.633	315.75
454.853	313.75
455.073	306.75
455.294	318.75
455.514	377.75
455.734	364.75
455.955	298.75
456.175	304.75
456.395	282.75
456.616	282.75
456.836	289.75
457.056	277.75
457.276	270.75
457.497	298.75
457.717	278.75
457.937	287.75
458.157	293.75
458.377	296.75
458.598	321.75
458.818	360.75
459.038	415.75
459.258	409.75
459.478	345.75
459.698	325.75
459.918	309.75
460.138	321.75
460.358	304.75
460.578	313.75
460.798	334.75
461.018	318.75
461.238	313.75
461.458	323.75
461.678	308.75
461.898	289.75
462.118	317.75
462.338	311.75
462.558	311.75
462.777	306.75
462.997	328.75
463.217	348.75
463.437	322.75
463.657	324.75
463.876	321.75
464.096	309.75
464.316	313.75
464.536	345.75
464.755	344.75
464.975	328.75
465.195	368.75
465.414	420.75
465.634	369.75
465.854	338.75
466.073	330.75
466.293	314.75
466.512	310.75
466.732	320.75
466.951	287.75
467.171	325.75
467.391	320.75
467.61	327.75
467.829	317.75
468.049	323.75
468.268	317.75
468.488	307.75
468.707	311.75
468.927	296.75
469.146	275.75
469.365	290.75
469.585	287.75
469.804	301.75
470.023	301.75
470.243	304.75
470.462	305.75
470.681	322.75
470.901	315.75
471.12	306.75
471.339	324.75
471.558	310.75
471.777	303.75
471.997	313.75
472.216	319.75
472.435	359.75
472.654	329.75
472.873	301.75
473.092	310.75
473.311	297.75
473.53	316.75
473.749	341.75
473.968	371.75
474.187	432.75
474.406	427.75
474.625	337.75
474.844	327.75
475.063	299.75
475.282	323.75
475.501	300.75
475.72	333.75
475.939	298.75
476.158	327.75
476.377	309.75
476.596	315.75
476.814	329.75
477.033	335.75
477.252	307.75
477.471	322.75
477.69	332.75
477.908	337.75
478.127	328.75
478.346	326.75
478.564	323.75
478.783	330.75
479.002	354.75
479.22	336.75
479.439	355.75
479.658	365.75
479.876	369.75
480.095	359.75
480.313	394.75
480.532	375.75
480.751	368.75
480.969	355.75
481.188	433.75
481.406	456.75
481.624	408.75
481.843	372.75
482.061	375.75
482.28	345.75
482.498	360.75
482.717	345.75
482.935	370.75
483.153	363.75
483.372	355.75
483.59	345.75
483.808	355.75
484.027	340.75
484.245	362.75
484.463	361.75
484.681	344.75
484.9	350.75
485.118	372.75
485.336	366.75
485.554	360.75
485.772	369.75
485.99	377.75
486.209	380.75
486.427	383.75
486.645	379.75
486.863	382.75
487.081	393.75
487.299	391.75
487.517	382.75
487.735	380.75
487.953	378.75
488.171	382.75
488.389	384.75
488.607	390.75
488.825	376.75
489.043	394.75
489.261	372.75
489.479	411.75
489.696	393.75
489.914	381.75
490.132	380.75
490.35	386.75
490.568	384.75
490.786	413.75
491.003	405.75
491.221	405.75
491.439	437.75
491.657	426.75
491.874	431.75
492.092	439.75
492.31	458.75
492.527	447.75
492.745	443.75
492.963	444.75
493.18	443.75
493.398	442.75
493.615	462.75
493.833	447.75
494.05	451.75
494.268	444.75
494.485	444.75
494.703	414.75
494.92	469.75
495.138	443.75
495.355	453.75
495.573	460.75
495.79	431.75
496.008	483.75
496.225	470.75
496.442	464.75
496.66	461.75
496.877	447.75
497.094	436.75
497.312	470.75
497.529	453.75
497.746	484.75
497.963	488.75
498.181	481.75
498.398	477.75
498.615	503.75
498.832	491.75
499.049	480.75
499.267	491.75
499.484	499.75
499.701	503.75
499.918	524.75
500.135	532.75
500.352	542.75
500.569	561.75
500.786	580.75
501.003	549.75
501.22	529.75
501.437	532.75
501.654	533.75
501.871	556.75
502.088	531.75
502.305	536.75
502.522	503.75
502.739	498.75
502.956	475.75
503.172	467.75
503.389	466.75
503.606	472.75
503.823	481.75
504.04	460.75
504.256	462.75
504.473	432.75
504.69	431.75
504.907	425.75
505.123	438.75
505.34	433.75
505.557	458.75
505.773	428.75
505.99	437.75
506.207	462.75
506.423	444.75
506.64	429.75
506.856	415.75
507.073	428.75
507.289	432.75
507.506	430.75
507.722	453.75
507.939	469.75
508.155	424.75
508.372	433.75
508.588	429.75
508.805	419.75
509.021	415.75
509.238	410.75
509.454	454.75
509.67	424.75
509.887	416.75
510.103	418.75
510.319	435.75
510.536	519.75
510.752	831.75
510.968	656.75
511.184	425.75
511.401	418.75
511.617	403.75
511.833	414.75
512.049	414.75
512.265	413.75
512.481	420.75
512.698	387.75
512.914	401.75
513.13	403.75
513.346	391.75
513.562	421.75
513.778	419.75
513.994	415.75
514.21	396.75
514.426	456.75
514.642	482.75
514.858	481.75
515.074	528.75
515.29	652.75
515.506	926.75
515.721	732.75
515.937	519.75
516.153	457.75
516.369	443.75
516.585	418.75
516.801	405.75
517.016	398.75
517.232	397.75
517.448	412.75
517.664	418.75
517.879	396.75
518.095	421.75
518.311	402.75
518.527	413.75
518.742	397.75
518.958	400.75
519.173	415.75
519.389	407.75
519.605	398.75
519.82	393.75
520.036	408.75
520.251	435.75
520.467	467.75
520.682	450.75
520.898	449.75
521.113	482.75
521.329	513.75
521.544	580.75
521.76	771.75
521.975	1228.75
522.19	1143.75
522.406	643.75
522.621	491.75
522.836	421.75
523.052	385.75
523.267	382.75
523.482	397.75
523.698	388.75
523.913	379.75
524.128	375.75
524.343	364.75
524.559	353.75
524.774	355.75
524.989	363.75
525.204	350.75
525.419	368.75
525.634	359.75
525.849	319.75
526.064	338.75
526.28	335.75
526.495	337.75
526.71	333.75
526.925	336.75
527.14	331.75
527.355	324.75
527.57	324.75
527.785	337.75
527.999	315.75
528.214	324.75
528.429	331.75
528.644	331.75
528.859	332.75
529.074	327.75
529.289	365.75
529.503	424.75
529.718	381.75
529.933	342.75
530.148	364.75
530.363	352.75
530.577	340.75
530.792	320.75
531.007	311.75
531.221	303.75
531.436	304.75
531.651	312.75
531.865	319.75
532.08	323.75
532.295	324.75
532.509	320.75
532.724	287.75
532.938	316.75
533.153	303.75
533.367	306.75
533.582	317.75
533.796	319.75
534.011	303.75
534.225	322.75
534.44	295.75
534.654	318.75
534.868	309.75
535.083	311.75
535.297	285.75
535.511	319.75
535.726	311.75
535.94	322.75
536.154	320.75
536.369	312.75
536.583	299.75
536.797	311.75
537.011	316.75
537.225	290.75
537.44	288.75
537.654	295.75
537.868	297.75
538.082	297.75
538.296	297.75
538.51	300.75
538.724	298.75
538.938	303.75
539.153	299.75
539.367	337.75
539.581	317.75
539.795	299.75
540.009	296.75
540.222	294.75
540.436	311.75
540.65	314.75
540.864	306.75
541.078	317.75
541.292	327.75
541.506	297.75
541.72	297.75
541.934	289.75
542.147	306.75
542.361	307.75
542.575	288.75
542.789	284.75
543.002	295.75
543.216	286.75
543.43	291.75
543.644	295.75
543.857	310.75
544.071	304.75
544.285	284.75
544.498	307.75
544.712	301.75
544.925	316.75
545.139	306.75
545.352	298.75
545.566	304.75
545.779	294.75
545.993	287.75
546.206	305.75
546.42	283.75
546.633	276.75
546.847	282.75
547.06	291.75
547.274	287.75
547.487	288.75
547.7	281.75
547.914	283.75
548.127	285.75
548.34	279.75
548.554	283.75
548.767	271.75
548.98	307.75
549.193	281.75
549.407	279.75
549.62	264.75
549.833	290.75
550.046	274.75
550.259	267.75
550.473	272.75
550.686	263.75
550.899	281.75
551.112	286.75
551.325	259.75
551.538	276.75
551.751	266.75
551.964	290.75
552.177	276.75
552.39	282.75
552.603	269.75
552.816	282.75
553.029	265.75
553.242	278.75
553.455	292.75
553.667	288.75
553.88	289.75
554.093	295.75
554.306	288.75
554.519	276.75
554.732	269.75
554.944	283.75
555.157	277.75
555.37	276.75
555.583	276.75
555.795	274.75
556.008	273.75
556.221	264.75
556.433	274.75
556.646	262.75
556.859	258.75
557.071	252.75
557.284	263.75
557.496	260.75
557.709	239.75
557.921	261.75
558.134	268.75
558.346	248.75
558.559	248.75
558.771	246.75
558.984	247.75
559.196	245.75
559.409	255.75
559.621	248.75
559.833	251.75
560.046	266.75
560.258	262.75
560.47	268.75
560.683	249.75
560.895	241.75
561.107	237.75
561.32	256.75
561.532	258.75
561.744	254.75
561.956	236.75
562.168	268.75
562.381	264.75
562.593	250.75
562.805	248.75
563.017	253.75
563.229	250.75
563.441	239.75
563.653	268.75
563.865	255.75
564.077	247.75
564.289	264.75
564.501	250.75
564.713	258.75
564.925	259.75
565.137	266.75
565.349	260.75
565.561	262.75
565.773	265.75
565.985	256.75
566.197	269.75
566.408	266.75
566.62	280.75
566.832	277.75
567.044	271.75
567.255	294.75
567.467	275.75
567.679	297.75
567.891	295.75
568.102	285.75
568.314	289.75
568.526	267.75
568.737	279.75
568.949	270.75
569.161	263.75
569.372	263.75
569.584	249.75
569.795	260.75
570.007	259.75
570.218	284.75
570.43	279.75
570.641	252.75
570.853	264.75
571.064	248.75
571.276	236.75
571.487	243.75
571.698	251.75
571.91	228.75
572.121	247.75
572.333	219.75
572.544	232.75
572.755	215.75
572.966	219.75
573.178	218.75
573.389	236.75
573.6	226.75
573.811	228.75
574.023	224.75
574.234	215.75
574.445	231.75
574.656	206.75
574.867	217.75
575.078	228.75
575.289	229.75
575.501	234.75
575.712	221.75
575.923	225.75
576.134	212.75
576.345	218.75
576.556	202.75
576.767	219.75
576.978	209.75
577.188	230.75
577.399	225.75
577.61	219.75
577.821	213.75
578.032	208.75
578.243	256.75
578.454	401.75
578.665	296.75
578.875	231.75
579.086	209.75
579.297	213.75
579.508	229.75
579.718	216.75
579.929	207.75
580.14	235.75
580.35	215.75
580.561	210.75
580.772	201.75
580.982	195.75
581.193	212.75
581.403	200.75
581.614	212.75
581.825	210.75
582.035	196.75
582.246	212.75
582.456	209.75
582.667	195.75
582.877	207.75
583.087	220.75
583.298	215.75
583.508	223.75
583.719	203.75
583.929	201.75
584.139	201.75
584.35	193.75
584.56	212.75
584.77	202.75
584.981	208.75
585.191	201.75
585.401	213.75
585.611	211.75
585.821	202.75
586.032	203.75
586.242	200.75
586.452	211.75
586.662	191.75
586.872	206.75
587.082	217.75
587.292	206.75
587.502	200.75
587.713	179.75
587.923	191.75
588.133	191.75
588.343	195.75
588.553	214.75
588.762	186.75
588.972	191.75
589.182	208.75
589.392	177.75
589.602	190.75
589.812	191.75
590.022	214.75
590.232	199.75
590.441	200.75
590.651	188.75
590.861	189.75
591.071	207.75
591.281	210.75
591.49	199.75
591.7	195.75
591.91	196.75
592.119	207.75
592.329	180.75
592.539	205.75
592.748	202.75
592.958	191.75
593.167	196.75
593.377	200.75
593.587	194.75
593.796	194.75
594.006	204.75
594.215	203.75
594.424	189.75
594.634	190.75
594.843	196.75
595.053	183.75
595.262	190.75
595.472	199.75
595.681	207.75
595.89	177.75
596.1	198.75
596.309	188.75
596.518	204.75
596.727	197.75
596.937	171.75
597.146	197.75
597.355	201.75
597.564	183.75
597.774	178.75
597.983	196.75
598.192	183.75
598.401	175.75
598.61	183.75
598.819	194.75
599.028	175.75
599.237	180.75
599.446	182.75
599.655	172.75
599.864	175.75
600.073	185.75
600.282	189.75
600.491	180.75
600.7	187.75
600.909	183.75
601.118	179.75
601.327	184.75
601.536	181.75
601.745	175.75
601.953	171.75
602.162	173.75
602.371	202.75
602.58	175.75
602.789	178.75
602.997	181.75
603.206	170.75
603.415	182.75
603.623	188.75
603.832	171.75
604.041	176.75
604.249	171.75
604.458	183.75
604.666	186.75
604.875	168.75
605.084	178.75
605.292	151.75
605.501	161.75
605.709	171.75
605.918	181.75
606.126	171.75
606.334	170.75
606.543	175.75
606.751	168.75
606.96	165.75
607.168	175.75
607.376	194.75
607.585	183.75
607.793	169.75
608.001	183.75
608.21	175.75
608.418	164.75
608.626	162.75
608.834	164.75
609.043	181.75
609.251	190.75
609.459	182.75
609.667	184.75
609.875	177.75
610.083	176.75
610.291	174.75
610.499	160.75
610.707	179.75
610.916	169.75
611.124	178.75
611.332	170.75
611.54	168.75
611.748	161.75
611.955	159.75
612.163	181.75
612.371	167.75
612.579	177.75
612.787	170.75
612.995	175.75
613.203	171.75
613.411	153.75
613.618	169.75
613.826	172.75
614.034	181.75
614.242	168.75
614.449	165.75
614.657	163.75
614.865	165.75
615.072	157.75
615.28	179.75
615.488	179.75
615.695	172.75
615.903	171.75
616.111	190.75
616.318	174.75
616.526	169.75
616.733	181.75
616.941	164.75
617.148	169.75
617.356	163.75
617.563	156.75
617.771	159.75
617.978	164.75
618.185	141.75
618.393	143.75
618.6	156.75
618.807	160.75
619.015	161.75
619.222	165.75
619.429	147.75
619.637	148.75
619.844	170.75
620.051	166.75
620.258	160.75
620.466	140.75
620.673	160.75
620.88	152.75
621.087	148.75
621.294	157.75
621.501	166.75
621.708	157.75
621.915	164.75
622.122	168.75
622.329	171.75
622.536	163.75
622.743	156.75
622.95	159.75
623.157	178.75
623.364	156.75
623.571	138.75
623.778	160.75
623.985	151.75
624.192	156.75
624.399	160.75
624.606	163.75
624.812	156.75
625.019	151.75
625.226	134.75
625.433	152.75
625.639	161.75
625.846	162.75
626.053	168.75
626.259	142.75
626.466	151.75
626.673	161.75
626.879	164.75
627.086	151.75
627.293	149.75
627.499	141.75
627.706	134.75
627.912	158.75
628.119	166.75
628.325	144.75
628.532	150.75
628.738	135.75
628.945	152.75
629.151	147.75
629.357	127.75
629.564	140.75
629.77	133.75
629.976	146.75
630.183	148.75
630.389	148.75
630.595	142.75
630.802	162.75
631.008	138.75
631.214	132.75
631.42	141.75
631.627	153.75
631.833	135.75
632.039	130.75
632.245	133.75
632.451	153.75
632.657	147.75
632.863	139.75
633.069	147.75
633.275	143.75
633.481	139.75
633.688	139.75
633.893	135.75
634.099	122.75
634.305	158.75
634.511	142.75
634.717	155.75
634.923	145.75
635.129	137.75
635.335	130.75
635.541	147.75
635.747	139.75
635.952	131.75
636.158	124.75
636.364	157.75
636.57	143.75
636.775	142.75
636.981	137.75
637.187	149.75
637.392	145.75
637.598	127.75
637.804	145.75
638.009	153.75
638.215	135.75
638.421	123.75
638.626	134.75
638.832	145.75
639.037	137.75
639.243	123.75
639.448	141.75
639.654	140.75
639.859	127.75
640.065	124.75
640.27	135.75
640.475	136.75
640.681	130.75
640.886	127.75
641.091	137.75
641.297	127.75
641.502	143.75
641.707	143.75
641.913	120.75
642.118	132.75
642.323	119.75
642.528	131.75
642.733	129.75
642.939	138.75
643.144	143.75
643.349	131.75
643.554	137.75
643.759	130.75
643.964	123.75
644.169	134.75
644.374	131.75
644.579	131.75
644.784	135.75
644.989	122.75
645.194	143.75
645.399	123.75
645.604	135.75
645.809	122.75
646.014	131.75
646.219	144.75
646.423	130.75
646.628	126.75
646.833	130.75
647.038	131.75
647.243	140.75
647.447	140.75
647.652	129.75
647.857	143.75
648.062	123.75
648.266	129.75
648.471	127.75
648.676	121.75
648.88	127.75
649.085	134.75
649.289	142.75
649.494	139.75
649.698	140.75
649.903	141.75
650.107	135.75
650.312	139.75
650.516	113.75
650.721	115.75
650.925	126.75
651.13	125.75
651.334	133.75
651.539	110.75
651.743	120.75
651.947	106.75
652.152	127.75
652.356	121.75
652.56	116.75
652.764	113.75
652.969	123.75
653.173	113.75
653.377	116.75
653.581	119.75
653.785	116.75
653.99	111.75
654.194	122.75
654.398	106.75
654.602	127.75
654.806	119.75
655.01	122.75
655.214	121.75
655.418	125.75
655.622	116.75
655.826	118.75
656.03	123.75
656.234	105.75
656.438	107.75
656.642	125.75
656.846	112.75
657.049	117.75
657.253	122.75
657.457	106.75
657.661	95.75
657.865	91.75
658.068	103.75
658.272	103.75
658.476	97.75
658.68	103.75
658.883	99.75
659.087	98.75
659.291	112.75
659.494	94.75
659.698	82.75
659.901	89.75
660.105	87.75
660.309	102.75
660.512	106.75
660.716	73.75
660.919	95.75
661.123	93.75
661.326	85.75
661.53	77.75
661.733	91.75
661.936	83.75
662.14	74.75
662.343	94.75
662.546	85.75
662.75	77.75
662.953	90.75
663.156	84.75
663.36	84.75
663.563	76.75
663.766	75.75
663.969	75.75
664.173	79.75
664.376	89.75
664.579	81.75
664.782	67.75
664.985	87.75
665.188	77.75
665.391	81.75
665.594	76.75
665.797	78.75
666	79.75
666.203	76.75
666.406	92.75
666.609	77.75
666.812	73.75
667.015	77.75
667.218	85.75
667.421	84.75
667.624	95.75
667.827	80.75
668.03	62.75
668.232	65.75
668.435	87.75
668.638	76.75
668.841	88.75
669.043	69.75
669.246	79.75
669.449	81.75
669.651	80.75
669.854	80.75
670.057	94.75
670.259	93.75
670.462	80.75
670.665	92.75
670.867	74.75
671.07	88.75
671.272	81.75
671.475	94.75
671.677	76.75
671.88	68.75
672.082	78.75
672.284	86.75
672.487	88.75
672.689	78.75
672.892	80.75
