Data from 1982.PennyLincolnUp.Lamp.En5.5.200Scan.071819.P1_HRD10591_16-46-13-961.txt Node
Date: Thu Jul 18 16:46:13 EDT 2019
User: cochatt
Spectrometer: HR+D1059
Trigger mode: 1
Integration Time (sec): 1.000000E-1
Scans to average: 1
Electric dark correction enabled: true
Nonlinearity correction enabled: false
Boxcar width: 0
XAxis mode: Wavelengths
Number of Pixels in Spectrum: 2048
>>>>>Begin Spectral Data<<<<<
223.165	-10.31
223.4	-10.31
223.635	-10.31
223.869	-30.31
224.104	-18.31
224.338	-15.31
224.573	-19.31
224.808	2.69
225.042	-2.31
225.277	-15.31
225.511	-14.31
225.746	-4.31
225.98	6.69
226.215	8.69
226.449	18.69
226.683	28.69
226.918	28.69
227.152	35.69
227.387	25.69
227.621	38.69
227.856	33.69
228.09	49.69
228.324	46.69
228.559	50.69
228.793	72.69
229.027	87.69
229.262	108.69
229.496	97.69
229.73	110.69
229.964	121.69
230.199	99.69
230.433	106.69
230.667	100.69
230.901	107.69
231.136	109.69
231.37	98.69
231.604	81.69
231.838	91.69
232.072	109.69
232.306	110.69
232.541	93.69
232.775	102.69
233.009	116.69
233.243	88.69
233.477	87.69
233.711	104.69
233.945	119.69
234.179	104.69
234.413	107.69
234.647	104.69
234.881	98.69
235.115	108.69
235.349	107.69
235.583	106.69
235.817	108.69
236.051	110.69
236.285	104.69
236.519	94.69
236.753	123.69
236.987	123.69
237.221	169.69
237.455	192.69
237.689	154.69
237.922	130.69
238.156	106.69
238.39	104.69
238.624	109.69
238.858	114.69
239.091	108.69
239.325	101.69
239.559	104.69
239.793	120.69
240.027	121.69
240.26	124.69
240.494	128.69
240.728	123.69
240.961	122.69
241.195	130.69
241.429	114.69
241.662	127.69
241.896	121.69
242.13	107.69
242.363	102.69
242.597	108.69
242.83	112.69
243.064	116.69
243.298	109.69
243.531	108.69
243.765	118.69
243.998	110.69
244.232	116.69
244.465	140.69
244.699	116.69
244.932	108.69
245.166	114.69
245.399	114.69
245.633	123.69
245.866	127.69
246.099	125.69
246.333	112.69
246.566	122.69
246.8	126.69
247.033	133.69
247.266	135.69
247.5	132.69
247.733	128.69
247.966	144.69
248.2	132.69
248.433	156.69
248.666	148.69
248.899	142.69
249.133	150.69
249.366	159.69
249.599	160.69
249.832	147.69
250.066	155.69
250.299	150.69
250.532	166.69
250.765	155.69
250.998	184.69
251.231	162.69
251.465	167.69
251.698	165.69
251.931	165.69
252.164	166.69
252.397	158.69
252.63	160.69
252.863	164.69
253.096	153.69
253.329	186.69
253.562	176.69
253.795	168.69
254.028	180.69
254.261	184.69
254.494	180.69
254.727	191.69
254.96	222.69
255.193	223.69
255.426	213.69
255.659	188.69
255.892	200.69
256.124	189.69
256.357	192.69
256.59	176.69
256.823	184.69
257.056	163.69
257.289	160.69
257.521	178.69
257.754	173.69
257.987	176.69
258.22	176.69
258.452	180.69
258.685	172.69
258.918	172.69
259.151	172.69
259.383	186.69
259.616	177.69
259.849	194.69
260.081	196.69
260.314	201.69
260.547	228.69
260.779	204.69
261.012	170.69
261.244	182.69
261.477	186.69
261.71	185.69
261.942	178.69
262.175	182.69
262.407	177.69
262.64	161.69
262.872	166.69
263.105	170.69
263.337	172.69
263.57	156.69
263.802	172.69
264.035	155.69
264.267	188.69
264.499	177.69
264.732	180.69
264.964	173.69
265.197	156.69
265.429	165.69
265.661	149.69
265.894	169.69
266.126	178.69
266.358	178.69
266.591	170.69
266.823	178.69
267.055	199.69
267.287	181.69
267.52	175.69
267.752	177.69
267.984	178.69
268.216	187.69
268.448	180.69
268.681	200.69
268.913	191.69
269.145	221.69
269.377	226.69
269.609	216.69
269.841	212.69
270.073	228.69
270.306	234.69
270.538	237.69
270.77	247.69
271.002	233.69
271.234	240.69
271.466	234.69
271.698	244.69
271.93	227.69
272.162	228.69
272.394	243.69
272.626	240.69
272.858	228.69
273.09	212.69
273.322	234.69
273.553	211.69
273.785	198.69
274.017	193.69
274.249	204.69
274.481	206.69
274.713	200.69
274.945	195.69
275.176	200.69
275.408	217.69
275.64	230.69
275.872	197.69
276.104	203.69
276.335	214.69
276.567	202.69
276.799	230.69
277.031	252.69
277.262	242.69
277.494	259.69
277.726	239.69
277.957	233.69
278.189	226.69
278.421	214.69
278.652	230.69
278.884	190.69
279.115	210.69
279.347	205.69
279.579	200.69
279.81	198.69
280.042	188.69
280.273	205.69
280.505	220.69
280.736	199.69
280.968	194.69
281.199	188.69
281.431	204.69
281.662	219.69
281.894	213.69
282.125	205.69
282.356	219.69
282.588	225.69
282.819	240.69
283.051	204.69
283.282	205.69
283.513	229.69
283.745	214.69
283.976	210.69
284.207	225.69
284.439	223.69
284.67	208.69
284.901	230.69
285.132	217.69
285.364	219.69
285.595	221.69
285.826	218.69
286.057	211.69
286.288	192.69
286.52	204.69
286.751	209.69
286.982	215.69
287.213	213.69
287.444	214.69
287.675	202.69
287.906	234.69
288.138	235.69
288.369	226.69
288.6	245.69
288.831	225.69
289.062	222.69
289.293	224.69
289.524	227.69
289.755	236.69
289.986	209.69
290.217	215.69
290.448	201.69
290.679	225.69
290.91	212.69
291.141	226.69
291.371	220.69
291.602	219.69
291.833	226.69
292.064	224.69
292.295	227.69
292.526	219.69
292.757	218.69
292.987	224.69
293.218	226.69
293.449	226.69
293.68	205.69
293.91	233.69
294.141	227.69
294.372	230.69
294.603	235.69
294.833	218.69
295.064	230.69
295.295	226.69
295.525	236.69
295.756	212.69
295.987	226.69
296.217	240.69
296.448	262.69
296.679	224.69
296.909	221.69
297.14	235.69
297.37	220.69
297.601	233.69
297.831	233.69
298.062	228.69
298.292	224.69
298.523	246.69
298.753	224.69
298.984	226.69
299.214	223.69
299.445	232.69
299.675	241.69
299.905	237.69
300.136	221.69
300.366	237.69
300.597	230.69
300.827	245.69
301.057	235.69
301.288	252.69
301.518	233.69
301.748	263.69
301.979	256.69
302.209	235.69
302.439	235.69
302.669	236.69
302.9	248.69
303.13	243.69
303.36	228.69
303.59	265.69
303.82	259.69
304.051	255.69
304.281	242.69
304.511	252.69
304.741	252.69
304.971	249.69
305.201	236.69
305.431	250.69
305.661	268.69
305.891	229.69
306.121	248.69
306.352	268.69
306.582	255.69
306.812	260.69
307.042	246.69
307.272	248.69
307.502	253.69
307.731	251.69
307.961	255.69
308.191	260.69
308.421	242.69
308.651	270.69
308.881	274.69
309.111	263.69
309.341	248.69
309.571	263.69
309.8	283.69
310.03	274.69
310.26	282.69
310.49	267.69
310.72	297.69
310.949	326.69
311.179	316.69
311.409	302.69
311.639	286.69
311.868	292.69
312.098	283.69
312.328	302.69
312.557	302.69
312.787	329.69
313.017	308.69
313.246	286.69
313.476	289.69
313.706	290.69
313.935	283.69
314.165	315.69
314.394	305.69
314.624	278.69
314.853	297.69
315.083	296.69
315.312	283.69
315.542	282.69
315.771	282.69
316.001	280.69
316.23	296.69
316.46	270.69
316.689	304.69
316.919	290.69
317.148	298.69
317.377	305.69
317.607	281.69
317.836	289.69
318.065	271.69
318.295	290.69
318.524	293.69
318.753	285.69
318.983	280.69
319.212	276.69
319.441	309.69
319.67	301.69
319.9	300.69
320.129	286.69
320.358	275.69
320.587	280.69
320.816	278.69
321.046	307.69
321.275	314.69
321.504	306.69
321.733	314.69
321.962	312.69
322.191	346.69
322.42	327.69
322.649	349.69
322.878	357.69
323.108	367.69
323.337	383.69
323.566	391.69
323.795	419.69
324.024	465.69
324.253	600.69
324.482	870.69
324.71	1307.69
324.939	1718.69
325.168	1392.69
325.397	742.69
325.626	486.69
325.855	433.69
326.084	401.69
326.313	390.69
326.542	418.69
326.77	445.69
326.999	556.69
327.228	774.69
327.457	1089.69
327.686	1208.69
327.914	828.69
328.143	572.69
328.372	461.69
328.6	471.69
328.829	446.69
329.058	447.69
329.287	440.69
329.515	420.69
329.744	404.69
329.972	399.69
330.201	385.69
330.43	420.69
330.658	469.69
330.887	458.69
331.115	438.69
331.344	393.69
331.572	372.69
331.801	380.69
332.03	363.69
332.258	344.69
332.486	352.69
332.715	330.69
332.943	326.69
333.172	310.69
333.4	357.69
333.629	348.69
333.857	354.69
334.085	360.69
334.314	377.69
334.542	395.69
334.771	391.69
334.999	368.69
335.227	331.69
335.455	347.69
335.684	350.69
335.912	340.69
336.14	330.69
336.369	324.69
336.597	329.69
336.825	343.69
337.053	342.69
337.281	310.69
337.51	327.69
337.738	328.69
337.966	323.69
338.194	324.69
338.422	340.69
338.65	309.69
338.878	316.69
339.106	330.69
339.334	331.69
339.562	313.69
339.79	313.69
340.018	328.69
340.246	329.69
340.474	329.69
340.702	322.69
340.93	311.69
341.158	301.69
341.386	296.69
341.614	315.69
341.842	316.69
342.07	304.69
342.298	294.69
342.526	311.69
342.754	300.69
342.981	300.69
343.209	302.69
343.437	313.69
343.665	313.69
343.893	296.69
344.12	295.69
344.348	334.69
344.576	310.69
344.804	323.69
345.031	324.69
345.259	327.69
345.487	330.69
345.714	309.69
345.942	312.69
346.17	299.69
346.397	324.69
346.625	303.69
346.853	314.69
347.08	308.69
347.308	330.69
347.535	311.69
347.763	313.69
347.99	326.69
348.218	312.69
348.445	314.69
348.673	324.69
348.9	312.69
349.128	303.69
349.355	267.69
349.583	315.69
349.81	291.69
350.037	295.69
350.265	290.69
350.492	290.69
350.72	310.69
350.947	285.69
351.174	298.69
351.402	328.69
351.629	299.69
351.856	315.69
352.083	320.69
352.311	326.69
352.538	320.69
352.765	314.69
352.992	316.69
353.22	314.69
353.447	313.69
353.674	298.69
353.901	300.69
354.128	267.69
354.355	268.69
354.583	281.69
354.81	299.69
355.037	265.69
355.264	278.69
355.491	275.69
355.718	294.69
355.945	285.69
356.172	274.69
356.399	264.69
356.626	276.69
356.853	271.69
357.08	267.69
357.307	269.69
357.534	289.69
357.761	296.69
357.988	266.69
358.215	278.69
358.441	275.69
358.668	287.69
358.895	294.69
359.122	285.69
359.349	288.69
359.576	306.69
359.802	313.69
360.029	340.69
360.256	344.69
360.483	326.69
360.709	306.69
360.936	300.69
361.163	311.69
361.39	304.69
361.616	298.69
361.843	309.69
362.07	296.69
362.296	285.69
362.523	328.69
362.749	309.69
362.976	301.69
363.203	313.69
363.429	298.69
363.656	291.69
363.882	293.69
364.109	291.69
364.335	284.69
364.562	265.69
364.788	282.69
365.015	286.69
365.241	276.69
365.468	295.69
365.694	288.69
365.92	293.69
366.147	304.69
366.373	295.69
366.599	276.69
366.826	292.69
367.052	295.69
367.278	291.69
367.505	271.69
367.731	292.69
367.957	305.69
368.184	290.69
368.41	290.69
368.636	272.69
368.862	286.69
369.089	305.69
369.315	276.69
369.541	297.69
369.767	292.69
369.993	295.69
370.219	273.69
370.445	283.69
370.672	285.69
370.898	275.69
371.124	269.69
371.35	284.69
371.576	268.69
371.802	269.69
372.028	281.69
372.254	288.69
372.48	266.69
372.706	285.69
372.932	273.69
373.158	264.69
373.384	278.69
373.61	263.69
373.835	273.69
374.061	277.69
374.287	277.69
374.513	266.69
374.739	248.69
374.965	297.69
375.191	267.69
375.416	280.69
375.642	270.69
375.868	280.69
376.094	261.69
376.319	276.69
376.545	280.69
376.771	282.69
376.997	273.69
377.222	267.69
377.448	266.69
377.674	258.69
377.899	262.69
378.125	272.69
378.35	270.69
378.576	288.69
378.802	241.69
379.027	261.69
379.253	266.69
379.478	277.69
379.704	271.69
379.929	268.69
380.155	267.69
380.38	279.69
380.606	267.69
380.831	262.69
381.057	281.69
381.282	272.69
381.507	283.69
381.733	258.69
381.958	278.69
382.184	260.69
382.409	278.69
382.634	292.69
382.86	264.69
383.085	259.69
383.31	279.69
383.535	291.69
383.761	279.69
383.986	270.69
384.211	265.69
384.436	265.69
384.662	307.69
384.887	275.69
385.112	264.69
385.337	256.69
385.562	281.69
385.787	290.69
386.013	285.69
386.238	293.69
386.463	281.69
386.688	306.69
386.913	286.69
387.138	270.69
387.363	275.69
387.588	290.69
387.813	286.69
388.038	290.69
388.263	271.69
388.488	284.69
388.713	274.69
388.938	268.69
389.163	265.69
389.387	297.69
389.612	294.69
389.837	285.69
390.062	279.69
390.287	273.69
390.512	277.69
390.736	275.69
390.961	299.69
391.186	293.69
391.411	273.69
391.636	295.69
391.86	289.69
392.085	293.69
392.31	287.69
392.534	281.69
392.759	275.69
392.984	275.69
393.208	286.69
393.433	294.69
393.658	290.69
393.882	273.69
394.107	259.69
394.331	260.69
394.556	275.69
394.78	285.69
395.005	276.69
395.229	291.69
395.454	288.69
395.678	280.69
395.903	292.69
396.127	293.69
396.352	302.69
396.576	274.69
396.801	291.69
397.025	291.69
397.249	282.69
397.474	293.69
397.698	296.69
397.922	298.69
398.147	316.69
398.371	322.69
398.595	307.69
398.82	292.69
399.044	330.69
399.268	334.69
399.492	340.69
399.717	325.69
399.941	355.69
400.165	376.69
400.389	362.69
400.613	343.69
400.837	329.69
401.062	306.69
401.286	320.69
401.51	317.69
401.734	306.69
401.958	333.69
402.182	324.69
402.406	317.69
402.63	323.69
402.854	310.69
403.078	321.69
403.302	324.69
403.526	322.69
403.75	308.69
403.974	330.69
404.198	306.69
404.422	322.69
404.645	326.69
404.869	328.69
405.093	351.69
405.317	371.69
405.541	362.69
405.765	362.69
405.988	363.69
406.212	364.69
406.436	348.69
406.66	361.69
406.883	348.69
407.107	373.69
407.331	393.69
407.555	413.69
407.778	420.69
408.002	384.69
408.226	360.69
408.449	357.69
408.673	365.69
408.896	375.69
409.12	378.69
409.344	376.69
409.567	332.69
409.791	310.69
410.014	326.69
410.238	325.69
410.461	313.69
410.685	325.69
410.908	337.69
411.132	359.69
411.355	360.69
411.578	371.69
411.802	322.69
412.025	322.69
412.249	349.69
412.472	352.69
412.695	363.69
412.919	344.69
413.142	314.69
413.365	330.69
413.589	313.69
413.812	313.69
414.035	295.69
414.258	306.69
414.482	317.69
414.705	321.69
414.928	296.69
415.151	288.69
415.374	301.69
415.597	278.69
415.821	297.69
416.044	297.69
416.267	309.69
416.49	306.69
416.713	295.69
416.936	311.69
417.159	301.69
417.382	309.69
417.605	316.69
417.828	315.69
418.051	331.69
418.274	317.69
418.497	294.69
418.72	311.69
418.943	302.69
419.166	302.69
419.389	329.69
419.611	318.69
419.834	312.69
420.057	335.69
420.28	309.69
420.503	320.69
420.726	307.69
420.948	336.69
421.171	350.69
421.394	388.69
421.617	330.69
421.839	330.69
422.062	315.69
422.285	330.69
422.507	357.69
422.73	412.69
422.953	390.69
423.175	345.69
423.398	352.69
423.621	353.69
423.843	344.69
424.066	328.69
424.288	345.69
424.511	349.69
424.733	400.69
424.956	432.69
425.178	436.69
425.401	420.69
425.623	434.69
425.846	394.69
426.068	358.69
426.291	347.69
426.513	350.69
426.735	352.69
426.958	388.69
427.18	446.69
427.402	489.69
427.625	549.69
427.847	489.69
428.069	431.69
428.292	393.69
428.514	330.69
428.736	335.69
428.958	355.69
429.181	318.69
429.403	309.69
429.625	325.69
429.847	345.69
430.069	376.69
430.292	403.69
430.514	332.69
430.736	320.69
430.958	325.69
431.18	304.69
431.402	304.69
431.624	301.69
431.846	293.69
432.068	299.69
432.29	294.69
432.512	280.69
432.734	315.69
432.956	312.69
433.178	316.69
433.4	331.69
433.622	284.69
433.844	300.69
434.066	305.69
434.287	306.69
434.509	311.69
434.731	308.69
434.953	328.69
435.175	319.69
435.397	349.69
435.618	364.69
435.84	382.69
436.062	432.69
436.284	484.69
436.505	401.69
436.727	365.69
436.949	344.69
437.17	325.69
437.392	325.69
437.614	341.69
437.835	361.69
438.057	430.69
438.278	452.69
438.5	474.69
438.721	517.69
438.943	476.69
439.165	386.69
439.386	374.69
439.608	347.69
439.829	370.69
440.05	381.69
440.272	394.69
440.493	384.69
440.715	332.69
440.936	340.69
441.158	341.69
441.379	338.69
441.6	346.69
441.822	345.69
442.043	363.69
442.264	425.69
442.486	448.69
442.707	376.69
442.928	355.69
443.149	370.69
443.371	362.69
443.592	406.69
443.813	435.69
444.034	483.69
444.255	410.69
444.476	361.69
444.698	347.69
444.919	335.69
445.14	436.69
445.361	406.69
445.582	371.69
445.803	416.69
446.024	487.69
446.245	489.69
446.466	444.69
446.687	382.69
446.908	345.69
447.129	325.69
447.35	322.69
447.571	318.69
447.792	324.69
448.013	345.69
448.234	344.69
448.455	385.69
448.675	425.69
448.896	498.69
449.117	440.69
449.338	422.69
449.559	480.69
449.779	529.69
450	432.69
450.221	358.69
450.442	331.69
450.662	328.69
450.883	337.69
451.104	349.69
451.324	335.69
451.545	315.69
451.766	305.69
451.986	301.69
452.207	294.69
452.428	271.69
452.648	299.69
452.869	299.69
453.089	326.69
453.31	305.69
453.53	299.69
453.751	293.69
453.971	301.69
454.192	298.69
454.412	291.69
454.633	293.69
454.853	315.69
455.073	290.69
455.294	314.69
455.514	368.69
455.734	348.69
455.955	308.69
456.175	289.69
456.395	284.69
456.616	257.69
456.836	268.69
457.056	276.69
457.276	272.69
457.497	283.69
457.717	284.69
457.937	285.69
458.157	302.69
458.377	294.69
458.598	322.69
458.818	348.69
459.038	387.69
459.258	411.69
459.478	320.69
459.698	291.69
459.918	306.69
460.138	312.69
460.358	315.69
460.578	306.69
460.798	303.69
461.018	326.69
461.238	306.69
461.458	303.69
461.678	308.69
461.898	308.69
462.118	290.69
462.338	318.69
462.558	323.69
462.777	320.69
462.997	315.69
463.217	312.69
463.437	296.69
463.657	317.69
463.876	320.69
464.096	314.69
464.316	320.69
464.536	331.69
464.755	336.69
464.975	343.69
465.195	362.69
465.414	406.69
465.634	377.69
465.854	332.69
466.073	300.69
466.293	320.69
466.512	291.69
466.732	304.69
466.951	284.69
467.171	296.69
467.391	293.69
467.61	323.69
467.829	321.69
468.049	310.69
468.268	292.69
468.488	286.69
468.707	294.69
468.927	282.69
469.146	282.69
469.365	287.69
469.585	283.69
469.804	285.69
470.023	288.69
470.243	285.69
470.462	312.69
470.681	331.69
470.901	317.69
471.12	307.69
471.339	296.69
471.558	293.69
471.777	307.69
471.997	303.69
472.216	313.69
472.435	308.69
472.654	328.69
472.873	295.69
473.092	320.69
473.311	289.69
473.53	296.69
473.749	325.69
473.968	349.69
474.187	404.69
474.406	416.69
474.625	330.69
474.844	318.69
475.063	297.69
475.282	313.69
475.501	315.69
475.72	305.69
475.939	280.69
476.158	297.69
476.377	299.69
476.596	305.69
476.814	317.69
477.033	328.69
477.252	315.69
477.471	307.69
477.69	319.69
477.908	311.69
478.127	324.69
478.346	330.69
478.564	303.69
478.783	309.69
479.002	324.69
479.22	323.69
479.439	350.69
479.658	365.69
479.876	333.69
480.095	368.69
480.313	382.69
480.532	374.69
480.751	359.69
480.969	385.69
481.188	396.69
481.406	435.69
481.624	381.69
481.843	374.69
482.061	349.69
482.28	350.69
482.498	352.69
482.717	349.69
482.935	342.69
483.153	345.69
483.372	339.69
483.59	354.69
483.808	345.69
484.027	352.69
484.245	350.69
484.463	356.69
484.681	364.69
484.9	339.69
485.118	355.69
485.336	358.69
485.554	359.69
485.772	343.69
485.99	354.69
486.209	340.69
486.427	354.69
486.645	368.69
486.863	370.69
487.081	366.69
487.299	370.69
487.517	377.69
487.735	358.69
487.953	367.69
488.171	388.69
488.389	382.69
488.607	377.69
488.825	370.69
489.043	372.69
489.261	370.69
489.479	384.69
489.696	376.69
489.914	387.69
490.132	395.69
490.35	405.69
490.568	384.69
490.786	389.69
491.003	410.69
491.221	420.69
491.439	410.69
491.657	417.69
491.874	413.69
492.092	420.69
492.31	422.69
492.527	429.69
492.745	435.69
492.963	429.69
493.18	432.69
493.398	408.69
493.615	432.69
493.833	423.69
494.05	407.69
494.268	420.69
494.485	409.69
494.703	438.69
494.92	440.69
495.138	429.69
495.355	436.69
495.573	436.69
495.79	435.69
496.008	444.69
496.225	437.69
496.442	440.69
496.66	437.69
496.877	433.69
497.094	456.69
497.312	440.69
497.529	453.69
497.746	436.69
497.963	444.69
498.181	455.69
498.398	470.69
498.615	466.69
498.832	472.69
499.049	489.69
499.267	482.69
499.484	490.69
499.701	510.69
499.918	507.69
500.135	510.69
500.352	527.69
500.569	534.69
500.786	561.69
501.003	558.69
501.22	522.69
501.437	497.69
501.654	539.69
501.871	525.69
502.088	515.69
502.305	486.69
502.522	492.69
502.739	486.69
502.956	470.69
503.172	439.69
503.389	462.69
503.606	434.69
503.823	463.69
504.04	445.69
504.256	418.69
504.473	437.69
504.69	443.69
504.907	444.69
505.123	430.69
505.34	434.69
505.557	433.69
505.773	432.69
505.99	436.69
506.207	404.69
506.423	424.69
506.64	390.69
506.856	425.69
507.073	423.69
507.289	405.69
507.506	405.69
507.722	436.69
507.939	426.69
508.155	419.69
508.372	417.69
508.588	406.69
508.805	410.69
509.021	411.69
509.238	424.69
509.454	414.69
509.67	420.69
509.887	385.69
510.103	420.69
510.319	415.69
510.536	490.69
510.752	834.69
510.968	629.69
511.184	434.69
511.401	432.69
511.617	391.69
511.833	404.69
512.049	394.69
512.265	396.69
512.481	378.69
512.698	399.69
512.914	380.69
513.13	375.69
513.346	390.69
513.562	391.69
513.778	392.69
513.994	394.69
514.21	420.69
514.426	418.69
514.642	444.69
514.858	471.69
515.074	497.69
515.29	620.69
515.506	893.69
515.721	688.69
515.937	490.69
516.153	443.69
516.369	413.69
516.585	429.69
516.801	413.69
517.016	381.69
517.232	380.69
517.448	388.69
517.664	390.69
517.879	395.69
518.095	387.69
518.311	385.69
518.527	405.69
518.742	384.69
518.958	388.69
519.173	387.69
519.389	361.69
519.605	378.69
519.82	396.69
520.036	395.69
520.251	422.69
520.467	436.69
520.682	444.69
520.898	427.69
521.113	461.69
521.329	497.69
521.544	553.69
521.76	712.69
521.975	1154.69
522.19	1092.69
522.406	601.69
522.621	455.69
522.836	422.69
523.052	399.69
523.267	377.69
523.482	370.69
523.698	370.69
523.913	373.69
524.128	345.69
524.343	356.69
524.559	358.69
524.774	330.69
524.989	348.69
525.204	354.69
525.419	334.69
525.634	324.69
525.849	313.69
526.064	321.69
526.28	323.69
526.495	319.69
526.71	336.69
526.925	342.69
527.14	329.69
527.355	308.69
527.57	305.69
527.785	311.69
527.999	326.69
528.214	308.69
528.429	314.69
528.644	311.69
528.859	308.69
529.074	329.69
529.289	354.69
529.503	394.69
529.718	366.69
529.933	348.69
530.148	325.69
530.363	340.69
530.577	324.69
530.792	309.69
531.007	309.69
531.221	324.69
531.436	314.69
531.651	302.69
531.865	303.69
532.08	280.69
532.295	303.69
532.509	294.69
532.724	278.69
532.938	313.69
533.153	293.69
533.367	289.69
533.582	295.69
533.796	289.69
534.011	318.69
534.225	287.69
534.44	296.69
534.654	300.69
534.868	286.69
535.083	312.69
535.297	300.69
535.511	299.69
535.726	312.69
535.94	305.69
536.154	309.69
536.369	309.69
536.583	307.69
536.797	279.69
537.011	292.69
537.225	288.69
537.44	283.69
537.654	294.69
537.868	312.69
538.082	296.69
538.296	292.69
538.51	311.69
538.724	277.69
538.938	291.69
539.153	295.69
539.367	293.69
539.581	306.69
539.795	301.69
540.009	290.69
540.222	306.69
540.436	293.69
540.65	303.69
540.864	308.69
541.078	286.69
541.292	297.69
541.506	283.69
541.72	290.69
541.934	315.69
542.147	293.69
542.361	292.69
542.575	293.69
542.789	304.69
543.002	292.69
543.216	290.69
543.43	295.69
543.644	313.69
543.857	297.69
544.071	302.69
544.285	290.69
544.498	284.69
544.712	286.69
544.925	281.69
545.139	291.69
545.352	295.69
545.566	287.69
545.779	283.69
545.993	284.69
546.206	281.69
546.42	302.69
546.633	286.69
546.847	276.69
547.06	274.69
547.274	259.69
547.487	287.69
547.7	272.69
547.914	277.69
548.127	272.69
548.34	283.69
548.554	272.69
548.767	275.69
548.98	270.69
549.193	279.69
549.407	280.69
549.62	274.69
549.833	267.69
550.046	295.69
550.259	273.69
550.473	258.69
550.686	281.69
550.899	264.69
551.112	273.69
551.325	290.69
551.538	242.69
551.751	268.69
551.964	256.69
552.177	271.69
552.39	260.69
552.603	273.69
552.816	262.69
553.029	283.69
553.242	278.69
553.455	266.69
553.667	272.69
553.88	270.69
554.093	300.69
554.306	275.69
554.519	262.69
554.732	266.69
554.944	258.69
555.157	270.69
555.37	266.69
555.583	260.69
555.795	250.69
556.008	264.69
556.221	253.69
556.433	278.69
556.646	256.69
556.859	265.69
557.071	247.69
557.284	263.69
557.496	260.69
557.709	250.69
557.921	260.69
558.134	233.69
558.346	251.69
558.559	246.69
558.771	258.69
558.984	236.69
559.196	266.69
559.409	242.69
559.621	245.69
559.833	241.69
560.046	235.69
560.258	218.69
560.47	234.69
560.683	243.69
560.895	229.69
561.107	242.69
561.32	232.69
561.532	248.69
561.744	244.69
561.956	238.69
562.168	244.69
562.381	235.69
562.593	244.69
562.805	260.69
563.017	260.69
563.229	253.69
563.441	252.69
563.653	250.69
563.865	261.69
564.077	255.69
564.289	253.69
564.501	244.69
564.713	252.69
564.925	242.69
565.137	275.69
565.349	256.69
565.561	271.69
565.773	250.69
565.985	272.69
566.197	257.69
566.408	267.69
566.62	290.69
566.832	280.69
567.044	270.69
567.255	295.69
567.467	266.69
567.679	279.69
567.891	295.69
568.102	291.69
568.314	267.69
568.526	282.69
568.737	274.69
568.949	254.69
569.161	266.69
569.372	248.69
569.584	264.69
569.795	258.69
570.007	259.69
570.218	278.69
570.43	284.69
570.641	259.69
570.853	240.69
571.064	254.69
571.276	249.69
571.487	233.69
571.698	232.69
571.91	247.69
572.121	239.69
572.333	242.69
572.544	211.69
572.755	215.69
572.966	221.69
573.178	230.69
573.389	220.69
573.6	242.69
573.811	214.69
574.023	220.69
574.234	222.69
574.445	206.69
574.656	223.69
574.867	210.69
575.078	212.69
575.289	206.69
575.501	221.69
575.712	202.69
575.923	217.69
576.134	219.69
576.345	217.69
576.556	219.69
576.767	203.69
576.978	194.69
577.188	209.69
577.399	196.69
577.61	209.69
577.821	220.69
578.032	225.69
578.243	243.69
578.454	396.69
578.665	295.69
578.875	226.69
579.086	231.69
579.297	225.69
579.508	206.69
579.718	217.69
579.929	209.69
580.14	224.69
580.35	203.69
580.561	212.69
580.772	209.69
580.982	204.69
581.193	205.69
581.403	194.69
581.614	191.69
581.825	201.69
582.035	193.69
582.246	206.69
582.456	199.69
582.667	202.69
582.877	194.69
583.087	196.69
583.298	194.69
583.508	190.69
583.719	199.69
583.929	201.69
584.139	198.69
584.35	203.69
584.56	188.69
584.77	209.69
584.981	188.69
585.191	205.69
585.401	196.69
585.611	175.69
585.821	209.69
586.032	208.69
586.242	200.69
586.452	206.69
586.662	193.69
586.872	195.69
587.082	191.69
587.292	184.69
587.502	195.69
587.713	190.69
587.923	190.69
588.133	200.69
588.343	186.69
588.553	199.69
588.762	204.69
588.972	198.69
589.182	201.69
589.392	195.69
589.602	204.69
589.812	198.69
590.022	204.69
590.232	184.69
590.441	166.69
590.651	198.69
590.861	197.69
591.071	194.69
591.281	188.69
591.49	182.69
591.7	201.69
591.91	187.69
592.119	196.69
592.329	186.69
592.539	192.69
592.748	195.69
592.958	202.69
593.167	192.69
593.377	191.69
593.587	212.69
593.796	201.69
594.006	199.69
594.215	206.69
594.424	201.69
594.634	203.69
594.843	199.69
595.053	189.69
595.262	189.69
595.472	197.69
595.681	190.69
595.89	191.69
596.1	198.69
596.309	171.69
596.518	180.69
596.727	184.69
596.937	182.69
597.146	185.69
597.355	190.69
597.564	178.69
597.774	186.69
597.983	185.69
598.192	182.69
598.401	188.69
598.61	174.69
598.819	182.69
599.028	184.69
599.237	191.69
599.446	166.69
599.655	180.69
599.864	186.69
600.073	169.69
600.282	182.69
600.491	187.69
600.7	189.69
600.909	184.69
601.118	170.69
601.327	156.69
601.536	173.69
601.745	169.69
601.953	174.69
602.162	172.69
602.371	171.69
602.58	179.69
602.789	163.69
602.997	183.69
603.206	183.69
603.415	159.69
603.623	169.69
603.832	169.69
604.041	172.69
604.249	161.69
604.458	153.69
604.666	166.69
604.875	169.69
605.084	169.69
605.292	178.69
605.501	154.69
605.709	164.69
605.918	164.69
606.126	172.69
606.334	169.69
606.543	178.69
606.751	163.69
606.96	159.69
607.168	187.69
607.376	169.69
607.585	169.69
607.793	173.69
608.001	178.69
608.21	182.69
608.418	161.69
608.626	168.69
608.834	171.69
609.043	173.69
609.251	168.69
609.459	162.69
609.667	179.69
609.875	164.69
610.083	163.69
610.291	174.69
610.499	153.69
610.707	174.69
610.916	169.69
611.124	196.69
611.332	187.69
611.54	188.69
611.748	182.69
611.955	163.69
612.163	169.69
612.371	166.69
612.579	166.69
612.787	168.69
612.995	168.69
613.203	167.69
613.411	173.69
613.618	153.69
613.826	172.69
614.034	178.69
614.242	168.69
614.449	166.69
614.657	154.69
614.865	187.69
615.072	173.69
615.28	173.69
615.488	173.69
615.695	171.69
615.903	154.69
616.111	160.69
616.318	172.69
616.526	179.69
616.733	156.69
616.941	180.69
617.148	170.69
617.356	168.69
617.563	167.69
617.771	156.69
617.978	146.69
618.185	156.69
618.393	171.69
618.6	160.69
618.807	160.69
619.015	167.69
619.222	176.69
619.429	152.69
619.637	155.69
619.844	154.69
620.051	153.69
620.258	150.69
620.466	161.69
620.673	161.69
620.88	157.69
621.087	164.69
621.294	160.69
621.501	151.69
621.708	155.69
621.915	161.69
622.122	161.69
622.329	146.69
622.536	177.69
622.743	165.69
622.95	169.69
623.157	148.69
623.364	156.69
623.571	149.69
623.778	151.69
623.985	157.69
624.192	154.69
624.399	161.69
624.606	152.69
624.812	162.69
625.019	156.69
625.226	146.69
625.433	169.69
625.639	150.69
625.846	155.69
626.053	144.69
626.259	138.69
626.466	138.69
626.673	147.69
626.879	140.69
627.086	145.69
627.293	154.69
627.499	149.69
627.706	162.69
627.912	141.69
628.119	148.69
628.325	154.69
628.532	129.69
628.738	145.69
628.945	156.69
629.151	158.69
629.357	132.69
629.564	138.69
629.77	155.69
629.976	141.69
630.183	138.69
630.389	148.69
630.595	153.69
630.802	147.69
631.008	138.69
631.214	147.69
631.42	151.69
631.627	147.69
631.833	151.69
632.039	139.69
632.245	138.69
632.451	136.69
632.657	138.69
632.863	139.69
633.069	138.69
633.275	138.69
633.481	146.69
633.688	130.69
633.893	149.69
634.099	128.69
634.305	148.69
634.511	144.69
634.717	146.69
634.923	139.69
635.129	139.69
635.335	143.69
635.541	130.69
635.747	129.69
635.952	136.69
636.158	139.69
636.364	129.69
636.57	140.69
636.775	136.69
636.981	144.69
637.187	148.69
637.392	134.69
637.598	150.69
637.804	139.69
638.009	148.69
638.215	138.69
638.421	142.69
638.626	136.69
638.832	134.69
639.037	124.69
639.243	126.69
639.448	143.69
639.654	133.69
639.859	120.69
640.065	128.69
640.27	134.69
640.475	131.69
640.681	127.69
640.886	133.69
641.091	138.69
641.297	134.69
641.502	129.69
641.707	135.69
641.913	131.69
642.118	138.69
642.323	155.69
642.528	144.69
642.733	132.69
642.939	121.69
643.144	130.69
643.349	131.69
643.554	136.69
643.759	124.69
643.964	132.69
644.169	131.69
644.374	137.69
644.579	135.69
644.784	117.69
644.989	128.69
645.194	125.69
645.399	139.69
645.604	134.69
645.809	130.69
646.014	132.69
646.219	124.69
646.423	134.69
646.628	126.69
646.833	117.69
647.038	118.69
647.243	146.69
647.447	124.69
647.652	128.69
647.857	157.69
648.062	130.69
648.266	134.69
648.471	132.69
648.676	128.69
648.88	129.69
649.085	130.69
649.289	136.69
649.494	133.69
649.698	149.69
649.903	150.69
650.107	137.69
650.312	125.69
650.516	117.69
650.721	139.69
650.925	115.69
651.13	107.69
651.334	112.69
651.539	123.69
651.743	126.69
651.947	121.69
652.152	116.69
652.356	103.69
652.56	124.69
652.764	118.69
652.969	116.69
653.173	116.69
653.377	117.69
653.581	108.69
653.785	126.69
653.99	121.69
654.194	114.69
654.398	123.69
654.602	123.69
654.806	123.69
655.01	129.69
655.214	126.69
655.418	129.69
655.622	109.69
655.826	116.69
656.03	105.69
656.234	117.69
656.438	125.69
656.642	122.69
656.846	116.69
657.049	103.69
657.253	115.69
657.457	113.69
657.661	115.69
657.865	105.69
658.068	112.69
658.272	103.69
658.476	105.69
658.68	91.69
658.883	107.69
659.087	96.69
659.291	107.69
659.494	89.69
659.698	85.69
659.901	87.69
660.105	84.69
660.309	82.69
660.512	76.69
660.716	76.69
660.919	91.69
661.123	91.69
661.326	81.69
661.53	79.69
661.733	80.69
661.936	98.69
662.14	84.69
662.343	92.69
662.546	87.69
662.75	85.69
662.953	88.69
663.156	91.69
663.36	82.69
663.563	84.69
663.766	86.69
663.969	71.69
664.173	88.69
664.376	80.69
664.579	87.69
664.782	89.69
664.985	90.69
665.188	84.69
665.391	87.69
665.594	66.69
665.797	77.69
666	76.69
666.203	86.69
666.406	91.69
666.609	83.69
666.812	82.69
667.015	88.69
667.218	77.69
667.421	73.69
667.624	81.69
667.827	83.69
668.03	95.69
668.232	79.69
668.435	88.69
668.638	99.69
668.841	72.69
669.043	86.69
669.246	89.69
669.449	90.69
669.651	98.69
669.854	82.69
670.057	99.69
670.259	82.69
670.462	90.69
670.665	83.69
670.867	88.69
671.07	92.69
671.272	87.69
671.475	88.69
671.677	89.69
671.88	88.69
672.082	84.69
672.284	87.69
672.487	76.69
672.689	81.69
672.892	74.69
