Data from 1982.PennyLincolnUp.Lamp.En5.5.200Scan.071819.P1_HRD10591_16-46-05-961.txt Node
Date: Thu Jul 18 16:46:05 EDT 2019
User: cochatt
Spectrometer: HR+D1059
Trigger mode: 1
Integration Time (sec): 1.000000E-1
Scans to average: 1
Electric dark correction enabled: true
Nonlinearity correction enabled: false
Boxcar width: 0
XAxis mode: Wavelengths
Number of Pixels in Spectrum: 2048
>>>>>Begin Spectral Data<<<<<
223.165	-25.25
223.4	-25.25
223.635	-25.25
223.869	-9.25
224.104	-21.25
224.338	-14.25
224.573	-17.25
224.808	-8.25
225.042	-10.25
225.277	-2.25
225.511	1.75
225.746	-3.25
225.98	3.75
226.215	2.75
226.449	21.75
226.683	19.75
226.918	37.75
227.152	23.75
227.387	15.75
227.621	14.75
227.856	32.75
228.09	55.75
228.324	49.75
228.559	53.75
228.793	51.75
229.027	76.75
229.262	93.75
229.496	93.75
229.73	109.75
229.964	97.75
230.199	121.75
230.433	106.75
230.667	93.75
230.901	95.75
231.136	102.75
231.37	94.75
231.604	102.75
231.838	93.75
232.072	94.75
232.306	98.75
232.541	88.75
232.775	79.75
233.009	118.75
233.243	105.75
233.477	76.75
233.711	97.75
233.945	81.75
234.179	93.75
234.413	101.75
234.647	103.75
234.881	96.75
235.115	103.75
235.349	98.75
235.583	114.75
235.817	96.75
236.051	90.75
236.285	102.75
236.519	106.75
236.753	106.75
236.987	128.75
237.221	157.75
237.455	177.75
237.689	136.75
237.922	105.75
238.156	110.75
238.39	102.75
238.624	102.75
238.858	106.75
239.091	108.75
239.325	109.75
239.559	117.75
239.793	102.75
240.027	121.75
240.26	125.75
240.494	109.75
240.728	116.75
240.961	122.75
241.195	132.75
241.429	126.75
241.662	100.75
241.896	111.75
242.13	113.75
242.363	124.75
242.597	109.75
242.83	117.75
243.064	125.75
243.298	83.75
243.531	108.75
243.765	107.75
243.998	106.75
244.232	111.75
244.465	105.75
244.699	109.75
244.932	115.75
245.166	121.75
245.399	128.75
245.633	113.75
245.866	124.75
246.099	119.75
246.333	129.75
246.566	115.75
246.8	128.75
247.033	131.75
247.266	122.75
247.5	125.75
247.733	121.75
247.966	149.75
248.2	134.75
248.433	142.75
248.666	139.75
248.899	149.75
249.133	151.75
249.366	159.75
249.599	168.75
249.832	145.75
250.066	136.75
250.299	145.75
250.532	145.75
250.765	158.75
250.998	163.75
251.231	159.75
251.465	150.75
251.698	147.75
251.931	159.75
252.164	154.75
252.397	154.75
252.63	155.75
252.863	154.75
253.096	162.75
253.329	176.75
253.562	179.75
253.795	170.75
254.028	167.75
254.261	182.75
254.494	164.75
254.727	192.75
254.96	220.75
255.193	213.75
255.426	196.75
255.659	173.75
255.892	183.75
256.124	169.75
256.357	190.75
256.59	169.75
256.823	169.75
257.056	163.75
257.289	178.75
257.521	175.75
257.754	181.75
257.987	163.75
258.22	156.75
258.452	175.75
258.685	166.75
258.918	150.75
259.151	159.75
259.383	189.75
259.616	175.75
259.849	173.75
260.081	175.75
260.314	192.75
260.547	177.75
260.779	181.75
261.012	187.75
261.244	184.75
261.477	153.75
261.71	159.75
261.942	178.75
262.175	175.75
262.407	188.75
262.64	173.75
262.872	173.75
263.105	169.75
263.337	159.75
263.57	158.75
263.802	163.75
264.035	181.75
264.267	175.75
264.499	168.75
264.732	173.75
264.964	159.75
265.197	158.75
265.429	162.75
265.661	175.75
265.894	169.75
266.126	159.75
266.358	162.75
266.591	154.75
266.823	163.75
267.055	157.75
267.287	188.75
267.52	188.75
267.752	170.75
267.984	164.75
268.216	173.75
268.448	166.75
268.681	181.75
268.913	173.75
269.145	197.75
269.377	212.75
269.609	205.75
269.841	201.75
270.073	211.75
270.306	226.75
270.538	253.75
270.77	221.75
271.002	232.75
271.234	217.75
271.466	233.75
271.698	229.75
271.93	233.75
272.162	251.75
272.394	247.75
272.626	225.75
272.858	220.75
273.09	200.75
273.322	206.75
273.553	199.75
273.785	196.75
274.017	190.75
274.249	211.75
274.481	201.75
274.713	195.75
274.945	198.75
275.176	196.75
275.408	213.75
275.64	212.75
275.872	203.75
276.104	212.75
276.335	209.75
276.567	190.75
276.799	209.75
277.031	222.75
277.262	238.75
277.494	240.75
277.726	219.75
277.957	226.75
278.189	199.75
278.421	185.75
278.652	218.75
278.884	201.75
279.115	209.75
279.347	202.75
279.579	205.75
279.81	183.75
280.042	201.75
280.273	206.75
280.505	208.75
280.736	210.75
280.968	216.75
281.199	214.75
281.431	202.75
281.662	199.75
281.894	201.75
282.125	215.75
282.356	217.75
282.588	229.75
282.819	228.75
283.051	193.75
283.282	197.75
283.513	213.75
283.745	202.75
283.976	193.75
284.207	207.75
284.439	194.75
284.67	199.75
284.901	201.75
285.132	218.75
285.364	208.75
285.595	194.75
285.826	204.75
286.057	204.75
286.288	211.75
286.52	202.75
286.751	200.75
286.982	194.75
287.213	205.75
287.444	216.75
287.675	214.75
287.906	213.75
288.138	227.75
288.369	235.75
288.6	235.75
288.831	234.75
289.062	213.75
289.293	214.75
289.524	201.75
289.755	214.75
289.986	217.75
290.217	208.75
290.448	213.75
290.679	214.75
290.91	216.75
291.141	219.75
291.371	204.75
291.602	227.75
291.833	197.75
292.064	200.75
292.295	203.75
292.526	223.75
292.757	219.75
292.987	227.75
293.218	192.75
293.449	229.75
293.68	220.75
293.91	218.75
294.141	220.75
294.372	212.75
294.603	201.75
294.833	212.75
295.064	209.75
295.295	213.75
295.525	221.75
295.756	233.75
295.987	226.75
296.217	261.75
296.448	229.75
296.679	221.75
296.909	213.75
297.14	212.75
297.37	225.75
297.601	213.75
297.831	202.75
298.062	214.75
298.292	230.75
298.523	218.75
298.753	226.75
298.984	218.75
299.214	226.75
299.445	213.75
299.675	233.75
299.905	223.75
300.136	217.75
300.366	224.75
300.597	222.75
300.827	228.75
301.057	231.75
301.288	246.75
301.518	230.75
301.748	223.75
301.979	226.75
302.209	239.75
302.439	233.75
302.669	239.75
302.9	244.75
303.13	215.75
303.36	223.75
303.59	231.75
303.82	272.75
304.051	253.75
304.281	225.75
304.511	245.75
304.741	246.75
304.971	239.75
305.201	246.75
305.431	239.75
305.661	243.75
305.891	229.75
306.121	241.75
306.352	231.75
306.582	259.75
306.812	246.75
307.042	251.75
307.272	255.75
307.502	247.75
307.731	237.75
307.961	243.75
308.191	234.75
308.421	247.75
308.651	247.75
308.881	249.75
309.111	254.75
309.341	275.75
309.571	265.75
309.8	243.75
310.03	269.75
310.26	265.75
310.49	276.75
310.72	298.75
310.949	292.75
311.179	306.75
311.409	297.75
311.639	285.75
311.868	277.75
312.098	290.75
312.328	287.75
312.557	306.75
312.787	314.75
313.017	309.75
313.246	287.75
313.476	293.75
313.706	269.75
313.935	306.75
314.165	278.75
314.394	282.75
314.624	282.75
314.853	273.75
315.083	292.75
315.312	289.75
315.542	283.75
315.771	249.75
316.001	277.75
316.23	274.75
316.46	280.75
316.689	277.75
316.919	285.75
317.148	296.75
317.377	297.75
317.607	283.75
317.836	285.75
318.065	289.75
318.295	285.75
318.524	271.75
318.753	271.75
318.983	278.75
319.212	265.75
319.441	271.75
319.67	294.75
319.9	292.75
320.129	276.75
320.358	296.75
320.587	301.75
320.816	290.75
321.046	305.75
321.275	329.75
321.504	309.75
321.733	311.75
321.962	303.75
322.191	327.75
322.42	330.75
322.649	326.75
322.878	350.75
323.108	343.75
323.337	368.75
323.566	383.75
323.795	425.75
324.024	473.75
324.253	576.75
324.482	853.75
324.71	1245.75
324.939	1643.75
325.168	1382.75
325.397	726.75
325.626	499.75
325.855	424.75
326.084	388.75
326.313	399.75
326.542	377.75
326.77	437.75
326.999	533.75
327.228	747.75
327.457	1092.75
327.686	1235.75
327.914	817.75
328.143	553.75
328.372	475.75
328.6	449.75
328.829	426.75
329.058	434.75
329.287	445.75
329.515	406.75
329.744	391.75
329.972	376.75
330.201	386.75
330.43	435.75
330.658	450.75
330.887	466.75
331.115	447.75
331.344	390.75
331.572	370.75
331.801	362.75
332.03	360.75
332.258	352.75
332.486	337.75
332.715	321.75
332.943	311.75
333.172	352.75
333.4	324.75
333.629	338.75
333.857	336.75
334.085	348.75
334.314	344.75
334.542	381.75
334.771	377.75
334.999	381.75
335.227	334.75
335.455	329.75
335.684	328.75
335.912	326.75
336.14	326.75
336.369	338.75
336.597	316.75
336.825	319.75
337.053	318.75
337.281	308.75
337.51	312.75
337.738	314.75
337.966	329.75
338.194	317.75
338.422	315.75
338.65	303.75
338.878	316.75
339.106	307.75
339.334	307.75
339.562	311.75
339.79	314.75
340.018	295.75
340.246	305.75
340.474	317.75
340.702	304.75
340.93	283.75
341.158	301.75
341.386	300.75
341.614	297.75
341.842	311.75
342.07	303.75
342.298	280.75
342.526	291.75
342.754	307.75
342.981	312.75
343.209	286.75
343.437	311.75
343.665	297.75
343.893	290.75
344.12	303.75
344.348	294.75
344.576	309.75
344.804	321.75
345.031	306.75
345.259	318.75
345.487	308.75
345.714	293.75
345.942	303.75
346.17	298.75
346.397	294.75
346.625	297.75
346.853	296.75
347.08	279.75
347.308	279.75
347.535	306.75
347.763	310.75
347.99	306.75
348.218	303.75
348.445	315.75
348.673	302.75
348.9	305.75
349.128	315.75
349.355	292.75
349.583	278.75
349.81	292.75
350.037	296.75
350.265	288.75
350.492	285.75
350.72	287.75
350.947	290.75
351.174	287.75
351.402	306.75
351.629	291.75
351.856	310.75
352.083	319.75
352.311	307.75
352.538	297.75
352.765	319.75
352.992	301.75
353.22	285.75
353.447	301.75
353.674	286.75
353.901	271.75
354.128	286.75
354.355	278.75
354.583	274.75
354.81	272.75
355.037	277.75
355.264	270.75
355.491	277.75
355.718	271.75
355.945	277.75
356.172	284.75
356.399	263.75
356.626	264.75
356.853	268.75
357.08	272.75
357.307	279.75
357.534	254.75
357.761	264.75
357.988	258.75
358.215	282.75
358.441	280.75
358.668	292.75
358.895	272.75
359.122	280.75
359.349	277.75
359.576	294.75
359.802	313.75
360.029	321.75
360.256	323.75
360.483	318.75
360.709	301.75
360.936	296.75
361.163	305.75
361.39	300.75
361.616	300.75
361.843	298.75
362.07	277.75
362.296	303.75
362.523	293.75
362.749	271.75
362.976	283.75
363.203	283.75
363.429	264.75
363.656	272.75
363.882	263.75
364.109	273.75
364.335	282.75
364.562	269.75
364.788	267.75
365.015	273.75
365.241	296.75
365.468	285.75
365.694	286.75
365.92	278.75
366.147	288.75
366.373	266.75
366.599	286.75
366.826	267.75
367.052	273.75
367.278	285.75
367.505	273.75
367.731	274.75
367.957	266.75
368.184	253.75
368.41	265.75
368.636	266.75
368.862	305.75
369.089	289.75
369.315	283.75
369.541	272.75
369.767	258.75
369.993	269.75
370.219	290.75
370.445	267.75
370.672	287.75
370.898	270.75
371.124	254.75
371.35	273.75
371.576	259.75
371.802	273.75
372.028	276.75
372.254	249.75
372.48	260.75
372.706	266.75
372.932	249.75
373.158	264.75
373.384	267.75
373.61	268.75
373.835	273.75
374.061	259.75
374.287	265.75
374.513	280.75
374.739	275.75
374.965	246.75
375.191	275.75
375.416	278.75
375.642	277.75
375.868	266.75
376.094	282.75
376.319	255.75
376.545	263.75
376.771	256.75
376.997	264.75
377.222	261.75
377.448	251.75
377.674	249.75
377.899	246.75
378.125	250.75
378.35	271.75
378.576	264.75
378.802	262.75
379.027	255.75
379.253	274.75
379.478	254.75
379.704	276.75
379.929	252.75
380.155	257.75
380.38	272.75
380.606	266.75
380.831	268.75
381.057	258.75
381.282	265.75
381.507	252.75
381.733	255.75
381.958	276.75
382.184	262.75
382.409	266.75
382.634	279.75
382.86	271.75
383.085	260.75
383.31	252.75
383.535	265.75
383.761	270.75
383.986	273.75
384.211	265.75
384.436	259.75
384.662	259.75
384.887	270.75
385.112	273.75
385.337	281.75
385.562	282.75
385.787	289.75
386.013	273.75
386.238	267.75
386.463	280.75
386.688	289.75
386.913	266.75
387.138	268.75
387.363	268.75
387.588	277.75
387.813	291.75
388.038	269.75
388.263	268.75
388.488	279.75
388.713	285.75
388.938	283.75
389.163	272.75
389.387	289.75
389.612	285.75
389.837	281.75
390.062	276.75
390.287	267.75
390.512	266.75
390.736	287.75
390.961	279.75
391.186	266.75
391.411	273.75
391.636	294.75
391.86	289.75
392.085	265.75
392.31	284.75
392.534	266.75
392.759	284.75
392.984	267.75
393.208	288.75
393.433	290.75
393.658	269.75
393.882	282.75
394.107	279.75
394.331	276.75
394.556	271.75
394.78	279.75
395.005	282.75
395.229	270.75
395.454	281.75
395.678	293.75
395.903	293.75
396.127	307.75
396.352	302.75
396.576	289.75
396.801	257.75
397.025	272.75
397.249	290.75
397.474	291.75
397.698	294.75
397.922	288.75
398.147	303.75
398.371	307.75
398.595	285.75
398.82	305.75
399.044	298.75
399.268	311.75
399.492	331.75
399.717	346.75
399.941	353.75
400.165	368.75
400.389	373.75
400.613	342.75
400.837	305.75
401.062	305.75
401.286	304.75
401.51	295.75
401.734	291.75
401.958	308.75
402.182	292.75
402.406	312.75
402.63	303.75
402.854	279.75
403.078	295.75
403.302	297.75
403.526	312.75
403.75	313.75
403.974	327.75
404.198	320.75
404.422	310.75
404.645	316.75
404.869	329.75
405.093	311.75
405.317	352.75
405.541	379.75
405.765	355.75
405.988	344.75
406.212	329.75
406.436	358.75
406.66	352.75
406.883	341.75
407.107	354.75
407.331	380.75
407.555	395.75
407.778	393.75
408.002	361.75
408.226	359.75
408.449	350.75
408.673	342.75
408.896	376.75
409.12	360.75
409.344	363.75
409.567	341.75
409.791	305.75
410.014	303.75
410.238	318.75
410.461	320.75
410.685	328.75
410.908	321.75
411.132	334.75
411.355	356.75
411.578	354.75
411.802	306.75
412.025	311.75
412.249	330.75
412.472	327.75
412.695	341.75
412.919	351.75
413.142	323.75
413.365	298.75
413.589	306.75
413.812	293.75
414.035	296.75
414.258	293.75
414.482	293.75
414.705	297.75
414.928	278.75
415.151	267.75
415.374	287.75
415.597	279.75
415.821	258.75
416.044	291.75
416.267	291.75
416.49	290.75
416.713	291.75
416.936	297.75
417.159	298.75
417.382	277.75
417.605	290.75
417.828	327.75
418.051	323.75
418.274	311.75
418.497	309.75
418.72	301.75
418.943	288.75
419.166	312.75
419.389	309.75
419.611	317.75
419.834	314.75
420.057	311.75
420.28	311.75
420.503	290.75
420.726	317.75
420.948	317.75
421.171	341.75
421.394	342.75
421.617	319.75
421.839	322.75
422.062	315.75
422.285	331.75
422.507	355.75
422.73	405.75
422.953	381.75
423.175	347.75
423.398	317.75
423.621	324.75
423.843	334.75
424.066	354.75
424.288	347.75
424.511	349.75
424.733	369.75
424.956	414.75
425.178	411.75
425.401	398.75
425.623	405.75
425.846	353.75
426.068	342.75
426.291	326.75
426.513	317.75
426.735	348.75
426.958	359.75
427.18	442.75
427.402	495.75
427.625	553.75
427.847	472.75
428.069	418.75
428.292	399.75
428.514	338.75
428.736	326.75
428.958	326.75
429.181	322.75
429.403	324.75
429.625	323.75
429.847	339.75
430.069	392.75
430.292	389.75
430.514	333.75
430.736	299.75
430.958	303.75
431.18	301.75
431.402	289.75
431.624	301.75
431.846	290.75
432.068	293.75
432.29	273.75
432.512	301.75
432.734	289.75
432.956	294.75
433.178	287.75
433.4	304.75
433.622	304.75
433.844	311.75
434.066	294.75
434.287	285.75
434.509	289.75
434.731	291.75
434.953	298.75
435.175	315.75
435.397	335.75
435.618	344.75
435.84	374.75
436.062	410.75
436.284	442.75
436.505	386.75
436.727	335.75
436.949	344.75
437.17	323.75
437.392	313.75
437.614	327.75
437.835	344.75
438.057	386.75
438.278	455.75
438.5	465.75
438.721	499.75
438.943	494.75
439.165	370.75
439.386	338.75
439.608	367.75
439.829	337.75
440.05	377.75
440.272	396.75
440.493	367.75
440.715	343.75
440.936	317.75
441.158	310.75
441.379	293.75
441.6	332.75
441.822	322.75
442.043	354.75
442.264	393.75
442.486	439.75
442.707	385.75
442.928	360.75
443.149	353.75
443.371	365.75
443.592	406.75
443.813	446.75
444.034	465.75
444.255	415.75
444.476	351.75
444.698	341.75
444.919	322.75
445.14	415.75
445.361	407.75
445.582	367.75
445.803	406.75
446.024	471.75
446.245	465.75
446.466	445.75
446.687	361.75
446.908	321.75
447.129	317.75
447.35	302.75
447.571	314.75
447.792	302.75
448.013	320.75
448.234	339.75
448.455	388.75
448.675	419.75
448.896	481.75
449.117	433.75
449.338	395.75
449.559	473.75
449.779	515.75
450	401.75
450.221	350.75
450.442	334.75
450.662	314.75
450.883	320.75
451.104	329.75
451.324	313.75
451.545	282.75
451.766	305.75
451.986	286.75
452.207	273.75
452.428	279.75
452.648	289.75
452.869	290.75
453.089	288.75
453.31	298.75
453.53	301.75
453.751	285.75
453.971	297.75
454.192	310.75
454.412	297.75
454.633	298.75
454.853	271.75
455.073	285.75
455.294	303.75
455.514	353.75
455.734	304.75
455.955	305.75
456.175	267.75
456.395	259.75
456.616	268.75
456.836	277.75
457.056	274.75
457.276	265.75
457.497	271.75
457.717	246.75
457.937	275.75
458.157	285.75
458.377	270.75
458.598	297.75
458.818	341.75
459.038	385.75
459.258	371.75
459.478	334.75
459.698	283.75
459.918	267.75
460.138	277.75
460.358	298.75
460.578	303.75
460.798	293.75
461.018	286.75
461.238	305.75
461.458	291.75
461.678	278.75
461.898	285.75
462.118	282.75
462.338	280.75
462.558	288.75
462.777	319.75
462.997	298.75
463.217	306.75
463.437	305.75
463.657	295.75
463.876	310.75
464.096	317.75
464.316	306.75
464.536	322.75
464.755	302.75
464.975	313.75
465.195	345.75
465.414	380.75
465.634	332.75
465.854	305.75
466.073	299.75
466.293	294.75
466.512	307.75
466.732	287.75
466.951	295.75
467.171	293.75
467.391	308.75
467.61	290.75
467.829	308.75
468.049	298.75
468.268	305.75
468.488	281.75
468.707	280.75
468.927	277.75
469.146	271.75
469.365	296.75
469.585	275.75
469.804	266.75
470.023	313.75
470.243	293.75
470.462	289.75
470.681	301.75
470.901	293.75
471.12	273.75
471.339	291.75
471.558	305.75
471.777	273.75
471.997	307.75
472.216	301.75
472.435	327.75
472.654	313.75
472.873	297.75
473.092	288.75
473.311	295.75
473.53	283.75
473.749	320.75
473.968	329.75
474.187	377.75
474.406	402.75
474.625	339.75
474.844	296.75
475.063	297.75
475.282	287.75
475.501	292.75
475.72	301.75
475.939	298.75
476.158	288.75
476.377	298.75
476.596	281.75
476.814	317.75
477.033	325.75
477.252	295.75
477.471	303.75
477.69	305.75
477.908	302.75
478.127	318.75
478.346	321.75
478.564	312.75
478.783	311.75
479.002	328.75
479.22	315.75
479.439	320.75
479.658	338.75
479.876	343.75
480.095	353.75
480.313	379.75
480.532	356.75
480.751	330.75
480.969	360.75
481.188	376.75
481.406	429.75
481.624	350.75
481.843	343.75
482.061	348.75
482.28	342.75
482.498	349.75
482.717	325.75
482.935	335.75
483.153	342.75
483.372	354.75
483.59	337.75
483.808	335.75
484.027	342.75
484.245	341.75
484.463	335.75
484.681	331.75
484.9	337.75
485.118	359.75
485.336	337.75
485.554	351.75
485.772	362.75
485.99	336.75
486.209	330.75
486.427	359.75
486.645	352.75
486.863	372.75
487.081	353.75
487.299	359.75
487.517	369.75
487.735	351.75
487.953	365.75
488.171	387.75
488.389	371.75
488.607	370.75
488.825	358.75
489.043	364.75
489.261	374.75
489.479	360.75
489.696	351.75
489.914	357.75
490.132	387.75
490.35	357.75
490.568	381.75
490.786	365.75
491.003	361.75
491.221	405.75
491.439	399.75
491.657	398.75
491.874	408.75
492.092	413.75
492.31	416.75
492.527	413.75
492.745	417.75
492.963	422.75
493.18	407.75
493.398	409.75
493.615	415.75
493.833	426.75
494.05	428.75
494.268	405.75
494.485	406.75
494.703	417.75
494.92	403.75
495.138	431.75
495.355	430.75
495.573	449.75
495.79	439.75
496.008	451.75
496.225	394.75
496.442	411.75
496.66	440.75
496.877	422.75
497.094	437.75
497.312	417.75
497.529	421.75
497.746	430.75
497.963	429.75
498.181	434.75
498.398	433.75
498.615	466.75
498.832	477.75
499.049	454.75
499.267	473.75
499.484	452.75
499.701	478.75
499.918	485.75
500.135	518.75
500.352	533.75
500.569	533.75
500.786	526.75
501.003	527.75
501.22	533.75
501.437	508.75
501.654	488.75
501.871	517.75
502.088	500.75
502.305	487.75
502.522	458.75
502.739	467.75
502.956	455.75
503.172	433.75
503.389	429.75
503.606	441.75
503.823	443.75
504.04	434.75
504.256	414.75
504.473	424.75
504.69	428.75
504.907	417.75
505.123	413.75
505.34	421.75
505.557	405.75
505.773	432.75
505.99	413.75
506.207	413.75
506.423	407.75
506.64	395.75
506.856	399.75
507.073	408.75
507.289	409.75
507.506	392.75
507.722	399.75
507.939	415.75
508.155	406.75
508.372	389.75
508.588	401.75
508.805	377.75
509.021	397.75
509.238	403.75
509.454	422.75
509.67	398.75
509.887	404.75
510.103	383.75
510.319	418.75
510.536	479.75
510.752	794.75
510.968	618.75
511.184	430.75
511.401	371.75
511.617	399.75
511.833	378.75
512.049	383.75
512.265	383.75
512.481	394.75
512.698	381.75
512.914	362.75
513.13	377.75
513.346	373.75
513.562	360.75
513.778	374.75
513.994	385.75
514.21	394.75
514.426	417.75
514.642	427.75
514.858	457.75
515.074	506.75
515.29	585.75
515.506	860.75
515.721	685.75
515.937	461.75
516.153	441.75
516.369	405.75
516.585	394.75
516.801	390.75
517.016	374.75
517.232	375.75
517.448	386.75
517.664	374.75
517.879	388.75
518.095	352.75
518.311	381.75
518.527	371.75
518.742	377.75
518.958	375.75
519.173	376.75
519.389	370.75
519.605	384.75
519.82	399.75
520.036	387.75
520.251	408.75
520.467	441.75
520.682	423.75
520.898	410.75
521.113	433.75
521.329	484.75
521.544	539.75
521.76	704.75
521.975	1153.75
522.19	1080.75
522.406	587.75
522.621	445.75
522.836	401.75
523.052	399.75
523.267	385.75
523.482	362.75
523.698	363.75
523.913	349.75
524.128	359.75
524.343	355.75
524.559	344.75
524.774	331.75
524.989	333.75
525.204	355.75
525.419	336.75
525.634	343.75
525.849	319.75
526.064	326.75
526.28	322.75
526.495	299.75
526.71	323.75
526.925	311.75
527.14	296.75
527.355	287.75
527.57	321.75
527.785	306.75
527.999	309.75
528.214	290.75
528.429	301.75
528.644	283.75
528.859	310.75
529.074	328.75
529.289	335.75
529.503	362.75
529.718	350.75
529.933	318.75
530.148	322.75
530.363	314.75
530.577	297.75
530.792	330.75
531.007	303.75
531.221	307.75
531.436	293.75
531.651	297.75
531.865	303.75
532.08	304.75
532.295	304.75
532.509	281.75
532.724	290.75
532.938	291.75
533.153	282.75
533.367	287.75
533.582	288.75
533.796	297.75
534.011	292.75
534.225	286.75
534.44	289.75
534.654	286.75
534.868	277.75
535.083	289.75
535.297	285.75
535.511	297.75
535.726	303.75
535.94	302.75
536.154	299.75
536.369	296.75
536.583	297.75
536.797	256.75
537.011	283.75
537.225	284.75
537.44	281.75
537.654	303.75
537.868	287.75
538.082	284.75
538.296	284.75
538.51	293.75
538.724	296.75
538.938	289.75
539.153	288.75
539.367	294.75
539.581	298.75
539.795	291.75
540.009	283.75
540.222	288.75
540.436	274.75
540.65	282.75
540.864	295.75
541.078	283.75
541.292	289.75
541.506	275.75
541.72	293.75
541.934	278.75
542.147	293.75
542.361	282.75
542.575	305.75
542.789	294.75
543.002	295.75
543.216	295.75
543.43	283.75
543.644	274.75
543.857	309.75
544.071	293.75
544.285	288.75
544.498	299.75
544.712	273.75
544.925	290.75
545.139	307.75
545.352	293.75
545.566	267.75
545.779	275.75
545.993	285.75
546.206	288.75
546.42	292.75
546.633	284.75
546.847	275.75
547.06	266.75
547.274	270.75
547.487	276.75
547.7	273.75
547.914	276.75
548.127	259.75
548.34	280.75
548.554	266.75
548.767	247.75
548.98	265.75
549.193	265.75
549.407	259.75
549.62	266.75
549.833	269.75
550.046	265.75
550.259	263.75
550.473	255.75
550.686	255.75
550.899	263.75
551.112	283.75
551.325	249.75
551.538	253.75
551.751	261.75
551.964	272.75
552.177	250.75
552.39	255.75
552.603	257.75
552.816	276.75
553.029	273.75
553.242	256.75
553.455	258.75
553.667	293.75
553.88	273.75
554.093	272.75
554.306	262.75
554.519	281.75
554.732	268.75
554.944	267.75
555.157	273.75
555.37	245.75
555.583	234.75
555.795	267.75
556.008	255.75
556.221	254.75
556.433	240.75
556.646	262.75
556.859	249.75
557.071	248.75
557.284	247.75
557.496	251.75
557.709	233.75
557.921	238.75
558.134	243.75
558.346	244.75
558.559	239.75
558.771	241.75
558.984	240.75
559.196	233.75
559.409	239.75
559.621	228.75
559.833	213.75
560.046	231.75
560.258	243.75
560.47	251.75
560.683	238.75
560.895	249.75
561.107	244.75
561.32	228.75
561.532	250.75
561.744	231.75
561.956	230.75
562.168	253.75
562.381	223.75
562.593	211.75
562.805	246.75
563.017	232.75
563.229	259.75
563.441	231.75
563.653	230.75
563.865	259.75
564.077	227.75
564.289	235.75
564.501	252.75
564.713	243.75
564.925	225.75
565.137	243.75
565.349	254.75
565.561	267.75
565.773	247.75
565.985	239.75
566.197	265.75
566.408	242.75
566.62	261.75
566.832	251.75
567.044	289.75
567.255	282.75
567.467	257.75
567.679	287.75
567.891	285.75
568.102	278.75
568.314	263.75
568.526	258.75
568.737	246.75
568.949	247.75
569.161	248.75
569.372	240.75
569.584	246.75
569.795	231.75
570.007	253.75
570.218	276.75
570.43	285.75
570.641	224.75
570.853	215.75
571.064	223.75
571.276	237.75
571.487	230.75
571.698	227.75
571.91	219.75
572.121	212.75
572.333	215.75
572.544	219.75
572.755	202.75
572.966	220.75
573.178	224.75
573.389	221.75
573.6	215.75
573.811	223.75
574.023	217.75
574.234	206.75
574.445	207.75
574.656	189.75
574.867	217.75
575.078	219.75
575.289	205.75
575.501	209.75
575.712	210.75
575.923	194.75
576.134	202.75
576.345	226.75
576.556	214.75
576.767	239.75
576.978	210.75
577.188	225.75
577.399	210.75
577.61	215.75
577.821	219.75
578.032	210.75
578.243	252.75
578.454	415.75
578.665	277.75
578.875	222.75
579.086	209.75
579.297	205.75
579.508	194.75
579.718	206.75
579.929	211.75
580.14	200.75
580.35	213.75
580.561	200.75
580.772	202.75
580.982	183.75
581.193	198.75
581.403	194.75
581.614	199.75
581.825	191.75
582.035	196.75
582.246	197.75
582.456	179.75
582.667	185.75
582.877	185.75
583.087	198.75
583.298	199.75
583.508	202.75
583.719	203.75
583.929	204.75
584.139	195.75
584.35	196.75
584.56	207.75
584.77	195.75
584.981	187.75
585.191	201.75
585.401	202.75
585.611	182.75
585.821	185.75
586.032	190.75
586.242	175.75
586.452	201.75
586.662	196.75
586.872	190.75
587.082	175.75
587.292	192.75
587.502	198.75
587.713	198.75
587.923	198.75
588.133	206.75
588.343	177.75
588.553	183.75
588.762	190.75
588.972	191.75
589.182	200.75
589.392	191.75
589.602	193.75
589.812	196.75
590.022	191.75
590.232	182.75
590.441	193.75
590.651	202.75
590.861	189.75
591.071	179.75
591.281	193.75
591.49	181.75
591.7	195.75
591.91	189.75
592.119	193.75
592.329	188.75
592.539	180.75
592.748	180.75
592.958	189.75
593.167	196.75
593.377	188.75
593.587	207.75
593.796	221.75
594.006	181.75
594.215	190.75
594.424	199.75
594.634	185.75
594.843	192.75
595.053	171.75
595.262	197.75
595.472	184.75
595.681	198.75
595.89	196.75
596.1	202.75
596.309	188.75
596.518	181.75
596.727	181.75
596.937	186.75
597.146	200.75
597.355	190.75
597.564	164.75
597.774	169.75
597.983	179.75
598.192	162.75
598.401	168.75
598.61	179.75
598.819	177.75
599.028	161.75
599.237	173.75
599.446	155.75
599.655	164.75
599.864	171.75
600.073	166.75
600.282	170.75
600.491	164.75
600.7	170.75
600.909	165.75
601.118	168.75
601.327	152.75
601.536	174.75
601.745	181.75
601.953	171.75
602.162	181.75
602.371	185.75
602.58	177.75
602.789	177.75
602.997	178.75
603.206	181.75
603.415	169.75
603.623	176.75
603.832	177.75
604.041	169.75
604.249	166.75
604.458	177.75
604.666	157.75
604.875	171.75
605.084	164.75
605.292	165.75
605.501	162.75
605.709	186.75
605.918	160.75
606.126	178.75
606.334	173.75
606.543	173.75
606.751	172.75
606.96	162.75
607.168	159.75
607.376	162.75
607.585	169.75
607.793	168.75
608.001	178.75
608.21	164.75
608.418	174.75
608.626	170.75
608.834	159.75
609.043	150.75
609.251	163.75
609.459	174.75
609.667	157.75
609.875	166.75
610.083	149.75
610.291	167.75
610.499	152.75
610.707	174.75
610.916	165.75
611.124	168.75
611.332	179.75
611.54	173.75
611.748	170.75
611.955	163.75
612.163	171.75
612.371	149.75
612.579	169.75
612.787	178.75
612.995	159.75
613.203	171.75
613.411	144.75
613.618	167.75
613.826	152.75
614.034	152.75
614.242	157.75
614.449	152.75
614.657	174.75
614.865	163.75
615.072	175.75
615.28	161.75
615.488	160.75
615.695	146.75
615.903	151.75
616.111	141.75
616.318	166.75
616.526	160.75
616.733	147.75
616.941	152.75
617.148	162.75
617.356	154.75
617.563	144.75
617.771	162.75
617.978	164.75
618.185	159.75
618.393	157.75
618.6	158.75
618.807	154.75
619.015	167.75
619.222	151.75
619.429	153.75
619.637	167.75
619.844	170.75
620.051	158.75
620.258	161.75
620.466	150.75
620.673	145.75
620.88	147.75
621.087	158.75
621.294	137.75
621.501	155.75
621.708	154.75
621.915	154.75
622.122	155.75
622.329	161.75
622.536	164.75
622.743	150.75
622.95	147.75
623.157	145.75
623.364	168.75
623.571	162.75
623.778	155.75
623.985	157.75
624.192	154.75
624.399	149.75
624.606	151.75
624.812	151.75
625.019	160.75
625.226	163.75
625.433	144.75
625.639	153.75
625.846	146.75
626.053	142.75
626.259	139.75
626.466	146.75
626.673	156.75
626.879	150.75
627.086	156.75
627.293	145.75
627.499	145.75
627.706	150.75
627.912	137.75
628.119	130.75
628.325	129.75
628.532	122.75
628.738	163.75
628.945	140.75
629.151	148.75
629.357	150.75
629.564	136.75
629.77	142.75
629.976	132.75
630.183	137.75
630.389	126.75
630.595	144.75
630.802	138.75
631.008	131.75
631.214	146.75
631.42	131.75
631.627	145.75
631.833	143.75
632.039	133.75
632.245	141.75
632.451	149.75
632.657	126.75
632.863	149.75
633.069	127.75
633.275	137.75
633.481	132.75
633.688	141.75
633.893	144.75
634.099	129.75
634.305	140.75
634.511	135.75
634.717	130.75
634.923	128.75
635.129	140.75
635.335	138.75
635.541	136.75
635.747	143.75
635.952	140.75
636.158	129.75
636.364	136.75
636.57	150.75
636.775	135.75
636.981	139.75
637.187	142.75
637.392	133.75
637.598	125.75
637.804	135.75
638.009	130.75
638.215	149.75
638.421	145.75
638.626	137.75
638.832	128.75
639.037	116.75
639.243	128.75
639.448	138.75
639.654	139.75
639.859	127.75
640.065	129.75
640.27	121.75
640.475	131.75
640.681	122.75
640.886	130.75
641.091	120.75
641.297	123.75
641.502	138.75
641.707	135.75
641.913	121.75
642.118	129.75
642.323	129.75
642.528	134.75
642.733	107.75
642.939	133.75
643.144	129.75
643.349	111.75
643.554	107.75
643.759	121.75
643.964	121.75
644.169	130.75
644.374	128.75
644.579	129.75
644.784	130.75
644.989	126.75
645.194	140.75
645.399	118.75
645.604	121.75
645.809	108.75
646.014	123.75
646.219	139.75
646.423	123.75
646.628	117.75
646.833	132.75
647.038	125.75
647.243	131.75
647.447	133.75
647.652	146.75
647.857	121.75
648.062	133.75
648.266	125.75
648.471	124.75
648.676	124.75
648.88	119.75
649.085	132.75
649.289	107.75
649.494	137.75
649.698	156.75
649.903	143.75
650.107	132.75
650.312	135.75
650.516	110.75
650.721	118.75
650.925	124.75
651.13	133.75
651.334	123.75
651.539	117.75
651.743	113.75
651.947	121.75
652.152	123.75
652.356	113.75
652.56	117.75
652.764	132.75
652.969	118.75
653.173	116.75
653.377	115.75
653.581	113.75
653.785	96.75
653.99	116.75
654.194	118.75
654.398	111.75
654.602	129.75
654.806	104.75
655.01	106.75
655.214	128.75
655.418	97.75
655.622	103.75
655.826	112.75
656.03	113.75
656.234	114.75
656.438	113.75
656.642	105.75
656.846	94.75
657.049	94.75
657.253	104.75
657.457	86.75
657.661	101.75
657.865	92.75
658.068	90.75
658.272	106.75
658.476	86.75
658.68	96.75
658.883	96.75
659.087	94.75
659.291	79.75
659.494	93.75
659.698	101.75
659.901	89.75
660.105	93.75
660.309	104.75
660.512	86.75
660.716	97.75
660.919	101.75
661.123	85.75
661.326	93.75
661.53	85.75
661.733	95.75
661.936	84.75
662.14	83.75
662.343	96.75
662.546	75.75
662.75	84.75
662.953	78.75
663.156	77.75
663.36	89.75
663.563	81.75
663.766	99.75
663.969	83.75
664.173	72.75
664.376	68.75
664.579	68.75
664.782	93.75
664.985	70.75
665.188	68.75
665.391	87.75
665.594	82.75
665.797	79.75
666	72.75
666.203	82.75
666.406	74.75
666.609	78.75
666.812	97.75
667.015	75.75
667.218	79.75
667.421	96.75
667.624	70.75
667.827	79.75
668.03	79.75
668.232	69.75
668.435	89.75
668.638	79.75
668.841	75.75
669.043	74.75
669.246	98.75
669.449	82.75
669.651	79.75
669.854	87.75
670.057	78.75
670.259	85.75
670.462	85.75
670.665	91.75
670.867	88.75
671.07	79.75
671.272	102.75
671.475	82.75
671.677	75.75
671.88	69.75
672.082	67.75
672.284	81.75
672.487	74.75
672.689	65.75
672.892	69.75
