Data from 1982.PennyLincolnUp.Lamp.En5.5.200Scan.071819.P1_HRD10591_16-47-53-962.txt Node
Date: Thu Jul 18 16:47:53 EDT 2019
User: cochatt
Spectrometer: HR+D1059
Trigger mode: 1
Integration Time (sec): 1.000000E-1
Scans to average: 1
Electric dark correction enabled: true
Nonlinearity correction enabled: false
Boxcar width: 0
XAxis mode: Wavelengths
Number of Pixels in Spectrum: 2048
>>>>>Begin Spectral Data<<<<<
223.165	-15.12
223.4	-15.12
223.635	-15.12
223.869	-21.12
224.104	-17.12
224.338	-8.12
224.573	-9.12
224.808	-6.12
225.042	-7.12
225.277	-16.12
225.511	6.88
225.746	9.88
225.98	-5.12
226.215	1.88
226.449	17.88
226.683	11.88
226.918	28.88
227.152	27.88
227.387	40.88
227.621	44.88
227.856	55.88
228.09	48.88
228.324	46.88
228.559	58.88
228.793	76.88
229.027	82.88
229.262	100.88
229.496	118.88
229.73	133.88
229.964	142.88
230.199	113.88
230.433	105.88
230.667	109.88
230.901	111.88
231.136	109.88
231.37	102.88
231.604	110.88
231.838	106.88
232.072	99.88
232.306	96.88
232.541	96.88
232.775	117.88
233.009	110.88
233.243	106.88
233.477	127.88
233.711	104.88
233.945	99.88
234.179	105.88
234.413	106.88
234.647	111.88
234.881	105.88
235.115	102.88
235.349	109.88
235.583	102.88
235.817	103.88
236.051	112.88
236.285	126.88
236.519	116.88
236.753	123.88
236.987	119.88
237.221	162.88
237.455	183.88
237.689	164.88
237.922	115.88
238.156	112.88
238.39	119.88
238.624	116.88
238.858	113.88
239.091	115.88
239.325	113.88
239.559	124.88
239.793	128.88
240.027	118.88
240.26	132.88
240.494	132.88
240.728	135.88
240.961	123.88
241.195	132.88
241.429	122.88
241.662	126.88
241.896	111.88
242.13	112.88
242.363	114.88
242.597	136.88
242.83	121.88
243.064	133.88
243.298	123.88
243.531	129.88
243.765	143.88
243.998	133.88
244.232	131.88
244.465	136.88
244.699	120.88
244.932	125.88
245.166	125.88
245.399	138.88
245.633	132.88
245.866	127.88
246.099	122.88
246.333	130.88
246.566	132.88
246.8	126.88
247.033	134.88
247.266	137.88
247.5	141.88
247.733	150.88
247.966	141.88
248.2	143.88
248.433	170.88
248.666	150.88
248.899	146.88
249.133	172.88
249.366	189.88
249.599	180.88
249.832	161.88
250.066	158.88
250.299	171.88
250.532	168.88
250.765	176.88
250.998	197.88
251.231	177.88
251.465	193.88
251.698	176.88
251.931	180.88
252.164	176.88
252.397	168.88
252.63	163.88
252.863	166.88
253.096	175.88
253.329	180.88
253.562	188.88
253.795	177.88
254.028	184.88
254.261	196.88
254.494	200.88
254.727	216.88
254.96	240.88
255.193	225.88
255.426	197.88
255.659	177.88
255.892	193.88
256.124	192.88
256.357	190.88
256.59	190.88
256.823	181.88
257.056	197.88
257.289	168.88
257.521	166.88
257.754	168.88
257.987	183.88
258.22	154.88
258.452	180.88
258.685	175.88
258.918	182.88
259.151	190.88
259.383	183.88
259.616	184.88
259.849	183.88
260.081	198.88
260.314	218.88
260.547	215.88
260.779	220.88
261.012	207.88
261.244	206.88
261.477	191.88
261.71	196.88
261.942	199.88
262.175	214.88
262.407	211.88
262.64	183.88
262.872	192.88
263.105	193.88
263.337	180.88
263.57	183.88
263.802	175.88
264.035	184.88
264.267	177.88
264.499	190.88
264.732	198.88
264.964	176.88
265.197	177.88
265.429	183.88
265.661	188.88
265.894	172.88
266.126	192.88
266.358	173.88
266.591	177.88
266.823	194.88
267.055	189.88
267.287	182.88
267.52	188.88
267.752	196.88
267.984	210.88
268.216	190.88
268.448	194.88
268.681	203.88
268.913	206.88
269.145	207.88
269.377	225.88
269.609	224.88
269.841	223.88
270.073	224.88
270.306	238.88
270.538	272.88
270.77	256.88
271.002	246.88
271.234	260.88
271.466	245.88
271.698	248.88
271.93	263.88
272.162	260.88
272.394	257.88
272.626	247.88
272.858	238.88
273.09	227.88
273.322	226.88
273.553	242.88
273.785	230.88
274.017	230.88
274.249	213.88
274.481	213.88
274.713	237.88
274.945	237.88
275.176	219.88
275.408	234.88
275.64	218.88
275.872	220.88
276.104	225.88
276.335	238.88
276.567	239.88
276.799	239.88
277.031	245.88
277.262	291.88
277.494	259.88
277.726	251.88
277.957	244.88
278.189	233.88
278.421	239.88
278.652	210.88
278.884	220.88
279.115	215.88
279.347	224.88
279.579	215.88
279.81	215.88
280.042	224.88
280.273	231.88
280.505	220.88
280.736	213.88
280.968	219.88
281.199	205.88
281.431	215.88
281.662	217.88
281.894	231.88
282.125	241.88
282.356	248.88
282.588	262.88
282.819	244.88
283.051	227.88
283.282	205.88
283.513	219.88
283.745	208.88
283.976	221.88
284.207	229.88
284.439	229.88
284.67	228.88
284.901	228.88
285.132	230.88
285.364	220.88
285.595	226.88
285.826	210.88
286.057	219.88
286.288	215.88
286.52	235.88
286.751	236.88
286.982	240.88
287.213	215.88
287.444	213.88
287.675	219.88
287.906	233.88
288.138	253.88
288.369	243.88
288.6	247.88
288.831	244.88
289.062	236.88
289.293	243.88
289.524	241.88
289.755	229.88
289.986	217.88
290.217	225.88
290.448	222.88
290.679	216.88
290.91	222.88
291.141	223.88
291.371	235.88
291.602	222.88
291.833	238.88
292.064	223.88
292.295	245.88
292.526	231.88
292.757	253.88
292.987	239.88
293.218	239.88
293.449	224.88
293.68	237.88
293.91	223.88
294.141	237.88
294.372	225.88
294.603	246.88
294.833	247.88
295.064	228.88
295.295	242.88
295.525	242.88
295.756	249.88
295.987	253.88
296.217	239.88
296.448	250.88
296.679	247.88
296.909	244.88
297.14	253.88
297.37	223.88
297.601	237.88
297.831	231.88
298.062	254.88
298.292	235.88
298.523	254.88
298.753	241.88
298.984	233.88
299.214	251.88
299.445	260.88
299.675	238.88
299.905	263.88
300.136	226.88
300.366	260.88
300.597	252.88
300.827	255.88
301.057	273.88
301.288	250.88
301.518	257.88
301.748	250.88
301.979	256.88
302.209	244.88
302.439	254.88
302.669	280.88
302.9	256.88
303.13	255.88
303.36	253.88
303.59	266.88
303.82	281.88
304.051	265.88
304.281	263.88
304.511	255.88
304.741	263.88
304.971	237.88
305.201	255.88
305.431	263.88
305.661	275.88
305.891	254.88
306.121	259.88
306.352	271.88
306.582	274.88
306.812	253.88
307.042	251.88
307.272	262.88
307.502	274.88
307.731	278.88
307.961	261.88
308.191	260.88
308.421	250.88
308.651	255.88
308.881	278.88
309.111	268.88
309.341	282.88
309.571	297.88
309.8	281.88
310.03	316.88
310.26	314.88
310.49	304.88
310.72	327.88
310.949	320.88
311.179	331.88
311.409	288.88
311.639	302.88
311.868	308.88
312.098	312.88
312.328	326.88
312.557	324.88
312.787	349.88
313.017	324.88
313.246	319.88
313.476	315.88
313.706	306.88
313.935	314.88
314.165	310.88
314.394	328.88
314.624	313.88
314.853	312.88
315.083	302.88
315.312	305.88
315.542	294.88
315.771	315.88
316.001	291.88
316.23	299.88
316.46	290.88
316.689	303.88
316.919	316.88
317.148	316.88
317.377	312.88
317.607	301.88
317.836	302.88
318.065	278.88
318.295	296.88
318.524	302.88
318.753	285.88
318.983	317.88
319.212	295.88
319.441	320.88
319.67	312.88
319.9	311.88
320.129	317.88
320.358	309.88
320.587	328.88
320.816	332.88
321.046	335.88
321.275	340.88
321.504	310.88
321.733	330.88
321.962	333.88
322.191	341.88
322.42	357.88
322.649	365.88
322.878	368.88
323.108	378.88
323.337	414.88
323.566	425.88
323.795	462.88
324.024	516.88
324.253	653.88
324.482	964.88
324.71	1470.88
324.939	1920.88
325.168	1521.88
325.397	802.88
325.626	553.88
325.855	466.88
326.084	432.88
326.313	412.88
326.542	433.88
326.77	472.88
326.999	597.88
327.228	837.88
327.457	1228.88
327.686	1399.88
327.914	896.88
328.143	621.88
328.372	542.88
328.6	502.88
328.829	480.88
329.058	505.88
329.287	498.88
329.515	459.88
329.744	431.88
329.972	433.88
330.201	450.88
330.43	480.88
330.658	489.88
330.887	540.88
331.115	508.88
331.344	423.88
331.572	395.88
331.801	416.88
332.03	382.88
332.258	389.88
332.486	371.88
332.715	358.88
332.943	349.88
333.172	358.88
333.4	358.88
333.629	374.88
333.857	385.88
334.085	399.88
334.314	401.88
334.542	413.88
334.771	442.88
334.999	383.88
335.227	370.88
335.455	374.88
335.684	363.88
335.912	352.88
336.14	338.88
336.369	357.88
336.597	352.88
336.825	344.88
337.053	355.88
337.281	321.88
337.51	338.88
337.738	346.88
337.966	330.88
338.194	369.88
338.422	333.88
338.65	333.88
338.878	335.88
339.106	338.88
339.334	344.88
339.562	338.88
339.79	337.88
340.018	319.88
340.246	331.88
340.474	334.88
340.702	344.88
340.93	340.88
341.158	342.88
341.386	326.88
341.614	327.88
341.842	327.88
342.07	315.88
342.298	330.88
342.526	333.88
342.754	330.88
342.981	330.88
343.209	329.88
343.437	315.88
343.665	299.88
343.893	335.88
344.12	343.88
344.348	309.88
344.576	329.88
344.804	327.88
345.031	339.88
345.259	359.88
345.487	340.88
345.714	325.88
345.942	308.88
346.17	325.88
346.397	325.88
346.625	311.88
346.853	329.88
347.08	306.88
347.308	337.88
347.535	312.88
347.763	328.88
347.99	329.88
348.218	342.88
348.445	337.88
348.673	337.88
348.9	328.88
349.128	315.88
349.355	316.88
349.583	307.88
349.81	326.88
350.037	318.88
350.265	314.88
350.492	297.88
350.72	301.88
350.947	326.88
351.174	339.88
351.402	340.88
351.629	331.88
351.856	329.88
352.083	334.88
352.311	338.88
352.538	318.88
352.765	333.88
352.992	309.88
353.22	314.88
353.447	333.88
353.674	332.88
353.901	320.88
354.128	312.88
354.355	314.88
354.583	311.88
354.81	301.88
355.037	298.88
355.264	307.88
355.491	291.88
355.718	302.88
355.945	288.88
356.172	279.88
356.399	270.88
356.626	284.88
356.853	302.88
357.08	310.88
357.307	310.88
357.534	290.88
357.761	287.88
357.988	293.88
358.215	279.88
358.441	292.88
358.668	283.88
358.895	310.88
359.122	290.88
359.349	311.88
359.576	320.88
359.802	353.88
360.029	369.88
360.256	372.88
360.483	341.88
360.709	312.88
360.936	326.88
361.163	316.88
361.39	319.88
361.616	313.88
361.843	316.88
362.07	318.88
362.296	317.88
362.523	314.88
362.749	323.88
362.976	304.88
363.203	315.88
363.429	302.88
363.656	286.88
363.882	298.88
364.109	303.88
364.335	293.88
364.562	288.88
364.788	292.88
365.015	297.88
365.241	314.88
365.468	284.88
365.694	296.88
365.92	314.88
366.147	304.88
366.373	275.88
366.599	288.88
366.826	302.88
367.052	295.88
367.278	284.88
367.505	266.88
367.731	293.88
367.957	292.88
368.184	297.88
368.41	306.88
368.636	304.88
368.862	320.88
369.089	297.88
369.315	297.88
369.541	295.88
369.767	287.88
369.993	297.88
370.219	282.88
370.445	285.88
370.672	296.88
370.898	295.88
371.124	279.88
371.35	294.88
371.576	270.88
371.802	280.88
372.028	276.88
372.254	294.88
372.48	279.88
372.706	290.88
372.932	288.88
373.158	288.88
373.384	295.88
373.61	278.88
373.835	287.88
374.061	280.88
374.287	290.88
374.513	300.88
374.739	290.88
374.965	313.88
375.191	285.88
375.416	275.88
375.642	277.88
375.868	303.88
376.094	287.88
376.319	273.88
376.545	288.88
376.771	279.88
376.997	266.88
377.222	281.88
377.448	282.88
377.674	274.88
377.899	273.88
378.125	285.88
378.35	269.88
378.576	284.88
378.802	274.88
379.027	265.88
379.253	281.88
379.478	282.88
379.704	267.88
379.929	289.88
380.155	276.88
380.38	269.88
380.606	256.88
380.831	288.88
381.057	280.88
381.282	277.88
381.507	249.88
381.733	277.88
381.958	287.88
382.184	280.88
382.409	296.88
382.634	284.88
382.86	280.88
383.085	295.88
383.31	277.88
383.535	284.88
383.761	290.88
383.986	283.88
384.211	299.88
384.436	285.88
384.662	288.88
384.887	278.88
385.112	295.88
385.337	294.88
385.562	288.88
385.787	300.88
386.013	303.88
386.238	293.88
386.463	308.88
386.688	289.88
386.913	289.88
387.138	301.88
387.363	293.88
387.588	313.88
387.813	283.88
388.038	284.88
388.263	292.88
388.488	280.88
388.713	280.88
388.938	309.88
389.163	292.88
389.387	304.88
389.612	283.88
389.837	275.88
390.062	295.88
390.287	286.88
390.512	278.88
390.736	296.88
390.961	286.88
391.186	295.88
391.411	295.88
391.636	297.88
391.86	301.88
392.085	283.88
392.31	285.88
392.534	301.88
392.759	300.88
392.984	284.88
393.208	286.88
393.433	289.88
393.658	296.88
393.882	285.88
394.107	298.88
394.331	291.88
394.556	293.88
394.78	301.88
395.005	297.88
395.229	302.88
395.454	305.88
395.678	307.88
395.903	328.88
396.127	308.88
396.352	321.88
396.576	317.88
396.801	298.88
397.025	301.88
397.249	305.88
397.474	303.88
397.698	289.88
397.922	316.88
398.147	316.88
398.371	334.88
398.595	311.88
398.82	306.88
399.044	311.88
399.268	320.88
399.492	335.88
399.717	347.88
399.941	375.88
400.165	374.88
400.389	398.88
400.613	360.88
400.837	333.88
401.062	327.88
401.286	326.88
401.51	324.88
401.734	315.88
401.958	319.88
402.182	328.88
402.406	337.88
402.63	334.88
402.854	324.88
403.078	327.88
403.302	320.88
403.526	322.88
403.75	333.88
403.974	328.88
404.198	333.88
404.422	334.88
404.645	329.88
404.869	339.88
405.093	352.88
405.317	374.88
405.541	411.88
405.765	385.88
405.988	344.88
406.212	348.88
406.436	375.88
406.66	359.88
406.883	362.88
407.107	396.88
407.331	392.88
407.555	435.88
407.778	440.88
408.002	404.88
408.226	366.88
408.449	364.88
408.673	378.88
408.896	384.88
409.12	406.88
409.344	368.88
409.567	345.88
409.791	336.88
410.014	340.88
410.238	334.88
410.461	329.88
410.685	356.88
410.908	356.88
411.132	383.88
411.355	388.88
411.578	376.88
411.802	348.88
412.025	338.88
412.249	356.88
412.472	371.88
412.695	390.88
412.919	363.88
413.142	349.88
413.365	339.88
413.589	318.88
413.812	320.88
414.035	311.88
414.258	316.88
414.482	332.88
414.705	308.88
414.928	306.88
415.151	310.88
415.374	324.88
415.597	310.88
415.821	300.88
416.044	314.88
416.267	324.88
416.49	309.88
416.713	319.88
416.936	310.88
417.159	313.88
417.382	327.88
417.605	320.88
417.828	333.88
418.051	335.88
418.274	332.88
418.497	338.88
418.72	319.88
418.943	307.88
419.166	324.88
419.389	338.88
419.611	306.88
419.834	349.88
420.057	341.88
420.28	328.88
420.503	328.88
420.726	302.88
420.948	346.88
421.171	385.88
421.394	383.88
421.617	343.88
421.839	332.88
422.062	334.88
422.285	351.88
422.507	388.88
422.73	420.88
422.953	406.88
423.175	369.88
423.398	354.88
423.621	368.88
423.843	348.88
424.066	351.88
424.288	357.88
424.511	389.88
424.733	407.88
424.956	455.88
425.178	421.88
425.401	436.88
425.623	444.88
425.846	388.88
426.068	367.88
426.291	356.88
426.513	369.88
426.735	366.88
426.958	407.88
427.18	463.88
427.402	544.88
427.625	609.88
427.847	520.88
428.069	474.88
428.292	393.88
428.514	368.88
428.736	324.88
428.958	332.88
429.181	348.88
429.403	351.88
429.625	333.88
429.847	368.88
430.069	412.88
430.292	388.88
430.514	365.88
430.736	349.88
430.958	337.88
431.18	327.88
431.402	321.88
431.624	300.88
431.846	301.88
432.068	315.88
432.29	317.88
432.512	305.88
432.734	321.88
432.956	317.88
433.178	336.88
433.4	329.88
433.622	321.88
433.844	330.88
434.066	298.88
434.287	304.88
434.509	310.88
434.731	342.88
434.953	339.88
435.175	335.88
435.397	376.88
435.618	384.88
435.84	397.88
436.062	449.88
436.284	501.88
436.505	415.88
436.727	373.88
436.949	353.88
437.17	341.88
437.392	339.88
437.614	352.88
437.835	383.88
438.057	450.88
438.278	511.88
438.5	497.88
438.721	536.88
438.943	515.88
439.165	420.88
439.386	385.88
439.608	366.88
439.829	373.88
440.05	407.88
440.272	416.88
440.493	406.88
440.715	356.88
440.936	350.88
441.158	340.88
441.379	351.88
441.6	354.88
441.822	361.88
442.043	401.88
442.264	446.88
442.486	450.88
442.707	396.88
442.928	379.88
443.149	384.88
443.371	410.88
443.592	440.88
443.813	472.88
444.034	512.88
444.255	420.88
444.476	388.88
444.698	364.88
444.919	366.88
445.14	446.88
445.361	417.88
445.582	416.88
445.803	461.88
446.024	542.88
446.245	516.88
446.466	460.88
446.687	417.88
446.908	354.88
447.129	360.88
447.35	341.88
447.571	337.88
447.792	350.88
448.013	352.88
448.234	370.88
448.455	384.88
448.675	471.88
448.896	524.88
449.117	476.88
449.338	446.88
449.559	518.88
449.779	544.88
450	444.88
450.221	397.88
450.442	344.88
450.662	352.88
450.883	329.88
451.104	338.88
451.324	344.88
451.545	324.88
451.766	320.88
451.986	312.88
452.207	330.88
452.428	324.88
452.648	304.88
452.869	302.88
453.089	313.88
453.31	338.88
453.53	316.88
453.751	316.88
453.971	320.88
454.192	341.88
454.412	315.88
454.633	309.88
454.853	310.88
455.073	303.88
455.294	328.88
455.514	382.88
455.734	364.88
455.955	308.88
456.175	280.88
456.395	285.88
456.616	293.88
456.836	301.88
457.056	260.88
457.276	286.88
457.497	285.88
457.717	280.88
457.937	282.88
458.157	280.88
458.377	288.88
458.598	306.88
458.818	363.88
459.038	428.88
459.258	442.88
459.478	342.88
459.698	345.88
459.918	310.88
460.138	313.88
460.358	308.88
460.578	299.88
460.798	304.88
461.018	315.88
461.238	295.88
461.458	303.88
461.678	313.88
461.898	312.88
462.118	294.88
462.338	296.88
462.558	311.88
462.777	303.88
462.997	317.88
463.217	308.88
463.437	324.88
463.657	327.88
463.876	333.88
464.096	312.88
464.316	319.88
464.536	322.88
464.755	349.88
464.975	335.88
465.195	390.88
465.414	433.88
465.634	372.88
465.854	346.88
466.073	327.88
466.293	317.88
466.512	305.88
466.732	308.88
466.951	306.88
467.171	300.88
467.391	324.88
467.61	313.88
467.829	321.88
468.049	309.88
468.268	326.88
468.488	298.88
468.707	310.88
468.927	316.88
469.146	301.88
469.365	318.88
469.585	314.88
469.804	303.88
470.023	312.88
470.243	328.88
470.462	317.88
470.681	327.88
470.901	310.88
471.12	309.88
471.339	312.88
471.558	314.88
471.777	321.88
471.997	310.88
472.216	308.88
472.435	344.88
472.654	328.88
472.873	320.88
473.092	315.88
473.311	317.88
473.53	312.88
473.749	319.88
473.968	372.88
474.187	444.88
474.406	443.88
474.625	348.88
474.844	339.88
475.063	310.88
475.282	312.88
475.501	304.88
475.72	325.88
475.939	312.88
476.158	320.88
476.377	337.88
476.596	320.88
476.814	338.88
477.033	312.88
477.252	323.88
477.471	312.88
477.69	319.88
477.908	327.88
478.127	313.88
478.346	338.88
478.564	338.88
478.783	337.88
479.002	328.88
479.22	367.88
479.439	371.88
479.658	365.88
479.876	362.88
480.095	368.88
480.313	391.88
480.532	369.88
480.751	392.88
480.969	379.88
481.188	413.88
481.406	441.88
481.624	409.88
481.843	382.88
482.061	366.88
482.28	365.88
482.498	349.88
482.717	365.88
482.935	354.88
483.153	348.88
483.372	358.88
483.59	346.88
483.808	349.88
484.027	374.88
484.245	365.88
484.463	368.88
484.681	360.88
484.9	365.88
485.118	369.88
485.336	368.88
485.554	368.88
485.772	364.88
485.99	369.88
486.209	364.88
486.427	361.88
486.645	395.88
486.863	398.88
487.081	400.88
487.299	388.88
487.517	390.88
487.735	390.88
487.953	376.88
488.171	391.88
488.389	381.88
488.607	375.88
488.825	391.88
489.043	408.88
489.261	376.88
489.479	390.88
489.696	393.88
489.914	396.88
490.132	379.88
490.35	404.88
490.568	388.88
490.786	415.88
491.003	426.88
491.221	412.88
491.439	429.88
491.657	444.88
491.874	428.88
492.092	440.88
492.31	430.88
492.527	452.88
492.745	440.88
492.963	446.88
493.18	449.88
493.398	441.88
493.615	471.88
493.833	460.88
494.05	468.88
494.268	473.88
494.485	450.88
494.703	452.88
494.92	447.88
495.138	466.88
495.355	447.88
495.573	438.88
495.79	452.88
496.008	463.88
496.225	452.88
496.442	453.88
496.66	476.88
496.877	454.88
497.094	480.88
497.312	444.88
497.529	473.88
497.746	481.88
497.963	485.88
498.181	496.88
498.398	502.88
498.615	477.88
498.832	465.88
499.049	492.88
499.267	498.88
499.484	519.88
499.701	538.88
499.918	536.88
500.135	541.88
500.352	554.88
500.569	569.88
500.786	557.88
501.003	526.88
501.22	541.88
501.437	554.88
501.654	534.88
501.871	543.88
502.088	524.88
502.305	515.88
502.522	469.88
502.739	489.88
502.956	471.88
503.172	456.88
503.389	454.88
503.606	465.88
503.823	464.88
504.04	472.88
504.256	457.88
504.473	473.88
504.69	468.88
504.907	437.88
505.123	437.88
505.34	448.88
505.557	436.88
505.773	425.88
505.99	438.88
506.207	464.88
506.423	433.88
506.64	455.88
506.856	436.88
507.073	456.88
507.289	442.88
507.506	427.88
507.722	444.88
507.939	456.88
508.155	450.88
508.372	419.88
508.588	433.88
508.805	426.88
509.021	416.88
509.238	427.88
509.454	440.88
509.67	411.88
509.887	430.88
510.103	413.88
510.319	444.88
510.536	533.88
510.752	860.88
510.968	655.88
511.184	452.88
511.401	429.88
511.617	428.88
511.833	400.88
512.049	408.88
512.265	425.88
512.481	383.88
512.698	392.88
512.914	418.88
513.13	402.88
513.346	405.88
513.562	419.88
513.778	407.88
513.994	418.88
514.21	428.88
514.426	436.88
514.642	481.88
514.858	515.88
515.074	538.88
515.29	635.88
515.506	916.88
515.721	740.88
515.937	491.88
516.153	451.88
516.369	419.88
516.585	429.88
516.801	412.88
517.016	412.88
517.232	421.88
517.448	422.88
517.664	416.88
517.879	395.88
518.095	401.88
518.311	396.88
518.527	403.88
518.742	422.88
518.958	402.88
519.173	417.88
519.389	403.88
519.605	404.88
519.82	396.88
520.036	418.88
520.251	428.88
520.467	452.88
520.682	455.88
520.898	458.88
521.113	494.88
521.329	500.88
521.544	598.88
521.76	773.88
521.975	1202.88
522.19	1137.88
522.406	628.88
522.621	488.88
522.836	438.88
523.052	402.88
523.267	397.88
523.482	377.88
523.698	384.88
523.913	391.88
524.128	390.88
524.343	373.88
524.559	358.88
524.774	348.88
524.989	335.88
525.204	368.88
525.419	361.88
525.634	349.88
525.849	350.88
526.064	323.88
526.28	326.88
526.495	329.88
526.71	335.88
526.925	343.88
527.14	327.88
527.355	334.88
527.57	318.88
527.785	335.88
527.999	329.88
528.214	333.88
528.429	340.88
528.644	341.88
528.859	320.88
529.074	332.88
529.289	353.88
529.503	396.88
529.718	390.88
529.933	372.88
530.148	336.88
530.363	328.88
530.577	325.88
530.792	317.88
531.007	311.88
531.221	337.88
531.436	310.88
531.651	311.88
531.865	326.88
532.08	336.88
532.295	312.88
532.509	312.88
532.724	328.88
532.938	300.88
533.153	316.88
533.367	301.88
533.582	314.88
533.796	312.88
534.011	305.88
534.225	325.88
534.44	309.88
534.654	310.88
534.868	310.88
535.083	314.88
535.297	301.88
535.511	316.88
535.726	333.88
535.94	305.88
536.154	321.88
536.369	314.88
536.583	307.88
536.797	297.88
537.011	312.88
537.225	304.88
537.44	295.88
537.654	302.88
537.868	297.88
538.082	314.88
538.296	306.88
538.51	314.88
538.724	302.88
538.938	284.88
539.153	315.88
539.367	308.88
539.581	306.88
539.795	304.88
540.009	305.88
540.222	302.88
540.436	300.88
540.65	300.88
540.864	318.88
541.078	283.88
541.292	332.88
541.506	308.88
541.72	268.88
541.934	283.88
542.147	300.88
542.361	293.88
542.575	288.88
542.789	304.88
543.002	297.88
543.216	316.88
543.43	301.88
543.644	314.88
543.857	294.88
544.071	311.88
544.285	312.88
544.498	298.88
544.712	296.88
544.925	288.88
545.139	300.88
545.352	298.88
545.566	286.88
545.779	295.88
545.993	308.88
546.206	317.88
546.42	281.88
546.633	283.88
546.847	292.88
547.06	288.88
547.274	270.88
547.487	291.88
547.7	282.88
547.914	305.88
548.127	272.88
548.34	281.88
548.554	279.88
548.767	287.88
548.98	297.88
549.193	287.88
549.407	288.88
549.62	302.88
549.833	281.88
550.046	280.88
550.259	286.88
550.473	272.88
550.686	281.88
550.899	281.88
551.112	261.88
551.325	273.88
551.538	262.88
551.751	269.88
551.964	283.88
552.177	270.88
552.39	253.88
552.603	293.88
552.816	285.88
553.029	282.88
553.242	275.88
553.455	285.88
553.667	299.88
553.88	309.88
554.093	292.88
554.306	299.88
554.519	262.88
554.732	285.88
554.944	287.88
555.157	275.88
555.37	274.88
555.583	265.88
555.795	264.88
556.008	266.88
556.221	252.88
556.433	260.88
556.646	268.88
556.859	241.88
557.071	256.88
557.284	271.88
557.496	267.88
557.709	266.88
557.921	252.88
558.134	257.88
558.346	250.88
558.559	253.88
558.771	247.88
558.984	265.88
559.196	269.88
559.409	273.88
559.621	262.88
559.833	248.88
560.046	247.88
560.258	253.88
560.47	250.88
560.683	245.88
560.895	259.88
561.107	247.88
561.32	229.88
561.532	270.88
561.744	260.88
561.956	260.88
562.168	253.88
562.381	261.88
562.593	236.88
562.805	248.88
563.017	257.88
563.229	268.88
563.441	256.88
563.653	241.88
563.865	248.88
564.077	264.88
564.289	257.88
564.501	278.88
564.713	254.88
564.925	244.88
565.137	260.88
565.349	279.88
565.561	269.88
565.773	277.88
565.985	248.88
566.197	264.88
566.408	283.88
566.62	261.88
566.832	273.88
567.044	277.88
567.255	288.88
567.467	295.88
567.679	281.88
567.891	287.88
568.102	292.88
568.314	279.88
568.526	284.88
568.737	273.88
568.949	273.88
569.161	252.88
569.372	250.88
569.584	250.88
569.795	264.88
570.007	255.88
570.218	286.88
570.43	285.88
570.641	250.88
570.853	248.88
571.064	258.88
571.276	222.88
571.487	241.88
571.698	248.88
571.91	225.88
572.121	232.88
572.333	235.88
572.544	235.88
572.755	240.88
572.966	235.88
573.178	235.88
573.389	231.88
573.6	237.88
573.811	215.88
574.023	218.88
574.234	237.88
574.445	207.88
574.656	232.88
574.867	223.88
575.078	225.88
575.289	213.88
575.501	236.88
575.712	222.88
575.923	207.88
576.134	197.88
576.345	222.88
576.556	226.88
576.767	213.88
576.978	226.88
577.188	211.88
577.399	223.88
577.61	200.88
577.821	214.88
578.032	219.88
578.243	242.88
578.454	398.88
578.665	298.88
578.875	220.88
579.086	236.88
579.297	207.88
579.508	203.88
579.718	193.88
579.929	221.88
580.14	216.88
580.35	204.88
580.561	212.88
580.772	216.88
580.982	217.88
581.193	216.88
581.403	195.88
581.614	219.88
581.825	207.88
582.035	208.88
582.246	192.88
582.456	202.88
582.667	208.88
582.877	222.88
583.087	197.88
583.298	201.88
583.508	206.88
583.719	196.88
583.929	215.88
584.139	218.88
584.35	206.88
584.56	208.88
584.77	212.88
584.981	221.88
585.191	201.88
585.401	207.88
585.611	197.88
585.821	206.88
586.032	199.88
586.242	190.88
586.452	213.88
586.662	196.88
586.872	206.88
587.082	200.88
587.292	205.88
587.502	194.88
587.713	194.88
587.923	198.88
588.133	209.88
588.343	195.88
588.553	199.88
588.762	213.88
588.972	210.88
589.182	202.88
589.392	199.88
589.602	195.88
589.812	205.88
590.022	204.88
590.232	198.88
590.441	205.88
590.651	188.88
590.861	198.88
591.071	197.88
591.281	193.88
591.49	205.88
591.7	209.88
591.91	198.88
592.119	189.88
592.329	224.88
592.539	198.88
592.748	196.88
592.958	209.88
593.167	185.88
593.377	207.88
593.587	225.88
593.796	208.88
594.006	218.88
594.215	198.88
594.424	205.88
594.634	195.88
594.843	209.88
595.053	190.88
595.262	171.88
595.472	201.88
595.681	203.88
595.89	206.88
596.1	196.88
596.309	181.88
596.518	195.88
596.727	185.88
596.937	186.88
597.146	192.88
597.355	199.88
597.564	184.88
597.774	177.88
597.983	180.88
598.192	175.88
598.401	176.88
598.61	188.88
598.819	184.88
599.028	181.88
599.237	185.88
599.446	188.88
599.655	178.88
599.864	192.88
600.073	172.88
600.282	178.88
600.491	164.88
600.7	180.88
600.909	191.88
601.118	181.88
601.327	184.88
601.536	176.88
601.745	187.88
601.953	166.88
602.162	176.88
602.371	171.88
602.58	192.88
602.789	184.88
602.997	196.88
603.206	193.88
603.415	168.88
603.623	181.88
603.832	183.88
604.041	196.88
604.249	178.88
604.458	176.88
604.666	165.88
604.875	179.88
605.084	169.88
605.292	172.88
605.501	168.88
605.709	173.88
605.918	172.88
606.126	189.88
606.334	158.88
606.543	161.88
606.751	182.88
606.96	178.88
607.168	182.88
607.376	180.88
607.585	175.88
607.793	168.88
608.001	180.88
608.21	169.88
608.418	172.88
608.626	166.88
608.834	177.88
609.043	188.88
609.251	190.88
609.459	177.88
609.667	189.88
609.875	155.88
610.083	168.88
610.291	190.88
610.499	197.88
610.707	168.88
610.916	165.88
611.124	174.88
611.332	161.88
611.54	174.88
611.748	182.88
611.955	189.88
612.163	182.88
612.371	191.88
612.579	169.88
612.787	173.88
612.995	183.88
613.203	180.88
613.411	170.88
613.618	178.88
613.826	171.88
614.034	181.88
614.242	177.88
614.449	173.88
614.657	173.88
614.865	167.88
615.072	169.88
615.28	172.88
615.488	168.88
615.695	173.88
615.903	165.88
616.111	158.88
616.318	184.88
616.526	145.88
616.733	162.88
616.941	164.88
617.148	176.88
617.356	172.88
617.563	176.88
617.771	162.88
617.978	174.88
618.185	175.88
618.393	151.88
618.6	153.88
618.807	174.88
619.015	162.88
619.222	187.88
619.429	174.88
619.637	165.88
619.844	158.88
620.051	172.88
620.258	166.88
620.466	165.88
620.673	154.88
620.88	172.88
621.087	147.88
621.294	169.88
621.501	169.88
621.708	157.88
621.915	164.88
622.122	168.88
622.329	170.88
622.536	165.88
622.743	180.88
622.95	167.88
623.157	148.88
623.364	168.88
623.571	180.88
623.778	142.88
623.985	169.88
624.192	159.88
624.399	167.88
624.606	174.88
624.812	170.88
625.019	146.88
625.226	150.88
625.433	157.88
625.639	142.88
625.846	150.88
626.053	159.88
626.259	156.88
626.466	145.88
626.673	158.88
626.879	159.88
627.086	151.88
627.293	157.88
627.499	160.88
627.706	151.88
627.912	159.88
628.119	161.88
628.325	165.88
628.532	159.88
628.738	169.88
628.945	153.88
629.151	141.88
629.357	154.88
629.564	147.88
629.77	142.88
629.976	153.88
630.183	152.88
630.389	134.88
630.595	161.88
630.802	144.88
631.008	149.88
631.214	151.88
631.42	158.88
631.627	162.88
631.833	133.88
632.039	153.88
632.245	134.88
632.451	156.88
632.657	160.88
632.863	146.88
633.069	149.88
633.275	152.88
633.481	154.88
633.688	145.88
633.893	153.88
634.099	146.88
634.305	151.88
634.511	141.88
634.717	153.88
634.923	155.88
635.129	130.88
635.335	138.88
635.541	152.88
635.747	150.88
635.952	132.88
636.158	144.88
636.364	147.88
636.57	150.88
636.775	148.88
636.981	147.88
637.187	149.88
637.392	153.88
637.598	152.88
637.804	147.88
638.009	147.88
638.215	155.88
638.421	143.88
638.626	149.88
638.832	147.88
639.037	133.88
639.243	124.88
639.448	140.88
639.654	149.88
639.859	130.88
640.065	126.88
640.27	133.88
640.475	134.88
640.681	144.88
640.886	131.88
641.091	130.88
641.297	135.88
641.502	110.88
641.707	149.88
641.913	130.88
642.118	134.88
642.323	136.88
642.528	140.88
642.733	144.88
642.939	128.88
643.144	137.88
643.349	135.88
643.554	146.88
643.759	141.88
643.964	128.88
644.169	145.88
644.374	137.88
644.579	129.88
644.784	148.88
644.989	128.88
645.194	131.88
645.399	145.88
645.604	140.88
645.809	134.88
646.014	138.88
646.219	124.88
646.423	126.88
646.628	147.88
646.833	136.88
647.038	134.88
647.243	151.88
647.447	128.88
647.652	122.88
647.857	141.88
648.062	130.88
648.266	128.88
648.471	133.88
648.676	152.88
648.88	134.88
649.085	138.88
649.289	133.88
649.494	126.88
649.698	143.88
649.903	148.88
650.107	137.88
650.312	121.88
650.516	128.88
650.721	135.88
650.925	142.88
651.13	136.88
651.334	127.88
651.539	128.88
651.743	124.88
651.947	125.88
652.152	144.88
652.356	131.88
652.56	109.88
652.764	123.88
652.969	120.88
653.173	113.88
653.377	116.88
653.581	132.88
653.785	131.88
653.99	120.88
654.194	111.88
654.398	117.88
654.602	118.88
654.806	125.88
655.01	124.88
655.214	129.88
655.418	121.88
655.622	117.88
655.826	110.88
656.03	116.88
656.234	130.88
656.438	144.88
656.642	140.88
656.846	109.88
657.049	124.88
657.253	116.88
657.457	104.88
657.661	113.88
657.865	107.88
658.068	95.88
658.272	94.88
658.476	113.88
658.68	119.88
658.883	86.88
659.087	86.88
659.291	104.88
659.494	104.88
659.698	105.88
659.901	110.88
660.105	94.88
660.309	99.88
660.512	88.88
660.716	102.88
660.919	90.88
661.123	96.88
661.326	94.88
661.53	89.88
661.733	97.88
661.936	92.88
662.14	91.88
662.343	85.88
662.546	91.88
662.75	82.88
662.953	99.88
663.156	86.88
663.36	98.88
663.563	82.88
663.766	81.88
663.969	83.88
664.173	79.88
664.376	93.88
664.579	88.88
664.782	91.88
664.985	89.88
665.188	95.88
665.391	100.88
665.594	83.88
665.797	101.88
666	77.88
666.203	90.88
666.406	76.88
666.609	85.88
666.812	77.88
667.015	87.88
667.218	101.88
667.421	77.88
667.624	99.88
667.827	81.88
668.03	86.88
668.232	88.88
668.435	94.88
668.638	85.88
668.841	79.88
669.043	82.88
669.246	94.88
669.449	85.88
669.651	81.88
669.854	92.88
670.057	92.88
670.259	86.88
670.462	86.88
670.665	86.88
670.867	77.88
671.07	81.88
671.272	74.88
671.475	86.88
671.677	85.88
671.88	89.88
672.082	80.88
672.284	88.88
672.487	91.88
672.689	87.88
672.892	92.88
