Data from 1982.PennyLincolnUp.Lamp.En5.5.200Scan.071819.P1_HRD10591_16-45-45-961.txt Node
Date: Thu Jul 18 16:45:45 EDT 2019
User: cochatt
Spectrometer: HR+D1059
Trigger mode: 1
Integration Time (sec): 1.000000E-1
Scans to average: 1
Electric dark correction enabled: true
Nonlinearity correction enabled: false
Boxcar width: 0
XAxis mode: Wavelengths
Number of Pixels in Spectrum: 2048
>>>>>Begin Spectral Data<<<<<
223.165	-15.62
223.4	-15.62
223.635	-15.62
223.869	-21.62
224.104	-15.62
224.338	-22.62
224.573	-4.62
224.808	-16.62
225.042	-10.62
225.277	-1.62
225.511	6.38
225.746	0.38
225.98	-1.62
226.215	23.38
226.449	17.38
226.683	6.38
226.918	24.38
227.152	32.38
227.387	34.38
227.621	40.38
227.856	60.38
228.09	45.38
228.324	44.38
228.559	66.38
228.793	60.38
229.027	88.38
229.262	96.38
229.496	105.38
229.73	97.38
229.964	128.38
230.199	114.38
230.433	100.38
230.667	103.38
230.901	96.38
231.136	96.38
231.37	90.38
231.604	110.38
231.838	99.38
232.072	96.38
232.306	108.38
232.541	107.38
232.775	112.38
233.009	116.38
233.243	96.38
233.477	101.38
233.711	106.38
233.945	109.38
234.179	97.38
234.413	120.38
234.647	88.38
234.881	88.38
235.115	111.38
235.349	106.38
235.583	117.38
235.817	105.38
236.051	104.38
236.285	104.38
236.519	101.38
236.753	124.38
236.987	122.38
237.221	146.38
237.455	185.38
237.689	146.38
237.922	132.38
238.156	117.38
238.39	124.38
238.624	120.38
238.858	101.38
239.091	105.38
239.325	110.38
239.559	117.38
239.793	106.38
240.027	112.38
240.26	121.38
240.494	134.38
240.728	135.38
240.961	126.38
241.195	100.38
241.429	124.38
241.662	119.38
241.896	106.38
242.13	117.38
242.363	126.38
242.597	126.38
242.83	125.38
243.064	121.38
243.298	133.38
243.531	115.38
243.765	110.38
243.998	116.38
244.232	121.38
244.465	124.38
244.699	123.38
244.932	107.38
245.166	126.38
245.399	136.38
245.633	124.38
245.866	136.38
246.099	119.38
246.333	117.38
246.566	124.38
246.8	119.38
247.033	127.38
247.266	133.38
247.5	142.38
247.733	134.38
247.966	154.38
248.2	133.38
248.433	141.38
248.666	144.38
248.899	147.38
249.133	158.38
249.366	173.38
249.599	151.38
249.832	152.38
250.066	148.38
250.299	140.38
250.532	146.38
250.765	155.38
250.998	186.38
251.231	187.38
251.465	174.38
251.698	174.38
251.931	168.38
252.164	160.38
252.397	158.38
252.63	142.38
252.863	152.38
253.096	176.38
253.329	174.38
253.562	184.38
253.795	178.38
254.028	174.38
254.261	177.38
254.494	178.38
254.727	191.38
254.96	214.38
255.193	200.38
255.426	190.38
255.659	180.38
255.892	169.38
256.124	188.38
256.357	179.38
256.59	176.38
256.823	166.38
257.056	173.38
257.289	173.38
257.521	153.38
257.754	165.38
257.987	160.38
258.22	174.38
258.452	167.38
258.685	180.38
258.918	163.38
259.151	171.38
259.383	176.38
259.616	169.38
259.849	184.38
260.081	180.38
260.314	179.38
260.547	192.38
260.779	189.38
261.012	168.38
261.244	174.38
261.477	161.38
261.71	182.38
261.942	184.38
262.175	199.38
262.407	189.38
262.64	174.38
262.872	164.38
263.105	168.38
263.337	188.38
263.57	171.38
263.802	169.38
264.035	167.38
264.267	165.38
264.499	164.38
264.732	160.38
264.964	176.38
265.197	176.38
265.429	174.38
265.661	172.38
265.894	162.38
266.126	170.38
266.358	175.38
266.591	184.38
266.823	173.38
267.055	190.38
267.287	166.38
267.52	177.38
267.752	175.38
267.984	176.38
268.216	167.38
268.448	180.38
268.681	173.38
268.913	201.38
269.145	193.38
269.377	214.38
269.609	209.38
269.841	206.38
270.073	215.38
270.306	214.38
270.538	239.38
270.77	234.38
271.002	228.38
271.234	212.38
271.466	220.38
271.698	222.38
271.93	230.38
272.162	214.38
272.394	241.38
272.626	213.38
272.858	216.38
273.09	213.38
273.322	215.38
273.553	202.38
273.785	213.38
274.017	199.38
274.249	210.38
274.481	200.38
274.713	206.38
274.945	199.38
275.176	209.38
275.408	193.38
275.64	208.38
275.872	199.38
276.104	205.38
276.335	216.38
276.567	224.38
276.799	211.38
277.031	226.38
277.262	254.38
277.494	233.38
277.726	238.38
277.957	204.38
278.189	221.38
278.421	203.38
278.652	213.38
278.884	216.38
279.115	206.38
279.347	210.38
279.579	209.38
279.81	222.38
280.042	199.38
280.273	218.38
280.505	211.38
280.736	207.38
280.968	200.38
281.199	225.38
281.431	192.38
281.662	199.38
281.894	209.38
282.125	193.38
282.356	221.38
282.588	231.38
282.819	232.38
283.051	210.38
283.282	200.38
283.513	225.38
283.745	209.38
283.976	224.38
284.207	211.38
284.439	212.38
284.67	221.38
284.901	196.38
285.132	224.38
285.364	225.38
285.595	215.38
285.826	211.38
286.057	207.38
286.288	221.38
286.52	209.38
286.751	185.38
286.982	211.38
287.213	203.38
287.444	225.38
287.675	218.38
287.906	226.38
288.138	226.38
288.369	224.38
288.6	212.38
288.831	220.38
289.062	219.38
289.293	211.38
289.524	205.38
289.755	228.38
289.986	234.38
290.217	239.38
290.448	212.38
290.679	221.38
290.91	216.38
291.141	202.38
291.371	204.38
291.602	221.38
291.833	222.38
292.064	213.38
292.295	218.38
292.526	208.38
292.757	206.38
292.987	221.38
293.218	210.38
293.449	210.38
293.68	210.38
293.91	217.38
294.141	238.38
294.372	225.38
294.603	213.38
294.833	209.38
295.064	225.38
295.295	220.38
295.525	211.38
295.756	224.38
295.987	213.38
296.217	228.38
296.448	252.38
296.679	240.38
296.909	225.38
297.14	232.38
297.37	226.38
297.601	197.38
297.831	231.38
298.062	223.38
298.292	226.38
298.523	229.38
298.753	231.38
298.984	213.38
299.214	225.38
299.445	242.38
299.675	251.38
299.905	228.38
300.136	221.38
300.366	215.38
300.597	220.38
300.827	237.38
301.057	243.38
301.288	245.38
301.518	258.38
301.748	238.38
301.979	248.38
302.209	241.38
302.439	244.38
302.669	231.38
302.9	246.38
303.13	237.38
303.36	248.38
303.59	238.38
303.82	245.38
304.051	245.38
304.281	245.38
304.511	234.38
304.741	240.38
304.971	235.38
305.201	246.38
305.431	237.38
305.661	253.38
305.891	250.38
306.121	263.38
306.352	262.38
306.582	254.38
306.812	230.38
307.042	243.38
307.272	246.38
307.502	234.38
307.731	245.38
307.961	244.38
308.191	238.38
308.421	244.38
308.651	252.38
308.881	258.38
309.111	262.38
309.341	268.38
309.571	262.38
309.8	284.38
310.03	273.38
310.26	286.38
310.49	278.38
310.72	283.38
310.949	289.38
311.179	288.38
311.409	288.38
311.639	274.38
311.868	269.38
312.098	290.38
312.328	291.38
312.557	293.38
312.787	291.38
313.017	281.38
313.246	293.38
313.476	288.38
313.706	272.38
313.935	290.38
314.165	279.38
314.394	288.38
314.624	288.38
314.853	274.38
315.083	277.38
315.312	293.38
315.542	290.38
315.771	277.38
316.001	280.38
316.23	290.38
316.46	253.38
316.689	279.38
316.919	279.38
317.148	293.38
317.377	287.38
317.607	284.38
317.836	293.38
318.065	288.38
318.295	288.38
318.524	269.38
318.753	280.38
318.983	278.38
319.212	269.38
319.441	291.38
319.67	294.38
319.9	275.38
320.129	286.38
320.358	269.38
320.587	292.38
320.816	292.38
321.046	296.38
321.275	301.38
321.504	291.38
321.733	303.38
321.962	318.38
322.191	328.38
322.42	332.38
322.649	344.38
322.878	344.38
323.108	344.38
323.337	372.38
323.566	385.38
323.795	386.38
324.024	441.38
324.253	546.38
324.482	820.38
324.71	1207.38
324.939	1547.38
325.168	1292.38
325.397	682.38
325.626	500.38
325.855	421.38
326.084	380.38
326.313	370.38
326.542	372.38
326.77	429.38
326.999	524.38
327.228	696.38
327.457	1028.38
327.686	1127.38
327.914	751.38
328.143	500.38
328.372	471.38
328.6	437.38
328.829	415.38
329.058	436.38
329.287	429.38
329.515	413.38
329.744	349.38
329.972	369.38
330.201	389.38
330.43	408.38
330.658	405.38
330.887	437.38
331.115	432.38
331.344	390.38
331.572	363.38
331.801	362.38
332.03	338.38
332.258	338.38
332.486	330.38
332.715	330.38
332.943	340.38
333.172	328.38
333.4	320.38
333.629	319.38
333.857	330.38
334.085	344.38
334.314	362.38
334.542	361.38
334.771	374.38
334.999	338.38
335.227	339.38
335.455	329.38
335.684	324.38
335.912	328.38
336.14	306.38
336.369	327.38
336.597	324.38
336.825	319.38
337.053	313.38
337.281	326.38
337.51	311.38
337.738	313.38
337.966	323.38
338.194	310.38
338.422	316.38
338.65	323.38
338.878	317.38
339.106	326.38
339.334	306.38
339.562	296.38
339.79	323.38
340.018	308.38
340.246	278.38
340.474	297.38
340.702	322.38
340.93	315.38
341.158	319.38
341.386	310.38
341.614	296.38
341.842	308.38
342.07	290.38
342.298	308.38
342.526	293.38
342.754	294.38
342.981	290.38
343.209	323.38
343.437	282.38
343.665	301.38
343.893	298.38
344.12	318.38
344.348	304.38
344.576	297.38
344.804	325.38
345.031	323.38
345.259	328.38
345.487	308.38
345.714	313.38
345.942	296.38
346.17	312.38
346.397	304.38
346.625	304.38
346.853	294.38
347.08	296.38
347.308	299.38
347.535	301.38
347.763	305.38
347.99	306.38
348.218	316.38
348.445	313.38
348.673	288.38
348.9	299.38
349.128	315.38
349.355	298.38
349.583	312.38
349.81	296.38
350.037	290.38
350.265	279.38
350.492	305.38
350.72	297.38
350.947	301.38
351.174	314.38
351.402	304.38
351.629	274.38
351.856	298.38
352.083	318.38
352.311	294.38
352.538	309.38
352.765	300.38
352.992	301.38
353.22	308.38
353.447	286.38
353.674	278.38
353.901	292.38
354.128	287.38
354.355	283.38
354.583	261.38
354.81	260.38
355.037	263.38
355.264	262.38
355.491	284.38
355.718	276.38
355.945	275.38
356.172	275.38
356.399	270.38
356.626	279.38
356.853	279.38
357.08	279.38
357.307	266.38
357.534	288.38
357.761	278.38
357.988	272.38
358.215	276.38
358.441	268.38
358.668	275.38
358.895	269.38
359.122	265.38
359.349	281.38
359.576	302.38
359.802	320.38
360.029	325.38
360.256	331.38
360.483	316.38
360.709	306.38
360.936	288.38
361.163	294.38
361.39	284.38
361.616	292.38
361.843	304.38
362.07	279.38
362.296	286.38
362.523	294.38
362.749	272.38
362.976	263.38
363.203	281.38
363.429	269.38
363.656	274.38
363.882	281.38
364.109	271.38
364.335	282.38
364.562	263.38
364.788	264.38
365.015	277.38
365.241	287.38
365.468	255.38
365.694	274.38
365.92	280.38
366.147	274.38
366.373	261.38
366.599	250.38
366.826	270.38
367.052	274.38
367.278	267.38
367.505	284.38
367.731	279.38
367.957	274.38
368.184	274.38
368.41	295.38
368.636	284.38
368.862	286.38
369.089	274.38
369.315	256.38
369.541	271.38
369.767	268.38
369.993	266.38
370.219	268.38
370.445	270.38
370.672	271.38
370.898	255.38
371.124	269.38
371.35	271.38
371.576	286.38
371.802	263.38
372.028	256.38
372.254	282.38
372.48	269.38
372.706	273.38
372.932	259.38
373.158	262.38
373.384	253.38
373.61	266.38
373.835	266.38
374.061	270.38
374.287	270.38
374.513	285.38
374.739	282.38
374.965	266.38
375.191	267.38
375.416	269.38
375.642	263.38
375.868	269.38
376.094	256.38
376.319	264.38
376.545	282.38
376.771	254.38
376.997	276.38
377.222	272.38
377.448	259.38
377.674	268.38
377.899	258.38
378.125	255.38
378.35	255.38
378.576	259.38
378.802	248.38
379.027	266.38
379.253	258.38
379.478	262.38
379.704	262.38
379.929	260.38
380.155	278.38
380.38	253.38
380.606	258.38
380.831	258.38
381.057	266.38
381.282	252.38
381.507	294.38
381.733	273.38
381.958	264.38
382.184	272.38
382.409	278.38
382.634	291.38
382.86	254.38
383.085	265.38
383.31	272.38
383.535	265.38
383.761	273.38
383.986	274.38
384.211	272.38
384.436	290.38
384.662	273.38
384.887	291.38
385.112	265.38
385.337	266.38
385.562	274.38
385.787	286.38
386.013	273.38
386.238	297.38
386.463	286.38
386.688	303.38
386.913	283.38
387.138	282.38
387.363	271.38
387.588	280.38
387.813	268.38
388.038	271.38
388.263	298.38
388.488	306.38
388.713	277.38
388.938	286.38
389.163	298.38
389.387	270.38
389.612	262.38
389.837	274.38
390.062	267.38
390.287	274.38
390.512	273.38
390.736	271.38
390.961	270.38
391.186	288.38
391.411	285.38
391.636	270.38
391.86	280.38
392.085	274.38
392.31	263.38
392.534	293.38
392.759	279.38
392.984	283.38
393.208	263.38
393.433	280.38
393.658	269.38
393.882	253.38
394.107	279.38
394.331	272.38
394.556	278.38
394.78	288.38
395.005	281.38
395.229	284.38
395.454	272.38
395.678	271.38
395.903	287.38
396.127	283.38
396.352	299.38
396.576	281.38
396.801	284.38
397.025	294.38
397.249	284.38
397.474	278.38
397.698	298.38
397.922	302.38
398.147	304.38
398.371	312.38
398.595	294.38
398.82	302.38
399.044	305.38
399.268	312.38
399.492	312.38
399.717	324.38
399.941	341.38
400.165	356.38
400.389	351.38
400.613	335.38
400.837	311.38
401.062	325.38
401.286	285.38
401.51	316.38
401.734	299.38
401.958	295.38
402.182	301.38
402.406	311.38
402.63	312.38
402.854	319.38
403.078	324.38
403.302	299.38
403.526	317.38
403.75	306.38
403.974	303.38
404.198	328.38
404.422	290.38
404.645	298.38
404.869	325.38
405.093	348.38
405.317	354.38
405.541	378.38
405.765	334.38
405.988	335.38
406.212	353.38
406.436	345.38
406.66	352.38
406.883	345.38
407.107	354.38
407.331	372.38
407.555	394.38
407.778	401.38
408.002	371.38
408.226	369.38
408.449	335.38
408.673	342.38
408.896	364.38
409.12	368.38
409.344	368.38
409.567	338.38
409.791	334.38
410.014	331.38
410.238	320.38
410.461	303.38
410.685	317.38
410.908	326.38
411.132	345.38
411.355	366.38
411.578	353.38
411.802	328.38
412.025	319.38
412.249	309.38
412.472	334.38
412.695	348.38
412.919	340.38
413.142	326.38
413.365	293.38
413.589	318.38
413.812	289.38
414.035	299.38
414.258	305.38
414.482	306.38
414.705	297.38
414.928	286.38
415.151	288.38
415.374	294.38
415.597	283.38
415.821	294.38
416.044	310.38
416.267	280.38
416.49	289.38
416.713	286.38
416.936	287.38
417.159	288.38
417.382	293.38
417.605	290.38
417.828	318.38
418.051	312.38
418.274	312.38
418.497	292.38
418.72	298.38
418.943	285.38
419.166	308.38
419.389	316.38
419.611	319.38
419.834	313.38
420.057	315.38
420.28	324.38
420.503	311.38
420.726	302.38
420.948	308.38
421.171	337.38
421.394	348.38
421.617	326.38
421.839	311.38
422.062	321.38
422.285	336.38
422.507	350.38
422.73	376.38
422.953	360.38
423.175	346.38
423.398	325.38
423.621	330.38
423.843	330.38
424.066	355.38
424.288	322.38
424.511	354.38
424.733	367.38
424.956	426.38
425.178	402.38
425.401	412.38
425.623	397.38
425.846	364.38
426.068	340.38
426.291	336.38
426.513	324.38
426.735	345.38
426.958	379.38
427.18	430.38
427.402	472.38
427.625	518.38
427.847	488.38
428.069	412.38
428.292	366.38
428.514	336.38
428.736	330.38
428.958	332.38
429.181	311.38
429.403	310.38
429.625	336.38
429.847	339.38
430.069	355.38
430.292	376.38
430.514	348.38
430.736	308.38
430.958	319.38
431.18	297.38
431.402	295.38
431.624	298.38
431.846	302.38
432.068	300.38
432.29	300.38
432.512	303.38
432.734	297.38
432.956	295.38
433.178	318.38
433.4	313.38
433.622	284.38
433.844	295.38
434.066	300.38
434.287	300.38
434.509	292.38
434.731	314.38
434.953	293.38
435.175	311.38
435.397	330.38
435.618	332.38
435.84	376.38
436.062	408.38
436.284	464.38
436.505	389.38
436.727	343.38
436.949	334.38
437.17	319.38
437.392	321.38
437.614	323.38
437.835	364.38
438.057	385.38
438.278	454.38
438.5	459.38
438.721	471.38
438.943	463.38
439.165	384.38
439.386	350.38
439.608	357.38
439.829	358.38
440.05	370.38
440.272	375.38
440.493	366.38
440.715	335.38
440.936	329.38
441.158	329.38
441.379	306.38
441.6	326.38
441.822	328.38
442.043	363.38
442.264	403.38
442.486	418.38
442.707	389.38
442.928	351.38
443.149	345.38
443.371	356.38
443.592	372.38
443.813	442.38
444.034	455.38
444.255	394.38
444.476	342.38
444.698	330.38
444.919	334.38
445.14	400.38
445.361	386.38
445.582	366.38
445.803	403.38
446.024	463.38
446.245	460.38
446.466	398.38
446.687	373.38
446.908	336.38
447.129	327.38
447.35	334.38
447.571	319.38
447.792	303.38
448.013	313.38
448.234	318.38
448.455	388.38
448.675	433.38
448.896	503.38
449.117	405.38
449.338	392.38
449.559	440.38
449.779	476.38
450	402.38
450.221	332.38
450.442	315.38
450.662	332.38
450.883	315.38
451.104	320.38
451.324	325.38
451.545	301.38
451.766	302.38
451.986	286.38
452.207	302.38
452.428	302.38
452.648	281.38
452.869	287.38
453.089	315.38
453.31	280.38
453.53	280.38
453.751	279.38
453.971	286.38
454.192	287.38
454.412	298.38
454.633	298.38
454.853	269.38
455.073	275.38
455.294	282.38
455.514	352.38
455.734	336.38
455.955	284.38
456.175	257.38
456.395	264.38
456.616	246.38
456.836	270.38
457.056	251.38
457.276	260.38
457.497	276.38
457.717	272.38
457.937	262.38
458.157	268.38
458.377	274.38
458.598	290.38
458.818	346.38
459.038	373.38
459.258	365.38
459.478	308.38
459.698	296.38
459.918	302.38
460.138	305.38
460.358	302.38
460.578	284.38
460.798	290.38
461.018	303.38
461.238	296.38
461.458	290.38
461.678	288.38
461.898	273.38
462.118	288.38
462.338	290.38
462.558	305.38
462.777	299.38
462.997	309.38
463.217	320.38
463.437	318.38
463.657	310.38
463.876	292.38
464.096	315.38
464.316	301.38
464.536	306.38
464.755	297.38
464.975	302.38
465.195	332.38
465.414	382.38
465.634	354.38
465.854	302.38
466.073	302.38
466.293	294.38
466.512	285.38
466.732	295.38
466.951	280.38
467.171	282.38
467.391	286.38
467.61	298.38
467.829	289.38
468.049	293.38
468.268	280.38
468.488	282.38
468.707	295.38
468.927	281.38
469.146	276.38
469.365	284.38
469.585	275.38
469.804	267.38
470.023	296.38
470.243	304.38
470.462	297.38
470.681	310.38
470.901	283.38
471.12	278.38
471.339	279.38
471.558	304.38
471.777	292.38
471.997	311.38
472.216	294.38
472.435	303.38
472.654	310.38
472.873	282.38
473.092	294.38
473.311	293.38
473.53	288.38
473.749	301.38
473.968	343.38
474.187	385.38
474.406	395.38
474.625	322.38
474.844	297.38
475.063	308.38
475.282	302.38
475.501	280.38
475.72	306.38
475.939	284.38
476.158	315.38
476.377	285.38
476.596	296.38
476.814	305.38
477.033	301.38
477.252	301.38
477.471	304.38
477.69	304.38
477.908	315.38
478.127	322.38
478.346	321.38
478.564	314.38
478.783	346.38
479.002	312.38
479.22	327.38
479.439	350.38
479.658	348.38
479.876	332.38
480.095	352.38
480.313	368.38
480.532	340.38
480.751	366.38
480.969	335.38
481.188	382.38
481.406	401.38
481.624	372.38
481.843	360.38
482.061	342.38
482.28	333.38
482.498	341.38
482.717	336.38
482.935	334.38
483.153	345.38
483.372	343.38
483.59	330.38
483.808	333.38
484.027	329.38
484.245	314.38
484.463	330.38
484.681	347.38
484.9	330.38
485.118	340.38
485.336	337.38
485.554	354.38
485.772	351.38
485.99	334.38
486.209	364.38
486.427	344.38
486.645	354.38
486.863	366.38
487.081	373.38
487.299	357.38
487.517	354.38
487.735	360.38
487.953	380.38
488.171	362.38
488.389	351.38
488.607	359.38
488.825	373.38
489.043	368.38
489.261	344.38
489.479	370.38
489.696	367.38
489.914	354.38
490.132	365.38
490.35	383.38
490.568	367.38
490.786	384.38
491.003	386.38
491.221	392.38
491.439	392.38
491.657	399.38
491.874	412.38
492.092	403.38
492.31	406.38
492.527	411.38
492.745	409.38
492.963	400.38
493.18	402.38
493.398	427.38
493.615	408.38
493.833	419.38
494.05	420.38
494.268	410.38
494.485	432.38
494.703	422.38
494.92	402.38
495.138	421.38
495.355	415.38
495.573	410.38
495.79	425.38
496.008	422.38
496.225	414.38
496.442	420.38
496.66	405.38
496.877	419.38
497.094	422.38
497.312	416.38
497.529	428.38
497.746	464.38
497.963	436.38
498.181	445.38
498.398	434.38
498.615	456.38
498.832	454.38
499.049	444.38
499.267	436.38
499.484	477.38
499.701	485.38
499.918	473.38
500.135	503.38
500.352	504.38
500.569	511.38
500.786	504.38
501.003	523.38
501.22	507.38
501.437	502.38
501.654	498.38
501.871	490.38
502.088	481.38
502.305	467.38
502.522	471.38
502.739	443.38
502.956	436.38
503.172	420.38
503.389	457.38
503.606	440.38
503.823	426.38
504.04	441.38
504.256	417.38
504.473	413.38
504.69	416.38
504.907	416.38
505.123	417.38
505.34	411.38
505.557	396.38
505.773	392.38
505.99	402.38
506.207	392.38
506.423	410.38
506.64	406.38
506.856	398.38
507.073	397.38
507.289	397.38
507.506	397.38
507.722	420.38
507.939	422.38
508.155	407.38
508.372	381.38
508.588	406.38
508.805	392.38
509.021	398.38
509.238	414.38
509.454	409.38
509.67	390.38
509.887	400.38
510.103	393.38
510.319	396.38
510.536	458.38
510.752	779.38
510.968	604.38
511.184	412.38
511.401	396.38
511.617	374.38
511.833	376.38
512.049	365.38
512.265	374.38
512.481	370.38
512.698	382.38
512.914	392.38
513.13	395.38
513.346	362.38
513.562	368.38
513.778	363.38
513.994	373.38
514.21	356.38
514.426	407.38
514.642	441.38
514.858	443.38
515.074	495.38
515.29	569.38
515.506	836.38
515.721	635.38
515.937	469.38
516.153	420.38
516.369	417.38
516.585	377.38
516.801	402.38
517.016	378.38
517.232	376.38
517.448	367.38
517.664	365.38
517.879	390.38
518.095	384.38
518.311	367.38
518.527	384.38
518.742	384.38
518.958	385.38
519.173	380.38
519.389	378.38
519.605	365.38
519.82	378.38
520.036	367.38
520.251	392.38
520.467	408.38
520.682	393.38
520.898	428.38
521.113	420.38
521.329	448.38
521.544	536.38
521.76	697.38
521.975	1084.38
522.19	1024.38
522.406	583.38
522.621	436.38
522.836	406.38
523.052	392.38
523.267	380.38
523.482	343.38
523.698	360.38
523.913	367.38
524.128	335.38
524.343	336.38
524.559	344.38
524.774	334.38
524.989	326.38
525.204	332.38
525.419	330.38
525.634	350.38
525.849	322.38
526.064	304.38
526.28	333.38
526.495	324.38
526.71	316.38
526.925	314.38
527.14	327.38
527.355	317.38
527.57	304.38
527.785	304.38
527.999	310.38
528.214	308.38
528.429	301.38
528.644	325.38
528.859	314.38
529.074	311.38
529.289	334.38
529.503	396.38
529.718	357.38
529.933	318.38
530.148	310.38
530.363	309.38
530.577	294.38
530.792	304.38
531.007	298.38
531.221	290.38
531.436	304.38
531.651	295.38
531.865	302.38
532.08	303.38
532.295	301.38
532.509	309.38
532.724	278.38
532.938	298.38
533.153	279.38
533.367	295.38
533.582	290.38
533.796	289.38
534.011	283.38
534.225	291.38
534.44	299.38
534.654	295.38
534.868	288.38
535.083	253.38
535.297	298.38
535.511	312.38
535.726	303.38
535.94	280.38
536.154	293.38
536.369	277.38
536.583	276.38
536.797	282.38
537.011	287.38
537.225	295.38
537.44	280.38
537.654	290.38
537.868	282.38
538.082	289.38
538.296	284.38
538.51	280.38
538.724	273.38
538.938	274.38
539.153	284.38
539.367	288.38
539.581	279.38
539.795	296.38
540.009	280.38
540.222	289.38
540.436	321.38
540.65	289.38
540.864	297.38
541.078	289.38
541.292	301.38
541.506	286.38
541.72	279.38
541.934	282.38
542.147	295.38
542.361	278.38
542.575	249.38
542.789	285.38
543.002	286.38
543.216	284.38
543.43	280.38
543.644	286.38
543.857	286.38
544.071	302.38
544.285	304.38
544.498	264.38
544.712	277.38
544.925	271.38
545.139	258.38
545.352	272.38
545.566	279.38
545.779	275.38
545.993	288.38
546.206	278.38
546.42	293.38
546.633	274.38
546.847	288.38
547.06	273.38
547.274	277.38
547.487	272.38
547.7	266.38
547.914	288.38
548.127	280.38
548.34	268.38
548.554	263.38
548.767	281.38
548.98	258.38
549.193	272.38
549.407	278.38
549.62	270.38
549.833	300.38
550.046	271.38
550.259	270.38
550.473	272.38
550.686	259.38
550.899	262.38
551.112	244.38
551.325	278.38
551.538	264.38
551.751	252.38
551.964	252.38
552.177	268.38
552.39	268.38
552.603	257.38
552.816	267.38
553.029	261.38
553.242	260.38
553.455	268.38
553.667	286.38
553.88	297.38
554.093	280.38
554.306	288.38
554.519	283.38
554.732	272.38
554.944	244.38
555.157	251.38
555.37	249.38
555.583	254.38
555.795	265.38
556.008	266.38
556.221	264.38
556.433	264.38
556.646	250.38
556.859	256.38
557.071	254.38
557.284	246.38
557.496	241.38
557.709	242.38
557.921	244.38
558.134	252.38
558.346	240.38
558.559	257.38
558.771	260.38
558.984	226.38
559.196	231.38
559.409	255.38
559.621	231.38
559.833	244.38
560.046	250.38
560.258	260.38
560.47	240.38
560.683	254.38
560.895	250.38
561.107	250.38
561.32	250.38
561.532	240.38
561.744	232.38
561.956	256.38
562.168	229.38
562.381	228.38
562.593	234.38
562.805	253.38
563.017	236.38
563.229	250.38
563.441	261.38
563.653	238.38
563.865	232.38
564.077	241.38
564.289	249.38
564.501	266.38
564.713	254.38
564.925	257.38
565.137	262.38
565.349	254.38
565.561	272.38
565.773	272.38
565.985	276.38
566.197	254.38
566.408	259.38
566.62	277.38
566.832	277.38
567.044	268.38
567.255	270.38
567.467	273.38
567.679	254.38
567.891	277.38
568.102	268.38
568.314	270.38
568.526	260.38
568.737	269.38
568.949	268.38
569.161	266.38
569.372	237.38
569.584	248.38
569.795	249.38
570.007	246.38
570.218	268.38
570.43	257.38
570.641	247.38
570.853	234.38
571.064	242.38
571.276	241.38
571.487	238.38
571.698	238.38
571.91	236.38
572.121	212.38
572.333	210.38
572.544	222.38
572.755	218.38
572.966	236.38
573.178	227.38
573.389	221.38
573.6	228.38
573.811	205.38
574.023	202.38
574.234	217.38
574.445	220.38
574.656	207.38
574.867	214.38
575.078	216.38
575.289	227.38
575.501	210.38
575.712	200.38
575.923	199.38
576.134	207.38
576.345	220.38
576.556	204.38
576.767	220.38
576.978	212.38
577.188	207.38
577.399	214.38
577.61	213.38
577.821	214.38
578.032	234.38
578.243	237.38
578.454	380.38
578.665	272.38
578.875	206.38
579.086	205.38
579.297	201.38
579.508	208.38
579.718	217.38
579.929	209.38
580.14	193.38
580.35	196.38
580.561	195.38
580.772	202.38
580.982	200.38
581.193	209.38
581.403	206.38
581.614	208.38
581.825	201.38
582.035	205.38
582.246	202.38
582.456	189.38
582.667	201.38
582.877	192.38
583.087	192.38
583.298	193.38
583.508	194.38
583.719	215.38
583.929	211.38
584.139	202.38
584.35	186.38
584.56	180.38
584.77	206.38
584.981	203.38
585.191	198.38
585.401	201.38
585.611	215.38
585.821	191.38
586.032	177.38
586.242	192.38
586.452	206.38
586.662	188.38
586.872	192.38
587.082	192.38
587.292	208.38
587.502	175.38
587.713	198.38
587.923	201.38
588.133	197.38
588.343	199.38
588.553	196.38
588.762	190.38
588.972	190.38
589.182	219.38
589.392	215.38
589.602	198.38
589.812	211.38
590.022	214.38
590.232	201.38
590.441	193.38
590.651	208.38
590.861	197.38
591.071	181.38
591.281	190.38
591.49	193.38
591.7	180.38
591.91	193.38
592.119	193.38
592.329	188.38
592.539	195.38
592.748	213.38
592.958	200.38
593.167	184.38
593.377	186.38
593.587	192.38
593.796	191.38
594.006	202.38
594.215	198.38
594.424	174.38
594.634	189.38
594.843	176.38
595.053	194.38
595.262	181.38
595.472	180.38
595.681	188.38
595.89	186.38
596.1	185.38
596.309	182.38
596.518	195.38
596.727	205.38
596.937	182.38
597.146	182.38
597.355	198.38
597.564	188.38
597.774	174.38
597.983	188.38
598.192	184.38
598.401	180.38
598.61	174.38
598.819	186.38
599.028	161.38
599.237	188.38
599.446	188.38
599.655	196.38
599.864	183.38
600.073	176.38
600.282	193.38
600.491	186.38
600.7	176.38
600.909	179.38
601.118	157.38
601.327	169.38
601.536	158.38
601.745	177.38
601.953	182.38
602.162	188.38
602.371	185.38
602.58	171.38
602.789	180.38
602.997	180.38
603.206	161.38
603.415	178.38
603.623	170.38
603.832	170.38
604.041	189.38
604.249	177.38
604.458	185.38
604.666	169.38
604.875	172.38
605.084	175.38
605.292	154.38
605.501	182.38
605.709	167.38
605.918	173.38
606.126	157.38
606.334	155.38
606.543	169.38
606.751	174.38
606.96	153.38
607.168	169.38
607.376	160.38
607.585	177.38
607.793	168.38
608.001	169.38
608.21	178.38
608.418	170.38
608.626	152.38
608.834	168.38
609.043	174.38
609.251	190.38
609.459	166.38
609.667	180.38
609.875	161.38
610.083	164.38
610.291	168.38
610.499	165.38
610.707	169.38
610.916	155.38
611.124	178.38
611.332	177.38
611.54	165.38
611.748	183.38
611.955	165.38
612.163	174.38
612.371	149.38
612.579	182.38
612.787	154.38
612.995	180.38
613.203	165.38
613.411	174.38
613.618	161.38
613.826	150.38
614.034	176.38
614.242	152.38
614.449	164.38
614.657	160.38
614.865	177.38
615.072	162.38
615.28	160.38
615.488	152.38
615.695	168.38
615.903	156.38
616.111	174.38
616.318	170.38
616.526	172.38
616.733	162.38
616.941	168.38
617.148	184.38
617.356	179.38
617.563	155.38
617.771	181.38
617.978	165.38
618.185	167.38
618.393	162.38
618.6	169.38
618.807	164.38
619.015	159.38
619.222	178.38
619.429	177.38
619.637	156.38
619.844	156.38
620.051	163.38
620.258	153.38
620.466	149.38
620.673	163.38
620.88	148.38
621.087	174.38
621.294	163.38
621.501	154.38
621.708	160.38
621.915	168.38
622.122	168.38
622.329	171.38
622.536	165.38
622.743	158.38
622.95	154.38
623.157	160.38
623.364	167.38
623.571	146.38
623.778	141.38
623.985	161.38
624.192	145.38
624.399	152.38
624.606	150.38
624.812	136.38
625.019	168.38
625.226	139.38
625.433	157.38
625.639	144.38
625.846	139.38
626.053	158.38
626.259	150.38
626.466	131.38
626.673	136.38
626.879	146.38
627.086	149.38
627.293	152.38
627.499	172.38
627.706	148.38
627.912	157.38
628.119	164.38
628.325	132.38
628.532	151.38
628.738	149.38
628.945	154.38
629.151	146.38
629.357	136.38
629.564	143.38
629.77	155.38
629.976	144.38
630.183	148.38
630.389	162.38
630.595	134.38
630.802	153.38
631.008	150.38
631.214	145.38
631.42	158.38
631.627	147.38
631.833	151.38
632.039	142.38
632.245	136.38
632.451	136.38
632.657	133.38
632.863	144.38
633.069	143.38
633.275	137.38
633.481	143.38
633.688	134.38
633.893	136.38
634.099	136.38
634.305	129.38
634.511	138.38
634.717	138.38
634.923	138.38
635.129	150.38
635.335	133.38
635.541	147.38
635.747	127.38
635.952	132.38
636.158	146.38
636.364	134.38
636.57	150.38
636.775	145.38
636.981	140.38
637.187	128.38
637.392	130.38
637.598	132.38
637.804	128.38
638.009	150.38
638.215	150.38
638.421	141.38
638.626	145.38
638.832	141.38
639.037	129.38
639.243	137.38
639.448	152.38
639.654	146.38
639.859	143.38
640.065	116.38
640.27	126.38
640.475	138.38
640.681	144.38
640.886	129.38
641.091	133.38
641.297	128.38
641.502	122.38
641.707	131.38
641.913	136.38
642.118	132.38
642.323	124.38
642.528	129.38
642.733	134.38
642.939	143.38
643.144	142.38
643.349	132.38
643.554	125.38
643.759	122.38
643.964	128.38
644.169	139.38
644.374	137.38
644.579	111.38
644.784	141.38
644.989	130.38
645.194	127.38
645.399	133.38
645.604	125.38
645.809	134.38
646.014	136.38
646.219	141.38
646.423	126.38
646.628	117.38
646.833	125.38
647.038	133.38
647.243	126.38
647.447	136.38
647.652	132.38
647.857	129.38
648.062	130.38
648.266	118.38
648.471	126.38
648.676	119.38
648.88	134.38
649.085	141.38
649.289	131.38
649.494	134.38
649.698	160.38
649.903	142.38
650.107	144.38
650.312	142.38
650.516	126.38
650.721	137.38
650.925	133.38
651.13	134.38
651.334	120.38
651.539	135.38
651.743	119.38
651.947	142.38
652.152	125.38
652.356	128.38
652.56	119.38
652.764	122.38
652.969	112.38
653.173	116.38
653.377	125.38
653.581	125.38
653.785	116.38
653.99	112.38
654.194	127.38
654.398	118.38
654.602	124.38
654.806	128.38
655.01	117.38
655.214	129.38
655.418	129.38
655.622	121.38
655.826	128.38
656.03	110.38
656.234	132.38
656.438	105.38
656.642	119.38
656.846	122.38
657.049	124.38
657.253	112.38
657.457	118.38
657.661	105.38
657.865	105.38
658.068	106.38
658.272	97.38
658.476	107.38
658.68	99.38
658.883	99.38
659.087	94.38
659.291	112.38
659.494	118.38
659.698	104.38
659.901	97.38
660.105	90.38
660.309	116.38
660.512	101.38
660.716	88.38
660.919	98.38
661.123	89.38
661.326	95.38
661.53	89.38
661.733	84.38
661.936	93.38
662.14	100.38
662.343	81.38
662.546	90.38
662.75	87.38
662.953	82.38
663.156	82.38
663.36	87.38
663.563	90.38
663.766	84.38
663.969	88.38
664.173	108.38
664.376	94.38
664.579	85.38
664.782	79.38
664.985	86.38
665.188	85.38
665.391	81.38
665.594	85.38
665.797	91.38
666	82.38
666.203	93.38
666.406	87.38
666.609	92.38
666.812	84.38
667.015	80.38
667.218	91.38
667.421	79.38
667.624	90.38
667.827	101.38
668.03	87.38
668.232	85.38
668.435	84.38
668.638	86.38
668.841	90.38
669.043	80.38
669.246	87.38
669.449	95.38
669.651	74.38
669.854	83.38
670.057	84.38
670.259	84.38
670.462	77.38
670.665	88.38
670.867	89.38
671.07	100.38
671.272	87.38
671.475	98.38
671.677	82.38
671.88	79.38
672.082	80.38
672.284	70.38
672.487	85.38
672.689	86.38
672.892	79.38
