Data from 1982.PennyLincolnUp.Lamp.En5.5.200Scan.071819.P1_HRD10591_16-47-36-962.txt Node
Date: Thu Jul 18 16:47:36 EDT 2019
User: cochatt
Spectrometer: HR+D1059
Trigger mode: 1
Integration Time (sec): 1.000000E-1
Scans to average: 1
Electric dark correction enabled: true
Nonlinearity correction enabled: false
Boxcar width: 0
XAxis mode: Wavelengths
Number of Pixels in Spectrum: 2048
>>>>>Begin Spectral Data<<<<<
223.165	-16.94
223.4	-16.94
223.635	-16.94
223.869	-10.94
224.104	-16.94
224.338	-7.94
224.573	-18.94
224.808	-12.94
225.042	2.06
225.277	-17.94
225.511	0.06
225.746	-10.94
225.98	13.06
226.215	8.06
226.449	6.06
226.683	13.06
226.918	36.06
227.152	35.06
227.387	44.06
227.621	39.06
227.856	33.06
228.09	54.06
228.324	43.06
228.559	45.06
228.793	67.06
229.027	108.06
229.262	91.06
229.496	95.06
229.73	117.06
229.964	117.06
230.199	109.06
230.433	109.06
230.667	115.06
230.901	109.06
231.136	105.06
231.37	111.06
231.604	99.06
231.838	93.06
232.072	97.06
232.306	97.06
232.541	97.06
232.775	102.06
233.009	119.06
233.243	107.06
233.477	85.06
233.711	107.06
233.945	101.06
234.179	118.06
234.413	106.06
234.647	106.06
234.881	92.06
235.115	120.06
235.349	105.06
235.583	117.06
235.817	100.06
236.051	107.06
236.285	120.06
236.519	109.06
236.753	113.06
236.987	132.06
237.221	146.06
237.455	185.06
237.689	143.06
237.922	122.06
238.156	112.06
238.39	110.06
238.624	108.06
238.858	108.06
239.091	98.06
239.325	100.06
239.559	98.06
239.793	128.06
240.027	116.06
240.26	122.06
240.494	126.06
240.728	132.06
240.961	124.06
241.195	121.06
241.429	119.06
241.662	117.06
241.896	124.06
242.13	128.06
242.363	112.06
242.597	104.06
242.83	126.06
243.064	120.06
243.298	120.06
243.531	105.06
243.765	105.06
243.998	113.06
244.232	120.06
244.465	121.06
244.699	119.06
244.932	112.06
245.166	123.06
245.399	123.06
245.633	130.06
245.866	121.06
246.099	120.06
246.333	121.06
246.566	114.06
246.8	124.06
247.033	118.06
247.266	131.06
247.5	132.06
247.733	148.06
247.966	142.06
248.2	149.06
248.433	137.06
248.666	154.06
248.899	148.06
249.133	152.06
249.366	176.06
249.599	162.06
249.832	154.06
250.066	163.06
250.299	155.06
250.532	164.06
250.765	165.06
250.998	180.06
251.231	185.06
251.465	157.06
251.698	145.06
251.931	164.06
252.164	152.06
252.397	162.06
252.63	164.06
252.863	156.06
253.096	178.06
253.329	193.06
253.562	209.06
253.795	170.06
254.028	189.06
254.261	176.06
254.494	196.06
254.727	214.06
254.96	222.06
255.193	231.06
255.426	201.06
255.659	186.06
255.892	196.06
256.124	184.06
256.357	180.06
256.59	180.06
256.823	184.06
257.056	178.06
257.289	160.06
257.521	161.06
257.754	183.06
257.987	180.06
258.22	162.06
258.452	169.06
258.685	169.06
258.918	157.06
259.151	186.06
259.383	180.06
259.616	189.06
259.849	197.06
260.081	183.06
260.314	197.06
260.547	195.06
260.779	196.06
261.012	186.06
261.244	190.06
261.477	175.06
261.71	188.06
261.942	189.06
262.175	186.06
262.407	191.06
262.64	153.06
262.872	166.06
263.105	163.06
263.337	179.06
263.57	174.06
263.802	188.06
264.035	178.06
264.267	164.06
264.499	167.06
264.732	164.06
264.964	171.06
265.197	167.06
265.429	169.06
265.661	171.06
265.894	172.06
266.126	174.06
266.358	163.06
266.591	174.06
266.823	182.06
267.055	178.06
267.287	178.06
267.52	188.06
267.752	174.06
267.984	171.06
268.216	183.06
268.448	180.06
268.681	189.06
268.913	201.06
269.145	194.06
269.377	224.06
269.609	221.06
269.841	228.06
270.073	221.06
270.306	232.06
270.538	245.06
270.77	251.06
271.002	232.06
271.234	236.06
271.466	234.06
271.698	252.06
271.93	237.06
272.162	246.06
272.394	246.06
272.626	240.06
272.858	231.06
273.09	217.06
273.322	215.06
273.553	202.06
273.785	216.06
274.017	211.06
274.249	235.06
274.481	208.06
274.713	206.06
274.945	224.06
275.176	199.06
275.408	212.06
275.64	194.06
275.872	187.06
276.104	218.06
276.335	186.06
276.567	198.06
276.799	222.06
277.031	251.06
277.262	240.06
277.494	231.06
277.726	233.06
277.957	224.06
278.189	227.06
278.421	215.06
278.652	198.06
278.884	210.06
279.115	197.06
279.347	195.06
279.579	227.06
279.81	203.06
280.042	222.06
280.273	205.06
280.505	218.06
280.736	218.06
280.968	211.06
281.199	212.06
281.431	198.06
281.662	214.06
281.894	204.06
282.125	202.06
282.356	219.06
282.588	236.06
282.819	229.06
283.051	200.06
283.282	194.06
283.513	206.06
283.745	218.06
283.976	214.06
284.207	219.06
284.439	230.06
284.67	206.06
284.901	222.06
285.132	209.06
285.364	201.06
285.595	205.06
285.826	206.06
286.057	207.06
286.288	221.06
286.52	220.06
286.751	218.06
286.982	216.06
287.213	219.06
287.444	208.06
287.675	222.06
287.906	221.06
288.138	219.06
288.369	232.06
288.6	218.06
288.831	221.06
289.062	221.06
289.293	219.06
289.524	214.06
289.755	238.06
289.986	203.06
290.217	214.06
290.448	214.06
290.679	196.06
290.91	230.06
291.141	206.06
291.371	216.06
291.602	218.06
291.833	211.06
292.064	212.06
292.295	229.06
292.526	216.06
292.757	230.06
292.987	214.06
293.218	221.06
293.449	214.06
293.68	205.06
293.91	221.06
294.141	225.06
294.372	213.06
294.603	219.06
294.833	216.06
295.064	225.06
295.295	218.06
295.525	228.06
295.756	223.06
295.987	214.06
296.217	256.06
296.448	241.06
296.679	235.06
296.909	215.06
297.14	220.06
297.37	223.06
297.601	222.06
297.831	234.06
298.062	234.06
298.292	220.06
298.523	226.06
298.753	244.06
298.984	233.06
299.214	236.06
299.445	237.06
299.675	214.06
299.905	240.06
300.136	226.06
300.366	231.06
300.597	240.06
300.827	266.06
301.057	231.06
301.288	252.06
301.518	243.06
301.748	232.06
301.979	261.06
302.209	254.06
302.439	248.06
302.669	248.06
302.9	232.06
303.13	245.06
303.36	244.06
303.59	242.06
303.82	245.06
304.051	262.06
304.281	240.06
304.511	245.06
304.741	243.06
304.971	254.06
305.201	256.06
305.431	258.06
305.661	233.06
305.891	241.06
306.121	237.06
306.352	247.06
306.582	251.06
306.812	244.06
307.042	256.06
307.272	257.06
307.502	244.06
307.731	255.06
307.961	239.06
308.191	240.06
308.421	261.06
308.651	242.06
308.881	262.06
309.111	251.06
309.341	276.06
309.571	253.06
309.8	278.06
310.03	272.06
310.26	289.06
310.49	283.06
310.72	301.06
310.949	294.06
311.179	288.06
311.409	301.06
311.639	279.06
311.868	285.06
312.098	310.06
312.328	298.06
312.557	286.06
312.787	345.06
313.017	310.06
313.246	299.06
313.476	283.06
313.706	285.06
313.935	305.06
314.165	299.06
314.394	299.06
314.624	300.06
314.853	314.06
315.083	272.06
315.312	285.06
315.542	284.06
315.771	292.06
316.001	296.06
316.23	296.06
316.46	270.06
316.689	284.06
316.919	280.06
317.148	313.06
317.377	290.06
317.607	299.06
317.836	287.06
318.065	297.06
318.295	290.06
318.524	282.06
318.753	276.06
318.983	280.06
319.212	280.06
319.441	307.06
319.67	290.06
319.9	286.06
320.129	276.06
320.358	276.06
320.587	283.06
320.816	301.06
321.046	306.06
321.275	306.06
321.504	312.06
321.733	316.06
321.962	301.06
322.191	324.06
322.42	340.06
322.649	356.06
322.878	357.06
323.108	360.06
323.337	384.06
323.566	404.06
323.795	438.06
324.024	504.06
324.253	633.06
324.482	917.06
324.71	1346.06
324.939	1770.06
325.168	1444.06
325.397	739.06
325.626	526.06
325.855	437.06
326.084	420.06
326.313	425.06
326.542	418.06
326.77	474.06
326.999	573.06
327.228	802.06
327.457	1190.06
327.686	1300.06
327.914	867.06
328.143	587.06
328.372	503.06
328.6	462.06
328.829	450.06
329.058	466.06
329.287	461.06
329.515	437.06
329.744	422.06
329.972	405.06
330.201	429.06
330.43	444.06
330.658	474.06
330.887	492.06
331.115	472.06
331.344	396.06
331.572	388.06
331.801	369.06
332.03	378.06
332.258	341.06
332.486	358.06
332.715	343.06
332.943	340.06
333.172	355.06
333.4	340.06
333.629	355.06
333.857	355.06
334.085	377.06
334.314	364.06
334.542	390.06
334.771	399.06
334.999	352.06
335.227	342.06
335.455	308.06
335.684	327.06
335.912	337.06
336.14	314.06
336.369	315.06
336.597	330.06
336.825	334.06
337.053	343.06
337.281	321.06
337.51	333.06
337.738	328.06
337.966	314.06
338.194	317.06
338.422	326.06
338.65	316.06
338.878	324.06
339.106	311.06
339.334	334.06
339.562	341.06
339.79	306.06
340.018	316.06
340.246	327.06
340.474	318.06
340.702	340.06
340.93	298.06
341.158	312.06
341.386	293.06
341.614	328.06
341.842	320.06
342.07	301.06
342.298	298.06
342.526	306.06
342.754	299.06
342.981	300.06
343.209	296.06
343.437	301.06
343.665	304.06
343.893	313.06
344.12	326.06
344.348	297.06
344.576	315.06
344.804	316.06
345.031	327.06
345.259	338.06
345.487	308.06
345.714	300.06
345.942	311.06
346.17	315.06
346.397	317.06
346.625	312.06
346.853	292.06
347.08	310.06
347.308	291.06
347.535	311.06
347.763	303.06
347.99	306.06
348.218	309.06
348.445	315.06
348.673	325.06
348.9	300.06
349.128	300.06
349.355	284.06
349.583	291.06
349.81	281.06
350.037	280.06
350.265	302.06
350.492	286.06
350.72	304.06
350.947	307.06
351.174	308.06
351.402	315.06
351.629	294.06
351.856	314.06
352.083	312.06
352.311	318.06
352.538	306.06
352.765	313.06
352.992	296.06
353.22	306.06
353.447	312.06
353.674	291.06
353.901	292.06
354.128	290.06
354.355	280.06
354.583	276.06
354.81	278.06
355.037	275.06
355.264	281.06
355.491	274.06
355.718	266.06
355.945	297.06
356.172	283.06
356.399	278.06
356.626	283.06
356.853	276.06
357.08	264.06
357.307	282.06
357.534	280.06
357.761	290.06
357.988	286.06
358.215	279.06
358.441	270.06
358.668	279.06
358.895	274.06
359.122	287.06
359.349	291.06
359.576	321.06
359.802	318.06
360.029	340.06
360.256	351.06
360.483	339.06
360.709	296.06
360.936	295.06
361.163	294.06
361.39	293.06
361.616	285.06
361.843	323.06
362.07	295.06
362.296	297.06
362.523	288.06
362.749	294.06
362.976	307.06
363.203	283.06
363.429	296.06
363.656	292.06
363.882	269.06
364.109	274.06
364.335	283.06
364.562	282.06
364.788	277.06
365.015	290.06
365.241	261.06
365.468	289.06
365.694	292.06
365.92	285.06
366.147	273.06
366.373	279.06
366.599	269.06
366.826	282.06
367.052	280.06
367.278	275.06
367.505	284.06
367.731	305.06
367.957	288.06
368.184	266.06
368.41	279.06
368.636	283.06
368.862	296.06
369.089	286.06
369.315	293.06
369.541	274.06
369.767	274.06
369.993	284.06
370.219	287.06
370.445	280.06
370.672	284.06
370.898	265.06
371.124	280.06
371.35	256.06
371.576	267.06
371.802	261.06
372.028	268.06
372.254	264.06
372.48	281.06
372.706	278.06
372.932	263.06
373.158	244.06
373.384	267.06
373.61	270.06
373.835	268.06
374.061	283.06
374.287	270.06
374.513	258.06
374.739	265.06
374.965	282.06
375.191	286.06
375.416	270.06
375.642	281.06
375.868	286.06
376.094	290.06
376.319	270.06
376.545	269.06
376.771	261.06
376.997	258.06
377.222	270.06
377.448	258.06
377.674	262.06
377.899	261.06
378.125	250.06
378.35	236.06
378.576	255.06
378.802	250.06
379.027	285.06
379.253	268.06
379.478	249.06
379.704	256.06
379.929	257.06
380.155	262.06
380.38	273.06
380.606	265.06
380.831	266.06
381.057	274.06
381.282	274.06
381.507	264.06
381.733	270.06
381.958	269.06
382.184	266.06
382.409	268.06
382.634	256.06
382.86	282.06
383.085	272.06
383.31	269.06
383.535	257.06
383.761	273.06
383.986	274.06
384.211	270.06
384.436	249.06
384.662	266.06
384.887	259.06
385.112	259.06
385.337	297.06
385.562	271.06
385.787	276.06
386.013	268.06
386.238	303.06
386.463	284.06
386.688	278.06
386.913	285.06
387.138	273.06
387.363	275.06
387.588	272.06
387.813	258.06
388.038	282.06
388.263	272.06
388.488	261.06
388.713	288.06
388.938	293.06
389.163	283.06
389.387	273.06
389.612	279.06
389.837	290.06
390.062	294.06
390.287	256.06
390.512	267.06
390.736	283.06
390.961	276.06
391.186	270.06
391.411	273.06
391.636	260.06
391.86	274.06
392.085	302.06
392.31	286.06
392.534	270.06
392.759	282.06
392.984	280.06
393.208	270.06
393.433	280.06
393.658	269.06
393.882	267.06
394.107	267.06
394.331	271.06
394.556	261.06
394.78	266.06
395.005	294.06
395.229	275.06
395.454	276.06
395.678	270.06
395.903	306.06
396.127	311.06
396.352	305.06
396.576	283.06
396.801	286.06
397.025	273.06
397.249	277.06
397.474	295.06
397.698	294.06
397.922	296.06
398.147	315.06
398.371	316.06
398.595	300.06
398.82	288.06
399.044	302.06
399.268	300.06
399.492	322.06
399.717	337.06
399.941	354.06
400.165	354.06
400.389	357.06
400.613	338.06
400.837	319.06
401.062	328.06
401.286	329.06
401.51	288.06
401.734	297.06
401.958	316.06
402.182	315.06
402.406	330.06
402.63	314.06
402.854	338.06
403.078	333.06
403.302	329.06
403.526	336.06
403.75	318.06
403.974	325.06
404.198	316.06
404.422	318.06
404.645	322.06
404.869	324.06
405.093	359.06
405.317	386.06
405.541	394.06
405.765	365.06
405.988	315.06
406.212	362.06
406.436	363.06
406.66	342.06
406.883	335.06
407.107	365.06
407.331	375.06
407.555	413.06
407.778	407.06
408.002	388.06
408.226	349.06
408.449	334.06
408.673	346.06
408.896	372.06
409.12	390.06
409.344	380.06
409.567	348.06
409.791	352.06
410.014	344.06
410.238	326.06
410.461	299.06
410.685	324.06
410.908	341.06
411.132	359.06
411.355	365.06
411.578	338.06
411.802	313.06
412.025	327.06
412.249	320.06
412.472	324.06
412.695	353.06
412.919	349.06
413.142	317.06
413.365	318.06
413.589	297.06
413.812	300.06
414.035	308.06
414.258	301.06
414.482	313.06
414.705	309.06
414.928	290.06
415.151	306.06
415.374	300.06
415.597	296.06
415.821	299.06
416.044	318.06
416.267	291.06
416.49	283.06
416.713	300.06
416.936	282.06
417.159	302.06
417.382	308.06
417.605	308.06
417.828	314.06
418.051	313.06
418.274	308.06
418.497	308.06
418.72	302.06
418.943	304.06
419.166	307.06
419.389	331.06
419.611	313.06
419.834	306.06
420.057	298.06
420.28	320.06
420.503	310.06
420.726	317.06
420.948	330.06
421.171	354.06
421.394	373.06
421.617	321.06
421.839	309.06
422.062	334.06
422.285	327.06
422.507	352.06
422.73	396.06
422.953	392.06
423.175	356.06
423.398	326.06
423.621	322.06
423.843	352.06
424.066	332.06
424.288	344.06
424.511	363.06
424.733	379.06
424.956	448.06
425.178	416.06
425.401	442.06
425.623	439.06
425.846	360.06
426.068	354.06
426.291	329.06
426.513	340.06
426.735	359.06
426.958	374.06
427.18	419.06
427.402	511.06
427.625	568.06
427.847	470.06
428.069	448.06
428.292	391.06
428.514	338.06
428.736	320.06
428.958	321.06
429.181	334.06
429.403	333.06
429.625	337.06
429.847	358.06
430.069	386.06
430.292	394.06
430.514	335.06
430.736	322.06
430.958	301.06
431.18	295.06
431.402	295.06
431.624	303.06
431.846	289.06
432.068	304.06
432.29	306.06
432.512	291.06
432.734	301.06
432.956	305.06
433.178	314.06
433.4	315.06
433.622	316.06
433.844	301.06
434.066	306.06
434.287	280.06
434.509	305.06
434.731	298.06
434.953	314.06
435.175	330.06
435.397	345.06
435.618	355.06
435.84	374.06
436.062	422.06
436.284	478.06
436.505	402.06
436.727	375.06
436.949	360.06
437.17	326.06
437.392	328.06
437.614	348.06
437.835	363.06
438.057	434.06
438.278	512.06
438.5	483.06
438.721	520.06
438.943	503.06
439.165	417.06
439.386	370.06
439.608	372.06
439.829	368.06
440.05	388.06
440.272	429.06
440.493	386.06
440.715	351.06
440.936	338.06
441.158	328.06
441.379	322.06
441.6	332.06
441.822	354.06
442.043	362.06
442.264	432.06
442.486	422.06
442.707	368.06
442.928	353.06
443.149	367.06
443.371	390.06
443.592	428.06
443.813	458.06
444.034	476.06
444.255	414.06
444.476	354.06
444.698	348.06
444.919	330.06
445.14	436.06
445.361	390.06
445.582	371.06
445.803	452.06
446.024	502.06
446.245	491.06
446.466	447.06
446.687	411.06
446.908	349.06
447.129	339.06
447.35	317.06
447.571	325.06
447.792	329.06
448.013	316.06
448.234	341.06
448.455	360.06
448.675	440.06
448.896	487.06
449.117	448.06
449.338	413.06
449.559	474.06
449.779	518.06
450	414.06
450.221	361.06
450.442	350.06
450.662	328.06
450.883	323.06
451.104	348.06
451.324	305.06
451.545	304.06
451.766	299.06
451.986	295.06
452.207	289.06
452.428	269.06
452.648	292.06
452.869	281.06
453.089	301.06
453.31	297.06
453.53	307.06
453.751	301.06
453.971	297.06
454.192	300.06
454.412	299.06
454.633	288.06
454.853	282.06
455.073	298.06
455.294	291.06
455.514	336.06
455.734	348.06
455.955	293.06
456.175	274.06
456.395	271.06
456.616	277.06
456.836	263.06
457.056	264.06
457.276	261.06
457.497	275.06
457.717	274.06
457.937	282.06
458.157	270.06
458.377	293.06
458.598	312.06
458.818	331.06
459.038	402.06
459.258	390.06
459.478	337.06
459.698	301.06
459.918	294.06
460.138	291.06
460.358	291.06
460.578	301.06
460.798	290.06
461.018	317.06
461.238	301.06
461.458	304.06
461.678	284.06
461.898	290.06
462.118	305.06
462.338	294.06
462.558	300.06
462.777	287.06
462.997	304.06
463.217	328.06
463.437	306.06
463.657	308.06
463.876	306.06
464.096	314.06
464.316	310.06
464.536	301.06
464.755	290.06
464.975	320.06
465.195	349.06
465.414	390.06
465.634	353.06
465.854	330.06
466.073	326.06
466.293	313.06
466.512	306.06
466.732	293.06
466.951	301.06
467.171	268.06
467.391	286.06
467.61	287.06
467.829	304.06
468.049	320.06
468.268	309.06
468.488	277.06
468.707	301.06
468.927	289.06
469.146	296.06
469.365	294.06
469.585	302.06
469.804	297.06
470.023	295.06
470.243	308.06
470.462	298.06
470.681	316.06
470.901	313.06
471.12	305.06
471.339	291.06
471.558	307.06
471.777	304.06
471.997	304.06
472.216	313.06
472.435	324.06
472.654	304.06
472.873	306.06
473.092	301.06
473.311	308.06
473.53	299.06
473.749	312.06
473.968	341.06
474.187	406.06
474.406	419.06
474.625	350.06
474.844	302.06
475.063	288.06
475.282	291.06
475.501	306.06
475.72	312.06
475.939	291.06
476.158	285.06
476.377	302.06
476.596	293.06
476.814	324.06
477.033	319.06
477.252	298.06
477.471	306.06
477.69	308.06
477.908	323.06
478.127	306.06
478.346	325.06
478.564	323.06
478.783	331.06
479.002	320.06
479.22	306.06
479.439	342.06
479.658	339.06
479.876	359.06
480.095	360.06
480.313	361.06
480.532	348.06
480.751	333.06
480.969	353.06
481.188	407.06
481.406	430.06
481.624	380.06
481.843	370.06
482.061	338.06
482.28	343.06
482.498	338.06
482.717	333.06
482.935	337.06
483.153	348.06
483.372	336.06
483.59	328.06
483.808	326.06
484.027	338.06
484.245	341.06
484.463	343.06
484.681	359.06
484.9	367.06
485.118	332.06
485.336	332.06
485.554	371.06
485.772	351.06
485.99	361.06
486.209	349.06
486.427	357.06
486.645	357.06
486.863	391.06
487.081	390.06
487.299	378.06
487.517	365.06
487.735	359.06
487.953	362.06
488.171	357.06
488.389	360.06
488.607	382.06
488.825	359.06
489.043	376.06
489.261	363.06
489.479	368.06
489.696	366.06
489.914	370.06
490.132	376.06
490.35	393.06
490.568	376.06
490.786	404.06
491.003	386.06
491.221	397.06
491.439	415.06
491.657	391.06
491.874	410.06
492.092	411.06
492.31	416.06
492.527	422.06
492.745	424.06
492.963	414.06
493.18	420.06
493.398	435.06
493.615	444.06
493.833	424.06
494.05	444.06
494.268	444.06
494.485	423.06
494.703	436.06
494.92	416.06
495.138	436.06
495.355	445.06
495.573	432.06
495.79	452.06
496.008	442.06
496.225	430.06
496.442	451.06
496.66	435.06
496.877	434.06
497.094	441.06
497.312	454.06
497.529	428.06
497.746	468.06
497.963	430.06
498.181	458.06
498.398	454.06
498.615	454.06
498.832	465.06
499.049	470.06
499.267	458.06
499.484	484.06
499.701	488.06
499.918	500.06
500.135	510.06
500.352	530.06
500.569	534.06
500.786	560.06
501.003	517.06
501.22	541.06
501.437	516.06
501.654	499.06
501.871	498.06
502.088	487.06
502.305	473.06
502.522	459.06
502.739	461.06
502.956	446.06
503.172	459.06
503.389	440.06
503.606	461.06
503.823	424.06
504.04	452.06
504.256	443.06
504.473	424.06
504.69	422.06
504.907	429.06
505.123	424.06
505.34	407.06
505.557	423.06
505.773	425.06
505.99	422.06
506.207	454.06
506.423	428.06
506.64	415.06
506.856	412.06
507.073	419.06
507.289	424.06
507.506	408.06
507.722	393.06
507.939	426.06
508.155	410.06
508.372	409.06
508.588	404.06
508.805	410.06
509.021	416.06
509.238	426.06
509.454	432.06
509.67	428.06
509.887	408.06
510.103	414.06
510.319	418.06
510.536	481.06
510.752	818.06
510.968	625.06
511.184	421.06
511.401	391.06
511.617	423.06
511.833	410.06
512.049	386.06
512.265	386.06
512.481	393.06
512.698	382.06
512.914	388.06
513.13	393.06
513.346	395.06
513.562	392.06
513.778	376.06
513.994	398.06
514.21	382.06
514.426	420.06
514.642	454.06
514.858	480.06
515.074	510.06
515.29	593.06
515.506	878.06
515.721	715.06
515.937	483.06
516.153	421.06
516.369	433.06
516.585	416.06
516.801	381.06
517.016	384.06
517.232	411.06
517.448	389.06
517.664	386.06
517.879	388.06
518.095	376.06
518.311	374.06
518.527	392.06
518.742	418.06
518.958	384.06
519.173	380.06
519.389	381.06
519.605	384.06
519.82	396.06
520.036	418.06
520.251	436.06
520.467	454.06
520.682	451.06
520.898	446.06
521.113	461.06
521.329	475.06
521.544	562.06
521.76	732.06
521.975	1187.06
522.19	1118.06
522.406	618.06
522.621	488.06
522.836	405.06
523.052	402.06
523.267	378.06
523.482	357.06
523.698	361.06
523.913	356.06
524.128	357.06
524.343	374.06
524.559	320.06
524.774	339.06
524.989	361.06
525.204	336.06
525.419	322.06
525.634	355.06
525.849	320.06
526.064	340.06
526.28	312.06
526.495	321.06
526.71	314.06
526.925	310.06
527.14	316.06
527.355	320.06
527.57	296.06
527.785	326.06
527.999	306.06
528.214	310.06
528.429	312.06
528.644	309.06
528.859	312.06
529.074	324.06
529.289	329.06
529.503	412.06
529.718	386.06
529.933	340.06
530.148	343.06
530.363	326.06
530.577	318.06
530.792	297.06
531.007	306.06
531.221	285.06
531.436	306.06
531.651	299.06
531.865	318.06
532.08	299.06
532.295	296.06
532.509	286.06
532.724	299.06
532.938	290.06
533.153	286.06
533.367	294.06
533.582	289.06
533.796	294.06
534.011	291.06
534.225	290.06
534.44	296.06
534.654	279.06
534.868	290.06
535.083	290.06
535.297	297.06
535.511	291.06
535.726	310.06
535.94	308.06
536.154	297.06
536.369	311.06
536.583	293.06
536.797	296.06
537.011	293.06
537.225	297.06
537.44	265.06
537.654	296.06
537.868	300.06
538.082	271.06
538.296	280.06
538.51	282.06
538.724	280.06
538.938	299.06
539.153	294.06
539.367	285.06
539.581	293.06
539.795	295.06
540.009	286.06
540.222	297.06
540.436	294.06
540.65	290.06
540.864	301.06
541.078	308.06
541.292	299.06
541.506	296.06
541.72	294.06
541.934	286.06
542.147	314.06
542.361	277.06
542.575	293.06
542.789	293.06
543.002	275.06
543.216	279.06
543.43	278.06
543.644	292.06
543.857	274.06
544.071	278.06
544.285	300.06
544.498	290.06
544.712	271.06
544.925	276.06
545.139	289.06
545.352	296.06
545.566	292.06
545.779	277.06
545.993	267.06
546.206	284.06
546.42	282.06
546.633	280.06
546.847	276.06
547.06	249.06
547.274	252.06
547.487	266.06
547.7	284.06
547.914	275.06
548.127	273.06
548.34	264.06
548.554	270.06
548.767	269.06
548.98	262.06
549.193	273.06
549.407	262.06
549.62	263.06
549.833	263.06
550.046	267.06
550.259	250.06
550.473	261.06
550.686	269.06
550.899	276.06
551.112	269.06
551.325	274.06
551.538	250.06
551.751	267.06
551.964	252.06
552.177	249.06
552.39	266.06
552.603	249.06
552.816	279.06
553.029	280.06
553.242	248.06
553.455	256.06
553.667	292.06
553.88	290.06
554.093	289.06
554.306	267.06
554.519	256.06
554.732	253.06
554.944	236.06
555.157	281.06
555.37	261.06
555.583	253.06
555.795	246.06
556.008	258.06
556.221	263.06
556.433	233.06
556.646	240.06
556.859	254.06
557.071	243.06
557.284	268.06
557.496	257.06
557.709	256.06
557.921	235.06
558.134	227.06
558.346	251.06
558.559	244.06
558.771	238.06
558.984	228.06
559.196	248.06
559.409	247.06
559.621	232.06
559.833	242.06
560.046	234.06
560.258	241.06
560.47	223.06
560.683	240.06
560.895	225.06
561.107	240.06
561.32	247.06
561.532	236.06
561.744	219.06
561.956	244.06
562.168	245.06
562.381	260.06
562.593	248.06
562.805	244.06
563.017	240.06
563.229	253.06
563.441	247.06
563.653	242.06
563.865	234.06
564.077	251.06
564.289	229.06
564.501	237.06
564.713	248.06
564.925	240.06
565.137	258.06
565.349	245.06
565.561	253.06
565.773	267.06
565.985	257.06
566.197	240.06
566.408	265.06
566.62	262.06
566.832	253.06
567.044	276.06
567.255	289.06
567.467	274.06
567.679	258.06
567.891	264.06
568.102	247.06
568.314	265.06
568.526	268.06
568.737	273.06
568.949	253.06
569.161	223.06
569.372	236.06
569.584	248.06
569.795	246.06
570.007	248.06
570.218	292.06
570.43	249.06
570.641	231.06
570.853	220.06
571.064	230.06
571.276	235.06
571.487	230.06
571.698	226.06
571.91	227.06
572.121	237.06
572.333	228.06
572.544	232.06
572.755	218.06
572.966	232.06
573.178	229.06
573.389	212.06
573.6	213.06
573.811	221.06
574.023	224.06
574.234	213.06
574.445	215.06
574.656	227.06
574.867	221.06
575.078	196.06
575.289	205.06
575.501	219.06
575.712	215.06
575.923	224.06
576.134	206.06
576.345	206.06
576.556	217.06
576.767	200.06
576.978	208.06
577.188	207.06
577.399	205.06
577.61	206.06
577.821	210.06
578.032	214.06
578.243	245.06
578.454	390.06
578.665	273.06
578.875	208.06
579.086	199.06
579.297	205.06
579.508	192.06
579.718	210.06
579.929	183.06
580.14	208.06
580.35	188.06
580.561	182.06
580.772	205.06
580.982	203.06
581.193	206.06
581.403	192.06
581.614	198.06
581.825	208.06
582.035	194.06
582.246	207.06
582.456	191.06
582.667	202.06
582.877	195.06
583.087	216.06
583.298	214.06
583.508	190.06
583.719	193.06
583.929	207.06
584.139	203.06
584.35	191.06
584.56	188.06
584.77	188.06
584.981	193.06
585.191	169.06
585.401	201.06
585.611	187.06
585.821	187.06
586.032	181.06
586.242	174.06
586.452	193.06
586.662	191.06
586.872	203.06
587.082	204.06
587.292	166.06
587.502	197.06
587.713	203.06
587.923	183.06
588.133	178.06
588.343	168.06
588.553	179.06
588.762	192.06
588.972	190.06
589.182	188.06
589.392	187.06
589.602	192.06
589.812	192.06
590.022	179.06
590.232	184.06
590.441	185.06
590.651	197.06
590.861	183.06
591.071	187.06
591.281	187.06
591.49	198.06
591.7	198.06
591.91	183.06
592.119	187.06
592.329	199.06
592.539	190.06
592.748	205.06
592.958	190.06
593.167	174.06
593.377	199.06
593.587	196.06
593.796	183.06
594.006	201.06
594.215	206.06
594.424	186.06
594.634	186.06
594.843	197.06
595.053	196.06
595.262	170.06
595.472	167.06
595.681	185.06
595.89	203.06
596.1	189.06
596.309	181.06
596.518	192.06
596.727	194.06
596.937	185.06
597.146	172.06
597.355	185.06
597.564	176.06
597.774	188.06
597.983	178.06
598.192	184.06
598.401	167.06
598.61	167.06
598.819	181.06
599.028	168.06
599.237	177.06
599.446	196.06
599.655	174.06
599.864	186.06
600.073	170.06
600.282	173.06
600.491	160.06
600.7	164.06
600.909	176.06
601.118	173.06
601.327	188.06
601.536	173.06
601.745	180.06
601.953	171.06
602.162	166.06
602.371	178.06
602.58	171.06
602.789	162.06
602.997	170.06
603.206	192.06
603.415	157.06
603.623	160.06
603.832	176.06
604.041	168.06
604.249	161.06
604.458	157.06
604.666	168.06
604.875	174.06
605.084	171.06
605.292	178.06
605.501	170.06
605.709	163.06
605.918	164.06
606.126	180.06
606.334	183.06
606.543	164.06
606.751	152.06
606.96	162.06
607.168	171.06
607.376	165.06
607.585	174.06
607.793	162.06
608.001	165.06
608.21	168.06
608.418	164.06
608.626	160.06
608.834	160.06
609.043	163.06
609.251	150.06
609.459	150.06
609.667	166.06
609.875	155.06
610.083	165.06
610.291	153.06
610.499	164.06
610.707	165.06
610.916	167.06
611.124	163.06
611.332	162.06
611.54	179.06
611.748	178.06
611.955	167.06
612.163	164.06
612.371	160.06
612.579	169.06
612.787	165.06
612.995	167.06
613.203	181.06
613.411	165.06
613.618	164.06
613.826	171.06
614.034	149.06
614.242	153.06
614.449	177.06
614.657	173.06
614.865	152.06
615.072	150.06
615.28	144.06
615.488	160.06
615.695	161.06
615.903	152.06
616.111	169.06
616.318	164.06
616.526	173.06
616.733	176.06
616.941	160.06
617.148	148.06
617.356	164.06
617.563	157.06
617.771	164.06
617.978	158.06
618.185	177.06
618.393	150.06
618.6	151.06
618.807	162.06
619.015	160.06
619.222	167.06
619.429	146.06
619.637	153.06
619.844	157.06
620.051	172.06
620.258	156.06
620.466	154.06
620.673	158.06
620.88	162.06
621.087	145.06
621.294	149.06
621.501	154.06
621.708	168.06
621.915	173.06
622.122	151.06
622.329	160.06
622.536	157.06
622.743	152.06
622.95	160.06
623.157	136.06
623.364	164.06
623.571	154.06
623.778	156.06
623.985	146.06
624.192	168.06
624.399	156.06
624.606	153.06
624.812	152.06
625.019	150.06
625.226	141.06
625.433	157.06
625.639	157.06
625.846	147.06
626.053	155.06
626.259	154.06
626.466	166.06
626.673	140.06
626.879	134.06
627.086	147.06
627.293	155.06
627.499	150.06
627.706	146.06
627.912	150.06
628.119	150.06
628.325	158.06
628.532	147.06
628.738	166.06
628.945	155.06
629.151	151.06
629.357	145.06
629.564	139.06
629.77	160.06
629.976	158.06
630.183	149.06
630.389	149.06
630.595	158.06
630.802	150.06
631.008	144.06
631.214	146.06
631.42	150.06
631.627	147.06
631.833	136.06
632.039	144.06
632.245	122.06
632.451	134.06
632.657	144.06
632.863	134.06
633.069	132.06
633.275	149.06
633.481	143.06
633.688	139.06
633.893	147.06
634.099	142.06
634.305	140.06
634.511	149.06
634.717	138.06
634.923	125.06
635.129	133.06
635.335	143.06
635.541	143.06
635.747	121.06
635.952	139.06
636.158	138.06
636.364	128.06
636.57	140.06
636.775	153.06
636.981	132.06
637.187	139.06
637.392	142.06
637.598	130.06
637.804	128.06
638.009	130.06
638.215	132.06
638.421	132.06
638.626	136.06
638.832	133.06
639.037	139.06
639.243	137.06
639.448	142.06
639.654	142.06
639.859	127.06
640.065	132.06
640.27	152.06
640.475	133.06
640.681	126.06
640.886	142.06
641.091	130.06
641.297	134.06
641.502	137.06
641.707	134.06
641.913	124.06
642.118	147.06
642.323	130.06
642.528	128.06
642.733	131.06
642.939	139.06
643.144	138.06
643.349	125.06
643.554	132.06
643.759	143.06
643.964	138.06
644.169	136.06
644.374	127.06
644.579	128.06
644.784	120.06
644.989	132.06
645.194	133.06
645.399	125.06
645.604	114.06
645.809	124.06
646.014	124.06
646.219	140.06
646.423	128.06
646.628	127.06
646.833	130.06
647.038	143.06
647.243	140.06
647.447	132.06
647.652	143.06
647.857	130.06
648.062	124.06
648.266	124.06
648.471	133.06
648.676	118.06
648.88	138.06
649.085	125.06
649.289	119.06
649.494	139.06
649.698	145.06
649.903	156.06
650.107	145.06
650.312	132.06
650.516	146.06
650.721	146.06
650.925	121.06
651.13	117.06
651.334	123.06
651.539	115.06
651.743	118.06
651.947	125.06
652.152	126.06
652.356	130.06
652.56	124.06
652.764	141.06
652.969	121.06
653.173	117.06
653.377	105.06
653.581	120.06
653.785	120.06
653.99	102.06
654.194	120.06
654.398	114.06
654.602	119.06
654.806	116.06
655.01	117.06
655.214	127.06
655.418	104.06
655.622	124.06
655.826	115.06
656.03	105.06
656.234	116.06
656.438	116.06
656.642	108.06
656.846	112.06
657.049	116.06
657.253	106.06
657.457	98.06
657.661	97.06
657.865	104.06
658.068	111.06
658.272	112.06
658.476	88.06
658.68	96.06
658.883	108.06
659.087	86.06
659.291	92.06
659.494	97.06
659.698	82.06
659.901	101.06
660.105	88.06
660.309	99.06
660.512	87.06
660.716	101.06
660.919	89.06
661.123	105.06
661.326	95.06
661.53	100.06
661.733	78.06
661.936	90.06
662.14	82.06
662.343	87.06
662.546	103.06
662.75	76.06
662.953	99.06
663.156	85.06
663.36	86.06
663.563	93.06
663.766	85.06
663.969	83.06
664.173	80.06
664.376	86.06
664.579	86.06
664.782	82.06
664.985	76.06
665.188	89.06
665.391	77.06
665.594	64.06
665.797	83.06
666	71.06
666.203	73.06
666.406	78.06
666.609	99.06
666.812	98.06
667.015	85.06
667.218	86.06
667.421	60.06
667.624	74.06
667.827	74.06
668.03	96.06
668.232	86.06
668.435	86.06
668.638	78.06
668.841	77.06
669.043	78.06
669.246	89.06
669.449	77.06
669.651	73.06
669.854	79.06
670.057	86.06
670.259	80.06
670.462	81.06
670.665	90.06
670.867	80.06
671.07	82.06
671.272	90.06
671.475	86.06
671.677	77.06
671.88	80.06
672.082	76.06
672.284	86.06
672.487	82.06
672.689	72.06
672.892	85.06
