Data from 1982.PennyLincolnUp.Lamp.En5.5.200Scan.071819.P1_HRD10591_16-44-46-961.txt Node
Date: Thu Jul 18 16:44:46 EDT 2019
User: cochatt
Spectrometer: HR+D1059
Trigger mode: 1
Integration Time (sec): 1.000000E-1
Scans to average: 1
Electric dark correction enabled: true
Nonlinearity correction enabled: false
Boxcar width: 0
XAxis mode: Wavelengths
Number of Pixels in Spectrum: 2048
>>>>>Begin Spectral Data<<<<<
223.165	-9.62
223.4	-9.62
223.635	-9.62
223.869	-7.62
224.104	-19.62
224.338	-17.62
224.573	-27.62
224.808	-14.62
225.042	-17.62
225.277	-6.62
225.511	-1.62
225.746	7.38
225.98	4.38
226.215	4.38
226.449	24.38
226.683	29.38
226.918	21.38
227.152	31.38
227.387	33.38
227.621	46.38
227.856	46.38
228.09	52.38
228.324	54.38
228.559	71.38
228.793	74.38
229.027	89.38
229.262	86.38
229.496	98.38
229.73	94.38
229.964	115.38
230.199	94.38
230.433	93.38
230.667	96.38
230.901	75.38
231.136	84.38
231.37	84.38
231.604	92.38
231.838	79.38
232.072	87.38
232.306	92.38
232.541	92.38
232.775	99.38
233.009	83.38
233.243	92.38
233.477	110.38
233.711	105.38
233.945	87.38
234.179	78.38
234.413	101.38
234.647	97.38
234.881	102.38
235.115	103.38
235.349	100.38
235.583	98.38
235.817	88.38
236.051	88.38
236.285	94.38
236.519	106.38
236.753	106.38
236.987	107.38
237.221	124.38
237.455	135.38
237.689	122.38
237.922	96.38
238.156	98.38
238.39	113.38
238.624	102.38
238.858	88.38
239.091	98.38
239.325	93.38
239.559	101.38
239.793	101.38
240.027	98.38
240.26	106.38
240.494	118.38
240.728	104.38
240.961	124.38
241.195	121.38
241.429	101.38
241.662	100.38
241.896	104.38
242.13	96.38
242.363	109.38
242.597	114.38
242.83	106.38
243.064	110.38
243.298	117.38
243.531	117.38
243.765	124.38
243.998	109.38
244.232	101.38
244.465	107.38
244.699	120.38
244.932	115.38
245.166	116.38
245.399	108.38
245.633	116.38
245.866	112.38
246.099	106.38
246.333	102.38
246.566	102.38
246.8	112.38
247.033	111.38
247.266	111.38
247.5	102.38
247.733	115.38
247.966	114.38
248.2	123.38
248.433	123.38
248.666	107.38
248.899	133.38
249.133	125.38
249.366	159.38
249.599	138.38
249.832	118.38
250.066	138.38
250.299	130.38
250.532	137.38
250.765	144.38
250.998	143.38
251.231	146.38
251.465	138.38
251.698	143.38
251.931	142.38
252.164	138.38
252.397	154.38
252.63	142.38
252.863	140.38
253.096	144.38
253.329	159.38
253.562	158.38
253.795	140.38
254.028	150.38
254.261	151.38
254.494	164.38
254.727	172.38
254.96	168.38
255.193	167.38
255.426	151.38
255.659	155.38
255.892	157.38
256.124	146.38
256.357	142.38
256.59	147.38
256.823	136.38
257.056	159.38
257.289	148.38
257.521	134.38
257.754	158.38
257.987	144.38
258.22	159.38
258.452	148.38
258.685	140.38
258.918	146.38
259.151	145.38
259.383	131.38
259.616	155.38
259.849	146.38
260.081	151.38
260.314	180.38
260.547	160.38
260.779	167.38
261.012	146.38
261.244	157.38
261.477	141.38
261.71	155.38
261.942	151.38
262.175	130.38
262.407	152.38
262.64	154.38
262.872	142.38
263.105	159.38
263.337	147.38
263.57	145.38
263.802	156.38
264.035	150.38
264.267	152.38
264.499	132.38
264.732	156.38
264.964	149.38
265.197	142.38
265.429	154.38
265.661	138.38
265.894	150.38
266.126	153.38
266.358	140.38
266.591	160.38
266.823	150.38
267.055	150.38
267.287	135.38
267.52	145.38
267.752	154.38
267.984	149.38
268.216	146.38
268.448	165.38
268.681	158.38
268.913	175.38
269.145	174.38
269.377	169.38
269.609	177.38
269.841	194.38
270.073	179.38
270.306	195.38
270.538	181.38
270.77	183.38
271.002	182.38
271.234	183.38
271.466	186.38
271.698	188.38
271.93	191.38
272.162	182.38
272.394	193.38
272.626	185.38
272.858	200.38
273.09	184.38
273.322	180.38
273.553	161.38
273.785	176.38
274.017	172.38
274.249	166.38
274.481	183.38
274.713	170.38
274.945	187.38
275.176	184.38
275.408	165.38
275.64	178.38
275.872	169.38
276.104	180.38
276.335	173.38
276.567	177.38
276.799	183.38
277.031	180.38
277.262	193.38
277.494	192.38
277.726	184.38
277.957	175.38
278.189	190.38
278.421	198.38
278.652	183.38
278.884	171.38
279.115	170.38
279.347	179.38
279.579	185.38
279.81	168.38
280.042	189.38
280.273	164.38
280.505	198.38
280.736	178.38
280.968	186.38
281.199	184.38
281.431	159.38
281.662	179.38
281.894	172.38
282.125	192.38
282.356	204.38
282.588	197.38
282.819	190.38
283.051	174.38
283.282	175.38
283.513	174.38
283.745	184.38
283.976	176.38
284.207	181.38
284.439	185.38
284.67	196.38
284.901	173.38
285.132	176.38
285.364	186.38
285.595	182.38
285.826	181.38
286.057	171.38
286.288	190.38
286.52	184.38
286.751	173.38
286.982	182.38
287.213	167.38
287.444	175.38
287.675	195.38
287.906	183.38
288.138	197.38
288.369	187.38
288.6	186.38
288.831	186.38
289.062	195.38
289.293	171.38
289.524	168.38
289.755	198.38
289.986	199.38
290.217	198.38
290.448	189.38
290.679	190.38
290.91	184.38
291.141	182.38
291.371	179.38
291.602	186.38
291.833	189.38
292.064	190.38
292.295	184.38
292.526	195.38
292.757	195.38
292.987	201.38
293.218	184.38
293.449	176.38
293.68	192.38
293.91	202.38
294.141	180.38
294.372	202.38
294.603	176.38
294.833	199.38
295.064	200.38
295.295	182.38
295.525	197.38
295.756	204.38
295.987	186.38
296.217	191.38
296.448	203.38
296.679	202.38
296.909	193.38
297.14	182.38
297.37	206.38
297.601	183.38
297.831	196.38
298.062	200.38
298.292	207.38
298.523	205.38
298.753	187.38
298.984	175.38
299.214	206.38
299.445	204.38
299.675	207.38
299.905	193.38
300.136	183.38
300.366	202.38
300.597	180.38
300.827	183.38
301.057	203.38
301.288	196.38
301.518	207.38
301.748	198.38
301.979	210.38
302.209	209.38
302.439	231.38
302.669	190.38
302.9	196.38
303.13	214.38
303.36	188.38
303.59	207.38
303.82	214.38
304.051	203.38
304.281	208.38
304.511	213.38
304.741	200.38
304.971	204.38
305.201	211.38
305.431	210.38
305.661	212.38
305.891	194.38
306.121	194.38
306.352	212.38
306.582	213.38
306.812	230.38
307.042	206.38
307.272	207.38
307.502	214.38
307.731	205.38
307.961	216.38
308.191	216.38
308.421	206.38
308.651	204.38
308.881	210.38
309.111	205.38
309.341	202.38
309.571	208.38
309.8	224.38
310.03	226.38
310.26	225.38
310.49	220.38
310.72	231.38
310.949	239.38
311.179	247.38
311.409	245.38
311.639	226.38
311.868	230.38
312.098	230.38
312.328	245.38
312.557	248.38
312.787	239.38
313.017	227.38
313.246	247.38
313.476	248.38
313.706	242.38
313.935	223.38
314.165	233.38
314.394	224.38
314.624	240.38
314.853	236.38
315.083	224.38
315.312	245.38
315.542	224.38
315.771	215.38
316.001	222.38
316.23	244.38
316.46	223.38
316.689	235.38
316.919	235.38
317.148	235.38
317.377	246.38
317.607	222.38
317.836	236.38
318.065	232.38
318.295	230.38
318.524	237.38
318.753	219.38
318.983	218.38
319.212	242.38
319.441	223.38
319.67	221.38
319.9	234.38
320.129	231.38
320.358	226.38
320.587	233.38
320.816	230.38
321.046	237.38
321.275	245.38
321.504	260.38
321.733	225.38
321.962	248.38
322.191	251.38
322.42	271.38
322.649	249.38
322.878	276.38
323.108	266.38
323.337	264.38
323.566	293.38
323.795	300.38
324.024	310.38
324.253	387.38
324.482	534.38
324.71	774.38
324.939	986.38
325.168	824.38
325.397	448.38
325.626	330.38
325.855	284.38
326.084	295.38
326.313	276.38
326.542	287.38
326.77	309.38
326.999	359.38
327.228	461.38
327.457	653.38
327.686	727.38
327.914	506.38
328.143	370.38
328.372	324.38
328.6	307.38
328.829	311.38
329.058	313.38
329.287	318.38
329.515	310.38
329.744	279.38
329.972	278.38
330.201	286.38
330.43	288.38
330.658	310.38
330.887	314.38
331.115	300.38
331.344	285.38
331.572	280.38
331.801	268.38
332.03	278.38
332.258	264.38
332.486	262.38
332.715	269.38
332.943	254.38
333.172	264.38
333.4	278.38
333.629	273.38
333.857	273.38
334.085	272.38
334.314	304.38
334.542	277.38
334.771	296.38
334.999	280.38
335.227	276.38
335.455	272.38
335.684	246.38
335.912	265.38
336.14	251.38
336.369	267.38
336.597	265.38
336.825	265.38
337.053	240.38
337.281	266.38
337.51	262.38
337.738	278.38
337.966	276.38
338.194	274.38
338.422	280.38
338.65	269.38
338.878	250.38
339.106	271.38
339.334	273.38
339.562	247.38
339.79	264.38
340.018	260.38
340.246	230.38
340.474	242.38
340.702	255.38
340.93	250.38
341.158	248.38
341.386	248.38
341.614	253.38
341.842	272.38
342.07	232.38
342.298	260.38
342.526	251.38
342.754	246.38
342.981	239.38
343.209	232.38
343.437	268.38
343.665	248.38
343.893	256.38
344.12	272.38
344.348	260.38
344.576	254.38
344.804	271.38
345.031	277.38
345.259	261.38
345.487	263.38
345.714	250.38
345.942	250.38
346.17	247.38
346.397	244.38
346.625	249.38
346.853	244.38
347.08	243.38
347.308	249.38
347.535	257.38
347.763	273.38
347.99	239.38
348.218	254.38
348.445	251.38
348.673	248.38
348.9	260.38
349.128	256.38
349.355	246.38
349.583	261.38
349.81	255.38
350.037	224.38
350.265	239.38
350.492	249.38
350.72	242.38
350.947	249.38
351.174	245.38
351.402	247.38
351.629	235.38
351.856	258.38
352.083	237.38
352.311	247.38
352.538	254.38
352.765	258.38
352.992	245.38
353.22	246.38
353.447	257.38
353.674	248.38
353.901	235.38
354.128	239.38
354.355	229.38
354.583	214.38
354.81	238.38
355.037	233.38
355.264	228.38
355.491	232.38
355.718	218.38
355.945	226.38
356.172	240.38
356.399	233.38
356.626	238.38
356.853	221.38
357.08	225.38
357.307	232.38
357.534	226.38
357.761	207.38
357.988	240.38
358.215	233.38
358.441	235.38
358.668	235.38
358.895	233.38
359.122	236.38
359.349	233.38
359.576	258.38
359.802	242.38
360.029	264.38
360.256	258.38
360.483	263.38
360.709	230.38
360.936	249.38
361.163	244.38
361.39	244.38
361.616	218.38
361.843	238.38
362.07	235.38
362.296	259.38
362.523	235.38
362.749	230.38
362.976	221.38
363.203	250.38
363.429	226.38
363.656	234.38
363.882	242.38
364.109	240.38
364.335	231.38
364.562	224.38
364.788	232.38
365.015	229.38
365.241	252.38
365.468	224.38
365.694	244.38
365.92	261.38
366.147	241.38
366.373	227.38
366.599	235.38
366.826	225.38
367.052	260.38
367.278	234.38
367.505	224.38
367.731	231.38
367.957	219.38
368.184	215.38
368.41	245.38
368.636	240.38
368.862	235.38
369.089	214.38
369.315	247.38
369.541	227.38
369.767	244.38
369.993	235.38
370.219	226.38
370.445	230.38
370.672	234.38
370.898	228.38
371.124	237.38
371.35	246.38
371.576	231.38
371.802	225.38
372.028	231.38
372.254	249.38
372.48	220.38
372.706	231.38
372.932	218.38
373.158	230.38
373.384	234.38
373.61	234.38
373.835	223.38
374.061	220.38
374.287	229.38
374.513	246.38
374.739	241.38
374.965	223.38
375.191	240.38
375.416	238.38
375.642	242.38
375.868	243.38
376.094	247.38
376.319	241.38
376.545	231.38
376.771	232.38
376.997	218.38
377.222	228.38
377.448	226.38
377.674	226.38
377.899	204.38
378.125	229.38
378.35	243.38
378.576	230.38
378.802	246.38
379.027	231.38
379.253	239.38
379.478	234.38
379.704	222.38
379.929	226.38
380.155	226.38
380.38	237.38
380.606	247.38
380.831	235.38
381.057	229.38
381.282	242.38
381.507	245.38
381.733	222.38
381.958	231.38
382.184	247.38
382.409	254.38
382.634	246.38
382.86	218.38
383.085	225.38
383.31	222.38
383.535	235.38
383.761	227.38
383.986	263.38
384.211	258.38
384.436	240.38
384.662	249.38
384.887	248.38
385.112	255.38
385.337	239.38
385.562	235.38
385.787	238.38
386.013	229.38
386.238	250.38
386.463	246.38
386.688	244.38
386.913	247.38
387.138	258.38
387.363	235.38
387.588	250.38
387.813	246.38
388.038	245.38
388.263	259.38
388.488	236.38
388.713	239.38
388.938	255.38
389.163	227.38
389.387	268.38
389.612	235.38
389.837	235.38
390.062	235.38
390.287	224.38
390.512	248.38
390.736	248.38
390.961	237.38
391.186	232.38
391.411	224.38
391.636	247.38
391.86	244.38
392.085	252.38
392.31	227.38
392.534	263.38
392.759	240.38
392.984	248.38
393.208	230.38
393.433	240.38
393.658	246.38
393.882	246.38
394.107	239.38
394.331	233.38
394.556	245.38
394.78	255.38
395.005	240.38
395.229	223.38
395.454	234.38
395.678	256.38
395.903	246.38
396.127	260.38
396.352	259.38
396.576	247.38
396.801	249.38
397.025	260.38
397.249	243.38
397.474	255.38
397.698	263.38
397.922	252.38
398.147	262.38
398.371	272.38
398.595	240.38
398.82	262.38
399.044	272.38
399.268	282.38
399.492	282.38
399.717	294.38
399.941	308.38
400.165	316.38
400.389	304.38
400.613	306.38
400.837	295.38
401.062	282.38
401.286	274.38
401.51	273.38
401.734	224.38
401.958	271.38
402.182	267.38
402.406	269.38
402.63	285.38
402.854	272.38
403.078	260.38
403.302	266.38
403.526	271.38
403.75	302.38
403.974	272.38
404.198	263.38
404.422	258.38
404.645	268.38
404.869	277.38
405.093	289.38
405.317	296.38
405.541	310.38
405.765	284.38
405.988	270.38
406.212	273.38
406.436	295.38
406.66	303.38
406.883	292.38
407.107	326.38
407.331	335.38
407.555	347.38
407.778	351.38
408.002	334.38
408.226	307.38
408.449	294.38
408.673	303.38
408.896	323.38
409.12	324.38
409.344	298.38
409.567	272.38
409.791	286.38
410.014	282.38
410.238	278.38
410.461	266.38
410.685	289.38
410.908	278.38
411.132	292.38
411.355	314.38
411.578	301.38
411.802	278.38
412.025	279.38
412.249	254.38
412.472	290.38
412.695	291.38
412.919	288.38
413.142	268.38
413.365	278.38
413.589	258.38
413.812	262.38
414.035	270.38
414.258	268.38
414.482	240.38
414.705	248.38
414.928	255.38
415.151	266.38
415.374	269.38
415.597	262.38
415.821	255.38
416.044	262.38
416.267	277.38
416.49	274.38
416.713	264.38
416.936	260.38
417.159	254.38
417.382	256.38
417.605	272.38
417.828	260.38
418.051	243.38
418.274	264.38
418.497	265.38
418.72	265.38
418.943	266.38
419.166	273.38
419.389	279.38
419.611	258.38
419.834	269.38
420.057	272.38
420.28	267.38
420.503	285.38
420.726	276.38
420.948	280.38
421.171	289.38
421.394	302.38
421.617	278.38
421.839	285.38
422.062	278.38
422.285	270.38
422.507	303.38
422.73	330.38
422.953	318.38
423.175	287.38
423.398	264.38
423.621	281.38
423.843	282.38
424.066	314.38
424.288	302.38
424.511	295.38
424.733	315.38
424.956	366.38
425.178	333.38
425.401	323.38
425.623	351.38
425.846	309.38
426.068	283.38
426.291	279.38
426.513	272.38
426.735	282.38
426.958	300.38
427.18	356.38
427.402	398.38
427.625	442.38
427.847	382.38
428.069	335.38
428.292	293.38
428.514	283.38
428.736	273.38
428.958	268.38
429.181	258.38
429.403	271.38
429.625	283.38
429.847	290.38
430.069	302.38
430.292	321.38
430.514	282.38
430.736	248.38
430.958	263.38
431.18	270.38
431.402	259.38
431.624	247.38
431.846	261.38
432.068	251.38
432.29	260.38
432.512	278.38
432.734	268.38
432.956	263.38
433.178	251.38
433.4	265.38
433.622	246.38
433.844	234.38
434.066	260.38
434.287	263.38
434.509	261.38
434.731	250.38
434.953	267.38
435.175	295.38
435.397	260.38
435.618	278.38
435.84	306.38
436.062	347.38
436.284	382.38
436.505	309.38
436.727	314.38
436.949	276.38
437.17	253.38
437.392	268.38
437.614	280.38
437.835	298.38
438.057	323.38
438.278	390.38
438.5	381.38
438.721	434.38
438.943	378.38
439.165	308.38
439.386	296.38
439.608	282.38
439.829	287.38
440.05	294.38
440.272	345.38
440.493	286.38
440.715	282.38
440.936	278.38
441.158	280.38
441.379	274.38
441.6	280.38
441.822	278.38
442.043	308.38
442.264	332.38
442.486	360.38
442.707	301.38
442.928	284.38
443.149	279.38
443.371	299.38
443.592	315.38
443.813	363.38
444.034	368.38
444.255	307.38
444.476	306.38
444.698	287.38
444.919	290.38
445.14	388.38
445.361	326.38
445.582	322.38
445.803	333.38
446.024	368.38
446.245	360.38
446.466	336.38
446.687	317.38
446.908	278.38
447.129	278.38
447.35	265.38
447.571	272.38
447.792	255.38
448.013	270.38
448.234	273.38
448.455	308.38
448.675	360.38
448.896	392.38
449.117	349.38
449.338	340.38
449.559	389.38
449.779	405.38
450	348.38
450.221	280.38
450.442	277.38
450.662	262.38
450.883	272.38
451.104	280.38
451.324	262.38
451.545	246.38
451.766	247.38
451.986	263.38
452.207	246.38
452.428	256.38
452.648	267.38
452.869	233.38
453.089	235.38
453.31	247.38
453.53	245.38
453.751	235.38
453.971	258.38
454.192	262.38
454.412	242.38
454.633	248.38
454.853	245.38
455.073	238.38
455.294	237.38
455.514	290.38
455.734	274.38
455.955	260.38
456.175	225.38
456.395	243.38
456.616	243.38
456.836	245.38
457.056	228.38
457.276	227.38
457.497	243.38
457.717	217.38
457.937	232.38
458.157	234.38
458.377	254.38
458.598	248.38
458.818	270.38
459.038	310.38
459.258	302.38
459.478	273.38
459.698	247.38
459.918	264.38
460.138	257.38
460.358	268.38
460.578	242.38
460.798	283.38
461.018	255.38
461.238	273.38
461.458	272.38
461.678	265.38
461.898	273.38
462.118	259.38
462.338	268.38
462.558	260.38
462.777	263.38
462.997	279.38
463.217	275.38
463.437	280.38
463.657	268.38
463.876	261.38
464.096	263.38
464.316	278.38
464.536	274.38
464.755	275.38
464.975	287.38
465.195	295.38
465.414	307.38
465.634	291.38
465.854	269.38
466.073	251.38
466.293	237.38
466.512	247.38
466.732	242.38
466.951	232.38
467.171	253.38
467.391	234.38
467.61	248.38
467.829	264.38
468.049	237.38
468.268	245.38
468.488	228.38
468.707	237.38
468.927	224.38
469.146	239.38
469.365	246.38
469.585	245.38
469.804	253.38
470.023	272.38
470.243	233.38
470.462	248.38
470.681	272.38
470.901	241.38
471.12	253.38
471.339	262.38
471.558	251.38
471.777	239.38
471.997	258.38
472.216	248.38
472.435	283.38
472.654	266.38
472.873	239.38
473.092	248.38
473.311	249.38
473.53	256.38
473.749	261.38
473.968	285.38
474.187	331.38
474.406	332.38
474.625	291.38
474.844	252.38
475.063	251.38
475.282	259.38
475.501	278.38
475.72	278.38
475.939	242.38
476.158	264.38
476.377	257.38
476.596	258.38
476.814	262.38
477.033	262.38
477.252	260.38
477.471	253.38
477.69	282.38
477.908	285.38
478.127	275.38
478.346	280.38
478.564	258.38
478.783	281.38
479.002	283.38
479.22	272.38
479.439	277.38
479.658	287.38
479.876	286.38
480.095	300.38
480.313	311.38
480.532	298.38
480.751	285.38
480.969	298.38
481.188	319.38
481.406	312.38
481.624	296.38
481.843	313.38
482.061	294.38
482.28	285.38
482.498	286.38
482.717	272.38
482.935	283.38
483.153	282.38
483.372	295.38
483.59	295.38
483.808	291.38
484.027	312.38
484.245	290.38
484.463	304.38
484.681	296.38
484.9	286.38
485.118	308.38
485.336	295.38
485.554	304.38
485.772	295.38
485.99	276.38
486.209	304.38
486.427	311.38
486.645	294.38
486.863	289.38
487.081	314.38
487.299	316.38
487.517	328.38
487.735	323.38
487.953	301.38
488.171	317.38
488.389	319.38
488.607	315.38
488.825	304.38
489.043	310.38
489.261	321.38
489.479	310.38
489.696	319.38
489.914	298.38
490.132	310.38
490.35	326.38
490.568	297.38
490.786	324.38
491.003	324.38
491.221	331.38
491.439	343.38
491.657	342.38
491.874	347.38
492.092	341.38
492.31	328.38
492.527	357.38
492.745	350.38
492.963	342.38
493.18	346.38
493.398	361.38
493.615	343.38
493.833	385.38
494.05	346.38
494.268	355.38
494.485	342.38
494.703	345.38
494.92	359.38
495.138	376.38
495.355	340.38
495.573	364.38
495.79	349.38
496.008	353.38
496.225	360.38
496.442	339.38
496.66	367.38
496.877	361.38
497.094	375.38
497.312	360.38
497.529	363.38
497.746	376.38
497.963	360.38
498.181	383.38
498.398	386.38
498.615	404.38
498.832	406.38
499.049	401.38
499.267	414.38
499.484	430.38
499.701	418.38
499.918	446.38
500.135	457.38
500.352	472.38
500.569	455.38
500.786	463.38
501.003	456.38
501.22	459.38
501.437	437.38
501.654	452.38
501.871	418.38
502.088	414.38
502.305	398.38
502.522	392.38
502.739	415.38
502.956	378.38
503.172	384.38
503.389	364.38
503.606	384.38
503.823	378.38
504.04	377.38
504.256	382.38
504.473	374.38
504.69	367.38
504.907	372.38
505.123	332.38
505.34	351.38
505.557	352.38
505.773	365.38
505.99	329.38
506.207	351.38
506.423	332.38
506.64	344.38
506.856	334.38
507.073	343.38
507.289	350.38
507.506	348.38
507.722	344.38
507.939	353.38
508.155	345.38
508.372	324.38
508.588	335.38
508.805	340.38
509.021	323.38
509.238	336.38
509.454	336.38
509.67	334.38
509.887	311.38
510.103	318.38
510.319	333.38
510.536	376.38
510.752	532.38
510.968	429.38
511.184	325.38
511.401	308.38
511.617	317.38
511.833	330.38
512.049	310.38
512.265	311.38
512.481	291.38
512.698	303.38
512.914	314.38
513.13	304.38
513.346	316.38
513.562	320.38
513.778	314.38
513.994	299.38
514.21	326.38
514.426	308.38
514.642	340.38
514.858	360.38
515.074	372.38
515.29	404.38
515.506	537.38
515.721	453.38
515.937	347.38
516.153	340.38
516.369	326.38
516.585	313.38
516.801	321.38
517.016	318.38
517.232	327.38
517.448	326.38
517.664	322.38
517.879	304.38
518.095	301.38
518.311	326.38
518.527	310.38
518.742	329.38
518.958	318.38
519.173	322.38
519.389	303.38
519.605	322.38
519.82	315.38
520.036	318.38
520.251	298.38
520.467	314.38
520.682	324.38
520.898	315.38
521.113	339.38
521.329	340.38
521.544	394.38
521.76	470.38
521.975	676.38
522.19	631.38
522.406	405.38
522.621	335.38
522.836	325.38
523.052	324.38
523.267	323.38
523.482	298.38
523.698	295.38
523.913	287.38
524.128	291.38
524.343	275.38
524.559	284.38
524.774	292.38
524.989	279.38
525.204	287.38
525.419	287.38
525.634	288.38
525.849	264.38
526.064	284.38
526.28	277.38
526.495	262.38
526.71	281.38
526.925	261.38
527.14	274.38
527.355	263.38
527.57	258.38
527.785	270.38
527.999	268.38
528.214	278.38
528.429	279.38
528.644	252.38
528.859	264.38
529.074	267.38
529.289	274.38
529.503	327.38
529.718	286.38
529.933	268.38
530.148	274.38
530.363	268.38
530.577	280.38
530.792	260.38
531.007	262.38
531.221	279.38
531.436	268.38
531.651	249.38
531.865	269.38
532.08	246.38
532.295	262.38
532.509	282.38
532.724	261.38
532.938	268.38
533.153	242.38
533.367	260.38
533.582	264.38
533.796	240.38
534.011	267.38
534.225	250.38
534.44	250.38
534.654	263.38
534.868	243.38
535.083	267.38
535.297	238.38
535.511	243.38
535.726	274.38
535.94	248.38
536.154	265.38
536.369	272.38
536.583	255.38
536.797	250.38
537.011	234.38
537.225	246.38
537.44	263.38
537.654	238.38
537.868	237.38
538.082	265.38
538.296	254.38
538.51	262.38
538.724	260.38
538.938	248.38
539.153	243.38
539.367	259.38
539.581	241.38
539.795	247.38
540.009	263.38
540.222	258.38
540.436	252.38
540.65	262.38
540.864	252.38
541.078	253.38
541.292	274.38
541.506	247.38
541.72	236.38
541.934	256.38
542.147	252.38
542.361	254.38
542.575	262.38
542.789	266.38
543.002	267.38
543.216	270.38
543.43	242.38
543.644	236.38
543.857	231.38
544.071	254.38
544.285	259.38
544.498	256.38
544.712	250.38
544.925	267.38
545.139	258.38
545.352	266.38
545.566	233.38
545.779	242.38
545.993	245.38
546.206	236.38
546.42	249.38
546.633	238.38
546.847	260.38
547.06	230.38
547.274	228.38
547.487	243.38
547.7	258.38
547.914	226.38
548.127	236.38
548.34	256.38
548.554	250.38
548.767	259.38
548.98	256.38
549.193	255.38
549.407	238.38
549.62	248.38
549.833	228.38
550.046	240.38
550.259	229.38
550.473	227.38
550.686	239.38
550.899	242.38
551.112	239.38
551.325	235.38
551.538	239.38
551.751	221.38
551.964	251.38
552.177	238.38
552.39	230.38
552.603	227.38
552.816	253.38
553.029	246.38
553.242	248.38
553.455	257.38
553.667	250.38
553.88	259.38
554.093	242.38
554.306	233.38
554.519	220.38
554.732	226.38
554.944	223.38
555.157	259.38
555.37	230.38
555.583	224.38
555.795	241.38
556.008	225.38
556.221	237.38
556.433	230.38
556.646	224.38
556.859	222.38
557.071	228.38
557.284	232.38
557.496	213.38
557.709	223.38
557.921	210.38
558.134	207.38
558.346	242.38
558.559	238.38
558.771	223.38
558.984	223.38
559.196	230.38
559.409	222.38
559.621	224.38
559.833	229.38
560.046	223.38
560.258	215.38
560.47	220.38
560.683	219.38
560.895	214.38
561.107	231.38
561.32	205.38
561.532	226.38
561.744	209.38
561.956	211.38
562.168	216.38
562.381	222.38
562.593	221.38
562.805	215.38
563.017	203.38
563.229	214.38
563.441	229.38
563.653	229.38
563.865	219.38
564.077	206.38
564.289	217.38
564.501	234.38
564.713	233.38
564.925	207.38
565.137	232.38
565.349	225.38
565.561	234.38
565.773	240.38
565.985	251.38
566.197	248.38
566.408	249.38
566.62	238.38
566.832	247.38
567.044	269.38
567.255	246.38
567.467	246.38
567.679	234.38
567.891	256.38
568.102	262.38
568.314	263.38
568.526	247.38
568.737	245.38
568.949	251.38
569.161	226.38
569.372	212.38
569.584	231.38
569.795	214.38
570.007	223.38
570.218	246.38
570.43	210.38
570.641	208.38
570.853	229.38
571.064	215.38
571.276	224.38
571.487	226.38
571.698	211.38
571.91	216.38
572.121	218.38
572.333	230.38
572.544	212.38
572.755	216.38
572.966	198.38
573.178	208.38
573.389	203.38
573.6	202.38
573.811	212.38
574.023	184.38
574.234	207.38
574.445	208.38
574.656	203.38
574.867	192.38
575.078	183.38
575.289	206.38
575.501	187.38
575.712	184.38
575.923	195.38
576.134	189.38
576.345	190.38
576.556	201.38
576.767	200.38
576.978	180.38
577.188	199.38
577.399	201.38
577.61	181.38
577.821	196.38
578.032	195.38
578.243	192.38
578.454	270.38
578.665	218.38
578.875	193.38
579.086	189.38
579.297	191.38
579.508	197.38
579.718	189.38
579.929	179.38
580.14	183.38
580.35	162.38
580.561	196.38
580.772	179.38
580.982	195.38
581.193	180.38
581.403	190.38
581.614	186.38
581.825	177.38
582.035	178.38
582.246	197.38
582.456	185.38
582.667	192.38
582.877	194.38
583.087	175.38
583.298	184.38
583.508	178.38
583.719	196.38
583.929	171.38
584.139	185.38
584.35	185.38
584.56	199.38
584.77	179.38
584.981	167.38
585.191	178.38
585.401	171.38
585.611	174.38
585.821	180.38
586.032	176.38
586.242	182.38
586.452	180.38
586.662	172.38
586.872	157.38
587.082	201.38
587.292	174.38
587.502	184.38
587.713	174.38
587.923	188.38
588.133	170.38
588.343	187.38
588.553	168.38
588.762	191.38
588.972	181.38
589.182	204.38
589.392	206.38
589.602	179.38
589.812	195.38
590.022	191.38
590.232	179.38
590.441	194.38
590.651	194.38
590.861	178.38
591.071	182.38
591.281	184.38
591.49	184.38
591.7	188.38
591.91	186.38
592.119	189.38
592.329	189.38
592.539	180.38
592.748	174.38
592.958	179.38
593.167	188.38
593.377	179.38
593.587	180.38
593.796	175.38
594.006	181.38
594.215	180.38
594.424	184.38
594.634	181.38
594.843	178.38
595.053	181.38
595.262	189.38
595.472	180.38
595.681	167.38
595.89	172.38
596.1	173.38
596.309	152.38
596.518	184.38
596.727	171.38
596.937	164.38
597.146	169.38
597.355	171.38
597.564	181.38
597.774	167.38
597.983	173.38
598.192	176.38
598.401	164.38
598.61	174.38
598.819	161.38
599.028	165.38
599.237	170.38
599.446	172.38
599.655	168.38
599.864	152.38
600.073	160.38
600.282	166.38
600.491	154.38
600.7	161.38
600.909	160.38
601.118	158.38
601.327	156.38
601.536	154.38
601.745	164.38
601.953	158.38
602.162	153.38
602.371	165.38
602.58	158.38
602.789	145.38
602.997	162.38
603.206	171.38
603.415	141.38
603.623	159.38
603.832	170.38
604.041	170.38
604.249	138.38
604.458	145.38
604.666	159.38
604.875	156.38
605.084	147.38
605.292	163.38
605.501	166.38
605.709	180.38
605.918	157.38
606.126	152.38
606.334	144.38
606.543	150.38
606.751	159.38
606.96	159.38
607.168	170.38
607.376	150.38
607.585	148.38
607.793	157.38
608.001	156.38
608.21	158.38
608.418	158.38
608.626	145.38
608.834	158.38
609.043	157.38
609.251	157.38
609.459	153.38
609.667	159.38
609.875	151.38
610.083	166.38
610.291	152.38
610.499	151.38
610.707	149.38
610.916	153.38
611.124	159.38
611.332	158.38
611.54	166.38
611.748	160.38
611.955	154.38
612.163	151.38
612.371	162.38
612.579	159.38
612.787	166.38
612.995	155.38
613.203	163.38
613.411	160.38
613.618	172.38
613.826	152.38
614.034	162.38
614.242	157.38
614.449	159.38
614.657	158.38
614.865	148.38
615.072	161.38
615.28	166.38
615.488	165.38
615.695	164.38
615.903	159.38
616.111	152.38
616.318	146.38
616.526	147.38
616.733	154.38
616.941	143.38
617.148	146.38
617.356	157.38
617.563	141.38
617.771	152.38
617.978	150.38
618.185	143.38
618.393	150.38
618.6	152.38
618.807	147.38
619.015	175.38
619.222	157.38
619.429	158.38
619.637	148.38
619.844	148.38
620.051	142.38
620.258	140.38
620.466	146.38
620.673	150.38
620.88	147.38
621.087	138.38
621.294	157.38
621.501	152.38
621.708	154.38
621.915	146.38
622.122	146.38
622.329	138.38
622.536	161.38
622.743	150.38
622.95	143.38
623.157	135.38
623.364	144.38
623.571	133.38
623.778	144.38
623.985	156.38
624.192	147.38
624.399	143.38
624.606	161.38
624.812	150.38
625.019	141.38
625.226	144.38
625.433	148.38
625.639	160.38
625.846	142.38
626.053	136.38
626.259	119.38
626.466	147.38
626.673	148.38
626.879	151.38
627.086	138.38
627.293	147.38
627.499	143.38
627.706	144.38
627.912	149.38
628.119	128.38
628.325	143.38
628.532	132.38
628.738	138.38
628.945	143.38
629.151	139.38
629.357	132.38
629.564	144.38
629.77	132.38
629.976	145.38
630.183	123.38
630.389	134.38
630.595	141.38
630.802	141.38
631.008	129.38
631.214	140.38
631.42	128.38
631.627	135.38
631.833	136.38
632.039	123.38
632.245	134.38
632.451	142.38
632.657	137.38
632.863	142.38
633.069	161.38
633.275	135.38
633.481	134.38
633.688	128.38
633.893	135.38
634.099	138.38
634.305	146.38
634.511	141.38
634.717	127.38
634.923	130.38
635.129	123.38
635.335	118.38
635.541	126.38
635.747	131.38
635.952	144.38
636.158	145.38
636.364	157.38
636.57	133.38
636.775	140.38
636.981	139.38
637.187	138.38
637.392	140.38
637.598	149.38
637.804	121.38
638.009	132.38
638.215	130.38
638.421	134.38
638.626	118.38
638.832	133.38
639.037	125.38
639.243	135.38
639.448	133.38
639.654	120.38
639.859	125.38
640.065	124.38
640.27	132.38
640.475	139.38
640.681	138.38
640.886	130.38
641.091	130.38
641.297	123.38
641.502	125.38
641.707	144.38
641.913	127.38
642.118	126.38
642.323	137.38
642.528	126.38
642.733	131.38
642.939	133.38
643.144	121.38
643.349	136.38
643.554	121.38
643.759	129.38
643.964	130.38
644.169	123.38
644.374	128.38
644.579	123.38
644.784	123.38
644.989	127.38
645.194	120.38
645.399	116.38
645.604	116.38
645.809	128.38
646.014	112.38
646.219	122.38
646.423	136.38
646.628	133.38
646.833	114.38
647.038	119.38
647.243	116.38
647.447	134.38
647.652	142.38
647.857	130.38
648.062	120.38
648.266	130.38
648.471	127.38
648.676	135.38
648.88	127.38
649.085	142.38
649.289	123.38
649.494	133.38
649.698	126.38
649.903	135.38
650.107	131.38
650.312	111.38
650.516	128.38
650.721	132.38
650.925	124.38
651.13	126.38
651.334	124.38
651.539	120.38
651.743	115.38
651.947	124.38
652.152	121.38
652.356	122.38
652.56	109.38
652.764	120.38
652.969	122.38
653.173	114.38
653.377	116.38
653.581	107.38
653.785	109.38
653.99	123.38
654.194	124.38
654.398	112.38
654.602	121.38
654.806	118.38
655.01	121.38
655.214	129.38
655.418	117.38
655.622	115.38
655.826	110.38
656.03	114.38
656.234	119.38
656.438	114.38
656.642	134.38
656.846	118.38
657.049	121.38
657.253	99.38
657.457	115.38
657.661	97.38
657.865	102.38
658.068	106.38
658.272	103.38
658.476	102.38
658.68	96.38
658.883	101.38
659.087	94.38
659.291	102.38
659.494	92.38
659.698	94.38
659.901	98.38
660.105	93.38
660.309	104.38
660.512	95.38
660.716	95.38
660.919	103.38
661.123	98.38
661.326	95.38
661.53	97.38
661.733	87.38
661.936	84.38
662.14	92.38
662.343	71.38
662.546	82.38
662.75	85.38
662.953	89.38
663.156	83.38
663.36	101.38
663.563	87.38
663.766	94.38
663.969	93.38
664.173	86.38
664.376	74.38
664.579	84.38
664.782	77.38
664.985	94.38
665.188	88.38
665.391	87.38
665.594	73.38
665.797	83.38
666	68.38
666.203	76.38
666.406	94.38
666.609	76.38
666.812	90.38
667.015	70.38
667.218	92.38
667.421	79.38
667.624	92.38
667.827	71.38
668.03	83.38
668.232	79.38
668.435	83.38
668.638	92.38
668.841	82.38
669.043	75.38
669.246	86.38
669.449	89.38
669.651	82.38
669.854	90.38
670.057	86.38
670.259	92.38
670.462	86.38
670.665	86.38
670.867	77.38
671.07	78.38
671.272	71.38
671.475	91.38
671.677	85.38
671.88	82.38
672.082	83.38
672.284	92.38
672.487	88.38
672.689	78.38
672.892	75.38
