Data from 1982.PennyLincolnUp.Lamp.En5.5.200Scan.071819.P1_HRD10591_16-46-43-963.txt Node
Date: Thu Jul 18 16:46:43 EDT 2019
User: cochatt
Spectrometer: HR+D1059
Trigger mode: 1
Integration Time (sec): 1.000000E-1
Scans to average: 1
Electric dark correction enabled: true
Nonlinearity correction enabled: false
Boxcar width: 0
XAxis mode: Wavelengths
Number of Pixels in Spectrum: 2048
>>>>>Begin Spectral Data<<<<<
223.165	-5.25
223.4	-5.25
223.635	-5.25
223.869	-12.25
224.104	-12.25
224.338	-23.25
224.573	-11.25
224.808	-18.25
225.042	-7.25
225.277	-17.25
225.511	-2.25
225.746	5.75
225.98	3.75
226.215	14.75
226.449	18.75
226.683	23.75
226.918	24.75
227.152	17.75
227.387	24.75
227.621	46.75
227.856	26.75
228.09	40.75
228.324	46.75
228.559	40.75
228.793	57.75
229.027	75.75
229.262	101.75
229.496	96.75
229.73	95.75
229.964	115.75
230.199	97.75
230.433	94.75
230.667	103.75
230.901	99.75
231.136	103.75
231.37	106.75
231.604	108.75
231.838	100.75
232.072	94.75
232.306	97.75
232.541	100.75
232.775	114.75
233.009	94.75
233.243	105.75
233.477	100.75
233.711	108.75
233.945	98.75
234.179	94.75
234.413	116.75
234.647	95.75
234.881	96.75
235.115	96.75
235.349	101.75
235.583	113.75
235.817	108.75
236.051	118.75
236.285	114.75
236.519	102.75
236.753	115.75
236.987	140.75
237.221	140.75
237.455	165.75
237.689	150.75
237.922	115.75
238.156	111.75
238.39	125.75
238.624	105.75
238.858	95.75
239.091	110.75
239.325	107.75
239.559	101.75
239.793	112.75
240.027	126.75
240.26	129.75
240.494	128.75
240.728	118.75
240.961	131.75
241.195	132.75
241.429	124.75
241.662	116.75
241.896	107.75
242.13	114.75
242.363	107.75
242.597	121.75
242.83	120.75
243.064	116.75
243.298	113.75
243.531	100.75
243.765	113.75
243.998	121.75
244.232	115.75
244.465	104.75
244.699	138.75
244.932	136.75
245.166	105.75
245.399	123.75
245.633	141.75
245.866	127.75
246.099	124.75
246.333	107.75
246.566	123.75
246.8	118.75
247.033	118.75
247.266	135.75
247.5	121.75
247.733	143.75
247.966	140.75
248.2	126.75
248.433	138.75
248.666	146.75
248.899	170.75
249.133	150.75
249.366	163.75
249.599	160.75
249.832	168.75
250.066	143.75
250.299	138.75
250.532	162.75
250.765	164.75
250.998	172.75
251.231	182.75
251.465	189.75
251.698	176.75
251.931	150.75
252.164	160.75
252.397	157.75
252.63	172.75
252.863	162.75
253.096	174.75
253.329	181.75
253.562	166.75
253.795	170.75
254.028	184.75
254.261	185.75
254.494	198.75
254.727	216.75
254.96	245.75
255.193	210.75
255.426	202.75
255.659	193.75
255.892	181.75
256.124	178.75
256.357	173.75
256.59	174.75
256.823	166.75
257.056	168.75
257.289	170.75
257.521	185.75
257.754	171.75
257.987	171.75
258.22	176.75
258.452	157.75
258.685	162.75
258.918	177.75
259.151	163.75
259.383	186.75
259.616	181.75
259.849	179.75
260.081	186.75
260.314	205.75
260.547	210.75
260.779	189.75
261.012	196.75
261.244	190.75
261.477	189.75
261.71	193.75
261.942	180.75
262.175	194.75
262.407	195.75
262.64	186.75
262.872	181.75
263.105	186.75
263.337	185.75
263.57	168.75
263.802	180.75
264.035	165.75
264.267	170.75
264.499	160.75
264.732	162.75
264.964	169.75
265.197	176.75
265.429	155.75
265.661	156.75
265.894	171.75
266.126	166.75
266.358	165.75
266.591	177.75
266.823	182.75
267.055	180.75
267.287	171.75
267.52	157.75
267.752	177.75
267.984	189.75
268.216	181.75
268.448	205.75
268.681	203.75
268.913	208.75
269.145	205.75
269.377	220.75
269.609	218.75
269.841	215.75
270.073	219.75
270.306	225.75
270.538	251.75
270.77	241.75
271.002	242.75
271.234	244.75
271.466	254.75
271.698	240.75
271.93	246.75
272.162	248.75
272.394	253.75
272.626	233.75
272.858	212.75
273.09	218.75
273.322	204.75
273.553	188.75
273.785	204.75
274.017	193.75
274.249	200.75
274.481	210.75
274.713	205.75
274.945	214.75
275.176	211.75
275.408	214.75
275.64	208.75
275.872	202.75
276.104	227.75
276.335	211.75
276.567	221.75
276.799	218.75
277.031	249.75
277.262	245.75
277.494	253.75
277.726	227.75
277.957	233.75
278.189	206.75
278.421	227.75
278.652	221.75
278.884	198.75
279.115	199.75
279.347	220.75
279.579	207.75
279.81	205.75
280.042	206.75
280.273	228.75
280.505	219.75
280.736	199.75
280.968	206.75
281.199	207.75
281.431	208.75
281.662	210.75
281.894	202.75
282.125	207.75
282.356	212.75
282.588	237.75
282.819	229.75
283.051	209.75
283.282	214.75
283.513	217.75
283.745	218.75
283.976	209.75
284.207	210.75
284.439	205.75
284.67	213.75
284.901	210.75
285.132	205.75
285.364	221.75
285.595	213.75
285.826	206.75
286.057	216.75
286.288	217.75
286.52	228.75
286.751	226.75
286.982	221.75
287.213	212.75
287.444	243.75
287.675	229.75
287.906	240.75
288.138	251.75
288.369	233.75
288.6	227.75
288.831	229.75
289.062	211.75
289.293	220.75
289.524	236.75
289.755	225.75
289.986	220.75
290.217	222.75
290.448	240.75
290.679	220.75
290.91	206.75
291.141	225.75
291.371	209.75
291.602	214.75
291.833	243.75
292.064	226.75
292.295	219.75
292.526	214.75
292.757	210.75
292.987	208.75
293.218	225.75
293.449	235.75
293.68	238.75
293.91	227.75
294.141	212.75
294.372	220.75
294.603	228.75
294.833	222.75
295.064	224.75
295.295	237.75
295.525	240.75
295.756	222.75
295.987	236.75
296.217	253.75
296.448	247.75
296.679	231.75
296.909	241.75
297.14	229.75
297.37	233.75
297.601	238.75
297.831	227.75
298.062	236.75
298.292	214.75
298.523	228.75
298.753	216.75
298.984	238.75
299.214	222.75
299.445	243.75
299.675	256.75
299.905	248.75
300.136	221.75
300.366	218.75
300.597	221.75
300.827	242.75
301.057	237.75
301.288	246.75
301.518	245.75
301.748	239.75
301.979	246.75
302.209	230.75
302.439	240.75
302.669	250.75
302.9	255.75
303.13	251.75
303.36	248.75
303.59	257.75
303.82	237.75
304.051	253.75
304.281	245.75
304.511	257.75
304.741	230.75
304.971	254.75
305.201	257.75
305.431	243.75
305.661	242.75
305.891	249.75
306.121	244.75
306.352	233.75
306.582	260.75
306.812	245.75
307.042	254.75
307.272	251.75
307.502	256.75
307.731	245.75
307.961	229.75
308.191	252.75
308.421	261.75
308.651	248.75
308.881	265.75
309.111	260.75
309.341	269.75
309.571	261.75
309.8	275.75
310.03	301.75
310.26	289.75
310.49	308.75
310.72	298.75
310.949	312.75
311.179	309.75
311.409	301.75
311.639	312.75
311.868	300.75
312.098	279.75
312.328	286.75
312.557	296.75
312.787	316.75
313.017	312.75
313.246	300.75
313.476	298.75
313.706	304.75
313.935	306.75
314.165	322.75
314.394	313.75
314.624	299.75
314.853	286.75
315.083	288.75
315.312	292.75
315.542	268.75
315.771	278.75
316.001	283.75
316.23	295.75
316.46	292.75
316.689	299.75
316.919	273.75
317.148	296.75
317.377	298.75
317.607	289.75
317.836	302.75
318.065	293.75
318.295	285.75
318.524	291.75
318.753	294.75
318.983	288.75
319.212	296.75
319.441	297.75
319.67	306.75
319.9	306.75
320.129	281.75
320.358	276.75
320.587	306.75
320.816	309.75
321.046	304.75
321.275	322.75
321.504	302.75
321.733	305.75
321.962	326.75
322.191	338.75
322.42	334.75
322.649	334.75
322.878	365.75
323.108	377.75
323.337	390.75
323.566	415.75
323.795	426.75
324.024	478.75
324.253	610.75
324.482	877.75
324.71	1366.75
324.939	1794.75
325.168	1443.75
325.397	765.75
325.626	526.75
325.855	445.75
326.084	427.75
326.313	424.75
326.542	406.75
326.77	445.75
326.999	578.75
327.228	786.75
327.457	1157.75
327.686	1282.75
327.914	864.75
328.143	566.75
328.372	515.75
328.6	476.75
328.829	445.75
329.058	452.75
329.287	479.75
329.515	446.75
329.744	404.75
329.972	400.75
330.201	422.75
330.43	450.75
330.658	473.75
330.887	494.75
331.115	456.75
331.344	405.75
331.572	382.75
331.801	364.75
332.03	378.75
332.258	354.75
332.486	342.75
332.715	322.75
332.943	330.75
333.172	331.75
333.4	318.75
333.629	340.75
333.857	361.75
334.085	373.75
334.314	388.75
334.542	383.75
334.771	388.75
334.999	379.75
335.227	383.75
335.455	347.75
335.684	330.75
335.912	328.75
336.14	325.75
336.369	331.75
336.597	360.75
336.825	335.75
337.053	332.75
337.281	324.75
337.51	334.75
337.738	332.75
337.966	327.75
338.194	327.75
338.422	324.75
338.65	323.75
338.878	328.75
339.106	324.75
339.334	313.75
339.562	310.75
339.79	329.75
340.018	333.75
340.246	309.75
340.474	322.75
340.702	319.75
340.93	332.75
341.158	322.75
341.386	316.75
341.614	314.75
341.842	305.75
342.07	310.75
342.298	318.75
342.526	310.75
342.754	309.75
342.981	318.75
343.209	313.75
343.437	298.75
343.665	316.75
343.893	310.75
344.12	316.75
344.348	326.75
344.576	312.75
344.804	308.75
345.031	334.75
345.259	339.75
345.487	332.75
345.714	318.75
345.942	312.75
346.17	323.75
346.397	314.75
346.625	317.75
346.853	340.75
347.08	302.75
347.308	317.75
347.535	325.75
347.763	327.75
347.99	320.75
348.218	324.75
348.445	319.75
348.673	303.75
348.9	315.75
349.128	312.75
349.355	296.75
349.583	299.75
349.81	302.75
350.037	302.75
350.265	289.75
350.492	302.75
350.72	287.75
350.947	300.75
351.174	309.75
351.402	322.75
351.629	322.75
351.856	305.75
352.083	304.75
352.311	348.75
352.538	318.75
352.765	340.75
352.992	311.75
353.22	304.75
353.447	306.75
353.674	298.75
353.901	277.75
354.128	282.75
354.355	280.75
354.583	310.75
354.81	304.75
355.037	293.75
355.264	292.75
355.491	270.75
355.718	261.75
355.945	270.75
356.172	288.75
356.399	268.75
356.626	268.75
356.853	264.75
357.08	292.75
357.307	276.75
357.534	301.75
357.761	285.75
357.988	292.75
358.215	275.75
358.441	292.75
358.668	276.75
358.895	287.75
359.122	311.75
359.349	305.75
359.576	314.75
359.802	341.75
360.029	342.75
360.256	337.75
360.483	320.75
360.709	320.75
360.936	313.75
361.163	310.75
361.39	291.75
361.616	294.75
361.843	301.75
362.07	281.75
362.296	308.75
362.523	304.75
362.749	293.75
362.976	298.75
363.203	284.75
363.429	289.75
363.656	298.75
363.882	306.75
364.109	294.75
364.335	293.75
364.562	296.75
364.788	287.75
365.015	304.75
365.241	280.75
365.468	297.75
365.694	299.75
365.92	287.75
366.147	294.75
366.373	277.75
366.599	285.75
366.826	279.75
367.052	273.75
367.278	274.75
367.505	293.75
367.731	295.75
367.957	283.75
368.184	271.75
368.41	297.75
368.636	299.75
368.862	268.75
369.089	291.75
369.315	276.75
369.541	278.75
369.767	277.75
369.993	281.75
370.219	297.75
370.445	280.75
370.672	272.75
370.898	284.75
371.124	283.75
371.35	267.75
371.576	273.75
371.802	257.75
372.028	277.75
372.254	291.75
372.48	273.75
372.706	272.75
372.932	290.75
373.158	285.75
373.384	276.75
373.61	290.75
373.835	272.75
374.061	274.75
374.287	271.75
374.513	276.75
374.739	289.75
374.965	284.75
375.191	278.75
375.416	276.75
375.642	275.75
375.868	265.75
376.094	274.75
376.319	268.75
376.545	266.75
376.771	273.75
376.997	267.75
377.222	285.75
377.448	260.75
377.674	271.75
377.899	276.75
378.125	263.75
378.35	283.75
378.576	265.75
378.802	268.75
379.027	257.75
379.253	292.75
379.478	276.75
379.704	264.75
379.929	265.75
380.155	268.75
380.38	262.75
380.606	282.75
380.831	266.75
381.057	275.75
381.282	272.75
381.507	291.75
381.733	256.75
381.958	267.75
382.184	285.75
382.409	271.75
382.634	284.75
382.86	263.75
383.085	275.75
383.31	253.75
383.535	254.75
383.761	269.75
383.986	259.75
384.211	280.75
384.436	284.75
384.662	269.75
384.887	274.75
385.112	278.75
385.337	284.75
385.562	282.75
385.787	275.75
386.013	268.75
386.238	297.75
386.463	306.75
386.688	279.75
386.913	270.75
387.138	269.75
387.363	304.75
387.588	283.75
387.813	304.75
388.038	265.75
388.263	281.75
388.488	297.75
388.713	277.75
388.938	283.75
389.163	287.75
389.387	282.75
389.612	264.75
389.837	277.75
390.062	286.75
390.287	304.75
390.512	287.75
390.736	290.75
390.961	280.75
391.186	289.75
391.411	278.75
391.636	277.75
391.86	294.75
392.085	286.75
392.31	276.75
392.534	269.75
392.759	292.75
392.984	293.75
393.208	286.75
393.433	291.75
393.658	286.75
393.882	271.75
394.107	274.75
394.331	282.75
394.556	273.75
394.78	270.75
395.005	291.75
395.229	281.75
395.454	288.75
395.678	294.75
395.903	296.75
396.127	283.75
396.352	300.75
396.576	289.75
396.801	272.75
397.025	272.75
397.249	289.75
397.474	304.75
397.698	309.75
397.922	298.75
398.147	304.75
398.371	308.75
398.595	305.75
398.82	300.75
399.044	309.75
399.268	321.75
399.492	310.75
399.717	351.75
399.941	383.75
400.165	358.75
400.389	374.75
400.613	332.75
400.837	333.75
401.062	327.75
401.286	332.75
401.51	310.75
401.734	314.75
401.958	310.75
402.182	307.75
402.406	310.75
402.63	329.75
402.854	311.75
403.078	313.75
403.302	326.75
403.526	306.75
403.75	319.75
403.974	303.75
404.198	314.75
404.422	341.75
404.645	353.75
404.869	316.75
405.093	346.75
405.317	366.75
405.541	388.75
405.765	362.75
405.988	340.75
406.212	337.75
406.436	377.75
406.66	372.75
406.883	352.75
407.107	384.75
407.331	397.75
407.555	418.75
407.778	428.75
408.002	407.75
408.226	356.75
408.449	354.75
408.673	364.75
408.896	355.75
409.12	382.75
409.344	356.75
409.567	333.75
409.791	330.75
410.014	310.75
410.238	317.75
410.461	322.75
410.685	328.75
410.908	341.75
411.132	343.75
411.355	383.75
411.578	364.75
411.802	340.75
412.025	341.75
412.249	329.75
412.472	334.75
412.695	353.75
412.919	364.75
413.142	342.75
413.365	295.75
413.589	296.75
413.812	305.75
414.035	314.75
414.258	318.75
414.482	293.75
414.705	275.75
414.928	296.75
415.151	285.75
415.374	307.75
415.597	306.75
415.821	316.75
416.044	298.75
416.267	289.75
416.49	311.75
416.713	300.75
416.936	296.75
417.159	284.75
417.382	308.75
417.605	324.75
417.828	333.75
418.051	325.75
418.274	299.75
418.497	305.75
418.72	303.75
418.943	298.75
419.166	300.75
419.389	326.75
419.611	311.75
419.834	344.75
420.057	331.75
420.28	310.75
420.503	319.75
420.726	334.75
420.948	330.75
421.171	368.75
421.394	365.75
421.617	348.75
421.839	331.75
422.062	322.75
422.285	324.75
422.507	372.75
422.73	411.75
422.953	384.75
423.175	350.75
423.398	338.75
423.621	333.75
423.843	355.75
424.066	353.75
424.288	354.75
424.511	369.75
424.733	387.75
424.956	436.75
425.178	407.75
425.401	427.75
425.623	434.75
425.846	377.75
426.068	362.75
426.291	359.75
426.513	344.75
426.735	372.75
426.958	402.75
427.18	451.75
427.402	504.75
427.625	555.75
427.847	488.75
428.069	443.75
428.292	389.75
428.514	363.75
428.736	342.75
428.958	342.75
429.181	327.75
429.403	332.75
429.625	343.75
429.847	362.75
430.069	406.75
430.292	400.75
430.514	328.75
430.736	339.75
430.958	309.75
431.18	308.75
431.402	313.75
431.624	277.75
431.846	298.75
432.068	292.75
432.29	306.75
432.512	307.75
432.734	301.75
432.956	297.75
433.178	307.75
433.4	301.75
433.622	299.75
433.844	310.75
434.066	304.75
434.287	288.75
434.509	306.75
434.731	315.75
434.953	323.75
435.175	338.75
435.397	346.75
435.618	375.75
435.84	389.75
436.062	450.75
436.284	491.75
436.505	392.75
436.727	375.75
436.949	348.75
437.17	318.75
437.392	315.75
437.614	331.75
437.835	375.75
438.057	438.75
438.278	481.75
438.5	496.75
438.721	510.75
438.943	503.75
439.165	422.75
439.386	378.75
439.608	361.75
439.829	360.75
440.05	385.75
440.272	422.75
440.493	373.75
440.715	345.75
440.936	352.75
441.158	347.75
441.379	323.75
441.6	359.75
441.822	349.75
442.043	374.75
442.264	441.75
442.486	427.75
442.707	395.75
442.928	369.75
443.149	372.75
443.371	389.75
443.592	412.75
443.813	445.75
444.034	505.75
444.255	427.75
444.476	356.75
444.698	351.75
444.919	362.75
445.14	420.75
445.361	392.75
445.582	370.75
445.803	432.75
446.024	495.75
446.245	493.75
446.466	452.75
446.687	380.75
446.908	349.75
447.129	356.75
447.35	339.75
447.571	328.75
447.792	329.75
448.013	332.75
448.234	349.75
448.455	384.75
448.675	447.75
448.896	504.75
449.117	437.75
449.338	435.75
449.559	470.75
449.779	521.75
450	434.75
450.221	384.75
450.442	328.75
450.662	341.75
450.883	327.75
451.104	352.75
451.324	341.75
451.545	323.75
451.766	291.75
451.986	300.75
452.207	297.75
452.428	314.75
452.648	282.75
452.869	288.75
453.089	309.75
453.31	317.75
453.53	296.75
453.751	300.75
453.971	305.75
454.192	295.75
454.412	308.75
454.633	291.75
454.853	294.75
455.073	300.75
455.294	324.75
455.514	377.75
455.734	320.75
455.955	300.75
456.175	296.75
456.395	274.75
456.616	274.75
456.836	272.75
457.056	269.75
457.276	288.75
457.497	281.75
457.717	276.75
457.937	284.75
458.157	286.75
458.377	282.75
458.598	313.75
458.818	353.75
459.038	374.75
459.258	408.75
459.478	345.75
459.698	314.75
459.918	308.75
460.138	288.75
460.358	282.75
460.578	292.75
460.798	302.75
461.018	317.75
461.238	307.75
461.458	298.75
461.678	308.75
461.898	293.75
462.118	290.75
462.338	297.75
462.558	309.75
462.777	307.75
462.997	324.75
463.217	323.75
463.437	315.75
463.657	318.75
463.876	320.75
464.096	316.75
464.316	311.75
464.536	324.75
464.755	308.75
464.975	344.75
465.195	372.75
465.414	419.75
465.634	361.75
465.854	322.75
466.073	312.75
466.293	299.75
466.512	292.75
466.732	304.75
466.951	305.75
467.171	296.75
467.391	284.75
467.61	305.75
467.829	293.75
468.049	318.75
468.268	304.75
468.488	292.75
468.707	287.75
468.927	298.75
469.146	290.75
469.365	288.75
469.585	292.75
469.804	305.75
470.023	322.75
470.243	313.75
470.462	316.75
470.681	322.75
470.901	337.75
471.12	308.75
471.339	309.75
471.558	287.75
471.777	306.75
471.997	291.75
472.216	322.75
472.435	354.75
472.654	324.75
472.873	298.75
473.092	300.75
473.311	290.75
473.53	315.75
473.749	312.75
473.968	358.75
474.187	412.75
474.406	418.75
474.625	365.75
474.844	310.75
475.063	304.75
475.282	296.75
475.501	297.75
475.72	327.75
475.939	326.75
476.158	307.75
476.377	312.75
476.596	306.75
476.814	310.75
477.033	308.75
477.252	306.75
477.471	318.75
477.69	328.75
477.908	320.75
478.127	317.75
478.346	329.75
478.564	321.75
478.783	322.75
479.002	321.75
479.22	349.75
479.439	332.75
479.658	356.75
479.876	373.75
480.095	361.75
480.313	377.75
480.532	354.75
480.751	359.75
480.969	355.75
481.188	397.75
481.406	417.75
481.624	383.75
481.843	379.75
482.061	368.75
482.28	343.75
482.498	348.75
482.717	340.75
482.935	337.75
483.153	343.75
483.372	345.75
483.59	358.75
483.808	339.75
484.027	350.75
484.245	351.75
484.463	358.75
484.681	355.75
484.9	373.75
485.118	336.75
485.336	350.75
485.554	369.75
485.772	353.75
485.99	348.75
486.209	344.75
486.427	362.75
486.645	375.75
486.863	388.75
487.081	383.75
487.299	385.75
487.517	384.75
487.735	363.75
487.953	382.75
488.171	367.75
488.389	377.75
488.607	392.75
488.825	372.75
489.043	385.75
489.261	368.75
489.479	365.75
489.696	377.75
489.914	384.75
490.132	401.75
490.35	395.75
490.568	400.75
490.786	406.75
491.003	396.75
491.221	406.75
491.439	414.75
491.657	424.75
491.874	423.75
492.092	412.75
492.31	428.75
492.527	405.75
492.745	418.75
492.963	437.75
493.18	438.75
493.398	435.75
493.615	452.75
493.833	440.75
494.05	447.75
494.268	438.75
494.485	428.75
494.703	427.75
494.92	436.75
495.138	438.75
495.355	432.75
495.573	464.75
495.79	441.75
496.008	450.75
496.225	439.75
496.442	434.75
496.66	452.75
496.877	437.75
497.094	451.75
497.312	466.75
497.529	450.75
497.746	460.75
497.963	445.75
498.181	464.75
498.398	459.75
498.615	478.75
498.832	458.75
499.049	484.75
499.267	481.75
499.484	489.75
499.701	480.75
499.918	503.75
500.135	547.75
500.352	529.75
500.569	523.75
500.786	548.75
501.003	535.75
501.22	537.75
501.437	516.75
501.654	514.75
501.871	527.75
502.088	520.75
502.305	489.75
502.522	494.75
502.739	468.75
502.956	464.75
503.172	441.75
503.389	425.75
503.606	472.75
503.823	444.75
504.04	439.75
504.256	423.75
504.473	434.75
504.69	427.75
504.907	442.75
505.123	418.75
505.34	444.75
505.557	439.75
505.773	458.75
505.99	427.75
506.207	422.75
506.423	422.75
506.64	433.75
506.856	416.75
507.073	410.75
507.289	416.75
507.506	414.75
507.722	419.75
507.939	445.75
508.155	425.75
508.372	407.75
508.588	431.75
508.805	409.75
509.021	423.75
509.238	418.75
509.454	409.75
509.67	418.75
509.887	424.75
510.103	419.75
510.319	421.75
510.536	508.75
510.752	819.75
510.968	651.75
511.184	434.75
511.401	418.75
511.617	405.75
511.833	389.75
512.049	382.75
512.265	409.75
512.481	390.75
512.698	398.75
512.914	394.75
513.13	381.75
513.346	378.75
513.562	385.75
513.778	406.75
513.994	400.75
514.21	394.75
514.426	422.75
514.642	456.75
514.858	464.75
515.074	533.75
515.29	635.75
515.506	897.75
515.721	729.75
515.937	499.75
516.153	434.75
516.369	394.75
516.585	421.75
516.801	389.75
517.016	384.75
517.232	391.75
517.448	384.75
517.664	392.75
517.879	385.75
518.095	385.75
518.311	389.75
518.527	373.75
518.742	393.75
518.958	415.75
519.173	406.75
519.389	384.75
519.605	387.75
519.82	389.75
520.036	410.75
520.251	425.75
520.467	442.75
520.682	439.75
520.898	420.75
521.113	461.75
521.329	500.75
521.544	564.75
521.76	732.75
521.975	1172.75
522.19	1099.75
522.406	618.75
522.621	476.75
522.836	417.75
523.052	409.75
523.267	375.75
523.482	376.75
523.698	363.75
523.913	370.75
524.128	352.75
524.343	350.75
524.559	358.75
524.774	342.75
524.989	359.75
525.204	352.75
525.419	349.75
525.634	350.75
525.849	348.75
526.064	334.75
526.28	332.75
526.495	336.75
526.71	316.75
526.925	315.75
527.14	322.75
527.355	322.75
527.57	332.75
527.785	327.75
527.999	323.75
528.214	298.75
528.429	313.75
528.644	314.75
528.859	326.75
529.074	314.75
529.289	342.75
529.503	394.75
529.718	363.75
529.933	341.75
530.148	331.75
530.363	331.75
530.577	326.75
530.792	314.75
531.007	312.75
531.221	301.75
531.436	299.75
531.651	297.75
531.865	296.75
532.08	299.75
532.295	296.75
532.509	296.75
532.724	308.75
532.938	314.75
533.153	290.75
533.367	290.75
533.582	332.75
533.796	310.75
534.011	302.75
534.225	312.75
534.44	302.75
534.654	280.75
534.868	290.75
535.083	314.75
535.297	283.75
535.511	317.75
535.726	306.75
535.94	319.75
536.154	309.75
536.369	304.75
536.583	300.75
536.797	283.75
537.011	288.75
537.225	290.75
537.44	297.75
537.654	277.75
537.868	289.75
538.082	300.75
538.296	315.75
538.51	305.75
538.724	288.75
538.938	280.75
539.153	308.75
539.367	313.75
539.581	320.75
539.795	289.75
540.009	291.75
540.222	300.75
540.436	298.75
540.65	281.75
540.864	289.75
541.078	314.75
541.292	302.75
541.506	269.75
541.72	301.75
541.934	309.75
542.147	286.75
542.361	296.75
542.575	309.75
542.789	300.75
543.002	292.75
543.216	292.75
543.43	306.75
543.644	323.75
543.857	284.75
544.071	285.75
544.285	296.75
544.498	291.75
544.712	293.75
544.925	286.75
545.139	290.75
545.352	271.75
545.566	283.75
545.779	281.75
545.993	284.75
546.206	284.75
546.42	301.75
546.633	287.75
546.847	284.75
547.06	274.75
547.274	276.75
547.487	263.75
547.7	265.75
547.914	278.75
548.127	296.75
548.34	274.75
548.554	271.75
548.767	270.75
548.98	276.75
549.193	267.75
549.407	276.75
549.62	281.75
549.833	286.75
550.046	270.75
550.259	268.75
550.473	258.75
550.686	281.75
550.899	259.75
551.112	271.75
551.325	264.75
551.538	266.75
551.751	274.75
551.964	282.75
552.177	289.75
552.39	257.75
552.603	267.75
552.816	281.75
553.029	260.75
553.242	276.75
553.455	269.75
553.667	308.75
553.88	288.75
554.093	292.75
554.306	286.75
554.519	265.75
554.732	274.75
554.944	270.75
555.157	258.75
555.37	268.75
555.583	270.75
555.795	262.75
556.008	251.75
556.221	256.75
556.433	243.75
556.646	252.75
556.859	238.75
557.071	241.75
557.284	250.75
557.496	262.75
557.709	243.75
557.921	234.75
558.134	247.75
558.346	239.75
558.559	256.75
558.771	242.75
558.984	234.75
559.196	244.75
559.409	268.75
559.621	255.75
559.833	258.75
560.046	256.75
560.258	258.75
560.47	248.75
560.683	244.75
560.895	236.75
561.107	253.75
561.32	228.75
561.532	252.75
561.744	250.75
561.956	235.75
562.168	240.75
562.381	240.75
562.593	268.75
562.805	248.75
563.017	235.75
563.229	243.75
563.441	245.75
563.653	243.75
563.865	265.75
564.077	245.75
564.289	236.75
564.501	251.75
564.713	262.75
564.925	261.75
565.137	280.75
565.349	268.75
565.561	262.75
565.773	265.75
565.985	262.75
566.197	251.75
566.408	233.75
566.62	284.75
566.832	294.75
567.044	272.75
567.255	278.75
567.467	278.75
567.679	267.75
567.891	283.75
568.102	289.75
568.314	278.75
568.526	253.75
568.737	265.75
568.949	256.75
569.161	271.75
569.372	246.75
569.584	232.75
569.795	258.75
570.007	245.75
570.218	280.75
570.43	277.75
570.641	256.75
570.853	235.75
571.064	235.75
571.276	229.75
571.487	234.75
571.698	235.75
571.91	222.75
572.121	235.75
572.333	236.75
572.544	220.75
572.755	231.75
572.966	211.75
573.178	220.75
573.389	216.75
573.6	213.75
573.811	216.75
574.023	237.75
574.234	222.75
574.445	219.75
574.656	201.75
574.867	231.75
575.078	247.75
575.289	220.75
575.501	215.75
575.712	212.75
575.923	217.75
576.134	217.75
576.345	212.75
576.556	220.75
576.767	224.75
576.978	216.75
577.188	210.75
577.399	218.75
577.61	214.75
577.821	198.75
578.032	215.75
578.243	228.75
578.454	399.75
578.665	297.75
578.875	210.75
579.086	203.75
579.297	206.75
579.508	211.75
579.718	212.75
579.929	205.75
580.14	181.75
580.35	205.75
580.561	207.75
580.772	191.75
580.982	199.75
581.193	187.75
581.403	202.75
581.614	186.75
581.825	208.75
582.035	207.75
582.246	193.75
582.456	194.75
582.667	205.75
582.877	192.75
583.087	187.75
583.298	170.75
583.508	200.75
583.719	201.75
583.929	218.75
584.139	215.75
584.35	217.75
584.56	204.75
584.77	202.75
584.981	198.75
585.191	196.75
585.401	179.75
585.611	203.75
585.821	199.75
586.032	202.75
586.242	198.75
586.452	197.75
586.662	204.75
586.872	183.75
587.082	198.75
587.292	194.75
587.502	198.75
587.713	221.75
587.923	192.75
588.133	200.75
588.343	194.75
588.553	187.75
588.762	213.75
588.972	206.75
589.182	196.75
589.392	196.75
589.602	198.75
589.812	192.75
590.022	194.75
590.232	185.75
590.441	204.75
590.651	192.75
590.861	191.75
591.071	189.75
591.281	174.75
591.49	195.75
591.7	207.75
591.91	195.75
592.119	182.75
592.329	209.75
592.539	205.75
592.748	198.75
592.958	188.75
593.167	215.75
593.377	212.75
593.587	210.75
593.796	216.75
594.006	185.75
594.215	201.75
594.424	186.75
594.634	214.75
594.843	182.75
595.053	178.75
595.262	179.75
595.472	197.75
595.681	204.75
595.89	189.75
596.1	196.75
596.309	179.75
596.518	184.75
596.727	192.75
596.937	201.75
597.146	185.75
597.355	169.75
597.564	191.75
597.774	182.75
597.983	188.75
598.192	169.75
598.401	186.75
598.61	182.75
598.819	192.75
599.028	171.75
599.237	165.75
599.446	192.75
599.655	172.75
599.864	167.75
600.073	163.75
600.282	186.75
600.491	164.75
600.7	160.75
600.909	184.75
601.118	172.75
601.327	165.75
601.536	184.75
601.745	175.75
601.953	172.75
602.162	188.75
602.371	183.75
602.58	165.75
602.789	167.75
602.997	181.75
603.206	166.75
603.415	180.75
603.623	168.75
603.832	176.75
604.041	174.75
604.249	173.75
604.458	179.75
604.666	171.75
604.875	176.75
605.084	175.75
605.292	162.75
605.501	165.75
605.709	193.75
605.918	170.75
606.126	175.75
606.334	162.75
606.543	172.75
606.751	166.75
606.96	177.75
607.168	152.75
607.376	170.75
607.585	171.75
607.793	174.75
608.001	179.75
608.21	171.75
608.418	170.75
608.626	166.75
608.834	169.75
609.043	155.75
609.251	165.75
609.459	162.75
609.667	180.75
609.875	164.75
610.083	163.75
610.291	166.75
610.499	168.75
610.707	164.75
610.916	180.75
611.124	176.75
611.332	177.75
611.54	206.75
611.748	187.75
611.955	155.75
612.163	184.75
612.371	168.75
612.579	164.75
612.787	164.75
612.995	170.75
613.203	176.75
613.411	162.75
613.618	154.75
613.826	176.75
614.034	161.75
614.242	156.75
614.449	175.75
614.657	166.75
614.865	161.75
615.072	168.75
615.28	166.75
615.488	164.75
615.695	156.75
615.903	164.75
616.111	155.75
616.318	157.75
616.526	173.75
616.733	156.75
616.941	160.75
617.148	165.75
617.356	153.75
617.563	156.75
617.771	154.75
617.978	175.75
618.185	168.75
618.393	146.75
618.6	164.75
618.807	160.75
619.015	169.75
619.222	169.75
619.429	158.75
619.637	178.75
619.844	146.75
620.051	167.75
620.258	170.75
620.466	174.75
620.673	145.75
620.88	148.75
621.087	161.75
621.294	161.75
621.501	164.75
621.708	185.75
621.915	166.75
622.122	148.75
622.329	163.75
622.536	158.75
622.743	151.75
622.95	165.75
623.157	160.75
623.364	158.75
623.571	144.75
623.778	150.75
623.985	157.75
624.192	147.75
624.399	151.75
624.606	172.75
624.812	145.75
625.019	164.75
625.226	147.75
625.433	161.75
625.639	154.75
625.846	156.75
626.053	157.75
626.259	148.75
626.466	154.75
626.673	152.75
626.879	143.75
627.086	139.75
627.293	146.75
627.499	152.75
627.706	148.75
627.912	146.75
628.119	142.75
628.325	155.75
628.532	154.75
628.738	145.75
628.945	147.75
629.151	157.75
629.357	152.75
629.564	137.75
629.77	132.75
629.976	135.75
630.183	138.75
630.389	150.75
630.595	150.75
630.802	148.75
631.008	142.75
631.214	155.75
631.42	151.75
631.627	164.75
631.833	126.75
632.039	151.75
632.245	140.75
632.451	124.75
632.657	145.75
632.863	155.75
633.069	137.75
633.275	142.75
633.481	139.75
633.688	143.75
633.893	142.75
634.099	139.75
634.305	124.75
634.511	134.75
634.717	130.75
634.923	142.75
635.129	141.75
635.335	136.75
635.541	139.75
635.747	135.75
635.952	128.75
636.158	139.75
636.364	146.75
636.57	142.75
636.775	130.75
636.981	145.75
637.187	128.75
637.392	147.75
637.598	142.75
637.804	134.75
638.009	134.75
638.215	134.75
638.421	153.75
638.626	136.75
638.832	128.75
639.037	146.75
639.243	138.75
639.448	129.75
639.654	130.75
639.859	134.75
640.065	135.75
640.27	146.75
640.475	146.75
640.681	135.75
640.886	142.75
641.091	125.75
641.297	136.75
641.502	125.75
641.707	142.75
641.913	145.75
642.118	142.75
642.323	122.75
642.528	130.75
642.733	125.75
642.939	135.75
643.144	146.75
643.349	144.75
643.554	128.75
643.759	137.75
643.964	122.75
644.169	129.75
644.374	118.75
644.579	131.75
644.784	126.75
644.989	122.75
645.194	134.75
645.399	143.75
645.604	126.75
645.809	130.75
646.014	124.75
646.219	130.75
646.423	126.75
646.628	132.75
646.833	136.75
647.038	133.75
647.243	132.75
647.447	131.75
647.652	146.75
647.857	137.75
648.062	138.75
648.266	136.75
648.471	125.75
648.676	122.75
648.88	138.75
649.085	140.75
649.289	130.75
649.494	135.75
649.698	135.75
649.903	151.75
650.107	130.75
650.312	142.75
650.516	136.75
650.721	130.75
650.925	122.75
651.13	128.75
651.334	121.75
651.539	130.75
651.743	134.75
651.947	116.75
652.152	133.75
652.356	110.75
652.56	119.75
652.764	116.75
652.969	102.75
653.173	117.75
653.377	109.75
653.581	118.75
653.785	105.75
653.99	115.75
654.194	117.75
654.398	119.75
654.602	121.75
654.806	114.75
655.01	124.75
655.214	127.75
655.418	121.75
655.622	116.75
655.826	125.75
656.03	113.75
656.234	124.75
656.438	120.75
656.642	119.75
656.846	125.75
657.049	117.75
657.253	102.75
657.457	109.75
657.661	97.75
657.865	116.75
658.068	104.75
658.272	112.75
658.476	115.75
658.68	99.75
658.883	91.75
659.087	95.75
659.291	98.75
659.494	93.75
659.698	86.75
659.901	100.75
660.105	99.75
660.309	99.75
660.512	89.75
660.716	94.75
660.919	103.75
661.123	95.75
661.326	107.75
661.53	87.75
661.733	89.75
661.936	83.75
662.14	97.75
662.343	89.75
662.546	86.75
662.75	97.75
662.953	90.75
663.156	73.75
663.36	78.75
663.563	86.75
663.766	82.75
663.969	81.75
664.173	96.75
664.376	89.75
664.579	95.75
664.782	86.75
664.985	77.75
665.188	88.75
665.391	79.75
665.594	92.75
665.797	91.75
666	93.75
666.203	89.75
666.406	77.75
666.609	91.75
666.812	97.75
667.015	83.75
667.218	91.75
667.421	85.75
667.624	87.75
667.827	69.75
668.03	91.75
668.232	76.75
668.435	80.75
668.638	69.75
668.841	92.75
669.043	78.75
669.246	84.75
669.449	77.75
669.651	84.75
669.854	78.75
670.057	76.75
670.259	81.75
670.462	79.75
670.665	67.75
670.867	70.75
671.07	73.75
671.272	89.75
671.475	88.75
671.677	77.75
671.88	89.75
672.082	85.75
672.284	88.75
672.487	80.75
672.689	80.75
672.892	89.75
