Data from 1982.PennyLincolnUp.Lamp.En5.5.200Scan.071819.P1_HRD10591_16-45-12-962.txt Node
Date: Thu Jul 18 16:45:12 EDT 2019
User: cochatt
Spectrometer: HR+D1059
Trigger mode: 1
Integration Time (sec): 1.000000E-1
Scans to average: 1
Electric dark correction enabled: true
Nonlinearity correction enabled: false
Boxcar width: 0
XAxis mode: Wavelengths
Number of Pixels in Spectrum: 2048
>>>>>Begin Spectral Data<<<<<
223.165	-9.62
223.4	-9.62
223.635	-9.62
223.869	-10.62
224.104	-16.62
224.338	-25.62
224.573	-17.62
224.808	-22.62
225.042	-10.62
225.277	-16.62
225.511	-9.62
225.746	11.38
225.98	17.38
226.215	9.38
226.449	10.38
226.683	22.38
226.918	25.38
227.152	43.38
227.387	35.38
227.621	41.38
227.856	47.38
228.09	30.38
228.324	56.38
228.559	49.38
228.793	67.38
229.027	72.38
229.262	102.38
229.496	100.38
229.73	113.38
229.964	125.38
230.199	112.38
230.433	94.38
230.667	108.38
230.901	108.38
231.136	96.38
231.37	81.38
231.604	97.38
231.838	108.38
232.072	103.38
232.306	103.38
232.541	115.38
232.775	99.38
233.009	115.38
233.243	101.38
233.477	107.38
233.711	110.38
233.945	101.38
234.179	105.38
234.413	112.38
234.647	96.38
234.881	108.38
235.115	112.38
235.349	101.38
235.583	102.38
235.817	113.38
236.051	111.38
236.285	103.38
236.519	108.38
236.753	110.38
236.987	128.38
237.221	166.38
237.455	156.38
237.689	157.38
237.922	124.38
238.156	116.38
238.39	117.38
238.624	99.38
238.858	93.38
239.091	111.38
239.325	100.38
239.559	90.38
239.793	100.38
240.027	107.38
240.26	124.38
240.494	122.38
240.728	115.38
240.961	128.38
241.195	126.38
241.429	128.38
241.662	122.38
241.896	122.38
242.13	108.38
242.363	117.38
242.597	115.38
242.83	110.38
243.064	117.38
243.298	115.38
243.531	121.38
243.765	111.38
243.998	109.38
244.232	110.38
244.465	130.38
244.699	110.38
244.932	135.38
245.166	117.38
245.399	127.38
245.633	133.38
245.866	122.38
246.099	124.38
246.333	131.38
246.566	119.38
246.8	131.38
247.033	139.38
247.266	128.38
247.5	113.38
247.733	133.38
247.966	131.38
248.2	146.38
248.433	134.38
248.666	123.38
248.899	140.38
249.133	146.38
249.366	158.38
249.599	143.38
249.832	140.38
250.066	150.38
250.299	157.38
250.532	156.38
250.765	158.38
250.998	162.38
251.231	172.38
251.465	169.38
251.698	158.38
251.931	160.38
252.164	150.38
252.397	152.38
252.63	156.38
252.863	158.38
253.096	168.38
253.329	168.38
253.562	166.38
253.795	179.38
254.028	151.38
254.261	159.38
254.494	183.38
254.727	195.38
254.96	197.38
255.193	190.38
255.426	180.38
255.659	181.38
255.892	169.38
256.124	173.38
256.357	174.38
256.59	164.38
256.823	151.38
257.056	167.38
257.289	145.38
257.521	163.38
257.754	167.38
257.987	155.38
258.22	166.38
258.452	171.38
258.685	158.38
258.918	161.38
259.151	165.38
259.383	162.38
259.616	182.38
259.849	161.38
260.081	187.38
260.314	196.38
260.547	203.38
260.779	177.38
261.012	183.38
261.244	189.38
261.477	172.38
261.71	174.38
261.942	179.38
262.175	170.38
262.407	166.38
262.64	151.38
262.872	181.38
263.105	152.38
263.337	160.38
263.57	150.38
263.802	166.38
264.035	165.38
264.267	158.38
264.499	157.38
264.732	157.38
264.964	165.38
265.197	167.38
265.429	156.38
265.661	155.38
265.894	172.38
266.126	178.38
266.358	166.38
266.591	156.38
266.823	167.38
267.055	179.38
267.287	174.38
267.52	174.38
267.752	160.38
267.984	178.38
268.216	166.38
268.448	171.38
268.681	179.38
268.913	190.38
269.145	191.38
269.377	190.38
269.609	206.38
269.841	207.38
270.073	204.38
270.306	203.38
270.538	206.38
270.77	202.38
271.002	218.38
271.234	200.38
271.466	219.38
271.698	204.38
271.93	223.38
272.162	240.38
272.394	248.38
272.626	213.38
272.858	203.38
273.09	201.38
273.322	197.38
273.553	202.38
273.785	193.38
274.017	205.38
274.249	192.38
274.481	201.38
274.713	199.38
274.945	204.38
275.176	204.38
275.408	200.38
275.64	185.38
275.872	183.38
276.104	201.38
276.335	207.38
276.567	211.38
276.799	192.38
277.031	227.38
277.262	234.38
277.494	220.38
277.726	219.38
277.957	203.38
278.189	199.38
278.421	199.38
278.652	194.38
278.884	199.38
279.115	198.38
279.347	194.38
279.579	192.38
279.81	204.38
280.042	202.38
280.273	197.38
280.505	185.38
280.736	194.38
280.968	195.38
281.199	177.38
281.431	185.38
281.662	198.38
281.894	193.38
282.125	209.38
282.356	205.38
282.588	230.38
282.819	242.38
283.051	202.38
283.282	203.38
283.513	205.38
283.745	182.38
283.976	183.38
284.207	208.38
284.439	203.38
284.67	201.38
284.901	183.38
285.132	200.38
285.364	208.38
285.595	181.38
285.826	193.38
286.057	201.38
286.288	201.38
286.52	213.38
286.751	204.38
286.982	201.38
287.213	191.38
287.444	206.38
287.675	209.38
287.906	222.38
288.138	235.38
288.369	213.38
288.6	240.38
288.831	205.38
289.062	206.38
289.293	217.38
289.524	190.38
289.755	210.38
289.986	200.38
290.217	207.38
290.448	203.38
290.679	205.38
290.91	214.38
291.141	213.38
291.371	202.38
291.602	215.38
291.833	203.38
292.064	208.38
292.295	215.38
292.526	216.38
292.757	208.38
292.987	203.38
293.218	218.38
293.449	212.38
293.68	214.38
293.91	239.38
294.141	200.38
294.372	221.38
294.603	220.38
294.833	186.38
295.064	218.38
295.295	194.38
295.525	205.38
295.756	216.38
295.987	230.38
296.217	237.38
296.448	265.38
296.679	240.38
296.909	227.38
297.14	227.38
297.37	207.38
297.601	213.38
297.831	208.38
298.062	195.38
298.292	211.38
298.523	197.38
298.753	222.38
298.984	229.38
299.214	204.38
299.445	201.38
299.675	229.38
299.905	217.38
300.136	244.38
300.366	221.38
300.597	207.38
300.827	222.38
301.057	230.38
301.288	229.38
301.518	228.38
301.748	235.38
301.979	248.38
302.209	224.38
302.439	226.38
302.669	224.38
302.9	216.38
303.13	246.38
303.36	243.38
303.59	228.38
303.82	239.38
304.051	247.38
304.281	231.38
304.511	224.38
304.741	237.38
304.971	241.38
305.201	227.38
305.431	222.38
305.661	217.38
305.891	224.38
306.121	231.38
306.352	222.38
306.582	234.38
306.812	221.38
307.042	235.38
307.272	220.38
307.502	235.38
307.731	225.38
307.961	236.38
308.191	257.38
308.421	232.38
308.651	251.38
308.881	255.38
309.111	245.38
309.341	270.38
309.571	247.38
309.8	245.38
310.03	251.38
310.26	263.38
310.49	253.38
310.72	256.38
310.949	262.38
311.179	259.38
311.409	279.38
311.639	263.38
311.868	250.38
312.098	244.38
312.328	265.38
312.557	275.38
312.787	298.38
313.017	274.38
313.246	265.38
313.476	263.38
313.706	258.38
313.935	275.38
314.165	281.38
314.394	274.38
314.624	272.38
314.853	268.38
315.083	281.38
315.312	267.38
315.542	271.38
315.771	264.38
316.001	261.38
316.23	265.38
316.46	260.38
316.689	262.38
316.919	270.38
317.148	262.38
317.377	259.38
317.607	271.38
317.836	251.38
318.065	279.38
318.295	270.38
318.524	262.38
318.753	262.38
318.983	272.38
319.212	269.38
319.441	265.38
319.67	267.38
319.9	263.38
320.129	268.38
320.358	264.38
320.587	255.38
320.816	293.38
321.046	281.38
321.275	283.38
321.504	267.38
321.733	285.38
321.962	303.38
322.191	285.38
322.42	298.38
322.649	313.38
322.878	315.38
323.108	302.38
323.337	324.38
323.566	357.38
323.795	375.38
324.024	405.38
324.253	501.38
324.482	711.38
324.71	1040.38
324.939	1381.38
325.168	1136.38
325.397	613.38
325.626	422.38
325.855	376.38
326.084	358.38
326.313	350.38
326.542	371.38
326.77	402.38
326.999	459.38
327.228	636.38
327.457	939.38
327.686	984.38
327.914	684.38
328.143	474.38
328.372	426.38
328.6	402.38
328.829	364.38
329.058	389.38
329.287	390.38
329.515	360.38
329.744	363.38
329.972	345.38
330.201	356.38
330.43	365.38
330.658	411.38
330.887	401.38
331.115	389.38
331.344	356.38
331.572	326.38
331.801	323.38
332.03	324.38
332.258	317.38
332.486	311.38
332.715	284.38
332.943	322.38
333.172	294.38
333.4	311.38
333.629	309.38
333.857	324.38
334.085	314.38
334.314	332.38
334.542	324.38
334.771	358.38
334.999	328.38
335.227	322.38
335.455	316.38
335.684	319.38
335.912	293.38
336.14	319.38
336.369	295.38
336.597	297.38
336.825	293.38
337.053	314.38
337.281	283.38
337.51	296.38
337.738	307.38
337.966	302.38
338.194	304.38
338.422	310.38
338.65	283.38
338.878	282.38
339.106	289.38
339.334	293.38
339.562	305.38
339.79	299.38
340.018	301.38
340.246	291.38
340.474	312.38
340.702	300.38
340.93	279.38
341.158	281.38
341.386	270.38
341.614	294.38
341.842	300.38
342.07	275.38
342.298	301.38
342.526	280.38
342.754	286.38
342.981	274.38
343.209	285.38
343.437	293.38
343.665	293.38
343.893	300.38
344.12	307.38
344.348	287.38
344.576	295.38
344.804	327.38
345.031	285.38
345.259	304.38
345.487	305.38
345.714	293.38
345.942	282.38
346.17	283.38
346.397	278.38
346.625	305.38
346.853	300.38
347.08	269.38
347.308	293.38
347.535	304.38
347.763	298.38
347.99	286.38
348.218	304.38
348.445	301.38
348.673	300.38
348.9	287.38
349.128	263.38
349.355	271.38
349.583	291.38
349.81	251.38
350.037	283.38
350.265	257.38
350.492	279.38
350.72	291.38
350.947	281.38
351.174	288.38
351.402	309.38
351.629	284.38
351.856	287.38
352.083	285.38
352.311	291.38
352.538	293.38
352.765	286.38
352.992	272.38
353.22	291.38
353.447	275.38
353.674	278.38
353.901	263.38
354.128	265.38
354.355	259.38
354.583	269.38
354.81	284.38
355.037	261.38
355.264	253.38
355.491	259.38
355.718	254.38
355.945	255.38
356.172	255.38
356.399	263.38
356.626	275.38
356.853	248.38
357.08	251.38
357.307	265.38
357.534	245.38
357.761	256.38
357.988	251.38
358.215	260.38
358.441	255.38
358.668	283.38
358.895	248.38
359.122	268.38
359.349	274.38
359.576	277.38
359.802	295.38
360.029	303.38
360.256	332.38
360.483	302.38
360.709	277.38
360.936	308.38
361.163	284.38
361.39	277.38
361.616	283.38
361.843	293.38
362.07	284.38
362.296	278.38
362.523	257.38
362.749	278.38
362.976	287.38
363.203	265.38
363.429	241.38
363.656	261.38
363.882	283.38
364.109	253.38
364.335	281.38
364.562	255.38
364.788	282.38
365.015	262.38
365.241	271.38
365.468	281.38
365.694	280.38
365.92	268.38
366.147	249.38
366.373	263.38
366.599	261.38
366.826	275.38
367.052	277.38
367.278	255.38
367.505	249.38
367.731	294.38
367.957	266.38
368.184	262.38
368.41	273.38
368.636	264.38
368.862	265.38
369.089	276.38
369.315	250.38
369.541	242.38
369.767	249.38
369.993	280.38
370.219	273.38
370.445	258.38
370.672	272.38
370.898	267.38
371.124	245.38
371.35	255.38
371.576	254.38
371.802	252.38
372.028	267.38
372.254	252.38
372.48	265.38
372.706	243.38
372.932	261.38
373.158	249.38
373.384	265.38
373.61	269.38
373.835	267.38
374.061	281.38
374.287	277.38
374.513	271.38
374.739	257.38
374.965	251.38
375.191	265.38
375.416	269.38
375.642	257.38
375.868	262.38
376.094	271.38
376.319	258.38
376.545	250.38
376.771	247.38
376.997	245.38
377.222	261.38
377.448	280.38
377.674	261.38
377.899	244.38
378.125	256.38
378.35	260.38
378.576	265.38
378.802	270.38
379.027	263.38
379.253	243.38
379.478	248.38
379.704	245.38
379.929	259.38
380.155	263.38
380.38	255.38
380.606	260.38
380.831	253.38
381.057	273.38
381.282	267.38
381.507	255.38
381.733	267.38
381.958	249.38
382.184	266.38
382.409	280.38
382.634	247.38
382.86	257.38
383.085	266.38
383.31	257.38
383.535	254.38
383.761	260.38
383.986	259.38
384.211	262.38
384.436	273.38
384.662	263.38
384.887	276.38
385.112	276.38
385.337	258.38
385.562	270.38
385.787	251.38
386.013	284.38
386.238	296.38
386.463	277.38
386.688	282.38
386.913	265.38
387.138	257.38
387.363	252.38
387.588	283.38
387.813	289.38
388.038	240.38
388.263	270.38
388.488	267.38
388.713	277.38
388.938	278.38
389.163	272.38
389.387	280.38
389.612	264.38
389.837	294.38
390.062	274.38
390.287	263.38
390.512	282.38
390.736	260.38
390.961	259.38
391.186	271.38
391.411	247.38
391.636	269.38
391.86	271.38
392.085	273.38
392.31	264.38
392.534	265.38
392.759	272.38
392.984	278.38
393.208	275.38
393.433	288.38
393.658	280.38
393.882	274.38
394.107	287.38
394.331	266.38
394.556	253.38
394.78	263.38
395.005	271.38
395.229	275.38
395.454	273.38
395.678	277.38
395.903	282.38
396.127	312.38
396.352	290.38
396.576	282.38
396.801	286.38
397.025	273.38
397.249	273.38
397.474	292.38
397.698	284.38
397.922	285.38
398.147	281.38
398.371	271.38
398.595	291.38
398.82	295.38
399.044	297.38
399.268	294.38
399.492	304.38
399.717	325.38
399.941	347.38
400.165	343.38
400.389	355.38
400.613	344.38
400.837	322.38
401.062	314.38
401.286	310.38
401.51	290.38
401.734	295.38
401.958	302.38
402.182	308.38
402.406	319.38
402.63	304.38
402.854	315.38
403.078	291.38
403.302	317.38
403.526	286.38
403.75	317.38
403.974	295.38
404.198	297.38
404.422	312.38
404.645	300.38
404.869	299.38
405.093	330.38
405.317	341.38
405.541	341.38
405.765	329.38
405.988	338.38
406.212	327.38
406.436	341.38
406.66	359.38
406.883	345.38
407.107	349.38
407.331	370.38
407.555	399.38
407.778	374.38
408.002	357.38
408.226	338.38
408.449	315.38
408.673	321.38
408.896	331.38
409.12	360.38
409.344	345.38
409.567	317.38
409.791	323.38
410.014	312.38
410.238	301.38
410.461	287.38
410.685	308.38
410.908	325.38
411.132	337.38
411.355	348.38
411.578	338.38
411.802	309.38
412.025	282.38
412.249	315.38
412.472	314.38
412.695	340.38
412.919	326.38
413.142	304.38
413.365	300.38
413.589	287.38
413.812	300.38
414.035	287.38
414.258	293.38
414.482	293.38
414.705	285.38
414.928	275.38
415.151	300.38
415.374	296.38
415.597	303.38
415.821	298.38
416.044	284.38
416.267	294.38
416.49	283.38
416.713	271.38
416.936	280.38
417.159	281.38
417.382	276.38
417.605	296.38
417.828	314.38
418.051	300.38
418.274	285.38
418.497	295.38
418.72	311.38
418.943	280.38
419.166	300.38
419.389	296.38
419.611	298.38
419.834	294.38
420.057	293.38
420.28	302.38
420.503	287.38
420.726	286.38
420.948	304.38
421.171	339.38
421.394	343.38
421.617	317.38
421.839	313.38
422.062	299.38
422.285	320.38
422.507	335.38
422.73	377.38
422.953	372.38
423.175	320.38
423.398	319.38
423.621	304.38
423.843	322.38
424.066	337.38
424.288	315.38
424.511	330.38
424.733	366.38
424.956	384.38
425.178	401.38
425.401	360.38
425.623	407.38
425.846	332.38
426.068	320.38
426.291	314.38
426.513	315.38
426.735	346.38
426.958	355.38
427.18	400.38
427.402	471.38
427.625	514.38
427.847	456.38
428.069	400.38
428.292	343.38
428.514	321.38
428.736	323.38
428.958	313.38
429.181	313.38
429.403	319.38
429.625	313.38
429.847	342.38
430.069	376.38
430.292	355.38
430.514	309.38
430.736	291.38
430.958	294.38
431.18	287.38
431.402	294.38
431.624	283.38
431.846	268.38
432.068	279.38
432.29	287.38
432.512	299.38
432.734	286.38
432.956	297.38
433.178	295.38
433.4	301.38
433.622	285.38
433.844	290.38
434.066	303.38
434.287	271.38
434.509	275.38
434.731	288.38
434.953	293.38
435.175	318.38
435.397	327.38
435.618	333.38
435.84	365.38
436.062	392.38
436.284	432.38
436.505	356.38
436.727	334.38
436.949	315.38
437.17	293.38
437.392	298.38
437.614	333.38
437.835	324.38
438.057	397.38
438.278	442.38
438.5	429.38
438.721	486.38
438.943	452.38
439.165	368.38
439.386	330.38
439.608	346.38
439.829	334.38
440.05	349.38
440.272	351.38
440.493	346.38
440.715	314.38
440.936	334.38
441.158	296.38
441.379	334.38
441.6	326.38
441.822	317.38
442.043	353.38
442.264	369.38
442.486	406.38
442.707	343.38
442.928	341.38
443.149	351.38
443.371	355.38
443.592	378.38
443.813	421.38
444.034	419.38
444.255	363.38
444.476	353.38
444.698	326.38
444.919	332.38
445.14	401.38
445.361	383.38
445.582	355.38
445.803	378.38
446.024	441.38
446.245	464.38
446.466	407.38
446.687	357.38
446.908	348.38
447.129	303.38
447.35	309.38
447.571	291.38
447.792	291.38
448.013	310.38
448.234	313.38
448.455	348.38
448.675	405.38
448.896	469.38
449.117	392.38
449.338	390.38
449.559	457.38
449.779	507.38
450	409.38
450.221	346.38
450.442	325.38
450.662	308.38
450.883	309.38
451.104	325.38
451.324	302.38
451.545	294.38
451.766	271.38
451.986	279.38
452.207	272.38
452.428	270.38
452.648	258.38
452.869	267.38
453.089	270.38
453.31	283.38
453.53	288.38
453.751	294.38
453.971	272.38
454.192	290.38
454.412	280.38
454.633	267.38
454.853	281.38
455.073	281.38
455.294	287.38
455.514	308.38
455.734	319.38
455.955	282.38
456.175	272.38
456.395	255.38
456.616	258.38
456.836	276.38
457.056	262.38
457.276	274.38
457.497	265.38
457.717	267.38
457.937	255.38
458.157	255.38
458.377	255.38
458.598	268.38
458.818	317.38
459.038	352.38
459.258	359.38
459.478	311.38
459.698	287.38
459.918	287.38
460.138	276.38
460.358	285.38
460.578	299.38
460.798	282.38
461.018	296.38
461.238	281.38
461.458	282.38
461.678	280.38
461.898	287.38
462.118	298.38
462.338	281.38
462.558	265.38
462.777	282.38
462.997	301.38
463.217	288.38
463.437	312.38
463.657	299.38
463.876	294.38
464.096	309.38
464.316	279.38
464.536	301.38
464.755	299.38
464.975	311.38
465.195	333.38
465.414	378.38
465.634	325.38
465.854	287.38
466.073	301.38
466.293	269.38
466.512	264.38
466.732	272.38
466.951	269.38
467.171	283.38
467.391	295.38
467.61	307.38
467.829	294.38
468.049	298.38
468.268	269.38
468.488	281.38
468.707	284.38
468.927	268.38
469.146	267.38
469.365	274.38
469.585	282.38
469.804	265.38
470.023	296.38
470.243	275.38
470.462	282.38
470.681	281.38
470.901	296.38
471.12	280.38
471.339	277.38
471.558	284.38
471.777	296.38
471.997	291.38
472.216	277.38
472.435	312.38
472.654	279.38
472.873	300.38
473.092	287.38
473.311	280.38
473.53	286.38
473.749	287.38
473.968	330.38
474.187	381.38
474.406	366.38
474.625	318.38
474.844	297.38
475.063	283.38
475.282	281.38
475.501	286.38
475.72	298.38
475.939	292.38
476.158	294.38
476.377	280.38
476.596	288.38
476.814	295.38
477.033	306.38
477.252	296.38
477.471	300.38
477.69	309.38
477.908	301.38
478.127	303.38
478.346	292.38
478.564	329.38
478.783	304.38
479.002	321.38
479.22	313.38
479.439	340.38
479.658	331.38
479.876	330.38
480.095	335.38
480.313	345.38
480.532	334.38
480.751	339.38
480.969	346.38
481.188	368.38
481.406	367.38
481.624	346.38
481.843	349.38
482.061	320.38
482.28	330.38
482.498	321.38
482.717	348.38
482.935	328.38
483.153	311.38
483.372	327.38
483.59	307.38
483.808	330.38
484.027	318.38
484.245	321.38
484.463	340.38
484.681	332.38
484.9	346.38
485.118	353.38
485.336	326.38
485.554	345.38
485.772	340.38
485.99	322.38
486.209	333.38
486.427	326.38
486.645	337.38
486.863	343.38
487.081	343.38
487.299	340.38
487.517	359.38
487.735	358.38
487.953	369.38
488.171	352.38
488.389	338.38
488.607	331.38
488.825	365.38
489.043	372.38
489.261	363.38
489.479	343.38
489.696	349.38
489.914	357.38
490.132	342.38
490.35	362.38
490.568	338.38
490.786	354.38
491.003	372.38
491.221	374.38
491.439	384.38
491.657	387.38
491.874	392.38
492.092	394.38
492.31	376.38
492.527	397.38
492.745	387.38
492.963	382.38
493.18	389.38
493.398	404.38
493.615	396.38
493.833	405.38
494.05	409.38
494.268	419.38
494.485	400.38
494.703	414.38
494.92	412.38
495.138	412.38
495.355	390.38
495.573	413.38
495.79	413.38
496.008	403.38
496.225	411.38
496.442	415.38
496.66	426.38
496.877	441.38
497.094	402.38
497.312	401.38
497.529	420.38
497.746	435.38
497.963	411.38
498.181	430.38
498.398	438.38
498.615	427.38
498.832	445.38
499.049	442.38
499.267	457.38
499.484	461.38
499.701	464.38
499.918	459.38
500.135	494.38
500.352	503.38
500.569	494.38
500.786	506.38
501.003	500.38
501.22	500.38
501.437	512.38
501.654	464.38
501.871	490.38
502.088	484.38
502.305	462.38
502.522	436.38
502.739	434.38
502.956	431.38
503.172	422.38
503.389	427.38
503.606	410.38
503.823	393.38
504.04	426.38
504.256	413.38
504.473	380.38
504.69	381.38
504.907	385.38
505.123	384.38
505.34	391.38
505.557	393.38
505.773	381.38
505.99	393.38
506.207	381.38
506.423	373.38
506.64	383.38
506.856	379.38
507.073	371.38
507.289	379.38
507.506	393.38
507.722	393.38
507.939	389.38
508.155	376.38
508.372	366.38
508.588	357.38
508.805	374.38
509.021	387.38
509.238	367.38
509.454	383.38
509.67	389.38
509.887	381.38
510.103	377.38
510.319	389.38
510.536	448.38
510.752	703.38
510.968	558.38
511.184	389.38
511.401	355.38
511.617	379.38
511.833	366.38
512.049	378.38
512.265	365.38
512.481	366.38
512.698	337.38
512.914	357.38
513.13	355.38
513.346	363.38
513.562	361.38
513.778	362.38
513.994	359.38
514.21	364.38
514.426	391.38
514.642	396.38
514.858	447.38
515.074	431.38
515.29	492.38
515.506	742.38
515.721	615.38
515.937	431.38
516.153	391.38
516.369	379.38
516.585	368.38
516.801	356.38
517.016	357.38
517.232	385.38
517.448	355.38
517.664	372.38
517.879	357.38
518.095	369.38
518.311	364.38
518.527	374.38
518.742	375.38
518.958	358.38
519.173	374.38
519.389	358.38
519.605	348.38
519.82	355.38
520.036	351.38
520.251	375.38
520.467	395.38
520.682	382.38
520.898	384.38
521.113	394.38
521.329	417.38
521.544	485.38
521.76	629.38
521.975	961.38
522.19	934.38
522.406	509.38
522.621	395.38
522.836	387.38
523.052	359.38
523.267	360.38
523.482	341.38
523.698	344.38
523.913	350.38
524.128	343.38
524.343	326.38
524.559	325.38
524.774	304.38
524.989	335.38
525.204	306.38
525.419	328.38
525.634	302.38
525.849	292.38
526.064	296.38
526.28	320.38
526.495	307.38
526.71	299.38
526.925	288.38
527.14	304.38
527.355	299.38
527.57	303.38
527.785	288.38
527.999	278.38
528.214	282.38
528.429	283.38
528.644	294.38
528.859	295.38
529.074	305.38
529.289	321.38
529.503	344.38
529.718	360.38
529.933	324.38
530.148	295.38
530.363	291.38
530.577	290.38
530.792	307.38
531.007	303.38
531.221	283.38
531.436	291.38
531.651	292.38
531.865	289.38
532.08	291.38
532.295	296.38
532.509	300.38
532.724	275.38
532.938	284.38
533.153	258.38
533.367	256.38
533.582	304.38
533.796	287.38
534.011	283.38
534.225	278.38
534.44	278.38
534.654	282.38
534.868	283.38
535.083	288.38
535.297	286.38
535.511	282.38
535.726	280.38
535.94	299.38
536.154	286.38
536.369	275.38
536.583	281.38
536.797	271.38
537.011	255.38
537.225	270.38
537.44	277.38
537.654	265.38
537.868	261.38
538.082	267.38
538.296	269.38
538.51	268.38
538.724	279.38
538.938	259.38
539.153	287.38
539.367	292.38
539.581	282.38
539.795	271.38
540.009	280.38
540.222	274.38
540.436	279.38
540.65	295.38
540.864	273.38
541.078	285.38
541.292	296.38
541.506	279.38
541.72	270.38
541.934	287.38
542.147	284.38
542.361	274.38
542.575	276.38
542.789	276.38
543.002	277.38
543.216	256.38
543.43	288.38
543.644	285.38
543.857	282.38
544.071	271.38
544.285	265.38
544.498	291.38
544.712	279.38
544.925	284.38
545.139	294.38
545.352	272.38
545.566	268.38
545.779	273.38
545.993	264.38
546.206	276.38
546.42	293.38
546.633	263.38
546.847	271.38
547.06	261.38
547.274	234.38
547.487	262.38
547.7	274.38
547.914	267.38
548.127	259.38
548.34	252.38
548.554	259.38
548.767	257.38
548.98	247.38
549.193	263.38
549.407	263.38
549.62	269.38
549.833	260.38
550.046	271.38
550.259	257.38
550.473	251.38
550.686	248.38
550.899	261.38
551.112	256.38
551.325	240.38
551.538	250.38
551.751	257.38
551.964	254.38
552.177	266.38
552.39	261.38
552.603	257.38
552.816	270.38
553.029	252.38
553.242	250.38
553.455	260.38
553.667	283.38
553.88	274.38
554.093	252.38
554.306	271.38
554.519	272.38
554.732	255.38
554.944	235.38
555.157	257.38
555.37	261.38
555.583	245.38
555.795	256.38
556.008	261.38
556.221	259.38
556.433	238.38
556.646	247.38
556.859	243.38
557.071	254.38
557.284	230.38
557.496	255.38
557.709	224.38
557.921	234.38
558.134	221.38
558.346	233.38
558.559	248.38
558.771	226.38
558.984	246.38
559.196	239.38
559.409	227.38
559.621	240.38
559.833	243.38
560.046	217.38
560.258	232.38
560.47	232.38
560.683	239.38
560.895	250.38
561.107	247.38
561.32	233.38
561.532	230.38
561.744	241.38
561.956	232.38
562.168	256.38
562.381	239.38
562.593	223.38
562.805	231.38
563.017	240.38
563.229	238.38
563.441	246.38
563.653	227.38
563.865	226.38
564.077	239.38
564.289	232.38
564.501	246.38
564.713	219.38
564.925	247.38
565.137	252.38
565.349	235.38
565.561	245.38
565.773	230.38
565.985	238.38
566.197	256.38
566.408	250.38
566.62	251.38
566.832	270.38
567.044	277.38
567.255	251.38
567.467	279.38
567.679	280.38
567.891	276.38
568.102	281.38
568.314	261.38
568.526	263.38
568.737	263.38
568.949	251.38
569.161	228.38
569.372	238.38
569.584	259.38
569.795	246.38
570.007	252.38
570.218	272.38
570.43	252.38
570.641	229.38
570.853	222.38
571.064	222.38
571.276	225.38
571.487	212.38
571.698	226.38
571.91	246.38
572.121	212.38
572.333	208.38
572.544	212.38
572.755	211.38
572.966	232.38
573.178	215.38
573.389	226.38
573.6	217.38
573.811	216.38
574.023	213.38
574.234	225.38
574.445	222.38
574.656	201.38
574.867	224.38
575.078	228.38
575.289	206.38
575.501	209.38
575.712	214.38
575.923	200.38
576.134	209.38
576.345	205.38
576.556	193.38
576.767	194.38
576.978	197.38
577.188	210.38
577.399	206.38
577.61	201.38
577.821	216.38
578.032	205.38
578.243	248.38
578.454	353.38
578.665	265.38
578.875	212.38
579.086	207.38
579.297	198.38
579.508	209.38
579.718	203.38
579.929	201.38
580.14	194.38
580.35	196.38
580.561	202.38
580.772	204.38
580.982	199.38
581.193	190.38
581.403	196.38
581.614	213.38
581.825	203.38
582.035	206.38
582.246	201.38
582.456	191.38
582.667	205.38
582.877	192.38
583.087	203.38
583.298	199.38
583.508	189.38
583.719	197.38
583.929	198.38
584.139	185.38
584.35	199.38
584.56	191.38
584.77	183.38
584.981	178.38
585.191	192.38
585.401	191.38
585.611	190.38
585.821	198.38
586.032	196.38
586.242	206.38
586.452	191.38
586.662	173.38
586.872	202.38
587.082	185.38
587.292	183.38
587.502	188.38
587.713	198.38
587.923	184.38
588.133	196.38
588.343	193.38
588.553	215.38
588.762	189.38
588.972	206.38
589.182	196.38
589.392	202.38
589.602	189.38
589.812	209.38
590.022	191.38
590.232	180.38
590.441	195.38
590.651	195.38
590.861	191.38
591.071	199.38
591.281	199.38
591.49	182.38
591.7	177.38
591.91	196.38
592.119	198.38
592.329	204.38
592.539	200.38
592.748	195.38
592.958	205.38
593.167	201.38
593.377	177.38
593.587	200.38
593.796	179.38
594.006	193.38
594.215	201.38
594.424	197.38
594.634	177.38
594.843	174.38
595.053	193.38
595.262	203.38
595.472	192.38
595.681	178.38
595.89	187.38
596.1	176.38
596.309	175.38
596.518	180.38
596.727	198.38
596.937	187.38
597.146	206.38
597.355	172.38
597.564	182.38
597.774	184.38
597.983	175.38
598.192	181.38
598.401	168.38
598.61	172.38
598.819	172.38
599.028	191.38
599.237	176.38
599.446	171.38
599.655	180.38
599.864	186.38
600.073	179.38
600.282	189.38
600.491	173.38
600.7	168.38
600.909	170.38
601.118	153.38
601.327	171.38
601.536	164.38
601.745	148.38
601.953	173.38
602.162	173.38
602.371	160.38
602.58	177.38
602.789	165.38
602.997	169.38
603.206	163.38
603.415	168.38
603.623	172.38
603.832	173.38
604.041	160.38
604.249	167.38
604.458	161.38
604.666	160.38
604.875	159.38
605.084	172.38
605.292	179.38
605.501	169.38
605.709	178.38
605.918	160.38
606.126	167.38
606.334	177.38
606.543	157.38
606.751	152.38
606.96	170.38
607.168	163.38
607.376	164.38
607.585	163.38
607.793	161.38
608.001	158.38
608.21	157.38
608.418	151.38
608.626	166.38
608.834	175.38
609.043	168.38
609.251	171.38
609.459	167.38
609.667	182.38
609.875	149.38
610.083	160.38
610.291	160.38
610.499	152.38
610.707	149.38
610.916	182.38
611.124	180.38
611.332	200.38
611.54	167.38
611.748	176.38
611.955	181.38
612.163	172.38
612.371	165.38
612.579	173.38
612.787	162.38
612.995	169.38
613.203	168.38
613.411	170.38
613.618	165.38
613.826	183.38
614.034	166.38
614.242	157.38
614.449	158.38
614.657	160.38
614.865	156.38
615.072	172.38
615.28	163.38
615.488	151.38
615.695	160.38
615.903	165.38
616.111	163.38
616.318	163.38
616.526	159.38
616.733	166.38
616.941	157.38
617.148	172.38
617.356	167.38
617.563	159.38
617.771	157.38
617.978	152.38
618.185	165.38
618.393	160.38
618.6	163.38
618.807	154.38
619.015	165.38
619.222	167.38
619.429	159.38
619.637	165.38
619.844	165.38
620.051	165.38
620.258	152.38
620.466	149.38
620.673	156.38
620.88	165.38
621.087	154.38
621.294	141.38
621.501	157.38
621.708	161.38
621.915	143.38
622.122	156.38
622.329	139.38
622.536	136.38
622.743	171.38
622.95	151.38
623.157	149.38
623.364	154.38
623.571	149.38
623.778	143.38
623.985	166.38
624.192	139.38
624.399	150.38
624.606	163.38
624.812	163.38
625.019	148.38
625.226	162.38
625.433	148.38
625.639	151.38
625.846	156.38
626.053	153.38
626.259	152.38
626.466	156.38
626.673	138.38
626.879	142.38
627.086	158.38
627.293	163.38
627.499	159.38
627.706	147.38
627.912	159.38
628.119	141.38
628.325	151.38
628.532	135.38
628.738	144.38
628.945	136.38
629.151	157.38
629.357	147.38
629.564	151.38
629.77	142.38
629.976	139.38
630.183	130.38
630.389	153.38
630.595	152.38
630.802	145.38
631.008	145.38
631.214	145.38
631.42	143.38
631.627	151.38
631.833	139.38
632.039	137.38
632.245	152.38
632.451	147.38
632.657	133.38
632.863	151.38
633.069	141.38
633.275	142.38
633.481	146.38
633.688	146.38
633.893	141.38
634.099	149.38
634.305	140.38
634.511	134.38
634.717	147.38
634.923	136.38
635.129	139.38
635.335	143.38
635.541	144.38
635.747	128.38
635.952	136.38
636.158	132.38
636.364	148.38
636.57	135.38
636.775	141.38
636.981	146.38
637.187	126.38
637.392	133.38
637.598	128.38
637.804	137.38
638.009	132.38
638.215	151.38
638.421	131.38
638.626	141.38
638.832	136.38
639.037	131.38
639.243	128.38
639.448	131.38
639.654	133.38
639.859	140.38
640.065	142.38
640.27	142.38
640.475	130.38
640.681	138.38
640.886	143.38
641.091	137.38
641.297	141.38
641.502	141.38
641.707	136.38
641.913	155.38
642.118	139.38
642.323	118.38
642.528	153.38
642.733	117.38
642.939	136.38
643.144	129.38
643.349	132.38
643.554	133.38
643.759	137.38
643.964	123.38
644.169	123.38
644.374	142.38
644.579	123.38
644.784	135.38
644.989	124.38
645.194	138.38
645.399	125.38
645.604	115.38
645.809	135.38
646.014	133.38
646.219	125.38
646.423	126.38
646.628	127.38
646.833	135.38
647.038	127.38
647.243	123.38
647.447	127.38
647.652	141.38
647.857	124.38
648.062	127.38
648.266	135.38
648.471	132.38
648.676	120.38
648.88	128.38
649.085	137.38
649.289	123.38
649.494	135.38
649.698	145.38
649.903	143.38
650.107	136.38
650.312	128.38
650.516	120.38
650.721	134.38
650.925	126.38
651.13	120.38
651.334	128.38
651.539	134.38
651.743	119.38
651.947	122.38
652.152	121.38
652.356	133.38
652.56	119.38
652.764	122.38
652.969	131.38
653.173	127.38
653.377	107.38
653.581	129.38
653.785	118.38
653.99	138.38
654.194	132.38
654.398	96.38
654.602	123.38
654.806	112.38
655.01	123.38
655.214	113.38
655.418	116.38
655.622	86.38
655.826	116.38
656.03	109.38
656.234	115.38
656.438	124.38
656.642	126.38
656.846	125.38
657.049	119.38
657.253	113.38
657.457	107.38
657.661	110.38
657.865	118.38
658.068	117.38
658.272	106.38
658.476	109.38
658.68	95.38
658.883	104.38
659.087	90.38
659.291	103.38
659.494	103.38
659.698	85.38
659.901	96.38
660.105	98.38
660.309	81.38
660.512	105.38
660.716	90.38
660.919	92.38
661.123	101.38
661.326	87.38
661.53	99.38
661.733	96.38
661.936	92.38
662.14	93.38
662.343	93.38
662.546	89.38
662.75	94.38
662.953	103.38
663.156	96.38
663.36	95.38
663.563	102.38
663.766	100.38
663.969	92.38
664.173	93.38
664.376	107.38
664.579	93.38
664.782	96.38
664.985	72.38
665.188	80.38
665.391	80.38
665.594	80.38
665.797	94.38
666	97.38
666.203	86.38
666.406	93.38
666.609	91.38
666.812	97.38
667.015	91.38
667.218	76.38
667.421	79.38
667.624	96.38
667.827	105.38
668.03	81.38
668.232	78.38
668.435	101.38
668.638	88.38
668.841	81.38
669.043	84.38
669.246	91.38
669.449	86.38
669.651	83.38
669.854	87.38
670.057	86.38
670.259	96.38
670.462	99.38
670.665	91.38
670.867	90.38
671.07	85.38
671.272	82.38
671.475	84.38
671.677	78.38
671.88	78.38
672.082	85.38
672.284	87.38
672.487	92.38
672.689	76.38
672.892	77.38
