Data from 1982.PennyLincolnUp.Lamp.En5.5.200Scan.071819.P1_HRD10591_16-47-14-962.txt Node
Date: Thu Jul 18 16:47:14 EDT 2019
User: cochatt
Spectrometer: HR+D1059
Trigger mode: 1
Integration Time (sec): 1.000000E-1
Scans to average: 1
Electric dark correction enabled: true
Nonlinearity correction enabled: false
Boxcar width: 0
XAxis mode: Wavelengths
Number of Pixels in Spectrum: 2048
>>>>>Begin Spectral Data<<<<<
223.165	-8.62
223.4	-8.62
223.635	-8.62
223.869	-20.62
224.104	-24.62
224.338	-19.62
224.573	-3.62
224.808	-12.62
225.042	-7.62
225.277	-24.62
225.511	9.38
225.746	4.38
225.98	6.38
226.215	14.38
226.449	19.38
226.683	16.38
226.918	24.38
227.152	27.38
227.387	21.38
227.621	37.38
227.856	53.38
228.09	42.38
228.324	43.38
228.559	68.38
228.793	64.38
229.027	77.38
229.262	114.38
229.496	100.38
229.73	117.38
229.964	117.38
230.199	123.38
230.433	110.38
230.667	102.38
230.901	99.38
231.136	87.38
231.37	96.38
231.604	93.38
231.838	100.38
232.072	105.38
232.306	86.38
232.541	116.38
232.775	112.38
233.009	87.38
233.243	112.38
233.477	101.38
233.711	101.38
233.945	79.38
234.179	99.38
234.413	101.38
234.647	109.38
234.881	114.38
235.115	103.38
235.349	100.38
235.583	90.38
235.817	104.38
236.051	123.38
236.285	102.38
236.519	123.38
236.753	124.38
236.987	128.38
237.221	161.38
237.455	190.38
237.689	171.38
237.922	129.38
238.156	115.38
238.39	127.38
238.624	99.38
238.858	110.38
239.091	103.38
239.325	111.38
239.559	99.38
239.793	115.38
240.027	118.38
240.26	128.38
240.494	129.38
240.728	137.38
240.961	129.38
241.195	130.38
241.429	99.38
241.662	112.38
241.896	122.38
242.13	123.38
242.363	107.38
242.597	114.38
242.83	119.38
243.064	119.38
243.298	128.38
243.531	121.38
243.765	118.38
243.998	103.38
244.232	120.38
244.465	116.38
244.699	128.38
244.932	123.38
245.166	128.38
245.399	130.38
245.633	120.38
245.866	128.38
246.099	118.38
246.333	128.38
246.566	121.38
246.8	120.38
247.033	122.38
247.266	142.38
247.5	140.38
247.733	141.38
247.966	140.38
248.2	124.38
248.433	144.38
248.666	153.38
248.899	152.38
249.133	162.38
249.366	176.38
249.599	187.38
249.832	165.38
250.066	162.38
250.299	156.38
250.532	161.38
250.765	173.38
250.998	194.38
251.231	179.38
251.465	178.38
251.698	172.38
251.931	166.38
252.164	156.38
252.397	172.38
252.63	163.38
252.863	167.38
253.096	176.38
253.329	167.38
253.562	183.38
253.795	186.38
254.028	180.38
254.261	182.38
254.494	190.38
254.727	208.38
254.96	236.38
255.193	219.38
255.426	209.38
255.659	195.38
255.892	194.38
256.124	197.38
256.357	184.38
256.59	177.38
256.823	179.38
257.056	172.38
257.289	186.38
257.521	186.38
257.754	165.38
257.987	168.38
258.22	171.38
258.452	176.38
258.685	180.38
258.918	200.38
259.151	178.38
259.383	174.38
259.616	177.38
259.849	182.38
260.081	215.38
260.314	194.38
260.547	214.38
260.779	205.38
261.012	212.38
261.244	207.38
261.477	194.38
261.71	172.38
261.942	177.38
262.175	194.38
262.407	190.38
262.64	185.38
262.872	181.38
263.105	169.38
263.337	186.38
263.57	188.38
263.802	164.38
264.035	176.38
264.267	169.38
264.499	166.38
264.732	174.38
264.964	172.38
265.197	163.38
265.429	188.38
265.661	185.38
265.894	163.38
266.126	162.38
266.358	168.38
266.591	184.38
266.823	179.38
267.055	184.38
267.287	185.38
267.52	176.38
267.752	194.38
267.984	188.38
268.216	197.38
268.448	193.38
268.681	213.38
268.913	211.38
269.145	205.38
269.377	225.38
269.609	214.38
269.841	220.38
270.073	224.38
270.306	254.38
270.538	274.38
270.77	259.38
271.002	237.38
271.234	260.38
271.466	256.38
271.698	259.38
271.93	265.38
272.162	274.38
272.394	270.38
272.626	251.38
272.858	235.38
273.09	226.38
273.322	207.38
273.553	212.38
273.785	201.38
274.017	227.38
274.249	219.38
274.481	218.38
274.713	204.38
274.945	206.38
275.176	220.38
275.408	216.38
275.64	201.38
275.872	209.38
276.104	201.38
276.335	219.38
276.567	227.38
276.799	219.38
277.031	256.38
277.262	266.38
277.494	271.38
277.726	244.38
277.957	235.38
278.189	216.38
278.421	231.38
278.652	224.38
278.884	211.38
279.115	217.38
279.347	210.38
279.579	229.38
279.81	223.38
280.042	199.38
280.273	215.38
280.505	204.38
280.736	220.38
280.968	215.38
281.199	208.38
281.431	199.38
281.662	207.38
281.894	208.38
282.125	220.38
282.356	226.38
282.588	258.38
282.819	250.38
283.051	213.38
283.282	218.38
283.513	219.38
283.745	222.38
283.976	221.38
284.207	217.38
284.439	227.38
284.67	200.38
284.901	227.38
285.132	223.38
285.364	227.38
285.595	217.38
285.826	212.38
286.057	233.38
286.288	233.38
286.52	226.38
286.751	219.38
286.982	227.38
287.213	227.38
287.444	219.38
287.675	220.38
287.906	225.38
288.138	242.38
288.369	235.38
288.6	230.38
288.831	224.38
289.062	235.38
289.293	220.38
289.524	229.38
289.755	204.38
289.986	233.38
290.217	218.38
290.448	228.38
290.679	244.38
290.91	223.38
291.141	231.38
291.371	223.38
291.602	237.38
291.833	229.38
292.064	231.38
292.295	233.38
292.526	227.38
292.757	219.38
292.987	216.38
293.218	231.38
293.449	232.38
293.68	237.38
293.91	235.38
294.141	227.38
294.372	221.38
294.603	216.38
294.833	221.38
295.064	223.38
295.295	233.38
295.525	226.38
295.756	239.38
295.987	252.38
296.217	263.38
296.448	262.38
296.679	234.38
296.909	244.38
297.14	243.38
297.37	237.38
297.601	231.38
297.831	222.38
298.062	224.38
298.292	233.38
298.523	258.38
298.753	211.38
298.984	238.38
299.214	226.38
299.445	250.38
299.675	259.38
299.905	264.38
300.136	242.38
300.366	237.38
300.597	251.38
300.827	246.38
301.057	248.38
301.288	236.38
301.518	245.38
301.748	268.38
301.979	245.38
302.209	250.38
302.439	250.38
302.669	252.38
302.9	252.38
303.13	262.38
303.36	280.38
303.59	269.38
303.82	261.38
304.051	272.38
304.281	254.38
304.511	265.38
304.741	247.38
304.971	242.38
305.201	253.38
305.431	263.38
305.661	264.38
305.891	260.38
306.121	262.38
306.352	260.38
306.582	258.38
306.812	264.38
307.042	275.38
307.272	272.38
307.502	274.38
307.731	264.38
307.961	270.38
308.191	250.38
308.421	272.38
308.651	286.38
308.881	274.38
309.111	266.38
309.341	274.38
309.571	269.38
309.8	268.38
310.03	290.38
310.26	314.38
310.49	297.38
310.72	300.38
310.949	309.38
311.179	314.38
311.409	290.38
311.639	315.38
311.868	293.38
312.098	307.38
312.328	322.38
312.557	314.38
312.787	307.38
313.017	325.38
313.246	329.38
313.476	312.38
313.706	293.38
313.935	317.38
314.165	329.38
314.394	332.38
314.624	307.38
314.853	315.38
315.083	318.38
315.312	300.38
315.542	292.38
315.771	290.38
316.001	290.38
316.23	307.38
316.46	290.38
316.689	292.38
316.919	309.38
317.148	307.38
317.377	313.38
317.607	284.38
317.836	293.38
318.065	300.38
318.295	261.38
318.524	317.38
318.753	310.38
318.983	317.38
319.212	311.38
319.441	308.38
319.67	317.38
319.9	310.38
320.129	310.38
320.358	313.38
320.587	310.38
320.816	317.38
321.046	325.38
321.275	319.38
321.504	326.38
321.733	327.38
321.962	334.38
322.191	332.38
322.42	356.38
322.649	354.38
322.878	381.38
323.108	395.38
323.337	405.38
323.566	412.38
323.795	445.38
324.024	499.38
324.253	635.38
324.482	933.38
324.71	1406.38
324.939	1850.38
325.168	1493.38
325.397	792.38
325.626	536.38
325.855	446.38
326.084	419.38
326.313	418.38
326.542	427.38
326.77	477.38
326.999	612.38
327.228	810.38
327.457	1210.38
327.686	1341.38
327.914	862.38
328.143	604.38
328.372	524.38
328.6	492.38
328.829	465.38
329.058	475.38
329.287	470.38
329.515	453.38
329.744	418.38
329.972	421.38
330.201	434.38
330.43	461.38
330.658	504.38
330.887	520.38
331.115	480.38
331.344	417.38
331.572	403.38
331.801	395.38
332.03	366.38
332.258	365.38
332.486	354.38
332.715	351.38
332.943	348.38
333.172	347.38
333.4	363.38
333.629	345.38
333.857	365.38
334.085	389.38
334.314	388.38
334.542	405.38
334.771	397.38
334.999	361.38
335.227	358.38
335.455	359.38
335.684	331.38
335.912	346.38
336.14	352.38
336.369	343.38
336.597	346.38
336.825	366.38
337.053	341.38
337.281	345.38
337.51	318.38
337.738	334.38
337.966	333.38
338.194	315.38
338.422	339.38
338.65	342.38
338.878	342.38
339.106	332.38
339.334	343.38
339.562	326.38
339.79	328.38
340.018	335.38
340.246	345.38
340.474	350.38
340.702	331.38
340.93	325.38
341.158	328.38
341.386	299.38
341.614	305.38
341.842	328.38
342.07	327.38
342.298	323.38
342.526	314.38
342.754	297.38
342.981	310.38
343.209	306.38
343.437	323.38
343.665	324.38
343.893	321.38
344.12	318.38
344.348	326.38
344.576	326.38
344.804	335.38
345.031	344.38
345.259	359.38
345.487	335.38
345.714	337.38
345.942	325.38
346.17	315.38
346.397	324.38
346.625	327.38
346.853	338.38
347.08	327.38
347.308	332.38
347.535	336.38
347.763	324.38
347.99	316.38
348.218	332.38
348.445	333.38
348.673	345.38
348.9	315.38
349.128	325.38
349.355	301.38
349.583	297.38
349.81	307.38
350.037	298.38
350.265	316.38
350.492	297.38
350.72	300.38
350.947	316.38
351.174	315.38
351.402	336.38
351.629	338.38
351.856	316.38
352.083	332.38
352.311	327.38
352.538	330.38
352.765	326.38
352.992	318.38
353.22	299.38
353.447	328.38
353.674	312.38
353.901	305.38
354.128	305.38
354.355	286.38
354.583	301.38
354.81	287.38
355.037	310.38
355.264	281.38
355.491	284.38
355.718	286.38
355.945	283.38
356.172	297.38
356.399	292.38
356.626	290.38
356.853	275.38
357.08	286.38
357.307	284.38
357.534	283.38
357.761	284.38
357.988	301.38
358.215	309.38
358.441	292.38
358.668	280.38
358.895	281.38
359.122	314.38
359.349	324.38
359.576	312.38
359.802	322.38
360.029	350.38
360.256	333.38
360.483	344.38
360.709	309.38
360.936	314.38
361.163	307.38
361.39	326.38
361.616	306.38
361.843	313.38
362.07	304.38
362.296	301.38
362.523	304.38
362.749	314.38
362.976	287.38
363.203	310.38
363.429	292.38
363.656	286.38
363.882	277.38
364.109	287.38
364.335	310.38
364.562	306.38
364.788	292.38
365.015	288.38
365.241	299.38
365.468	299.38
365.694	308.38
365.92	312.38
366.147	312.38
366.373	299.38
366.599	280.38
366.826	277.38
367.052	294.38
367.278	295.38
367.505	293.38
367.731	286.38
367.957	290.38
368.184	293.38
368.41	304.38
368.636	308.38
368.862	302.38
369.089	294.38
369.315	287.38
369.541	316.38
369.767	278.38
369.993	305.38
370.219	287.38
370.445	293.38
370.672	283.38
370.898	309.38
371.124	288.38
371.35	280.38
371.576	274.38
371.802	298.38
372.028	279.38
372.254	262.38
372.48	292.38
372.706	279.38
372.932	284.38
373.158	269.38
373.384	284.38
373.61	284.38
373.835	284.38
374.061	289.38
374.287	293.38
374.513	302.38
374.739	290.38
374.965	291.38
375.191	293.38
375.416	298.38
375.642	290.38
375.868	282.38
376.094	298.38
376.319	297.38
376.545	265.38
376.771	284.38
376.997	296.38
377.222	277.38
377.448	286.38
377.674	282.38
377.899	267.38
378.125	282.38
378.35	256.38
378.576	280.38
378.802	278.38
379.027	280.38
379.253	290.38
379.478	280.38
379.704	272.38
379.929	265.38
380.155	278.38
380.38	289.38
380.606	271.38
380.831	280.38
381.057	298.38
381.282	285.38
381.507	271.38
381.733	294.38
381.958	285.38
382.184	284.38
382.409	270.38
382.634	269.38
382.86	279.38
383.085	290.38
383.31	276.38
383.535	287.38
383.761	272.38
383.986	269.38
384.211	274.38
384.436	290.38
384.662	269.38
384.887	280.38
385.112	275.38
385.337	279.38
385.562	299.38
385.787	304.38
386.013	309.38
386.238	292.38
386.463	270.38
386.688	305.38
386.913	302.38
387.138	272.38
387.363	292.38
387.588	298.38
387.813	293.38
388.038	315.38
388.263	303.38
388.488	291.38
388.713	303.38
388.938	288.38
389.163	310.38
389.387	291.38
389.612	282.38
389.837	280.38
390.062	278.38
390.287	292.38
390.512	280.38
390.736	279.38
390.961	292.38
391.186	295.38
391.411	282.38
391.636	297.38
391.86	281.38
392.085	299.38
392.31	301.38
392.534	313.38
392.759	295.38
392.984	306.38
393.208	288.38
393.433	284.38
393.658	300.38
393.882	279.38
394.107	302.38
394.331	298.38
394.556	297.38
394.78	297.38
395.005	297.38
395.229	290.38
395.454	293.38
395.678	290.38
395.903	300.38
396.127	315.38
396.352	321.38
396.576	319.38
396.801	292.38
397.025	312.38
397.249	287.38
397.474	290.38
397.698	298.38
397.922	318.38
398.147	322.38
398.371	301.38
398.595	321.38
398.82	311.38
399.044	333.38
399.268	317.38
399.492	332.38
399.717	365.38
399.941	360.38
400.165	381.38
400.389	376.38
400.613	351.38
400.837	334.38
401.062	337.38
401.286	307.38
401.51	314.38
401.734	333.38
401.958	333.38
402.182	322.38
402.406	324.38
402.63	339.38
402.854	332.38
403.078	315.38
403.302	328.38
403.526	335.38
403.75	316.38
403.974	344.38
404.198	321.38
404.422	337.38
404.645	315.38
404.869	335.38
405.093	374.38
405.317	377.38
405.541	400.38
405.765	359.38
405.988	348.38
406.212	366.38
406.436	369.38
406.66	368.38
406.883	377.38
407.107	396.38
407.331	399.38
407.555	434.38
407.778	419.38
408.002	392.38
408.226	375.38
408.449	355.38
408.673	366.38
408.896	374.38
409.12	394.38
409.344	380.38
409.567	350.38
409.791	348.38
410.014	337.38
410.238	330.38
410.461	340.38
410.685	344.38
410.908	328.38
411.132	368.38
411.355	382.38
411.578	377.38
411.802	349.38
412.025	347.38
412.249	360.38
412.472	349.38
412.695	380.38
412.919	354.38
413.142	322.38
413.365	328.38
413.589	323.38
413.812	310.38
414.035	334.38
414.258	312.38
414.482	323.38
414.705	335.38
414.928	329.38
415.151	304.38
415.374	323.38
415.597	328.38
415.821	314.38
416.044	310.38
416.267	317.38
416.49	304.38
416.713	308.38
416.936	306.38
417.159	309.38
417.382	325.38
417.605	323.38
417.828	306.38
418.051	332.38
418.274	327.38
418.497	308.38
418.72	330.38
418.943	319.38
419.166	329.38
419.389	327.38
419.611	336.38
419.834	317.38
420.057	339.38
420.28	344.38
420.503	334.38
420.726	331.38
420.948	341.38
421.171	374.38
421.394	390.38
421.617	344.38
421.839	337.38
422.062	331.38
422.285	343.38
422.507	383.38
422.73	425.38
422.953	411.38
423.175	373.38
423.398	349.38
423.621	345.38
423.843	368.38
424.066	360.38
424.288	336.38
424.511	362.38
424.733	413.38
424.956	448.38
425.178	460.38
425.401	441.38
425.623	461.38
425.846	389.38
426.068	376.38
426.291	341.38
426.513	355.38
426.735	361.38
426.958	385.38
427.18	456.38
427.402	548.38
427.625	593.38
427.847	532.38
428.069	447.38
428.292	385.38
428.514	347.38
428.736	346.38
428.958	374.38
429.181	329.38
429.403	318.38
429.625	346.38
429.847	378.38
430.069	410.38
430.292	390.38
430.514	347.38
430.736	328.38
430.958	334.38
431.18	300.38
431.402	324.38
431.624	315.38
431.846	304.38
432.068	317.38
432.29	317.38
432.512	316.38
432.734	340.38
432.956	319.38
433.178	320.38
433.4	322.38
433.622	300.38
433.844	306.38
434.066	308.38
434.287	315.38
434.509	321.38
434.731	330.38
434.953	328.38
435.175	334.38
435.397	356.38
435.618	356.38
435.84	381.38
436.062	477.38
436.284	490.38
436.505	399.38
436.727	380.38
436.949	340.38
437.17	342.38
437.392	330.38
437.614	342.38
437.835	387.38
438.057	452.38
438.278	501.38
438.5	493.38
438.721	522.38
438.943	516.38
439.165	422.38
439.386	391.38
439.608	371.38
439.829	395.38
440.05	398.38
440.272	432.38
440.493	408.38
440.715	377.38
440.936	353.38
441.158	361.38
441.379	344.38
441.6	345.38
441.822	379.38
442.043	406.38
442.264	473.38
442.486	465.38
442.707	413.38
442.928	369.38
443.149	365.38
443.371	382.38
443.592	440.38
443.813	496.38
444.034	499.38
444.255	422.38
444.476	396.38
444.698	344.38
444.919	363.38
445.14	455.38
445.361	412.38
445.582	394.38
445.803	457.38
446.024	516.38
446.245	508.38
446.466	460.38
446.687	390.38
446.908	378.38
447.129	352.38
447.35	346.38
447.571	329.38
447.792	336.38
448.013	355.38
448.234	348.38
448.455	404.38
448.675	467.38
448.896	534.38
449.117	464.38
449.338	444.38
449.559	510.38
449.779	538.38
450	446.38
450.221	365.38
450.442	356.38
450.662	342.38
450.883	346.38
451.104	356.38
451.324	328.38
451.545	329.38
451.766	322.38
451.986	306.38
452.207	319.38
452.428	311.38
452.648	291.38
452.869	290.38
453.089	327.38
453.31	314.38
453.53	320.38
453.751	309.38
453.971	316.38
454.192	320.38
454.412	310.38
454.633	317.38
454.853	308.38
455.073	293.38
455.294	304.38
455.514	366.38
455.734	342.38
455.955	297.38
456.175	292.38
456.395	282.38
456.616	294.38
456.836	299.38
457.056	288.38
457.276	265.38
457.497	276.38
457.717	290.38
457.937	308.38
458.157	285.38
458.377	291.38
458.598	320.38
458.818	370.38
459.038	436.38
459.258	430.38
459.478	358.38
459.698	329.38
459.918	318.38
460.138	310.38
460.358	322.38
460.578	313.38
460.798	313.38
461.018	300.38
461.238	323.38
461.458	314.38
461.678	306.38
461.898	301.38
462.118	296.38
462.338	313.38
462.558	304.38
462.777	331.38
462.997	320.38
463.217	323.38
463.437	331.38
463.657	305.38
463.876	328.38
464.096	319.38
464.316	324.38
464.536	324.38
464.755	313.38
464.975	331.38
465.195	357.38
465.414	416.38
465.634	376.38
465.854	369.38
466.073	330.38
466.293	316.38
466.512	320.38
466.732	304.38
466.951	295.38
467.171	304.38
467.391	315.38
467.61	324.38
467.829	319.38
468.049	318.38
468.268	324.38
468.488	304.38
468.707	285.38
468.927	316.38
469.146	306.38
469.365	300.38
469.585	284.38
469.804	309.38
470.023	318.38
470.243	298.38
470.462	306.38
470.681	325.38
470.901	314.38
471.12	308.38
471.339	304.38
471.558	320.38
471.777	311.38
471.997	294.38
472.216	320.38
472.435	317.38
472.654	330.38
472.873	314.38
473.092	313.38
473.311	306.38
473.53	316.38
473.749	311.38
473.968	364.38
474.187	436.38
474.406	437.38
474.625	363.38
474.844	323.38
475.063	309.38
475.282	313.38
475.501	310.38
475.72	326.38
475.939	336.38
476.158	313.38
476.377	336.38
476.596	309.38
476.814	329.38
477.033	338.38
477.252	324.38
477.471	317.38
477.69	337.38
477.908	339.38
478.127	335.38
478.346	316.38
478.564	349.38
478.783	337.38
479.002	337.38
479.22	348.38
479.439	359.38
479.658	359.38
479.876	357.38
480.095	365.38
480.313	386.38
480.532	380.38
480.751	372.38
480.969	410.38
481.188	418.38
481.406	429.38
481.624	392.38
481.843	380.38
482.061	376.38
482.28	357.38
482.498	364.38
482.717	361.38
482.935	349.38
483.153	350.38
483.372	351.38
483.59	362.38
483.808	355.38
484.027	356.38
484.245	356.38
484.463	357.38
484.681	353.38
484.9	378.38
485.118	355.38
485.336	363.38
485.554	371.38
485.772	346.38
485.99	373.38
486.209	365.38
486.427	366.38
486.645	376.38
486.863	417.38
487.081	388.38
487.299	379.38
487.517	380.38
487.735	385.38
487.953	376.38
488.171	371.38
488.389	380.38
488.607	372.38
488.825	365.38
489.043	394.38
489.261	387.38
489.479	394.38
489.696	387.38
489.914	404.38
490.132	396.38
490.35	412.38
490.568	404.38
490.786	387.38
491.003	410.38
491.221	427.38
491.439	438.38
491.657	432.38
491.874	434.38
492.092	456.38
492.31	456.38
492.527	427.38
492.745	452.38
492.963	436.38
493.18	456.38
493.398	460.38
493.615	453.38
493.833	439.38
494.05	451.38
494.268	451.38
494.485	430.38
494.703	438.38
494.92	444.38
495.138	442.38
495.355	452.38
495.573	450.38
495.79	448.38
496.008	453.38
496.225	441.38
496.442	459.38
496.66	450.38
496.877	438.38
497.094	454.38
497.312	436.38
497.529	475.38
497.746	472.38
497.963	488.38
498.181	476.38
498.398	485.38
498.615	479.38
498.832	476.38
499.049	491.38
499.267	488.38
499.484	498.38
499.701	493.38
499.918	533.38
500.135	530.38
500.352	559.38
500.569	564.38
500.786	579.38
501.003	553.38
501.22	550.38
501.437	530.38
501.654	551.38
501.871	541.38
502.088	517.38
502.305	499.38
502.522	458.38
502.739	469.38
502.956	461.38
503.172	459.38
503.389	464.38
503.606	448.38
503.823	474.38
504.04	469.38
504.256	463.38
504.473	446.38
504.69	429.38
504.907	452.38
505.123	449.38
505.34	442.38
505.557	452.38
505.773	427.38
505.99	433.38
506.207	419.38
506.423	428.38
506.64	432.38
506.856	422.38
507.073	432.38
507.289	436.38
507.506	432.38
507.722	409.38
507.939	443.38
508.155	446.38
508.372	415.38
508.588	416.38
508.805	402.38
509.021	419.38
509.238	425.38
509.454	423.38
509.67	441.38
509.887	437.38
510.103	427.38
510.319	453.38
510.536	534.38
510.752	838.38
510.968	658.38
511.184	433.38
511.401	428.38
511.617	392.38
511.833	402.38
512.049	406.38
512.265	396.38
512.481	417.38
512.698	390.38
512.914	418.38
513.13	399.38
513.346	409.38
513.562	396.38
513.778	416.38
513.994	408.38
514.21	430.38
514.426	444.38
514.642	468.38
514.858	480.38
515.074	529.38
515.29	603.38
515.506	927.38
515.721	718.38
515.937	519.38
516.153	453.38
516.369	436.38
516.585	418.38
516.801	405.38
517.016	434.38
517.232	406.38
517.448	400.38
517.664	398.38
517.879	410.38
518.095	405.38
518.311	418.38
518.527	404.38
518.742	410.38
518.958	406.38
519.173	418.38
519.389	391.38
519.605	376.38
519.82	390.38
520.036	420.38
520.251	428.38
520.467	462.38
520.682	455.38
520.898	460.38
521.113	475.38
521.329	498.38
521.544	563.38
521.76	756.38
521.975	1244.38
522.19	1165.38
522.406	627.38
522.621	512.38
522.836	434.38
523.052	394.38
523.267	394.38
523.482	364.38
523.698	376.38
523.913	385.38
524.128	381.38
524.343	364.38
524.559	361.38
524.774	362.38
524.989	358.38
525.204	351.38
525.419	363.38
525.634	349.38
525.849	355.38
526.064	341.38
526.28	320.38
526.495	332.38
526.71	318.38
526.925	330.38
527.14	314.38
527.355	331.38
527.57	327.38
527.785	341.38
527.999	335.38
528.214	332.38
528.429	327.38
528.644	321.38
528.859	324.38
529.074	329.38
529.289	352.38
529.503	392.38
529.718	374.38
529.933	344.38
530.148	348.38
530.363	326.38
530.577	338.38
530.792	319.38
531.007	315.38
531.221	311.38
531.436	323.38
531.651	315.38
531.865	306.38
532.08	314.38
532.295	328.38
532.509	324.38
532.724	314.38
532.938	321.38
533.153	313.38
533.367	305.38
533.582	288.38
533.796	301.38
534.011	301.38
534.225	297.38
534.44	279.38
534.654	299.38
534.868	308.38
535.083	316.38
535.297	307.38
535.511	329.38
535.726	319.38
535.94	315.38
536.154	328.38
536.369	321.38
536.583	291.38
536.797	323.38
537.011	316.38
537.225	298.38
537.44	293.38
537.654	306.38
537.868	307.38
538.082	306.38
538.296	304.38
538.51	283.38
538.724	307.38
538.938	288.38
539.153	309.38
539.367	316.38
539.581	316.38
539.795	294.38
540.009	301.38
540.222	294.38
540.436	294.38
540.65	318.38
540.864	323.38
541.078	301.38
541.292	289.38
541.506	285.38
541.72	303.38
541.934	296.38
542.147	311.38
542.361	309.38
542.575	298.38
542.789	301.38
543.002	298.38
543.216	285.38
543.43	309.38
543.644	312.38
543.857	302.38
544.071	311.38
544.285	290.38
544.498	299.38
544.712	307.38
544.925	275.38
545.139	288.38
545.352	275.38
545.566	297.38
545.779	280.38
545.993	295.38
546.206	287.38
546.42	306.38
546.633	302.38
546.847	300.38
547.06	288.38
547.274	287.38
547.487	281.38
547.7	280.38
547.914	269.38
548.127	271.38
548.34	281.38
548.554	284.38
548.767	277.38
548.98	284.38
549.193	280.38
549.407	269.38
549.62	264.38
549.833	269.38
550.046	274.38
550.259	263.38
550.473	278.38
550.686	280.38
550.899	277.38
551.112	266.38
551.325	268.38
551.538	284.38
551.751	271.38
551.964	269.38
552.177	284.38
552.39	260.38
552.603	267.38
552.816	290.38
553.029	282.38
553.242	258.38
553.455	278.38
553.667	297.38
553.88	296.38
554.093	274.38
554.306	276.38
554.519	295.38
554.732	274.38
554.944	274.38
555.157	278.38
555.37	266.38
555.583	276.38
555.795	272.38
556.008	254.38
556.221	243.38
556.433	266.38
556.646	273.38
556.859	261.38
557.071	249.38
557.284	259.38
557.496	262.38
557.709	252.38
557.921	240.38
558.134	232.38
558.346	238.38
558.559	259.38
558.771	267.38
558.984	267.38
559.196	238.38
559.409	243.38
559.621	243.38
559.833	247.38
560.046	253.38
560.258	257.38
560.47	254.38
560.683	242.38
560.895	230.38
561.107	241.38
561.32	268.38
561.532	261.38
561.744	251.38
561.956	231.38
562.168	243.38
562.381	235.38
562.593	250.38
562.805	258.38
563.017	270.38
563.229	247.38
563.441	264.38
563.653	276.38
563.865	236.38
564.077	259.38
564.289	266.38
564.501	259.38
564.713	261.38
564.925	282.38
565.137	249.38
565.349	260.38
565.561	259.38
565.773	276.38
565.985	261.38
566.197	252.38
566.408	270.38
566.62	270.38
566.832	285.38
567.044	280.38
567.255	294.38
567.467	307.38
567.679	284.38
567.891	290.38
568.102	290.38
568.314	299.38
568.526	293.38
568.737	276.38
568.949	261.38
569.161	268.38
569.372	261.38
569.584	268.38
569.795	260.38
570.007	258.38
570.218	293.38
570.43	258.38
570.641	244.38
570.853	260.38
571.064	233.38
571.276	237.38
571.487	234.38
571.698	241.38
571.91	248.38
572.121	227.38
572.333	236.38
572.544	221.38
572.755	235.38
572.966	225.38
573.178	217.38
573.389	228.38
573.6	215.38
573.811	206.38
574.023	223.38
574.234	218.38
574.445	236.38
574.656	222.38
574.867	219.38
575.078	228.38
575.289	237.38
575.501	217.38
575.712	218.38
575.923	208.38
576.134	196.38
576.345	215.38
576.556	229.38
576.767	216.38
576.978	210.38
577.188	216.38
577.399	226.38
577.61	225.38
577.821	223.38
578.032	221.38
578.243	259.38
578.454	376.38
578.665	316.38
578.875	225.38
579.086	198.38
579.297	222.38
579.508	205.38
579.718	210.38
579.929	213.38
580.14	218.38
580.35	212.38
580.561	193.38
580.772	189.38
580.982	185.38
581.193	218.38
581.403	205.38
581.614	202.38
581.825	218.38
582.035	202.38
582.246	192.38
582.456	185.38
582.667	197.38
582.877	186.38
583.087	200.38
583.298	205.38
583.508	225.38
583.719	209.38
583.929	197.38
584.139	208.38
584.35	193.38
584.56	181.38
584.77	218.38
584.981	200.38
585.191	193.38
585.401	227.38
585.611	202.38
585.821	184.38
586.032	198.38
586.242	198.38
586.452	216.38
586.662	187.38
586.872	206.38
587.082	195.38
587.292	205.38
587.502	192.38
587.713	210.38
587.923	205.38
588.133	210.38
588.343	192.38
588.553	197.38
588.762	195.38
588.972	204.38
589.182	180.38
589.392	191.38
589.602	197.38
589.812	221.38
590.022	208.38
590.232	206.38
590.441	198.38
590.651	206.38
590.861	189.38
591.071	186.38
591.281	196.38
591.49	185.38
591.7	188.38
591.91	193.38
592.119	192.38
592.329	202.38
592.539	185.38
592.748	198.38
592.958	198.38
593.167	198.38
593.377	194.38
593.587	217.38
593.796	213.38
594.006	198.38
594.215	213.38
594.424	199.38
594.634	214.38
594.843	198.38
595.053	197.38
595.262	198.38
595.472	183.38
595.681	176.38
595.89	179.38
596.1	195.38
596.309	194.38
596.518	188.38
596.727	184.38
596.937	192.38
597.146	171.38
597.355	182.38
597.564	176.38
597.774	180.38
597.983	189.38
598.192	186.38
598.401	196.38
598.61	190.38
598.819	187.38
599.028	187.38
599.237	194.38
599.446	165.38
599.655	184.38
599.864	178.38
600.073	172.38
600.282	178.38
600.491	194.38
600.7	178.38
600.909	176.38
601.118	191.38
601.327	177.38
601.536	170.38
601.745	182.38
601.953	182.38
602.162	184.38
602.371	173.38
602.58	166.38
602.789	177.38
602.997	173.38
603.206	198.38
603.415	192.38
603.623	165.38
603.832	175.38
604.041	154.38
604.249	182.38
604.458	176.38
604.666	173.38
604.875	172.38
605.084	170.38
605.292	179.38
605.501	177.38
605.709	171.38
605.918	164.38
606.126	174.38
606.334	171.38
606.543	175.38
606.751	182.38
606.96	174.38
607.168	173.38
607.376	167.38
607.585	181.38
607.793	180.38
608.001	156.38
608.21	181.38
608.418	160.38
608.626	177.38
608.834	177.38
609.043	168.38
609.251	167.38
609.459	173.38
609.667	176.38
609.875	172.38
610.083	161.38
610.291	180.38
610.499	166.38
610.707	176.38
610.916	169.38
611.124	164.38
611.332	174.38
611.54	177.38
611.748	167.38
611.955	173.38
612.163	169.38
612.371	166.38
612.579	177.38
612.787	162.38
612.995	172.38
613.203	153.38
613.411	167.38
613.618	172.38
613.826	168.38
614.034	164.38
614.242	154.38
614.449	158.38
614.657	170.38
614.865	182.38
615.072	167.38
615.28	164.38
615.488	156.38
615.695	170.38
615.903	182.38
616.111	169.38
616.318	176.38
616.526	164.38
616.733	157.38
616.941	154.38
617.148	168.38
617.356	165.38
617.563	180.38
617.771	152.38
617.978	154.38
618.185	182.38
618.393	171.38
618.6	155.38
618.807	164.38
619.015	162.38
619.222	159.38
619.429	177.38
619.637	177.38
619.844	165.38
620.051	166.38
620.258	172.38
620.466	140.38
620.673	145.38
620.88	168.38
621.087	156.38
621.294	157.38
621.501	148.38
621.708	153.38
621.915	186.38
622.122	156.38
622.329	156.38
622.536	169.38
622.743	150.38
622.95	153.38
623.157	160.38
623.364	147.38
623.571	158.38
623.778	154.38
623.985	176.38
624.192	159.38
624.399	166.38
624.606	156.38
624.812	156.38
625.019	154.38
625.226	170.38
625.433	147.38
625.639	160.38
625.846	140.38
626.053	141.38
626.259	149.38
626.466	144.38
626.673	151.38
626.879	141.38
627.086	153.38
627.293	166.38
627.499	143.38
627.706	136.38
627.912	153.38
628.119	156.38
628.325	147.38
628.532	137.38
628.738	146.38
628.945	148.38
629.151	142.38
629.357	143.38
629.564	150.38
629.77	148.38
629.976	163.38
630.183	115.38
630.389	151.38
630.595	144.38
630.802	136.38
631.008	141.38
631.214	138.38
631.42	150.38
631.627	150.38
631.833	149.38
632.039	155.38
632.245	140.38
632.451	142.38
632.657	139.38
632.863	127.38
633.069	141.38
633.275	142.38
633.481	137.38
633.688	153.38
633.893	137.38
634.099	142.38
634.305	156.38
634.511	135.38
634.717	132.38
634.923	123.38
635.129	147.38
635.335	140.38
635.541	151.38
635.747	148.38
635.952	143.38
636.158	141.38
636.364	140.38
636.57	142.38
636.775	132.38
636.981	142.38
637.187	134.38
637.392	138.38
637.598	157.38
637.804	135.38
638.009	133.38
638.215	138.38
638.421	120.38
638.626	133.38
638.832	145.38
639.037	136.38
639.243	130.38
639.448	128.38
639.654	134.38
639.859	125.38
640.065	126.38
640.27	149.38
640.475	144.38
640.681	131.38
640.886	133.38
641.091	141.38
641.297	128.38
641.502	132.38
641.707	126.38
641.913	132.38
642.118	136.38
642.323	138.38
642.528	126.38
642.733	131.38
642.939	128.38
643.144	130.38
643.349	147.38
643.554	141.38
643.759	126.38
643.964	133.38
644.169	139.38
644.374	123.38
644.579	142.38
644.784	130.38
644.989	142.38
645.194	140.38
645.399	147.38
645.604	124.38
645.809	124.38
646.014	133.38
646.219	143.38
646.423	140.38
646.628	117.38
646.833	130.38
647.038	135.38
647.243	137.38
647.447	129.38
647.652	138.38
647.857	131.38
648.062	121.38
648.266	144.38
648.471	133.38
648.676	123.38
648.88	112.38
649.085	124.38
649.289	136.38
649.494	145.38
649.698	148.38
649.903	148.38
650.107	145.38
650.312	140.38
650.516	122.38
650.721	128.38
650.925	124.38
651.13	118.38
651.334	135.38
651.539	116.38
651.743	110.38
651.947	118.38
652.152	122.38
652.356	120.38
652.56	114.38
652.764	113.38
652.969	122.38
653.173	117.38
653.377	105.38
653.581	112.38
653.785	99.38
653.99	113.38
654.194	119.38
654.398	121.38
654.602	104.38
654.806	118.38
655.01	126.38
655.214	126.38
655.418	112.38
655.622	112.38
655.826	114.38
656.03	115.38
656.234	115.38
656.438	111.38
656.642	112.38
656.846	126.38
657.049	113.38
657.253	120.38
657.457	109.38
657.661	105.38
657.865	108.38
658.068	97.38
658.272	86.38
658.476	100.38
658.68	103.38
658.883	103.38
659.087	94.38
659.291	97.38
659.494	98.38
659.698	95.38
659.901	85.38
660.105	84.38
660.309	100.38
660.512	75.38
660.716	88.38
660.919	81.38
661.123	90.38
661.326	98.38
661.53	82.38
661.733	91.38
661.936	86.38
662.14	92.38
662.343	88.38
662.546	92.38
662.75	92.38
662.953	82.38
663.156	72.38
663.36	87.38
663.563	86.38
663.766	79.38
663.969	83.38
664.173	77.38
664.376	93.38
664.579	85.38
664.782	85.38
664.985	82.38
665.188	88.38
665.391	82.38
665.594	78.38
665.797	92.38
666	83.38
666.203	87.38
666.406	74.38
666.609	81.38
666.812	78.38
667.015	83.38
667.218	85.38
667.421	82.38
667.624	82.38
667.827	81.38
668.03	94.38
668.232	78.38
668.435	77.38
668.638	71.38
668.841	76.38
669.043	80.38
669.246	81.38
669.449	80.38
669.651	85.38
669.854	77.38
670.057	84.38
670.259	76.38
670.462	73.38
670.665	76.38
670.867	78.38
671.07	65.38
671.272	76.38
671.475	83.38
671.677	92.38
671.88	69.38
672.082	72.38
672.284	74.38
672.487	92.38
672.689	94.38
672.892	77.38
