Data from 1982.PennyLincolnUp.Lamp.En5.5.200Scan.071819.P1_HRD10591_16-45-55-963.txt Node
Date: Thu Jul 18 16:45:55 EDT 2019
User: cochatt
Spectrometer: HR+D1059
Trigger mode: 1
Integration Time (sec): 1.000000E-1
Scans to average: 1
Electric dark correction enabled: true
Nonlinearity correction enabled: false
Boxcar width: 0
XAxis mode: Wavelengths
Number of Pixels in Spectrum: 2048
>>>>>Begin Spectral Data<<<<<
223.165	-11.94
223.4	-11.94
223.635	-11.94
223.869	-6.94
224.104	-11.94
224.338	-22.94
224.573	-20.94
224.808	-6.94
225.042	-15.94
225.277	-3.94
225.511	-5.94
225.746	-0.94
225.98	9.06
226.215	7.06
226.449	11.06
226.683	14.06
226.918	32.06
227.152	35.06
227.387	45.06
227.621	28.06
227.856	45.06
228.09	56.06
228.324	50.06
228.559	69.06
228.793	62.06
229.027	75.06
229.262	95.06
229.496	97.06
229.73	119.06
229.964	135.06
230.199	109.06
230.433	102.06
230.667	96.06
230.901	106.06
231.136	105.06
231.37	113.06
231.604	112.06
231.838	98.06
232.072	105.06
232.306	93.06
232.541	107.06
232.775	104.06
233.009	103.06
233.243	116.06
233.477	111.06
233.711	107.06
233.945	101.06
234.179	98.06
234.413	112.06
234.647	109.06
234.881	104.06
235.115	101.06
235.349	108.06
235.583	105.06
235.817	93.06
236.051	122.06
236.285	118.06
236.519	113.06
236.753	118.06
236.987	102.06
237.221	149.06
237.455	185.06
237.689	155.06
237.922	110.06
238.156	116.06
238.39	112.06
238.624	127.06
238.858	113.06
239.091	98.06
239.325	127.06
239.559	113.06
239.793	131.06
240.027	117.06
240.26	127.06
240.494	143.06
240.728	119.06
240.961	124.06
241.195	114.06
241.429	125.06
241.662	127.06
241.896	109.06
242.13	102.06
242.363	104.06
242.597	104.06
242.83	106.06
243.064	125.06
243.298	119.06
243.531	115.06
243.765	116.06
243.998	106.06
244.232	119.06
244.465	112.06
244.699	125.06
244.932	118.06
245.166	128.06
245.399	121.06
245.633	133.06
245.866	131.06
246.099	121.06
246.333	119.06
246.566	136.06
246.8	129.06
247.033	103.06
247.266	144.06
247.5	141.06
247.733	142.06
247.966	142.06
248.2	138.06
248.433	153.06
248.666	155.06
248.899	144.06
249.133	172.06
249.366	169.06
249.599	150.06
249.832	156.06
250.066	148.06
250.299	142.06
250.532	155.06
250.765	157.06
250.998	186.06
251.231	174.06
251.465	167.06
251.698	154.06
251.931	167.06
252.164	147.06
252.397	169.06
252.63	175.06
252.863	168.06
253.096	171.06
253.329	199.06
253.562	187.06
253.795	179.06
254.028	185.06
254.261	159.06
254.494	171.06
254.727	212.06
254.96	216.06
255.193	212.06
255.426	190.06
255.659	189.06
255.892	198.06
256.124	181.06
256.357	183.06
256.59	185.06
256.823	181.06
257.056	185.06
257.289	163.06
257.521	176.06
257.754	173.06
257.987	184.06
258.22	168.06
258.452	163.06
258.685	170.06
258.918	144.06
259.151	171.06
259.383	164.06
259.616	181.06
259.849	193.06
260.081	189.06
260.314	192.06
260.547	214.06
260.779	203.06
261.012	170.06
261.244	173.06
261.477	175.06
261.71	179.06
261.942	180.06
262.175	197.06
262.407	188.06
262.64	181.06
262.872	183.06
263.105	175.06
263.337	163.06
263.57	199.06
263.802	168.06
264.035	179.06
264.267	186.06
264.499	181.06
264.732	179.06
264.964	168.06
265.197	163.06
265.429	158.06
265.661	174.06
265.894	163.06
266.126	184.06
266.358	166.06
266.591	163.06
266.823	184.06
267.055	191.06
267.287	184.06
267.52	163.06
267.752	169.06
267.984	177.06
268.216	188.06
268.448	166.06
268.681	192.06
268.913	186.06
269.145	201.06
269.377	213.06
269.609	210.06
269.841	217.06
270.073	218.06
270.306	222.06
270.538	236.06
270.77	253.06
271.002	215.06
271.234	228.06
271.466	236.06
271.698	244.06
271.93	237.06
272.162	239.06
272.394	246.06
272.626	231.06
272.858	237.06
273.09	222.06
273.322	196.06
273.553	220.06
273.785	222.06
274.017	219.06
274.249	207.06
274.481	202.06
274.713	192.06
274.945	223.06
275.176	189.06
275.408	202.06
275.64	191.06
275.872	219.06
276.104	217.06
276.335	216.06
276.567	230.06
276.799	233.06
277.031	215.06
277.262	237.06
277.494	240.06
277.726	238.06
277.957	222.06
278.189	200.06
278.421	227.06
278.652	224.06
278.884	228.06
279.115	227.06
279.347	207.06
279.579	200.06
279.81	209.06
280.042	197.06
280.273	204.06
280.505	209.06
280.736	214.06
280.968	195.06
281.199	208.06
281.431	208.06
281.662	198.06
281.894	217.06
282.125	220.06
282.356	221.06
282.588	220.06
282.819	242.06
283.051	214.06
283.282	208.06
283.513	222.06
283.745	208.06
283.976	213.06
284.207	219.06
284.439	236.06
284.67	210.06
284.901	218.06
285.132	218.06
285.364	230.06
285.595	222.06
285.826	199.06
286.057	223.06
286.288	204.06
286.52	219.06
286.751	221.06
286.982	221.06
287.213	202.06
287.444	218.06
287.675	216.06
287.906	234.06
288.138	239.06
288.369	248.06
288.6	228.06
288.831	224.06
289.062	227.06
289.293	224.06
289.524	226.06
289.755	214.06
289.986	216.06
290.217	213.06
290.448	220.06
290.679	223.06
290.91	227.06
291.141	213.06
291.371	230.06
291.602	238.06
291.833	233.06
292.064	223.06
292.295	220.06
292.526	224.06
292.757	213.06
292.987	214.06
293.218	209.06
293.449	223.06
293.68	234.06
293.91	230.06
294.141	244.06
294.372	195.06
294.603	235.06
294.833	215.06
295.064	235.06
295.295	231.06
295.525	229.06
295.756	208.06
295.987	255.06
296.217	250.06
296.448	254.06
296.679	243.06
296.909	228.06
297.14	235.06
297.37	217.06
297.601	224.06
297.831	224.06
298.062	240.06
298.292	231.06
298.523	226.06
298.753	235.06
298.984	238.06
299.214	239.06
299.445	234.06
299.675	216.06
299.905	223.06
300.136	225.06
300.366	234.06
300.597	229.06
300.827	252.06
301.057	251.06
301.288	255.06
301.518	247.06
301.748	243.06
301.979	251.06
302.209	243.06
302.439	245.06
302.669	251.06
302.9	250.06
303.13	241.06
303.36	235.06
303.59	255.06
303.82	259.06
304.051	251.06
304.281	254.06
304.511	240.06
304.741	243.06
304.971	247.06
305.201	237.06
305.431	246.06
305.661	245.06
305.891	245.06
306.121	252.06
306.352	247.06
306.582	262.06
306.812	249.06
307.042	265.06
307.272	251.06
307.502	259.06
307.731	266.06
307.961	252.06
308.191	248.06
308.421	277.06
308.651	259.06
308.881	263.06
309.111	255.06
309.341	246.06
309.571	273.06
309.8	284.06
310.03	286.06
310.26	283.06
310.49	293.06
310.72	298.06
310.949	298.06
311.179	315.06
311.409	275.06
311.639	295.06
311.868	282.06
312.098	291.06
312.328	291.06
312.557	309.06
312.787	309.06
313.017	297.06
313.246	301.06
313.476	272.06
313.706	289.06
313.935	292.06
314.165	284.06
314.394	296.06
314.624	301.06
314.853	292.06
315.083	302.06
315.312	280.06
315.542	299.06
315.771	294.06
316.001	270.06
316.23	289.06
316.46	299.06
316.689	298.06
316.919	289.06
317.148	288.06
317.377	280.06
317.607	305.06
317.836	297.06
318.065	285.06
318.295	279.06
318.524	280.06
318.753	285.06
318.983	286.06
319.212	290.06
319.441	288.06
319.67	288.06
319.9	297.06
320.129	296.06
320.358	301.06
320.587	275.06
320.816	311.06
321.046	294.06
321.275	312.06
321.504	313.06
321.733	326.06
321.962	307.06
322.191	311.06
322.42	355.06
322.649	344.06
322.878	349.06
323.108	367.06
323.337	375.06
323.566	405.06
323.795	428.06
324.024	473.06
324.253	596.06
324.482	855.06
324.71	1307.06
324.939	1662.06
325.168	1372.06
325.397	749.06
325.626	503.06
325.855	433.06
326.084	393.06
326.313	394.06
326.542	408.06
326.77	443.06
326.999	537.06
327.228	749.06
327.457	1098.06
327.686	1215.06
327.914	795.06
328.143	536.06
328.372	479.06
328.6	459.06
328.829	437.06
329.058	448.06
329.287	462.06
329.515	408.06
329.744	387.06
329.972	412.06
330.201	396.06
330.43	437.06
330.658	456.06
330.887	457.06
331.115	460.06
331.344	378.06
331.572	374.06
331.801	365.06
332.03	379.06
332.258	332.06
332.486	350.06
332.715	363.06
332.943	329.06
333.172	343.06
333.4	336.06
333.629	341.06
333.857	349.06
334.085	355.06
334.314	360.06
334.542	389.06
334.771	367.06
334.999	359.06
335.227	344.06
335.455	350.06
335.684	328.06
335.912	328.06
336.14	332.06
336.369	304.06
336.597	328.06
336.825	334.06
337.053	344.06
337.281	337.06
337.51	314.06
337.738	324.06
337.966	319.06
338.194	330.06
338.422	332.06
338.65	319.06
338.878	308.06
339.106	312.06
339.334	317.06
339.562	337.06
339.79	313.06
340.018	321.06
340.246	307.06
340.474	331.06
340.702	315.06
340.93	316.06
341.158	319.06
341.386	320.06
341.614	307.06
341.842	323.06
342.07	312.06
342.298	304.06
342.526	307.06
342.754	315.06
342.981	306.06
343.209	307.06
343.437	301.06
343.665	315.06
343.893	305.06
344.12	329.06
344.348	312.06
344.576	324.06
344.804	335.06
345.031	327.06
345.259	332.06
345.487	323.06
345.714	327.06
345.942	295.06
346.17	305.06
346.397	319.06
346.625	315.06
346.853	310.06
347.08	318.06
347.308	299.06
347.535	319.06
347.763	320.06
347.99	322.06
348.218	323.06
348.445	325.06
348.673	323.06
348.9	305.06
349.128	305.06
349.355	283.06
349.583	294.06
349.81	295.06
350.037	292.06
350.265	287.06
350.492	312.06
350.72	295.06
350.947	321.06
351.174	297.06
351.402	325.06
351.629	309.06
351.856	289.06
352.083	300.06
352.311	305.06
352.538	311.06
352.765	313.06
352.992	327.06
353.22	315.06
353.447	307.06
353.674	276.06
353.901	304.06
354.128	273.06
354.355	277.06
354.583	259.06
354.81	264.06
355.037	275.06
355.264	268.06
355.491	293.06
355.718	284.06
355.945	274.06
356.172	277.06
356.399	286.06
356.626	270.06
356.853	264.06
357.08	281.06
357.307	263.06
357.534	276.06
357.761	287.06
357.988	301.06
358.215	296.06
358.441	263.06
358.668	257.06
358.895	286.06
359.122	272.06
359.349	295.06
359.576	321.06
359.802	303.06
360.029	315.06
360.256	325.06
360.483	329.06
360.709	300.06
360.936	302.06
361.163	300.06
361.39	293.06
361.616	305.06
361.843	289.06
362.07	311.06
362.296	311.06
362.523	289.06
362.749	309.06
362.976	293.06
363.203	294.06
363.429	276.06
363.656	281.06
363.882	272.06
364.109	286.06
364.335	281.06
364.562	273.06
364.788	279.06
365.015	278.06
365.241	272.06
365.468	272.06
365.694	267.06
365.92	300.06
366.147	278.06
366.373	280.06
366.599	284.06
366.826	283.06
367.052	269.06
367.278	267.06
367.505	278.06
367.731	285.06
367.957	294.06
368.184	283.06
368.41	286.06
368.636	283.06
368.862	305.06
369.089	283.06
369.315	278.06
369.541	276.06
369.767	271.06
369.993	274.06
370.219	267.06
370.445	293.06
370.672	283.06
370.898	281.06
371.124	272.06
371.35	267.06
371.576	269.06
371.802	267.06
372.028	279.06
372.254	272.06
372.48	271.06
372.706	273.06
372.932	286.06
373.158	281.06
373.384	284.06
373.61	300.06
373.835	276.06
374.061	268.06
374.287	253.06
374.513	259.06
374.739	295.06
374.965	285.06
375.191	289.06
375.416	288.06
375.642	276.06
375.868	269.06
376.094	265.06
376.319	260.06
376.545	279.06
376.771	269.06
376.997	279.06
377.222	280.06
377.448	264.06
377.674	283.06
377.899	265.06
378.125	263.06
378.35	270.06
378.576	253.06
378.802	254.06
379.027	266.06
379.253	262.06
379.478	270.06
379.704	272.06
379.929	273.06
380.155	271.06
380.38	254.06
380.606	270.06
380.831	280.06
381.057	271.06
381.282	256.06
381.507	263.06
381.733	273.06
381.958	268.06
382.184	282.06
382.409	273.06
382.634	281.06
382.86	286.06
383.085	275.06
383.31	283.06
383.535	283.06
383.761	286.06
383.986	282.06
384.211	280.06
384.436	282.06
384.662	266.06
384.887	289.06
385.112	267.06
385.337	263.06
385.562	287.06
385.787	296.06
386.013	289.06
386.238	286.06
386.463	300.06
386.688	288.06
386.913	283.06
387.138	284.06
387.363	283.06
387.588	276.06
387.813	284.06
388.038	293.06
388.263	275.06
388.488	294.06
388.713	276.06
388.938	301.06
389.163	290.06
389.387	297.06
389.612	281.06
389.837	299.06
390.062	288.06
390.287	287.06
390.512	277.06
390.736	275.06
390.961	287.06
391.186	293.06
391.411	285.06
391.636	284.06
391.86	292.06
392.085	288.06
392.31	296.06
392.534	271.06
392.759	268.06
392.984	296.06
393.208	297.06
393.433	269.06
393.658	261.06
393.882	276.06
394.107	287.06
394.331	273.06
394.556	292.06
394.78	293.06
395.005	298.06
395.229	279.06
395.454	287.06
395.678	296.06
395.903	291.06
396.127	287.06
396.352	288.06
396.576	286.06
396.801	295.06
397.025	288.06
397.249	280.06
397.474	284.06
397.698	294.06
397.922	313.06
398.147	308.06
398.371	300.06
398.595	301.06
398.82	294.06
399.044	301.06
399.268	328.06
399.492	327.06
399.717	328.06
399.941	365.06
400.165	383.06
400.389	371.06
400.613	359.06
400.837	334.06
401.062	317.06
401.286	318.06
401.51	317.06
401.734	299.06
401.958	335.06
402.182	329.06
402.406	317.06
402.63	327.06
402.854	326.06
403.078	308.06
403.302	304.06
403.526	329.06
403.75	314.06
403.974	305.06
404.198	313.06
404.422	308.06
404.645	313.06
404.869	343.06
405.093	344.06
405.317	378.06
405.541	383.06
405.765	357.06
405.988	335.06
406.212	345.06
406.436	368.06
406.66	353.06
406.883	357.06
407.107	379.06
407.331	405.06
407.555	435.06
407.778	423.06
408.002	395.06
408.226	347.06
408.449	355.06
408.673	362.06
408.896	372.06
409.12	387.06
409.344	372.06
409.567	328.06
409.791	340.06
410.014	341.06
410.238	316.06
410.461	326.06
410.685	327.06
410.908	355.06
411.132	371.06
411.355	375.06
411.578	360.06
411.802	335.06
412.025	344.06
412.249	335.06
412.472	337.06
412.695	351.06
412.919	333.06
413.142	316.06
413.365	328.06
413.589	318.06
413.812	328.06
414.035	304.06
414.258	311.06
414.482	296.06
414.705	295.06
414.928	292.06
415.151	305.06
415.374	319.06
415.597	316.06
415.821	300.06
416.044	300.06
416.267	304.06
416.49	314.06
416.713	301.06
416.936	307.06
417.159	289.06
417.382	320.06
417.605	325.06
417.828	321.06
418.051	319.06
418.274	300.06
418.497	316.06
418.72	295.06
418.943	295.06
419.166	295.06
419.389	313.06
419.611	313.06
419.834	313.06
420.057	317.06
420.28	319.06
420.503	323.06
420.726	329.06
420.948	344.06
421.171	358.06
421.394	355.06
421.617	333.06
421.839	327.06
422.062	309.06
422.285	331.06
422.507	374.06
422.73	413.06
422.953	383.06
423.175	350.06
423.398	334.06
423.621	320.06
423.843	346.06
424.066	360.06
424.288	357.06
424.511	356.06
424.733	393.06
424.956	442.06
425.178	431.06
425.401	409.06
425.623	423.06
425.846	368.06
426.068	362.06
426.291	336.06
426.513	342.06
426.735	336.06
426.958	393.06
427.18	440.06
427.402	509.06
427.625	564.06
427.847	492.06
428.069	431.06
428.292	391.06
428.514	352.06
428.736	334.06
428.958	343.06
429.181	307.06
429.403	319.06
429.625	326.06
429.847	355.06
430.069	392.06
430.292	393.06
430.514	339.06
430.736	321.06
430.958	334.06
431.18	324.06
431.402	321.06
431.624	299.06
431.846	286.06
432.068	323.06
432.29	312.06
432.512	301.06
432.734	317.06
432.956	315.06
433.178	313.06
433.4	325.06
433.622	293.06
433.844	302.06
434.066	307.06
434.287	312.06
434.509	299.06
434.731	299.06
434.953	314.06
435.175	309.06
435.397	339.06
435.618	354.06
435.84	365.06
436.062	440.06
436.284	476.06
436.505	379.06
436.727	366.06
436.949	317.06
437.17	325.06
437.392	316.06
437.614	343.06
437.835	374.06
438.057	410.06
438.278	488.06
438.5	492.06
438.721	501.06
438.943	479.06
439.165	409.06
439.386	351.06
439.608	356.06
439.829	349.06
440.05	384.06
440.272	399.06
440.493	360.06
440.715	348.06
440.936	318.06
441.158	332.06
441.379	337.06
441.6	347.06
441.822	333.06
442.043	377.06
442.264	413.06
442.486	453.06
442.707	407.06
442.928	338.06
443.149	371.06
443.371	391.06
443.592	417.06
443.813	468.06
444.034	465.06
444.255	413.06
444.476	357.06
444.698	351.06
444.919	345.06
445.14	421.06
445.361	393.06
445.582	389.06
445.803	427.06
446.024	480.06
446.245	488.06
446.466	449.06
446.687	368.06
446.908	353.06
447.129	352.06
447.35	342.06
447.571	319.06
447.792	332.06
448.013	326.06
448.234	341.06
448.455	393.06
448.675	452.06
448.896	494.06
449.117	422.06
449.338	427.06
449.559	471.06
449.779	545.06
450	433.06
450.221	357.06
450.442	347.06
450.662	324.06
450.883	319.06
451.104	327.06
451.324	311.06
451.545	320.06
451.766	295.06
451.986	311.06
452.207	279.06
452.428	291.06
452.648	296.06
452.869	304.06
453.089	289.06
453.31	301.06
453.53	308.06
453.751	289.06
453.971	312.06
454.192	313.06
454.412	310.06
454.633	307.06
454.853	295.06
455.073	283.06
455.294	321.06
455.514	375.06
455.734	328.06
455.955	291.06
456.175	294.06
456.395	279.06
456.616	263.06
456.836	283.06
457.056	257.06
457.276	254.06
457.497	277.06
457.717	251.06
457.937	285.06
458.157	298.06
458.377	283.06
458.598	299.06
458.818	344.06
459.038	387.06
459.258	395.06
459.478	335.06
459.698	303.06
459.918	305.06
460.138	294.06
460.358	301.06
460.578	301.06
460.798	304.06
461.018	303.06
461.238	298.06
461.458	310.06
461.678	299.06
461.898	296.06
462.118	295.06
462.338	300.06
462.558	316.06
462.777	323.06
462.997	322.06
463.217	317.06
463.437	311.06
463.657	307.06
463.876	325.06
464.096	313.06
464.316	335.06
464.536	319.06
464.755	318.06
464.975	335.06
465.195	359.06
465.414	388.06
465.634	368.06
465.854	333.06
466.073	317.06
466.293	316.06
466.512	298.06
466.732	317.06
466.951	311.06
467.171	300.06
467.391	297.06
467.61	295.06
467.829	292.06
468.049	299.06
468.268	306.06
468.488	293.06
468.707	285.06
468.927	291.06
469.146	286.06
469.365	291.06
469.585	279.06
469.804	304.06
470.023	309.06
470.243	321.06
470.462	308.06
470.681	311.06
470.901	301.06
471.12	300.06
471.339	302.06
471.558	314.06
471.777	315.06
471.997	293.06
472.216	307.06
472.435	295.06
472.654	331.06
472.873	321.06
473.092	283.06
473.311	311.06
473.53	302.06
473.749	295.06
473.968	360.06
474.187	415.06
474.406	391.06
474.625	353.06
474.844	325.06
475.063	307.06
475.282	307.06
475.501	291.06
475.72	293.06
475.939	302.06
476.158	297.06
476.377	326.06
476.596	303.06
476.814	320.06
477.033	332.06
477.252	314.06
477.471	320.06
477.69	331.06
477.908	326.06
478.127	308.06
478.346	330.06
478.564	311.06
478.783	318.06
479.002	334.06
479.22	344.06
479.439	337.06
479.658	356.06
479.876	348.06
480.095	341.06
480.313	361.06
480.532	361.06
480.751	348.06
480.969	366.06
481.188	408.06
481.406	419.06
481.624	366.06
481.843	358.06
482.061	368.06
482.28	353.06
482.498	348.06
482.717	359.06
482.935	364.06
483.153	343.06
483.372	360.06
483.59	349.06
483.808	359.06
484.027	348.06
484.245	353.06
484.463	341.06
484.681	355.06
484.9	341.06
485.118	339.06
485.336	341.06
485.554	351.06
485.772	349.06
485.99	348.06
486.209	366.06
486.427	353.06
486.645	368.06
486.863	379.06
487.081	371.06
487.299	381.06
487.517	369.06
487.735	357.06
487.953	366.06
488.171	362.06
488.389	376.06
488.607	367.06
488.825	374.06
489.043	369.06
489.261	364.06
489.479	380.06
489.696	386.06
489.914	382.06
490.132	395.06
490.35	391.06
490.568	389.06
490.786	387.06
491.003	398.06
491.221	409.06
491.439	422.06
491.657	399.06
491.874	413.06
492.092	432.06
492.31	411.06
492.527	437.06
492.745	436.06
492.963	426.06
493.18	441.06
493.398	424.06
493.615	428.06
493.833	426.06
494.05	446.06
494.268	440.06
494.485	444.06
494.703	418.06
494.92	419.06
495.138	428.06
495.355	444.06
495.573	441.06
495.79	434.06
496.008	440.06
496.225	442.06
496.442	421.06
496.66	447.06
496.877	456.06
497.094	439.06
497.312	464.06
497.529	451.06
497.746	427.06
497.963	440.06
498.181	454.06
498.398	487.06
498.615	458.06
498.832	482.06
499.049	495.06
499.267	458.06
499.484	505.06
499.701	497.06
499.918	497.06
500.135	539.06
500.352	546.06
500.569	535.06
500.786	555.06
501.003	525.06
501.22	512.06
501.437	545.06
501.654	544.06
501.871	515.06
502.088	533.06
502.305	505.06
502.522	478.06
502.739	465.06
502.956	447.06
503.172	428.06
503.389	439.06
503.606	450.06
503.823	450.06
504.04	450.06
504.256	429.06
504.473	428.06
504.69	429.06
504.907	448.06
505.123	440.06
505.34	435.06
505.557	423.06
505.773	424.06
505.99	425.06
506.207	417.06
506.423	410.06
506.64	399.06
506.856	401.06
507.073	425.06
507.289	423.06
507.506	405.06
507.722	438.06
507.939	450.06
508.155	426.06
508.372	395.06
508.588	425.06
508.805	386.06
509.021	411.06
509.238	413.06
509.454	431.06
509.67	412.06
509.887	397.06
510.103	402.06
510.319	404.06
510.536	486.06
510.752	824.06
510.968	640.06
511.184	441.06
511.401	399.06
511.617	390.06
511.833	385.06
512.049	393.06
512.265	379.06
512.481	372.06
512.698	394.06
512.914	395.06
513.13	379.06
513.346	384.06
513.562	389.06
513.778	400.06
513.994	383.06
514.21	429.06
514.426	425.06
514.642	456.06
514.858	460.06
515.074	493.06
515.29	611.06
515.506	878.06
515.721	704.06
515.937	475.06
516.153	439.06
516.369	407.06
516.585	401.06
516.801	394.06
517.016	395.06
517.232	388.06
517.448	377.06
517.664	375.06
517.879	390.06
518.095	405.06
518.311	387.06
518.527	381.06
518.742	374.06
518.958	365.06
519.173	373.06
519.389	407.06
519.605	382.06
519.82	387.06
520.036	402.06
520.251	407.06
520.467	435.06
520.682	427.06
520.898	419.06
521.113	474.06
521.329	472.06
521.544	543.06
521.76	717.06
521.975	1144.06
522.19	1079.06
522.406	609.06
522.621	469.06
522.836	409.06
523.052	386.06
523.267	364.06
523.482	363.06
523.698	376.06
523.913	340.06
524.128	357.06
524.343	344.06
524.559	351.06
524.774	338.06
524.989	347.06
525.204	334.06
525.419	344.06
525.634	331.06
525.849	330.06
526.064	328.06
526.28	323.06
526.495	314.06
526.71	324.06
526.925	327.06
527.14	319.06
527.355	330.06
527.57	316.06
527.785	323.06
527.999	312.06
528.214	319.06
528.429	313.06
528.644	320.06
528.859	334.06
529.074	321.06
529.289	329.06
529.503	382.06
529.718	377.06
529.933	313.06
530.148	342.06
530.363	327.06
530.577	321.06
530.792	309.06
531.007	318.06
531.221	315.06
531.436	307.06
531.651	304.06
531.865	296.06
532.08	294.06
532.295	295.06
532.509	301.06
532.724	296.06
532.938	300.06
533.153	304.06
533.367	289.06
533.582	307.06
533.796	299.06
534.011	299.06
534.225	286.06
534.44	300.06
534.654	300.06
534.868	288.06
535.083	313.06
535.297	288.06
535.511	295.06
535.726	320.06
535.94	294.06
536.154	292.06
536.369	307.06
536.583	303.06
536.797	297.06
537.011	296.06
537.225	277.06
537.44	293.06
537.654	301.06
537.868	288.06
538.082	283.06
538.296	296.06
538.51	284.06
538.724	293.06
538.938	290.06
539.153	304.06
539.367	300.06
539.581	305.06
539.795	293.06
540.009	277.06
540.222	287.06
540.436	300.06
540.65	298.06
540.864	301.06
541.078	299.06
541.292	315.06
541.506	320.06
541.72	283.06
541.934	295.06
542.147	295.06
542.361	284.06
542.575	293.06
542.789	315.06
543.002	302.06
543.216	300.06
543.43	296.06
543.644	307.06
543.857	295.06
544.071	302.06
544.285	298.06
544.498	308.06
544.712	287.06
544.925	294.06
545.139	277.06
545.352	285.06
545.566	285.06
545.779	291.06
545.993	298.06
546.206	286.06
546.42	297.06
546.633	287.06
546.847	295.06
547.06	276.06
547.274	277.06
547.487	269.06
547.7	263.06
547.914	280.06
548.127	279.06
548.34	281.06
548.554	254.06
548.767	267.06
548.98	265.06
549.193	273.06
549.407	283.06
549.62	266.06
549.833	283.06
550.046	285.06
550.259	283.06
550.473	273.06
550.686	290.06
550.899	262.06
551.112	266.06
551.325	272.06
551.538	265.06
551.751	265.06
551.964	250.06
552.177	264.06
552.39	278.06
552.603	262.06
552.816	279.06
553.029	265.06
553.242	281.06
553.455	284.06
553.667	271.06
553.88	291.06
554.093	267.06
554.306	276.06
554.519	281.06
554.732	279.06
554.944	275.06
555.157	262.06
555.37	252.06
555.583	273.06
555.795	275.06
556.008	244.06
556.221	261.06
556.433	245.06
556.646	243.06
556.859	273.06
557.071	254.06
557.284	250.06
557.496	255.06
557.709	256.06
557.921	263.06
558.134	256.06
558.346	243.06
558.559	246.06
558.771	249.06
558.984	241.06
559.196	251.06
559.409	245.06
559.621	260.06
559.833	260.06
560.046	254.06
560.258	263.06
560.47	241.06
560.683	239.06
560.895	264.06
561.107	262.06
561.32	250.06
561.532	244.06
561.744	248.06
561.956	247.06
562.168	255.06
562.381	246.06
562.593	242.06
562.805	258.06
563.017	238.06
563.229	266.06
563.441	249.06
563.653	243.06
563.865	249.06
564.077	244.06
564.289	235.06
564.501	259.06
564.713	255.06
564.925	248.06
565.137	259.06
565.349	250.06
565.561	262.06
565.773	251.06
565.985	258.06
566.197	245.06
566.408	261.06
566.62	273.06
566.832	292.06
567.044	294.06
567.255	281.06
567.467	281.06
567.679	279.06
567.891	293.06
568.102	272.06
568.314	278.06
568.526	290.06
568.737	258.06
568.949	268.06
569.161	255.06
569.372	254.06
569.584	231.06
569.795	247.06
570.007	249.06
570.218	282.06
570.43	266.06
570.641	247.06
570.853	255.06
571.064	236.06
571.276	226.06
571.487	251.06
571.698	234.06
571.91	237.06
572.121	232.06
572.333	231.06
572.544	237.06
572.755	224.06
572.966	244.06
573.178	236.06
573.389	226.06
573.6	219.06
573.811	215.06
574.023	205.06
574.234	221.06
574.445	223.06
574.656	226.06
574.867	204.06
575.078	230.06
575.289	214.06
575.501	220.06
575.712	213.06
575.923	205.06
576.134	202.06
576.345	229.06
576.556	211.06
576.767	232.06
576.978	207.06
577.188	203.06
577.399	228.06
577.61	216.06
577.821	196.06
578.032	219.06
578.243	255.06
578.454	382.06
578.665	278.06
578.875	229.06
579.086	214.06
579.297	211.06
579.508	217.06
579.718	199.06
579.929	210.06
580.14	203.06
580.35	197.06
580.561	198.06
580.772	194.06
580.982	222.06
581.193	213.06
581.403	192.06
581.614	204.06
581.825	192.06
582.035	199.06
582.246	201.06
582.456	219.06
582.667	205.06
582.877	217.06
583.087	191.06
583.298	207.06
583.508	199.06
583.719	195.06
583.929	216.06
584.139	203.06
584.35	209.06
584.56	212.06
584.77	206.06
584.981	190.06
585.191	212.06
585.401	191.06
585.611	212.06
585.821	213.06
586.032	216.06
586.242	194.06
586.452	212.06
586.662	190.06
586.872	187.06
587.082	205.06
587.292	191.06
587.502	199.06
587.713	195.06
587.923	197.06
588.133	192.06
588.343	204.06
588.553	196.06
588.762	194.06
588.972	199.06
589.182	193.06
589.392	200.06
589.602	206.06
589.812	189.06
590.022	201.06
590.232	199.06
590.441	189.06
590.651	184.06
590.861	203.06
591.071	193.06
591.281	206.06
591.49	207.06
591.7	196.06
591.91	180.06
592.119	199.06
592.329	202.06
592.539	203.06
592.748	215.06
592.958	185.06
593.167	211.06
593.377	198.06
593.587	210.06
593.796	192.06
594.006	187.06
594.215	189.06
594.424	208.06
594.634	187.06
594.843	189.06
595.053	200.06
595.262	177.06
595.472	183.06
595.681	189.06
595.89	192.06
596.1	187.06
596.309	195.06
596.518	191.06
596.727	185.06
596.937	184.06
597.146	183.06
597.355	196.06
597.564	170.06
597.774	187.06
597.983	175.06
598.192	190.06
598.401	189.06
598.61	180.06
598.819	175.06
599.028	171.06
599.237	185.06
599.446	169.06
599.655	181.06
599.864	178.06
600.073	198.06
600.282	192.06
600.491	177.06
600.7	181.06
600.909	179.06
601.118	173.06
601.327	176.06
601.536	187.06
601.745	168.06
601.953	184.06
602.162	185.06
602.371	170.06
602.58	189.06
602.789	181.06
602.997	179.06
603.206	180.06
603.415	180.06
603.623	165.06
603.832	175.06
604.041	171.06
604.249	188.06
604.458	172.06
604.666	175.06
604.875	169.06
605.084	166.06
605.292	170.06
605.501	164.06
605.709	191.06
605.918	175.06
606.126	189.06
606.334	165.06
606.543	161.06
606.751	170.06
606.96	173.06
607.168	158.06
607.376	161.06
607.585	187.06
607.793	172.06
608.001	183.06
608.21	166.06
608.418	170.06
608.626	177.06
608.834	177.06
609.043	173.06
609.251	166.06
609.459	154.06
609.667	165.06
609.875	168.06
610.083	173.06
610.291	146.06
610.499	183.06
610.707	182.06
610.916	181.06
611.124	160.06
611.332	168.06
611.54	165.06
611.748	175.06
611.955	160.06
612.163	149.06
612.371	168.06
612.579	165.06
612.787	195.06
612.995	160.06
613.203	162.06
613.411	163.06
613.618	159.06
613.826	157.06
614.034	171.06
614.242	167.06
614.449	177.06
614.657	177.06
614.865	166.06
615.072	172.06
615.28	164.06
615.488	154.06
615.695	151.06
615.903	171.06
616.111	157.06
616.318	181.06
616.526	177.06
616.733	173.06
616.941	166.06
617.148	183.06
617.356	177.06
617.563	165.06
617.771	165.06
617.978	175.06
618.185	154.06
618.393	159.06
618.6	160.06
618.807	174.06
619.015	166.06
619.222	166.06
619.429	182.06
619.637	180.06
619.844	150.06
620.051	150.06
620.258	154.06
620.466	163.06
620.673	149.06
620.88	167.06
621.087	165.06
621.294	160.06
621.501	155.06
621.708	166.06
621.915	151.06
622.122	150.06
622.329	164.06
622.536	166.06
622.743	161.06
622.95	180.06
623.157	164.06
623.364	160.06
623.571	154.06
623.778	163.06
623.985	157.06
624.192	147.06
624.399	163.06
624.606	151.06
624.812	157.06
625.019	152.06
625.226	151.06
625.433	173.06
625.639	156.06
625.846	153.06
626.053	137.06
626.259	144.06
626.466	159.06
626.673	159.06
626.879	155.06
627.086	161.06
627.293	157.06
627.499	157.06
627.706	149.06
627.912	146.06
628.119	154.06
628.325	152.06
628.532	148.06
628.738	147.06
628.945	157.06
629.151	155.06
629.357	150.06
629.564	147.06
629.77	149.06
629.976	151.06
630.183	152.06
630.389	153.06
630.595	160.06
630.802	144.06
631.008	155.06
631.214	159.06
631.42	143.06
631.627	142.06
631.833	153.06
632.039	142.06
632.245	147.06
632.451	151.06
632.657	145.06
632.863	131.06
633.069	158.06
633.275	150.06
633.481	144.06
633.688	140.06
633.893	152.06
634.099	144.06
634.305	149.06
634.511	133.06
634.717	143.06
634.923	148.06
635.129	139.06
635.335	156.06
635.541	141.06
635.747	140.06
635.952	137.06
636.158	141.06
636.364	134.06
636.57	141.06
636.775	133.06
636.981	135.06
637.187	137.06
637.392	132.06
637.598	145.06
637.804	155.06
638.009	132.06
638.215	137.06
638.421	143.06
638.626	124.06
638.832	134.06
639.037	125.06
639.243	135.06
639.448	139.06
639.654	143.06
639.859	129.06
640.065	145.06
640.27	125.06
640.475	139.06
640.681	144.06
640.886	142.06
641.091	143.06
641.297	125.06
641.502	129.06
641.707	142.06
641.913	148.06
642.118	141.06
642.323	134.06
642.528	137.06
642.733	127.06
642.939	155.06
643.144	138.06
643.349	135.06
643.554	139.06
643.759	125.06
643.964	129.06
644.169	127.06
644.374	137.06
644.579	139.06
644.784	142.06
644.989	112.06
645.194	133.06
645.399	141.06
645.604	140.06
645.809	132.06
646.014	140.06
646.219	132.06
646.423	131.06
646.628	134.06
646.833	133.06
647.038	121.06
647.243	118.06
647.447	123.06
647.652	139.06
647.857	109.06
648.062	125.06
648.266	142.06
648.471	135.06
648.676	131.06
648.88	135.06
649.085	129.06
649.289	136.06
649.494	136.06
649.698	135.06
649.903	147.06
650.107	141.06
650.312	126.06
650.516	131.06
650.721	135.06
650.925	128.06
651.13	125.06
651.334	116.06
651.539	109.06
651.743	133.06
651.947	111.06
652.152	113.06
652.356	127.06
652.56	130.06
652.764	120.06
652.969	112.06
653.173	123.06
653.377	120.06
653.581	104.06
653.785	126.06
653.99	126.06
654.194	128.06
654.398	106.06
654.602	112.06
654.806	106.06
655.01	122.06
655.214	136.06
655.418	129.06
655.622	111.06
655.826	107.06
656.03	123.06
656.234	111.06
656.438	115.06
656.642	121.06
656.846	117.06
657.049	121.06
657.253	120.06
657.457	116.06
657.661	115.06
657.865	117.06
658.068	96.06
658.272	105.06
658.476	93.06
658.68	94.06
658.883	99.06
659.087	91.06
659.291	115.06
659.494	105.06
659.698	105.06
659.901	97.06
660.105	96.06
660.309	93.06
660.512	88.06
660.716	87.06
660.919	87.06
661.123	80.06
661.326	95.06
661.53	97.06
661.733	108.06
661.936	93.06
662.14	89.06
662.343	95.06
662.546	81.06
662.75	96.06
662.953	89.06
663.156	89.06
663.36	86.06
663.563	93.06
663.766	88.06
663.969	80.06
664.173	88.06
664.376	83.06
664.579	107.06
664.782	87.06
664.985	88.06
665.188	70.06
665.391	76.06
665.594	81.06
665.797	83.06
666	84.06
666.203	81.06
666.406	91.06
666.609	93.06
666.812	102.06
667.015	83.06
667.218	94.06
667.421	84.06
667.624	85.06
667.827	90.06
668.03	86.06
668.232	96.06
668.435	78.06
668.638	84.06
668.841	96.06
669.043	89.06
669.246	95.06
669.449	89.06
669.651	82.06
669.854	78.06
670.057	99.06
670.259	79.06
670.462	74.06
670.665	90.06
670.867	99.06
671.07	74.06
671.272	92.06
671.475	94.06
671.677	96.06
671.88	76.06
672.082	88.06
672.284	80.06
672.487	83.06
672.689	86.06
672.892	91.06
