Data from 1982.PennyLincolnUp.Lamp.En5.5.200Scan.071819.P1_HRD10591_16-46-32-962.txt Node
Date: Thu Jul 18 16:46:32 EDT 2019
User: cochatt
Spectrometer: HR+D1059
Trigger mode: 1
Integration Time (sec): 1.000000E-1
Scans to average: 1
Electric dark correction enabled: true
Nonlinearity correction enabled: false
Boxcar width: 0
XAxis mode: Wavelengths
Number of Pixels in Spectrum: 2048
>>>>>Begin Spectral Data<<<<<
223.165	-22.12
223.4	-22.12
223.635	-22.12
223.869	-24.12
224.104	-13.12
224.338	-10.12
224.573	-6.12
224.808	-17.12
225.042	-9.12
225.277	-8.12
225.511	-13.12
225.746	5.88
225.98	11.88
226.215	3.88
226.449	20.88
226.683	25.88
226.918	35.88
227.152	18.88
227.387	35.88
227.621	23.88
227.856	36.88
228.09	42.88
228.324	42.88
228.559	50.88
228.793	64.88
229.027	74.88
229.262	96.88
229.496	111.88
229.73	108.88
229.964	125.88
230.199	118.88
230.433	112.88
230.667	90.88
230.901	85.88
231.136	92.88
231.37	99.88
231.604	98.88
231.838	96.88
232.072	90.88
232.306	90.88
232.541	103.88
232.775	102.88
233.009	105.88
233.243	115.88
233.477	109.88
233.711	97.88
233.945	105.88
234.179	94.88
234.413	97.88
234.647	113.88
234.881	113.88
235.115	96.88
235.349	114.88
235.583	102.88
235.817	92.88
236.051	118.88
236.285	96.88
236.519	114.88
236.753	120.88
236.987	133.88
237.221	168.88
237.455	184.88
237.689	159.88
237.922	122.88
238.156	110.88
238.39	103.88
238.624	105.88
238.858	109.88
239.091	105.88
239.325	114.88
239.559	121.88
239.793	109.88
240.027	118.88
240.26	138.88
240.494	151.88
240.728	124.88
240.961	142.88
241.195	119.88
241.429	127.88
241.662	109.88
241.896	112.88
242.13	120.88
242.363	112.88
242.597	117.88
242.83	120.88
243.064	107.88
243.298	112.88
243.531	120.88
243.765	122.88
243.998	128.88
244.232	122.88
244.465	121.88
244.699	120.88
244.932	119.88
245.166	132.88
245.399	114.88
245.633	122.88
245.866	142.88
246.099	115.88
246.333	118.88
246.566	138.88
246.8	132.88
247.033	125.88
247.266	133.88
247.5	147.88
247.733	132.88
247.966	143.88
248.2	154.88
248.433	148.88
248.666	134.88
248.899	150.88
249.133	145.88
249.366	168.88
249.599	171.88
249.832	157.88
250.066	147.88
250.299	141.88
250.532	142.88
250.765	165.88
250.998	174.88
251.231	185.88
251.465	170.88
251.698	163.88
251.931	167.88
252.164	170.88
252.397	173.88
252.63	143.88
252.863	172.88
253.096	169.88
253.329	178.88
253.562	177.88
253.795	189.88
254.028	181.88
254.261	188.88
254.494	176.88
254.727	209.88
254.96	222.88
255.193	228.88
255.426	207.88
255.659	186.88
255.892	195.88
256.124	198.88
256.357	186.88
256.59	184.88
256.823	156.88
257.056	180.88
257.289	166.88
257.521	182.88
257.754	178.88
257.987	184.88
258.22	158.88
258.452	170.88
258.685	186.88
258.918	158.88
259.151	157.88
259.383	188.88
259.616	182.88
259.849	174.88
260.081	192.88
260.314	197.88
260.547	189.88
260.779	194.88
261.012	182.88
261.244	180.88
261.477	188.88
261.71	182.88
261.942	181.88
262.175	181.88
262.407	183.88
262.64	188.88
262.872	185.88
263.105	164.88
263.337	185.88
263.57	170.88
263.802	166.88
264.035	172.88
264.267	167.88
264.499	164.88
264.732	168.88
264.964	169.88
265.197	171.88
265.429	182.88
265.661	164.88
265.894	162.88
266.126	157.88
266.358	169.88
266.591	179.88
266.823	172.88
267.055	184.88
267.287	189.88
267.52	168.88
267.752	189.88
267.984	192.88
268.216	181.88
268.448	190.88
268.681	181.88
268.913	206.88
269.145	195.88
269.377	210.88
269.609	199.88
269.841	222.88
270.073	201.88
270.306	234.88
270.538	235.88
270.77	231.88
271.002	234.88
271.234	221.88
271.466	221.88
271.698	244.88
271.93	249.88
272.162	241.88
272.394	256.88
272.626	238.88
272.858	242.88
273.09	219.88
273.322	205.88
273.553	208.88
273.785	192.88
274.017	217.88
274.249	208.88
274.481	225.88
274.713	214.88
274.945	214.88
275.176	209.88
275.408	221.88
275.64	217.88
275.872	199.88
276.104	215.88
276.335	206.88
276.567	210.88
276.799	225.88
277.031	229.88
277.262	248.88
277.494	240.88
277.726	208.88
277.957	245.88
278.189	217.88
278.421	204.88
278.652	217.88
278.884	222.88
279.115	217.88
279.347	218.88
279.579	214.88
279.81	206.88
280.042	210.88
280.273	202.88
280.505	203.88
280.736	189.88
280.968	222.88
281.199	228.88
281.431	206.88
281.662	200.88
281.894	219.88
282.125	217.88
282.356	220.88
282.588	231.88
282.819	250.88
283.051	223.88
283.282	204.88
283.513	225.88
283.745	221.88
283.976	205.88
284.207	211.88
284.439	222.88
284.67	257.88
284.901	235.88
285.132	222.88
285.364	219.88
285.595	208.88
285.826	210.88
286.057	230.88
286.288	215.88
286.52	214.88
286.751	226.88
286.982	200.88
287.213	200.88
287.444	227.88
287.675	220.88
287.906	216.88
288.138	242.88
288.369	226.88
288.6	223.88
288.831	220.88
289.062	223.88
289.293	234.88
289.524	221.88
289.755	210.88
289.986	210.88
290.217	216.88
290.448	203.88
290.679	229.88
290.91	221.88
291.141	206.88
291.371	208.88
291.602	216.88
291.833	220.88
292.064	217.88
292.295	217.88
292.526	219.88
292.757	216.88
292.987	229.88
293.218	221.88
293.449	219.88
293.68	217.88
293.91	212.88
294.141	204.88
294.372	220.88
294.603	213.88
294.833	207.88
295.064	212.88
295.295	228.88
295.525	232.88
295.756	235.88
295.987	224.88
296.217	235.88
296.448	241.88
296.679	241.88
296.909	234.88
297.14	220.88
297.37	243.88
297.601	222.88
297.831	212.88
298.062	218.88
298.292	233.88
298.523	235.88
298.753	241.88
298.984	228.88
299.214	221.88
299.445	236.88
299.675	236.88
299.905	235.88
300.136	214.88
300.366	229.88
300.597	232.88
300.827	236.88
301.057	252.88
301.288	255.88
301.518	241.88
301.748	252.88
301.979	250.88
302.209	249.88
302.439	247.88
302.669	252.88
302.9	243.88
303.13	264.88
303.36	256.88
303.59	256.88
303.82	271.88
304.051	245.88
304.281	260.88
304.511	256.88
304.741	249.88
304.971	263.88
305.201	240.88
305.431	261.88
305.661	243.88
305.891	248.88
306.121	261.88
306.352	264.88
306.582	235.88
306.812	240.88
307.042	245.88
307.272	237.88
307.502	251.88
307.731	253.88
307.961	249.88
308.191	238.88
308.421	267.88
308.651	254.88
308.881	249.88
309.111	258.88
309.341	257.88
309.571	274.88
309.8	292.88
310.03	266.88
310.26	270.88
310.49	289.88
310.72	282.88
310.949	303.88
311.179	294.88
311.409	282.88
311.639	292.88
311.868	294.88
312.098	288.88
312.328	287.88
312.557	289.88
312.787	314.88
313.017	316.88
313.246	298.88
313.476	282.88
313.706	279.88
313.935	290.88
314.165	296.88
314.394	314.88
314.624	299.88
314.853	290.88
315.083	296.88
315.312	293.88
315.542	297.88
315.771	284.88
316.001	286.88
316.23	276.88
316.46	267.88
316.689	299.88
316.919	305.88
317.148	297.88
317.377	291.88
317.607	284.88
317.836	289.88
318.065	309.88
318.295	305.88
318.524	287.88
318.753	300.88
318.983	298.88
319.212	297.88
319.441	300.88
319.67	298.88
319.9	282.88
320.129	280.88
320.358	308.88
320.587	298.88
320.816	289.88
321.046	313.88
321.275	304.88
321.504	320.88
321.733	316.88
321.962	323.88
322.191	321.88
322.42	350.88
322.649	357.88
322.878	346.88
323.108	346.88
323.337	395.88
323.566	395.88
323.795	421.88
324.024	477.88
324.253	595.88
324.482	874.88
324.71	1296.88
324.939	1700.88
325.168	1377.88
325.397	750.88
325.626	499.88
325.855	446.88
326.084	408.88
326.313	418.88
326.542	402.88
326.77	436.88
326.999	537.88
327.228	765.88
327.457	1108.88
327.686	1229.88
327.914	803.88
328.143	583.88
328.372	489.88
328.6	475.88
328.829	446.88
329.058	475.88
329.287	469.88
329.515	425.88
329.744	390.88
329.972	393.88
330.201	410.88
330.43	425.88
330.658	479.88
330.887	482.88
331.115	437.88
331.344	398.88
331.572	377.88
331.801	384.88
332.03	361.88
332.258	353.88
332.486	321.88
332.715	325.88
332.943	340.88
333.172	340.88
333.4	344.88
333.629	345.88
333.857	353.88
334.085	346.88
334.314	374.88
334.542	395.88
334.771	412.88
334.999	363.88
335.227	361.88
335.455	340.88
335.684	325.88
335.912	323.88
336.14	320.88
336.369	318.88
336.597	325.88
336.825	349.88
337.053	317.88
337.281	319.88
337.51	340.88
337.738	329.88
337.966	327.88
338.194	341.88
338.422	335.88
338.65	321.88
338.878	320.88
339.106	308.88
339.334	311.88
339.562	317.88
339.79	317.88
340.018	341.88
340.246	301.88
340.474	332.88
340.702	311.88
340.93	314.88
341.158	307.88
341.386	316.88
341.614	311.88
341.842	297.88
342.07	310.88
342.298	306.88
342.526	312.88
342.754	316.88
342.981	308.88
343.209	312.88
343.437	325.88
343.665	319.88
343.893	316.88
344.12	297.88
344.348	310.88
344.576	310.88
344.804	315.88
345.031	334.88
345.259	344.88
345.487	337.88
345.714	325.88
345.942	309.88
346.17	309.88
346.397	308.88
346.625	309.88
346.853	314.88
347.08	296.88
347.308	313.88
347.535	324.88
347.763	325.88
347.99	308.88
348.218	308.88
348.445	310.88
348.673	314.88
348.9	321.88
349.128	316.88
349.355	299.88
349.583	309.88
349.81	302.88
350.037	296.88
350.265	299.88
350.492	281.88
350.72	297.88
350.947	312.88
351.174	302.88
351.402	304.88
351.629	296.88
351.856	310.88
352.083	309.88
352.311	306.88
352.538	325.88
352.765	309.88
352.992	313.88
353.22	296.88
353.447	305.88
353.674	304.88
353.901	279.88
354.128	288.88
354.355	300.88
354.583	287.88
354.81	292.88
355.037	294.88
355.264	269.88
355.491	269.88
355.718	269.88
355.945	291.88
356.172	269.88
356.399	290.88
356.626	277.88
356.853	293.88
357.08	263.88
357.307	281.88
357.534	287.88
357.761	290.88
357.988	291.88
358.215	280.88
358.441	282.88
358.668	277.88
358.895	289.88
359.122	292.88
359.349	306.88
359.576	298.88
359.802	313.88
360.029	348.88
360.256	332.88
360.483	320.88
360.709	304.88
360.936	310.88
361.163	286.88
361.39	294.88
361.616	298.88
361.843	296.88
362.07	281.88
362.296	294.88
362.523	300.88
362.749	299.88
362.976	292.88
363.203	289.88
363.429	293.88
363.656	283.88
363.882	287.88
364.109	288.88
364.335	292.88
364.562	280.88
364.788	257.88
365.015	286.88
365.241	296.88
365.468	293.88
365.694	288.88
365.92	293.88
366.147	278.88
366.373	281.88
366.599	267.88
366.826	267.88
367.052	284.88
367.278	280.88
367.505	283.88
367.731	300.88
367.957	271.88
368.184	268.88
368.41	280.88
368.636	279.88
368.862	281.88
369.089	285.88
369.315	287.88
369.541	290.88
369.767	278.88
369.993	276.88
370.219	276.88
370.445	271.88
370.672	264.88
370.898	282.88
371.124	275.88
371.35	276.88
371.576	264.88
371.802	288.88
372.028	255.88
372.254	276.88
372.48	274.88
372.706	282.88
372.932	254.88
373.158	291.88
373.384	281.88
373.61	266.88
373.835	282.88
374.061	268.88
374.287	282.88
374.513	273.88
374.739	289.88
374.965	266.88
375.191	282.88
375.416	250.88
375.642	276.88
375.868	264.88
376.094	249.88
376.319	277.88
376.545	259.88
376.771	254.88
376.997	270.88
377.222	264.88
377.448	260.88
377.674	259.88
377.899	247.88
378.125	270.88
378.35	267.88
378.576	264.88
378.802	253.88
379.027	281.88
379.253	266.88
379.478	265.88
379.704	245.88
379.929	255.88
380.155	278.88
380.38	270.88
380.606	272.88
380.831	277.88
381.057	277.88
381.282	269.88
381.507	279.88
381.733	275.88
381.958	261.88
382.184	262.88
382.409	271.88
382.634	283.88
382.86	274.88
383.085	275.88
383.31	260.88
383.535	285.88
383.761	278.88
383.986	280.88
384.211	278.88
384.436	285.88
384.662	275.88
384.887	284.88
385.112	279.88
385.337	282.88
385.562	275.88
385.787	276.88
386.013	293.88
386.238	283.88
386.463	277.88
386.688	289.88
386.913	281.88
387.138	278.88
387.363	288.88
387.588	297.88
387.813	273.88
388.038	278.88
388.263	267.88
388.488	286.88
388.713	275.88
388.938	269.88
389.163	286.88
389.387	286.88
389.612	288.88
389.837	274.88
390.062	283.88
390.287	270.88
390.512	296.88
390.736	275.88
390.961	275.88
391.186	260.88
391.411	269.88
391.636	278.88
391.86	284.88
392.085	292.88
392.31	276.88
392.534	301.88
392.759	293.88
392.984	276.88
393.208	271.88
393.433	272.88
393.658	269.88
393.882	274.88
394.107	279.88
394.331	273.88
394.556	278.88
394.78	263.88
395.005	288.88
395.229	278.88
395.454	286.88
395.678	286.88
395.903	283.88
396.127	306.88
396.352	316.88
396.576	312.88
396.801	286.88
397.025	284.88
397.249	292.88
397.474	305.88
397.698	308.88
397.922	314.88
398.147	298.88
398.371	299.88
398.595	307.88
398.82	310.88
399.044	321.88
399.268	310.88
399.492	315.88
399.717	342.88
399.941	357.88
400.165	362.88
400.389	378.88
400.613	346.88
400.837	322.88
401.062	307.88
401.286	316.88
401.51	316.88
401.734	313.88
401.958	323.88
402.182	314.88
402.406	344.88
402.63	313.88
402.854	324.88
403.078	322.88
403.302	317.88
403.526	337.88
403.75	338.88
403.974	312.88
404.198	330.88
404.422	299.88
404.645	313.88
404.869	331.88
405.093	345.88
405.317	373.88
405.541	390.88
405.765	352.88
405.988	354.88
406.212	346.88
406.436	365.88
406.66	378.88
406.883	354.88
407.107	338.88
407.331	408.88
407.555	414.88
407.778	413.88
408.002	399.88
408.226	358.88
408.449	365.88
408.673	348.88
408.896	371.88
409.12	390.88
409.344	370.88
409.567	332.88
409.791	335.88
410.014	312.88
410.238	317.88
410.461	331.88
410.685	328.88
410.908	309.88
411.132	353.88
411.355	370.88
411.578	358.88
411.802	310.88
412.025	335.88
412.249	321.88
412.472	337.88
412.695	353.88
412.919	345.88
413.142	321.88
413.365	322.88
413.589	318.88
413.812	320.88
414.035	320.88
414.258	308.88
414.482	310.88
414.705	310.88
414.928	298.88
415.151	308.88
415.374	309.88
415.597	309.88
415.821	313.88
416.044	317.88
416.267	298.88
416.49	306.88
416.713	310.88
416.936	286.88
417.159	312.88
417.382	310.88
417.605	309.88
417.828	301.88
418.051	310.88
418.274	301.88
418.497	307.88
418.72	308.88
418.943	300.88
419.166	308.88
419.389	329.88
419.611	319.88
419.834	301.88
420.057	308.88
420.28	319.88
420.503	322.88
420.726	313.88
420.948	352.88
421.171	328.88
421.394	365.88
421.617	318.88
421.839	323.88
422.062	322.88
422.285	331.88
422.507	360.88
422.73	421.88
422.953	402.88
423.175	345.88
423.398	342.88
423.621	309.88
423.843	354.88
424.066	355.88
424.288	342.88
424.511	379.88
424.733	397.88
424.956	435.88
425.178	412.88
425.401	397.88
425.623	436.88
425.846	388.88
426.068	352.88
426.291	335.88
426.513	346.88
426.735	353.88
426.958	348.88
427.18	436.88
427.402	503.88
427.625	533.88
427.847	490.88
428.069	417.88
428.292	376.88
428.514	349.88
428.736	340.88
428.958	331.88
429.181	312.88
429.403	316.88
429.625	337.88
429.847	340.88
430.069	379.88
430.292	384.88
430.514	329.88
430.736	303.88
430.958	316.88
431.18	321.88
431.402	292.88
431.624	306.88
431.846	317.88
432.068	291.88
432.29	309.88
432.512	298.88
432.734	300.88
432.956	292.88
433.178	303.88
433.4	330.88
433.622	297.88
433.844	310.88
434.066	289.88
434.287	296.88
434.509	312.88
434.731	298.88
434.953	305.88
435.175	314.88
435.397	338.88
435.618	356.88
435.84	385.88
436.062	440.88
436.284	463.88
436.505	392.88
436.727	348.88
436.949	325.88
437.17	314.88
437.392	318.88
437.614	316.88
437.835	350.88
438.057	426.88
438.278	476.88
438.5	470.88
438.721	516.88
438.943	475.88
439.165	415.88
439.386	363.88
439.608	340.88
439.829	373.88
440.05	380.88
440.272	421.88
440.493	390.88
440.715	343.88
440.936	340.88
441.158	332.88
441.379	343.88
441.6	344.88
441.822	350.88
442.043	373.88
442.264	415.88
442.486	453.88
442.707	403.88
442.928	364.88
443.149	372.88
443.371	379.88
443.592	404.88
443.813	430.88
444.034	470.88
444.255	397.88
444.476	375.88
444.698	334.88
444.919	352.88
445.14	425.88
445.361	395.88
445.582	387.88
445.803	442.88
446.024	496.88
446.245	488.88
446.466	454.88
446.687	390.88
446.908	366.88
447.129	339.88
447.35	339.88
447.571	336.88
447.792	324.88
448.013	329.88
448.234	338.88
448.455	379.88
448.675	459.88
448.896	489.88
449.117	429.88
449.338	407.88
449.559	473.88
449.779	527.88
450	438.88
450.221	333.88
450.442	331.88
450.662	327.88
450.883	324.88
451.104	333.88
451.324	330.88
451.545	308.88
451.766	288.88
451.986	307.88
452.207	285.88
452.428	294.88
452.648	308.88
452.869	297.88
453.089	308.88
453.31	314.88
453.53	294.88
453.751	299.88
453.971	293.88
454.192	304.88
454.412	293.88
454.633	282.88
454.853	292.88
455.073	296.88
455.294	307.88
455.514	336.88
455.734	326.88
455.955	292.88
456.175	282.88
456.395	289.88
456.616	278.88
456.836	273.88
457.056	285.88
457.276	268.88
457.497	271.88
457.717	276.88
457.937	276.88
458.157	289.88
458.377	292.88
458.598	324.88
458.818	366.88
459.038	389.88
459.258	407.88
459.478	336.88
459.698	312.88
459.918	301.88
460.138	299.88
460.358	312.88
460.578	306.88
460.798	300.88
461.018	293.88
461.238	278.88
461.458	292.88
461.678	278.88
461.898	300.88
462.118	304.88
462.338	303.88
462.558	301.88
462.777	297.88
462.997	324.88
463.217	310.88
463.437	315.88
463.657	318.88
463.876	296.88
464.096	306.88
464.316	308.88
464.536	314.88
464.755	316.88
464.975	317.88
465.195	363.88
465.414	398.88
465.634	344.88
465.854	318.88
466.073	318.88
466.293	304.88
466.512	298.88
466.732	294.88
466.951	306.88
467.171	293.88
467.391	302.88
467.61	299.88
467.829	311.88
468.049	301.88
468.268	300.88
468.488	309.88
468.707	289.88
468.927	282.88
469.146	284.88
469.365	287.88
469.585	273.88
469.804	270.88
470.023	284.88
470.243	293.88
470.462	315.88
470.681	314.88
470.901	307.88
471.12	306.88
471.339	298.88
471.558	304.88
471.777	322.88
471.997	297.88
472.216	306.88
472.435	318.88
472.654	321.88
472.873	300.88
473.092	308.88
473.311	304.88
473.53	308.88
473.749	299.88
473.968	351.88
474.187	380.88
474.406	392.88
474.625	344.88
474.844	316.88
475.063	302.88
475.282	308.88
475.501	293.88
475.72	301.88
475.939	310.88
476.158	284.88
476.377	292.88
476.596	301.88
476.814	326.88
477.033	314.88
477.252	293.88
477.471	311.88
477.69	315.88
477.908	327.88
478.127	308.88
478.346	323.88
478.564	345.88
478.783	322.88
479.002	338.88
479.22	314.88
479.439	339.88
479.658	349.88
479.876	353.88
480.095	347.88
480.313	381.88
480.532	358.88
480.751	333.88
480.969	364.88
481.188	390.88
481.406	438.88
481.624	387.88
481.843	370.88
482.061	361.88
482.28	348.88
482.498	351.88
482.717	349.88
482.935	352.88
483.153	329.88
483.372	350.88
483.59	348.88
483.808	354.88
484.027	345.88
484.245	339.88
484.463	341.88
484.681	347.88
484.9	344.88
485.118	346.88
485.336	358.88
485.554	360.88
485.772	365.88
485.99	342.88
486.209	351.88
486.427	366.88
486.645	380.88
486.863	369.88
487.081	387.88
487.299	402.88
487.517	388.88
487.735	362.88
487.953	375.88
488.171	377.88
488.389	361.88
488.607	388.88
488.825	352.88
489.043	368.88
489.261	362.88
489.479	358.88
489.696	367.88
489.914	364.88
490.132	375.88
490.35	388.88
490.568	362.88
490.786	374.88
491.003	403.88
491.221	412.88
491.439	416.88
491.657	406.88
491.874	420.88
492.092	418.88
492.31	409.88
492.527	406.88
492.745	448.88
492.963	439.88
493.18	432.88
493.398	448.88
493.615	428.88
493.833	427.88
494.05	437.88
494.268	411.88
494.485	427.88
494.703	435.88
494.92	418.88
495.138	437.88
495.355	453.88
495.573	450.88
495.79	420.88
496.008	420.88
496.225	429.88
496.442	432.88
496.66	459.88
496.877	426.88
497.094	420.88
497.312	419.88
497.529	445.88
497.746	439.88
497.963	459.88
498.181	453.88
498.398	469.88
498.615	468.88
498.832	508.88
499.049	465.88
499.267	465.88
499.484	499.88
499.701	490.88
499.918	499.88
500.135	522.88
500.352	537.88
500.569	540.88
500.786	545.88
501.003	546.88
501.22	552.88
501.437	524.88
501.654	516.88
501.871	519.88
502.088	502.88
502.305	508.88
502.522	456.88
502.739	462.88
502.956	467.88
503.172	452.88
503.389	469.88
503.606	434.88
503.823	468.88
504.04	464.88
504.256	438.88
504.473	427.88
504.69	447.88
504.907	440.88
505.123	434.88
505.34	414.88
505.557	408.88
505.773	412.88
505.99	397.88
506.207	436.88
506.423	428.88
506.64	427.88
506.856	399.88
507.073	398.88
507.289	406.88
507.506	424.88
507.722	427.88
507.939	415.88
508.155	413.88
508.372	414.88
508.588	391.88
508.805	398.88
509.021	390.88
509.238	400.88
509.454	405.88
509.67	405.88
509.887	410.88
510.103	406.88
510.319	427.88
510.536	496.88
510.752	811.88
510.968	620.88
511.184	427.88
511.401	411.88
511.617	379.88
511.833	395.88
512.049	392.88
512.265	386.88
512.481	393.88
512.698	405.88
512.914	395.88
513.13	392.88
513.346	382.88
513.562	374.88
513.778	385.88
513.994	392.88
514.21	398.88
514.426	416.88
514.642	459.88
514.858	453.88
515.074	502.88
515.29	616.88
515.506	874.88
515.721	683.88
515.937	482.88
516.153	436.88
516.369	425.88
516.585	413.88
516.801	401.88
517.016	393.88
517.232	379.88
517.448	391.88
517.664	390.88
517.879	397.88
518.095	396.88
518.311	385.88
518.527	396.88
518.742	396.88
518.958	389.88
519.173	373.88
519.389	397.88
519.605	382.88
519.82	397.88
520.036	416.88
520.251	428.88
520.467	416.88
520.682	425.88
520.898	456.88
521.113	467.88
521.329	487.88
521.544	577.88
521.76	720.88
521.975	1176.88
522.19	1101.88
522.406	618.88
522.621	458.88
522.836	418.88
523.052	419.88
523.267	361.88
523.482	368.88
523.698	356.88
523.913	359.88
524.128	368.88
524.343	347.88
524.559	346.88
524.774	340.88
524.989	339.88
525.204	329.88
525.419	357.88
525.634	345.88
525.849	340.88
526.064	328.88
526.28	339.88
526.495	316.88
526.71	314.88
526.925	319.88
527.14	303.88
527.355	322.88
527.57	316.88
527.785	305.88
527.999	317.88
528.214	307.88
528.429	302.88
528.644	327.88
528.859	319.88
529.074	325.88
529.289	353.88
529.503	398.88
529.718	374.88
529.933	333.88
530.148	320.88
530.363	326.88
530.577	312.88
530.792	331.88
531.007	302.88
531.221	310.88
531.436	321.88
531.651	312.88
531.865	300.88
532.08	310.88
532.295	313.88
532.509	294.88
532.724	301.88
532.938	301.88
533.153	290.88
533.367	310.88
533.582	297.88
533.796	299.88
534.011	297.88
534.225	303.88
534.44	296.88
534.654	298.88
534.868	310.88
535.083	301.88
535.297	301.88
535.511	295.88
535.726	308.88
535.94	320.88
536.154	284.88
536.369	289.88
536.583	296.88
536.797	296.88
537.011	277.88
537.225	285.88
537.44	287.88
537.654	296.88
537.868	286.88
538.082	282.88
538.296	303.88
538.51	300.88
538.724	297.88
538.938	290.88
539.153	264.88
539.367	314.88
539.581	312.88
539.795	292.88
540.009	288.88
540.222	272.88
540.436	291.88
540.65	302.88
540.864	288.88
541.078	308.88
541.292	307.88
541.506	277.88
541.72	304.88
541.934	289.88
542.147	286.88
542.361	279.88
542.575	276.88
542.789	276.88
543.002	298.88
543.216	276.88
543.43	310.88
543.644	293.88
543.857	286.88
544.071	318.88
544.285	304.88
544.498	295.88
544.712	289.88
544.925	290.88
545.139	283.88
545.352	285.88
545.566	281.88
545.779	284.88
545.993	274.88
546.206	298.88
546.42	301.88
546.633	294.88
546.847	284.88
547.06	274.88
547.274	276.88
547.487	262.88
547.7	280.88
547.914	277.88
548.127	264.88
548.34	275.88
548.554	268.88
548.767	292.88
548.98	276.88
549.193	257.88
549.407	269.88
549.62	276.88
549.833	271.88
550.046	282.88
550.259	285.88
550.473	263.88
550.686	260.88
550.899	247.88
551.112	266.88
551.325	261.88
551.538	268.88
551.751	258.88
551.964	259.88
552.177	268.88
552.39	260.88
552.603	275.88
552.816	261.88
553.029	265.88
553.242	249.88
553.455	274.88
553.667	283.88
553.88	282.88
554.093	290.88
554.306	279.88
554.519	284.88
554.732	263.88
554.944	264.88
555.157	245.88
555.37	254.88
555.583	266.88
555.795	253.88
556.008	233.88
556.221	256.88
556.433	248.88
556.646	268.88
556.859	240.88
557.071	249.88
557.284	258.88
557.496	269.88
557.709	252.88
557.921	260.88
558.134	237.88
558.346	243.88
558.559	248.88
558.771	238.88
558.984	246.88
559.196	255.88
559.409	262.88
559.621	240.88
559.833	252.88
560.046	257.88
560.258	246.88
560.47	257.88
560.683	261.88
560.895	245.88
561.107	249.88
561.32	243.88
561.532	237.88
561.744	235.88
561.956	252.88
562.168	233.88
562.381	236.88
562.593	249.88
562.805	256.88
563.017	249.88
563.229	246.88
563.441	229.88
563.653	264.88
563.865	240.88
564.077	259.88
564.289	246.88
564.501	240.88
564.713	245.88
564.925	245.88
565.137	250.88
565.349	270.88
565.561	270.88
565.773	273.88
565.985	268.88
566.197	272.88
566.408	264.88
566.62	274.88
566.832	260.88
567.044	260.88
567.255	284.88
567.467	280.88
567.679	278.88
567.891	267.88
568.102	288.88
568.314	273.88
568.526	271.88
568.737	255.88
568.949	254.88
569.161	252.88
569.372	248.88
569.584	237.88
569.795	244.88
570.007	248.88
570.218	269.88
570.43	263.88
570.641	230.88
570.853	245.88
571.064	248.88
571.276	218.88
571.487	213.88
571.698	226.88
571.91	227.88
572.121	244.88
572.333	241.88
572.544	222.88
572.755	233.88
572.966	233.88
573.178	228.88
573.389	225.88
573.6	217.88
573.811	211.88
574.023	223.88
574.234	213.88
574.445	229.88
574.656	218.88
574.867	249.88
575.078	230.88
575.289	225.88
575.501	220.88
575.712	217.88
575.923	202.88
576.134	209.88
576.345	194.88
576.556	204.88
576.767	199.88
576.978	203.88
577.188	219.88
577.399	215.88
577.61	221.88
577.821	233.88
578.032	214.88
578.243	231.88
578.454	383.88
578.665	292.88
578.875	246.88
579.086	221.88
579.297	215.88
579.508	207.88
579.718	215.88
579.929	221.88
580.14	206.88
580.35	208.88
580.561	220.88
580.772	206.88
580.982	200.88
581.193	203.88
581.403	216.88
581.614	200.88
581.825	196.88
582.035	196.88
582.246	202.88
582.456	201.88
582.667	195.88
582.877	179.88
583.087	193.88
583.298	204.88
583.508	219.88
583.719	209.88
583.929	193.88
584.139	190.88
584.35	197.88
584.56	205.88
584.77	198.88
584.981	200.88
585.191	187.88
585.401	180.88
585.611	201.88
585.821	195.88
586.032	205.88
586.242	206.88
586.452	187.88
586.662	209.88
586.872	204.88
587.082	202.88
587.292	185.88
587.502	197.88
587.713	196.88
587.923	194.88
588.133	202.88
588.343	204.88
588.553	189.88
588.762	204.88
588.972	197.88
589.182	193.88
589.392	192.88
589.602	197.88
589.812	181.88
590.022	205.88
590.232	206.88
590.441	202.88
590.651	204.88
590.861	172.88
591.071	195.88
591.281	191.88
591.49	184.88
591.7	192.88
591.91	190.88
592.119	199.88
592.329	195.88
592.539	193.88
592.748	185.88
592.958	188.88
593.167	210.88
593.377	193.88
593.587	204.88
593.796	205.88
594.006	213.88
594.215	205.88
594.424	197.88
594.634	193.88
594.843	210.88
595.053	214.88
595.262	190.88
595.472	197.88
595.681	195.88
595.89	188.88
596.1	199.88
596.309	194.88
596.518	180.88
596.727	194.88
596.937	195.88
597.146	200.88
597.355	196.88
597.564	181.88
597.774	182.88
597.983	189.88
598.192	185.88
598.401	177.88
598.61	157.88
598.819	190.88
599.028	178.88
599.237	192.88
599.446	178.88
599.655	169.88
599.864	169.88
600.073	185.88
600.282	176.88
600.491	182.88
600.7	177.88
600.909	189.88
601.118	187.88
601.327	189.88
601.536	164.88
601.745	178.88
601.953	178.88
602.162	168.88
602.371	172.88
602.58	180.88
602.789	185.88
602.997	172.88
603.206	184.88
603.415	177.88
603.623	170.88
603.832	169.88
604.041	182.88
604.249	190.88
604.458	159.88
604.666	164.88
604.875	163.88
605.084	163.88
605.292	189.88
605.501	158.88
605.709	172.88
605.918	166.88
606.126	167.88
606.334	161.88
606.543	165.88
606.751	180.88
606.96	171.88
607.168	164.88
607.376	164.88
607.585	158.88
607.793	166.88
608.001	163.88
608.21	164.88
608.418	150.88
608.626	176.88
608.834	166.88
609.043	169.88
609.251	163.88
609.459	157.88
609.667	178.88
609.875	164.88
610.083	178.88
610.291	156.88
610.499	156.88
610.707	158.88
610.916	161.88
611.124	164.88
611.332	168.88
611.54	165.88
611.748	181.88
611.955	185.88
612.163	161.88
612.371	176.88
612.579	165.88
612.787	156.88
612.995	176.88
613.203	166.88
613.411	166.88
613.618	172.88
613.826	167.88
614.034	159.88
614.242	176.88
614.449	169.88
614.657	166.88
614.865	163.88
615.072	172.88
615.28	162.88
615.488	149.88
615.695	163.88
615.903	172.88
616.111	162.88
616.318	168.88
616.526	171.88
616.733	168.88
616.941	158.88
617.148	171.88
617.356	165.88
617.563	160.88
617.771	150.88
617.978	160.88
618.185	168.88
618.393	157.88
618.6	160.88
618.807	158.88
619.015	158.88
619.222	165.88
619.429	170.88
619.637	196.88
619.844	173.88
620.051	162.88
620.258	147.88
620.466	149.88
620.673	134.88
620.88	148.88
621.087	160.88
621.294	156.88
621.501	171.88
621.708	169.88
621.915	176.88
622.122	158.88
622.329	160.88
622.536	162.88
622.743	164.88
622.95	153.88
623.157	148.88
623.364	164.88
623.571	155.88
623.778	171.88
623.985	164.88
624.192	136.88
624.399	154.88
624.606	147.88
624.812	143.88
625.019	154.88
625.226	148.88
625.433	160.88
625.639	153.88
625.846	155.88
626.053	144.88
626.259	147.88
626.466	171.88
626.673	163.88
626.879	157.88
627.086	160.88
627.293	149.88
627.499	146.88
627.706	155.88
627.912	147.88
628.119	137.88
628.325	132.88
628.532	152.88
628.738	144.88
628.945	161.88
629.151	157.88
629.357	142.88
629.564	155.88
629.77	166.88
629.976	142.88
630.183	143.88
630.389	159.88
630.595	136.88
630.802	138.88
631.008	144.88
631.214	146.88
631.42	149.88
631.627	144.88
631.833	147.88
632.039	122.88
632.245	146.88
632.451	143.88
632.657	144.88
632.863	137.88
633.069	136.88
633.275	137.88
633.481	147.88
633.688	144.88
633.893	141.88
634.099	136.88
634.305	138.88
634.511	124.88
634.717	147.88
634.923	133.88
635.129	139.88
635.335	132.88
635.541	134.88
635.747	132.88
635.952	142.88
636.158	138.88
636.364	126.88
636.57	141.88
636.775	135.88
636.981	139.88
637.187	142.88
637.392	126.88
637.598	135.88
637.804	142.88
638.009	147.88
638.215	130.88
638.421	124.88
638.626	130.88
638.832	132.88
639.037	129.88
639.243	116.88
639.448	144.88
639.654	121.88
639.859	131.88
640.065	136.88
640.27	130.88
640.475	131.88
640.681	128.88
640.886	129.88
641.091	144.88
641.297	132.88
641.502	125.88
641.707	124.88
641.913	148.88
642.118	136.88
642.323	142.88
642.528	134.88
642.733	147.88
642.939	132.88
643.144	129.88
643.349	135.88
643.554	144.88
643.759	129.88
643.964	120.88
644.169	131.88
644.374	114.88
644.579	126.88
644.784	142.88
644.989	137.88
645.194	122.88
645.399	125.88
645.604	137.88
645.809	137.88
646.014	139.88
646.219	135.88
646.423	143.88
646.628	132.88
646.833	134.88
647.038	136.88
647.243	122.88
647.447	124.88
647.652	132.88
647.857	133.88
648.062	122.88
648.266	126.88
648.471	130.88
648.676	134.88
648.88	130.88
649.085	131.88
649.289	130.88
649.494	130.88
649.698	148.88
649.903	149.88
650.107	145.88
650.312	148.88
650.516	138.88
650.721	128.88
650.925	122.88
651.13	122.88
651.334	123.88
651.539	122.88
651.743	115.88
651.947	120.88
652.152	124.88
652.356	119.88
652.56	134.88
652.764	121.88
652.969	103.88
653.173	112.88
653.377	108.88
653.581	121.88
653.785	102.88
653.99	131.88
654.194	100.88
654.398	117.88
654.602	138.88
654.806	114.88
655.01	127.88
655.214	130.88
655.418	111.88
655.622	104.88
655.826	121.88
656.03	105.88
656.234	117.88
656.438	122.88
656.642	121.88
656.846	109.88
657.049	107.88
657.253	120.88
657.457	107.88
657.661	105.88
657.865	101.88
658.068	105.88
658.272	95.88
658.476	90.88
658.68	90.88
658.883	82.88
659.087	107.88
659.291	104.88
659.494	96.88
659.698	84.88
659.901	91.88
660.105	102.88
660.309	94.88
660.512	88.88
660.716	80.88
660.919	91.88
661.123	93.88
661.326	91.88
661.53	74.88
661.733	98.88
661.936	75.88
662.14	87.88
662.343	97.88
662.546	79.88
662.75	92.88
662.953	93.88
663.156	79.88
663.36	86.88
663.563	86.88
663.766	88.88
663.969	75.88
664.173	82.88
664.376	78.88
664.579	83.88
664.782	76.88
664.985	93.88
665.188	89.88
665.391	87.88
665.594	98.88
665.797	85.88
666	87.88
666.203	80.88
666.406	70.88
666.609	99.88
666.812	88.88
667.015	74.88
667.218	90.88
667.421	85.88
667.624	84.88
667.827	82.88
668.03	73.88
668.232	71.88
668.435	78.88
668.638	77.88
668.841	88.88
669.043	85.88
669.246	81.88
669.449	84.88
669.651	82.88
669.854	85.88
670.057	73.88
670.259	76.88
670.462	87.88
670.665	77.88
670.867	85.88
671.07	84.88
671.272	93.88
671.475	78.88
671.677	96.88
671.88	94.88
672.082	88.88
672.284	77.88
672.487	87.88
672.689	72.88
672.892	85.88
