Data from 1982.PennyLincolnUp.Lamp.En5.5.200Scan.071819.P1_HRD10591_16-44-48-960.txt Node
Date: Thu Jul 18 16:44:48 EDT 2019
User: cochatt
Spectrometer: HR+D1059
Trigger mode: 1
Integration Time (sec): 1.000000E-1
Scans to average: 1
Electric dark correction enabled: true
Nonlinearity correction enabled: false
Boxcar width: 0
XAxis mode: Wavelengths
Number of Pixels in Spectrum: 2048
>>>>>Begin Spectral Data<<<<<
223.165	-16.94
223.4	-16.94
223.635	-16.94
223.869	-8.94
224.104	-18.94
224.338	-29.94
224.573	-14.94
224.808	-14.94
225.042	1.06
225.277	-0.94
225.511	-12.94
225.746	3.06
225.98	10.06
226.215	1.06
226.449	5.06
226.683	33.06
226.918	41.06
227.152	24.06
227.387	25.06
227.621	30.06
227.856	37.06
228.09	45.06
228.324	42.06
228.559	49.06
228.793	61.06
229.027	66.06
229.262	84.06
229.496	90.06
229.73	113.06
229.964	114.06
230.199	116.06
230.433	100.06
230.667	83.06
230.901	92.06
231.136	97.06
231.37	85.06
231.604	82.06
231.838	90.06
232.072	83.06
232.306	106.06
232.541	97.06
232.775	93.06
233.009	86.06
233.243	101.06
233.477	80.06
233.711	89.06
233.945	94.06
234.179	105.06
234.413	101.06
234.647	91.06
234.881	98.06
235.115	87.06
235.349	99.06
235.583	97.06
235.817	104.06
236.051	97.06
236.285	86.06
236.519	94.06
236.753	92.06
236.987	103.06
237.221	114.06
237.455	147.06
237.689	141.06
237.922	117.06
238.156	99.06
238.39	100.06
238.624	104.06
238.858	92.06
239.091	98.06
239.325	100.06
239.559	105.06
239.793	105.06
240.027	93.06
240.26	98.06
240.494	114.06
240.728	113.06
240.961	97.06
241.195	113.06
241.429	102.06
241.662	101.06
241.896	115.06
242.13	107.06
242.363	91.06
242.597	93.06
242.83	105.06
243.064	109.06
243.298	109.06
243.531	111.06
243.765	115.06
243.998	89.06
244.232	117.06
244.465	129.06
244.699	113.06
244.932	102.06
245.166	92.06
245.399	103.06
245.633	117.06
245.866	116.06
246.099	108.06
246.333	115.06
246.566	124.06
246.8	115.06
247.033	114.06
247.266	118.06
247.5	115.06
247.733	124.06
247.966	130.06
248.2	125.06
248.433	123.06
248.666	125.06
248.899	127.06
249.133	132.06
249.366	139.06
249.599	127.06
249.832	126.06
250.066	124.06
250.299	133.06
250.532	142.06
250.765	154.06
250.998	138.06
251.231	147.06
251.465	148.06
251.698	141.06
251.931	137.06
252.164	143.06
252.397	135.06
252.63	142.06
252.863	137.06
253.096	154.06
253.329	150.06
253.562	136.06
253.795	148.06
254.028	175.06
254.261	147.06
254.494	158.06
254.727	177.06
254.96	183.06
255.193	179.06
255.426	164.06
255.659	172.06
255.892	148.06
256.124	147.06
256.357	157.06
256.59	137.06
256.823	149.06
257.056	152.06
257.289	150.06
257.521	158.06
257.754	158.06
257.987	147.06
258.22	139.06
258.452	143.06
258.685	129.06
258.918	139.06
259.151	160.06
259.383	156.06
259.616	155.06
259.849	154.06
260.081	166.06
260.314	168.06
260.547	174.06
260.779	162.06
261.012	161.06
261.244	165.06
261.477	151.06
261.71	147.06
261.942	150.06
262.175	155.06
262.407	168.06
262.64	157.06
262.872	138.06
263.105	141.06
263.337	158.06
263.57	156.06
263.802	139.06
264.035	158.06
264.267	150.06
264.499	149.06
264.732	157.06
264.964	152.06
265.197	140.06
265.429	155.06
265.661	149.06
265.894	143.06
266.126	155.06
266.358	136.06
266.591	163.06
266.823	149.06
267.055	150.06
267.287	139.06
267.52	168.06
267.752	158.06
267.984	158.06
268.216	149.06
268.448	170.06
268.681	144.06
268.913	153.06
269.145	167.06
269.377	159.06
269.609	164.06
269.841	169.06
270.073	168.06
270.306	183.06
270.538	177.06
270.77	183.06
271.002	186.06
271.234	182.06
271.466	209.06
271.698	183.06
271.93	195.06
272.162	186.06
272.394	193.06
272.626	182.06
272.858	178.06
273.09	187.06
273.322	188.06
273.553	155.06
273.785	178.06
274.017	165.06
274.249	177.06
274.481	157.06
274.713	168.06
274.945	165.06
275.176	174.06
275.408	167.06
275.64	172.06
275.872	167.06
276.104	181.06
276.335	165.06
276.567	180.06
276.799	186.06
277.031	179.06
277.262	208.06
277.494	181.06
277.726	185.06
277.957	182.06
278.189	162.06
278.421	168.06
278.652	182.06
278.884	174.06
279.115	193.06
279.347	179.06
279.579	184.06
279.81	190.06
280.042	171.06
280.273	174.06
280.505	176.06
280.736	166.06
280.968	181.06
281.199	174.06
281.431	187.06
281.662	180.06
281.894	179.06
282.125	190.06
282.356	186.06
282.588	185.06
282.819	185.06
283.051	177.06
283.282	191.06
283.513	168.06
283.745	172.06
283.976	175.06
284.207	167.06
284.439	170.06
284.67	167.06
284.901	179.06
285.132	191.06
285.364	178.06
285.595	185.06
285.826	191.06
286.057	173.06
286.288	166.06
286.52	186.06
286.751	175.06
286.982	171.06
287.213	183.06
287.444	189.06
287.675	195.06
287.906	212.06
288.138	192.06
288.369	179.06
288.6	191.06
288.831	182.06
289.062	191.06
289.293	189.06
289.524	191.06
289.755	193.06
289.986	198.06
290.217	189.06
290.448	187.06
290.679	194.06
290.91	195.06
291.141	191.06
291.371	188.06
291.602	187.06
291.833	197.06
292.064	191.06
292.295	197.06
292.526	192.06
292.757	199.06
292.987	193.06
293.218	180.06
293.449	190.06
293.68	202.06
293.91	179.06
294.141	184.06
294.372	181.06
294.603	193.06
294.833	175.06
295.064	195.06
295.295	179.06
295.525	205.06
295.756	198.06
295.987	207.06
296.217	202.06
296.448	183.06
296.679	186.06
296.909	199.06
297.14	200.06
297.37	203.06
297.601	186.06
297.831	202.06
298.062	195.06
298.292	203.06
298.523	183.06
298.753	183.06
298.984	186.06
299.214	202.06
299.445	204.06
299.675	213.06
299.905	213.06
300.136	191.06
300.366	214.06
300.597	183.06
300.827	202.06
301.057	206.06
301.288	207.06
301.518	196.06
301.748	180.06
301.979	184.06
302.209	206.06
302.439	214.06
302.669	210.06
302.9	211.06
303.13	200.06
303.36	195.06
303.59	211.06
303.82	214.06
304.051	207.06
304.281	201.06
304.511	225.06
304.741	190.06
304.971	210.06
305.201	225.06
305.431	218.06
305.661	221.06
305.891	203.06
306.121	230.06
306.352	209.06
306.582	230.06
306.812	208.06
307.042	200.06
307.272	177.06
307.502	213.06
307.731	202.06
307.961	203.06
308.191	227.06
308.421	211.06
308.651	226.06
308.881	226.06
309.111	224.06
309.341	218.06
309.571	224.06
309.8	199.06
310.03	245.06
310.26	222.06
310.49	233.06
310.72	237.06
310.949	246.06
311.179	242.06
311.409	221.06
311.639	222.06
311.868	243.06
312.098	201.06
312.328	232.06
312.557	247.06
312.787	257.06
313.017	257.06
313.246	245.06
313.476	222.06
313.706	241.06
313.935	231.06
314.165	242.06
314.394	245.06
314.624	237.06
314.853	234.06
315.083	243.06
315.312	243.06
315.542	221.06
315.771	210.06
316.001	244.06
316.23	220.06
316.46	229.06
316.689	223.06
316.919	243.06
317.148	238.06
317.377	233.06
317.607	250.06
317.836	233.06
318.065	221.06
318.295	226.06
318.524	219.06
318.753	241.06
318.983	236.06
319.212	228.06
319.441	232.06
319.67	241.06
319.9	221.06
320.129	233.06
320.358	247.06
320.587	238.06
320.816	245.06
321.046	254.06
321.275	246.06
321.504	241.06
321.733	256.06
321.962	248.06
322.191	270.06
322.42	259.06
322.649	277.06
322.878	252.06
323.108	271.06
323.337	277.06
323.566	298.06
323.795	281.06
324.024	336.06
324.253	407.06
324.482	589.06
324.71	807.06
324.939	1082.06
325.168	855.06
325.397	469.06
325.626	334.06
325.855	326.06
326.084	292.06
326.313	275.06
326.542	283.06
326.77	330.06
326.999	388.06
327.228	515.06
327.457	701.06
327.686	781.06
327.914	525.06
328.143	397.06
328.372	334.06
328.6	340.06
328.829	328.06
329.058	330.06
329.287	342.06
329.515	325.06
329.744	301.06
329.972	282.06
330.201	310.06
330.43	328.06
330.658	333.06
330.887	339.06
331.115	333.06
331.344	299.06
331.572	307.06
331.801	276.06
332.03	283.06
332.258	279.06
332.486	258.06
332.715	275.06
332.943	249.06
333.172	265.06
333.4	267.06
333.629	282.06
333.857	268.06
334.085	287.06
334.314	292.06
334.542	290.06
334.771	298.06
334.999	269.06
335.227	258.06
335.455	254.06
335.684	265.06
335.912	273.06
336.14	245.06
336.369	259.06
336.597	268.06
336.825	273.06
337.053	264.06
337.281	270.06
337.51	264.06
337.738	271.06
337.966	269.06
338.194	250.06
338.422	260.06
338.65	247.06
338.878	253.06
339.106	257.06
339.334	254.06
339.562	266.06
339.79	258.06
340.018	258.06
340.246	265.06
340.474	269.06
340.702	255.06
340.93	245.06
341.158	255.06
341.386	259.06
341.614	256.06
341.842	254.06
342.07	249.06
342.298	253.06
342.526	256.06
342.754	262.06
342.981	262.06
343.209	255.06
343.437	249.06
343.665	270.06
343.893	270.06
344.12	281.06
344.348	277.06
344.576	258.06
344.804	232.06
345.031	275.06
345.259	275.06
345.487	259.06
345.714	240.06
345.942	249.06
346.17	248.06
346.397	245.06
346.625	241.06
346.853	255.06
347.08	237.06
347.308	266.06
347.535	255.06
347.763	252.06
347.99	254.06
348.218	238.06
348.445	269.06
348.673	252.06
348.9	256.06
349.128	243.06
349.355	229.06
349.583	262.06
349.81	245.06
350.037	235.06
350.265	215.06
350.492	252.06
350.72	243.06
350.947	266.06
351.174	252.06
351.402	263.06
351.629	253.06
351.856	252.06
352.083	266.06
352.311	260.06
352.538	245.06
352.765	250.06
352.992	235.06
353.22	242.06
353.447	233.06
353.674	243.06
353.901	238.06
354.128	250.06
354.355	243.06
354.583	237.06
354.81	238.06
355.037	263.06
355.264	247.06
355.491	230.06
355.718	234.06
355.945	218.06
356.172	233.06
356.399	234.06
356.626	223.06
356.853	231.06
357.08	231.06
357.307	237.06
357.534	242.06
357.761	239.06
357.988	245.06
358.215	233.06
358.441	243.06
358.668	252.06
358.895	243.06
359.122	228.06
359.349	232.06
359.576	247.06
359.802	241.06
360.029	267.06
360.256	263.06
360.483	266.06
360.709	243.06
360.936	257.06
361.163	246.06
361.39	236.06
361.616	264.06
361.843	254.06
362.07	254.06
362.296	265.06
362.523	247.06
362.749	242.06
362.976	244.06
363.203	227.06
363.429	255.06
363.656	217.06
363.882	236.06
364.109	241.06
364.335	243.06
364.562	235.06
364.788	236.06
365.015	233.06
365.241	230.06
365.468	234.06
365.694	228.06
365.92	233.06
366.147	226.06
366.373	233.06
366.599	245.06
366.826	234.06
367.052	233.06
367.278	246.06
367.505	243.06
367.731	234.06
367.957	228.06
368.184	235.06
368.41	247.06
368.636	237.06
368.862	235.06
369.089	225.06
369.315	226.06
369.541	214.06
369.767	232.06
369.993	238.06
370.219	243.06
370.445	234.06
370.672	225.06
370.898	223.06
371.124	229.06
371.35	224.06
371.576	228.06
371.802	244.06
372.028	230.06
372.254	232.06
372.48	232.06
372.706	221.06
372.932	237.06
373.158	251.06
373.384	244.06
373.61	236.06
373.835	226.06
374.061	239.06
374.287	248.06
374.513	231.06
374.739	239.06
374.965	237.06
375.191	246.06
375.416	228.06
375.642	254.06
375.868	243.06
376.094	230.06
376.319	226.06
376.545	232.06
376.771	243.06
376.997	232.06
377.222	255.06
377.448	235.06
377.674	234.06
377.899	230.06
378.125	222.06
378.35	215.06
378.576	230.06
378.802	244.06
379.027	242.06
379.253	231.06
379.478	243.06
379.704	237.06
379.929	236.06
380.155	216.06
380.38	219.06
380.606	226.06
380.831	238.06
381.057	237.06
381.282	238.06
381.507	221.06
381.733	229.06
381.958	240.06
382.184	244.06
382.409	228.06
382.634	225.06
382.86	235.06
383.085	234.06
383.31	242.06
383.535	242.06
383.761	235.06
383.986	235.06
384.211	230.06
384.436	245.06
384.662	261.06
384.887	251.06
385.112	237.06
385.337	241.06
385.562	242.06
385.787	244.06
386.013	245.06
386.238	259.06
386.463	258.06
386.688	246.06
386.913	243.06
387.138	250.06
387.363	232.06
387.588	261.06
387.813	253.06
388.038	238.06
388.263	239.06
388.488	258.06
388.713	238.06
388.938	254.06
389.163	259.06
389.387	247.06
389.612	243.06
389.837	242.06
390.062	244.06
390.287	237.06
390.512	221.06
390.736	232.06
390.961	253.06
391.186	265.06
391.411	262.06
391.636	253.06
391.86	243.06
392.085	246.06
392.31	251.06
392.534	255.06
392.759	253.06
392.984	249.06
393.208	245.06
393.433	251.06
393.658	231.06
393.882	246.06
394.107	246.06
394.331	257.06
394.556	246.06
394.78	251.06
395.005	248.06
395.229	250.06
395.454	261.06
395.678	271.06
395.903	265.06
396.127	262.06
396.352	268.06
396.576	259.06
396.801	269.06
397.025	263.06
397.249	249.06
397.474	249.06
397.698	261.06
397.922	273.06
398.147	261.06
398.371	287.06
398.595	270.06
398.82	277.06
399.044	251.06
399.268	282.06
399.492	280.06
399.717	291.06
399.941	321.06
400.165	335.06
400.389	327.06
400.613	294.06
400.837	266.06
401.062	276.06
401.286	280.06
401.51	273.06
401.734	258.06
401.958	270.06
402.182	257.06
402.406	275.06
402.63	290.06
402.854	275.06
403.078	259.06
403.302	288.06
403.526	272.06
403.75	268.06
403.974	262.06
404.198	267.06
404.422	268.06
404.645	276.06
404.869	293.06
405.093	306.06
405.317	318.06
405.541	299.06
405.765	285.06
405.988	279.06
406.212	302.06
406.436	283.06
406.66	296.06
406.883	300.06
407.107	317.06
407.331	326.06
407.555	368.06
407.778	348.06
408.002	333.06
408.226	314.06
408.449	313.06
408.673	291.06
408.896	326.06
409.12	332.06
409.344	330.06
409.567	290.06
409.791	271.06
410.014	287.06
410.238	260.06
410.461	285.06
410.685	273.06
410.908	269.06
411.132	286.06
411.355	310.06
411.578	287.06
411.802	281.06
412.025	293.06
412.249	289.06
412.472	275.06
412.695	298.06
412.919	300.06
413.142	270.06
413.365	266.06
413.589	276.06
413.812	262.06
414.035	262.06
414.258	254.06
414.482	271.06
414.705	254.06
414.928	275.06
415.151	263.06
415.374	246.06
415.597	262.06
415.821	266.06
416.044	267.06
416.267	262.06
416.49	267.06
416.713	267.06
416.936	260.06
417.159	265.06
417.382	257.06
417.605	269.06
417.828	278.06
418.051	263.06
418.274	269.06
418.497	261.06
418.72	268.06
418.943	261.06
419.166	270.06
419.389	289.06
419.611	265.06
419.834	254.06
420.057	268.06
420.28	270.06
420.503	262.06
420.726	271.06
420.948	275.06
421.171	285.06
421.394	308.06
421.617	269.06
421.839	265.06
422.062	258.06
422.285	278.06
422.507	324.06
422.73	346.06
422.953	330.06
423.175	278.06
423.398	296.06
423.621	297.06
423.843	291.06
424.066	309.06
424.288	295.06
424.511	283.06
424.733	310.06
424.956	357.06
425.178	335.06
425.401	350.06
425.623	375.06
425.846	297.06
426.068	299.06
426.291	298.06
426.513	281.06
426.735	281.06
426.958	311.06
427.18	335.06
427.402	418.06
427.625	442.06
427.847	379.06
428.069	331.06
428.292	315.06
428.514	278.06
428.736	270.06
428.958	286.06
429.181	277.06
429.403	273.06
429.625	288.06
429.847	301.06
430.069	309.06
430.292	327.06
430.514	290.06
430.736	286.06
430.958	262.06
431.18	264.06
431.402	249.06
431.624	244.06
431.846	252.06
432.068	260.06
432.29	270.06
432.512	258.06
432.734	266.06
432.956	268.06
433.178	272.06
433.4	254.06
433.622	271.06
433.844	283.06
434.066	261.06
434.287	248.06
434.509	250.06
434.731	252.06
434.953	265.06
435.175	268.06
435.397	284.06
435.618	274.06
435.84	303.06
436.062	341.06
436.284	395.06
436.505	328.06
436.727	311.06
436.949	295.06
437.17	283.06
437.392	267.06
437.614	285.06
437.835	291.06
438.057	352.06
438.278	381.06
438.5	385.06
438.721	409.06
438.943	403.06
439.165	325.06
439.386	289.06
439.608	275.06
439.829	296.06
440.05	306.06
440.272	333.06
440.493	290.06
440.715	300.06
440.936	277.06
441.158	273.06
441.379	272.06
441.6	280.06
441.822	293.06
442.043	298.06
442.264	360.06
442.486	357.06
442.707	317.06
442.928	319.06
443.149	295.06
443.371	330.06
443.592	323.06
443.813	383.06
444.034	389.06
444.255	329.06
444.476	285.06
444.698	285.06
444.919	296.06
445.14	363.06
445.361	344.06
445.582	310.06
445.803	333.06
446.024	379.06
446.245	381.06
446.466	363.06
446.687	300.06
446.908	286.06
447.129	279.06
447.35	276.06
447.571	271.06
447.792	265.06
448.013	282.06
448.234	284.06
448.455	309.06
448.675	347.06
448.896	399.06
449.117	351.06
449.338	335.06
449.559	390.06
449.779	407.06
450	328.06
450.221	313.06
450.442	309.06
450.662	268.06
450.883	253.06
451.104	274.06
451.324	247.06
451.545	255.06
451.766	260.06
451.986	239.06
452.207	260.06
452.428	253.06
452.648	235.06
452.869	253.06
453.089	238.06
453.31	261.06
453.53	250.06
453.751	263.06
453.971	255.06
454.192	260.06
454.412	250.06
454.633	250.06
454.853	230.06
455.073	228.06
455.294	257.06
455.514	285.06
455.734	283.06
455.955	231.06
456.175	242.06
456.395	226.06
456.616	237.06
456.836	244.06
457.056	229.06
457.276	227.06
457.497	253.06
457.717	232.06
457.937	238.06
458.157	236.06
458.377	247.06
458.598	260.06
458.818	271.06
459.038	317.06
459.258	313.06
459.478	265.06
459.698	249.06
459.918	251.06
460.138	274.06
460.358	249.06
460.578	280.06
460.798	271.06
461.018	246.06
461.238	258.06
461.458	273.06
461.678	245.06
461.898	258.06
462.118	265.06
462.338	267.06
462.558	279.06
462.777	257.06
462.997	259.06
463.217	287.06
463.437	259.06
463.657	261.06
463.876	266.06
464.096	271.06
464.316	287.06
464.536	277.06
464.755	283.06
464.975	285.06
465.195	288.06
465.414	308.06
465.634	284.06
465.854	263.06
466.073	253.06
466.293	253.06
466.512	256.06
466.732	245.06
466.951	243.06
467.171	243.06
467.391	260.06
467.61	241.06
467.829	239.06
468.049	255.06
468.268	258.06
468.488	249.06
468.707	257.06
468.927	221.06
469.146	227.06
469.365	249.06
469.585	244.06
469.804	274.06
470.023	266.06
470.243	238.06
470.462	255.06
470.681	261.06
470.901	278.06
471.12	254.06
471.339	262.06
471.558	253.06
471.777	243.06
471.997	260.06
472.216	242.06
472.435	267.06
472.654	266.06
472.873	252.06
473.092	250.06
473.311	263.06
473.53	268.06
473.749	245.06
473.968	290.06
474.187	328.06
474.406	338.06
474.625	290.06
474.844	263.06
475.063	278.06
475.282	247.06
475.501	264.06
475.72	279.06
475.939	266.06
476.158	269.06
476.377	264.06
476.596	246.06
476.814	268.06
477.033	253.06
477.252	259.06
477.471	267.06
477.69	282.06
477.908	270.06
478.127	276.06
478.346	286.06
478.564	281.06
478.783	280.06
479.002	273.06
479.22	290.06
479.439	292.06
479.658	286.06
479.876	309.06
480.095	302.06
480.313	307.06
480.532	289.06
480.751	287.06
480.969	282.06
481.188	310.06
481.406	316.06
481.624	307.06
481.843	318.06
482.061	313.06
482.28	303.06
482.498	283.06
482.717	282.06
482.935	293.06
483.153	299.06
483.372	308.06
483.59	307.06
483.808	311.06
484.027	291.06
484.245	309.06
484.463	289.06
484.681	295.06
484.9	263.06
485.118	303.06
485.336	298.06
485.554	283.06
485.772	316.06
485.99	310.06
486.209	295.06
486.427	277.06
486.645	296.06
486.863	324.06
487.081	316.06
487.299	318.06
487.517	310.06
487.735	309.06
487.953	317.06
488.171	325.06
488.389	308.06
488.607	317.06
488.825	301.06
489.043	315.06
489.261	305.06
489.479	331.06
489.696	321.06
489.914	319.06
490.132	325.06
490.35	318.06
490.568	342.06
490.786	292.06
491.003	324.06
491.221	345.06
491.439	333.06
491.657	322.06
491.874	351.06
492.092	354.06
492.31	357.06
492.527	347.06
492.745	342.06
492.963	341.06
493.18	356.06
493.398	342.06
493.615	337.06
493.833	359.06
494.05	359.06
494.268	359.06
494.485	371.06
494.703	371.06
494.92	362.06
495.138	356.06
495.355	352.06
495.573	368.06
495.79	339.06
496.008	350.06
496.225	358.06
496.442	369.06
496.66	373.06
496.877	348.06
497.094	355.06
497.312	385.06
497.529	377.06
497.746	381.06
497.963	367.06
498.181	380.06
498.398	380.06
498.615	397.06
498.832	376.06
499.049	383.06
499.267	422.06
499.484	404.06
499.701	426.06
499.918	435.06
500.135	443.06
500.352	448.06
500.569	449.06
500.786	466.06
501.003	492.06
501.22	466.06
501.437	445.06
501.654	437.06
501.871	436.06
502.088	424.06
502.305	405.06
502.522	402.06
502.739	406.06
502.956	383.06
503.172	375.06
503.389	372.06
503.606	365.06
503.823	360.06
504.04	366.06
504.256	374.06
504.473	356.06
504.69	359.06
504.907	371.06
505.123	357.06
505.34	354.06
505.557	363.06
505.773	370.06
505.99	355.06
506.207	342.06
506.423	352.06
506.64	327.06
506.856	364.06
507.073	339.06
507.289	337.06
507.506	335.06
507.722	352.06
507.939	360.06
508.155	323.06
508.372	338.06
508.588	331.06
508.805	311.06
509.021	317.06
509.238	334.06
509.454	335.06
509.67	333.06
509.887	328.06
510.103	326.06
510.319	340.06
510.536	385.06
510.752	565.06
510.968	446.06
511.184	326.06
511.401	328.06
511.617	326.06
511.833	322.06
512.049	325.06
512.265	322.06
512.481	314.06
512.698	316.06
512.914	329.06
513.13	310.06
513.346	303.06
513.562	319.06
513.778	308.06
513.994	326.06
514.21	301.06
514.426	331.06
514.642	342.06
514.858	357.06
515.074	378.06
515.29	399.06
515.506	577.06
515.721	486.06
515.937	360.06
516.153	342.06
516.369	316.06
516.585	318.06
516.801	301.06
517.016	321.06
517.232	329.06
517.448	326.06
517.664	325.06
517.879	312.06
518.095	327.06
518.311	308.06
518.527	351.06
518.742	334.06
518.958	324.06
519.173	314.06
519.389	341.06
519.605	317.06
519.82	317.06
520.036	336.06
520.251	328.06
520.467	340.06
520.682	334.06
520.898	333.06
521.113	342.06
521.329	348.06
521.544	392.06
521.76	471.06
521.975	714.06
522.19	671.06
522.406	437.06
522.621	341.06
522.836	305.06
523.052	308.06
523.267	308.06
523.482	309.06
523.698	307.06
523.913	265.06
524.128	297.06
524.343	287.06
524.559	300.06
524.774	272.06
524.989	282.06
525.204	305.06
525.419	286.06
525.634	271.06
525.849	285.06
526.064	291.06
526.28	266.06
526.495	272.06
526.71	283.06
526.925	275.06
527.14	269.06
527.355	266.06
527.57	247.06
527.785	267.06
527.999	267.06
528.214	280.06
528.429	275.06
528.644	257.06
528.859	251.06
529.074	282.06
529.289	283.06
529.503	298.06
529.718	285.06
529.933	286.06
530.148	275.06
530.363	269.06
530.577	256.06
530.792	273.06
531.007	262.06
531.221	241.06
531.436	267.06
531.651	257.06
531.865	255.06
532.08	262.06
532.295	257.06
532.509	250.06
532.724	262.06
532.938	269.06
533.153	251.06
533.367	263.06
533.582	261.06
533.796	266.06
534.011	269.06
534.225	255.06
534.44	260.06
534.654	235.06
534.868	257.06
535.083	249.06
535.297	252.06
535.511	267.06
535.726	276.06
535.94	277.06
536.154	257.06
536.369	249.06
536.583	260.06
536.797	245.06
537.011	269.06
537.225	257.06
537.44	251.06
537.654	245.06
537.868	250.06
538.082	262.06
538.296	264.06
538.51	247.06
538.724	271.06
538.938	244.06
539.153	249.06
539.367	258.06
539.581	289.06
539.795	246.06
540.009	259.06
540.222	247.06
540.436	248.06
540.65	249.06
540.864	262.06
541.078	254.06
541.292	253.06
541.506	258.06
541.72	269.06
541.934	243.06
542.147	265.06
542.361	249.06
542.575	256.06
542.789	235.06
543.002	258.06
543.216	265.06
543.43	241.06
543.644	247.06
543.857	263.06
544.071	257.06
544.285	253.06
544.498	256.06
544.712	247.06
544.925	257.06
545.139	262.06
545.352	243.06
545.566	257.06
545.779	242.06
545.993	259.06
546.206	255.06
546.42	246.06
546.633	227.06
546.847	244.06
547.06	233.06
547.274	245.06
547.487	243.06
547.7	241.06
547.914	249.06
548.127	230.06
548.34	236.06
548.554	248.06
548.767	222.06
548.98	249.06
549.193	233.06
549.407	267.06
549.62	232.06
549.833	229.06
550.046	234.06
550.259	234.06
550.473	244.06
550.686	248.06
550.899	239.06
551.112	229.06
551.325	243.06
551.538	229.06
551.751	239.06
551.964	247.06
552.177	226.06
552.39	245.06
552.603	228.06
552.816	227.06
553.029	251.06
553.242	249.06
553.455	257.06
553.667	250.06
553.88	234.06
554.093	229.06
554.306	257.06
554.519	244.06
554.732	216.06
554.944	243.06
555.157	237.06
555.37	231.06
555.583	237.06
555.795	223.06
556.008	229.06
556.221	221.06
556.433	219.06
556.646	215.06
556.859	222.06
557.071	210.06
557.284	223.06
557.496	218.06
557.709	224.06
557.921	205.06
558.134	204.06
558.346	217.06
558.559	235.06
558.771	230.06
558.984	218.06
559.196	216.06
559.409	213.06
559.621	237.06
559.833	226.06
560.046	217.06
560.258	215.06
560.47	235.06
560.683	243.06
560.895	214.06
561.107	210.06
561.32	216.06
561.532	213.06
561.744	224.06
561.956	213.06
562.168	210.06
562.381	210.06
562.593	221.06
562.805	213.06
563.017	228.06
563.229	237.06
563.441	213.06
563.653	216.06
563.865	216.06
564.077	225.06
564.289	201.06
564.501	229.06
564.713	230.06
564.925	225.06
565.137	217.06
565.349	238.06
565.561	248.06
565.773	252.06
565.985	240.06
566.197	251.06
566.408	235.06
566.62	246.06
566.832	247.06
567.044	242.06
567.255	250.06
567.467	238.06
567.679	268.06
567.891	249.06
568.102	256.06
568.314	240.06
568.526	231.06
568.737	243.06
568.949	220.06
569.161	244.06
569.372	221.06
569.584	235.06
569.795	218.06
570.007	217.06
570.218	226.06
570.43	223.06
570.641	209.06
570.853	230.06
571.064	209.06
571.276	195.06
571.487	218.06
571.698	206.06
571.91	203.06
572.121	210.06
572.333	204.06
572.544	201.06
572.755	181.06
572.966	201.06
573.178	205.06
573.389	204.06
573.6	186.06
573.811	191.06
574.023	190.06
574.234	203.06
574.445	189.06
574.656	191.06
574.867	202.06
575.078	197.06
575.289	196.06
575.501	205.06
575.712	202.06
575.923	189.06
576.134	190.06
576.345	196.06
576.556	187.06
576.767	174.06
576.978	186.06
577.188	194.06
577.399	178.06
577.61	200.06
577.821	212.06
578.032	183.06
578.243	217.06
578.454	282.06
578.665	228.06
578.875	190.06
579.086	195.06
579.297	178.06
579.508	193.06
579.718	197.06
579.929	200.06
580.14	184.06
580.35	196.06
580.561	188.06
580.772	188.06
580.982	169.06
581.193	177.06
581.403	174.06
581.614	187.06
581.825	172.06
582.035	193.06
582.246	189.06
582.456	189.06
582.667	181.06
582.877	189.06
583.087	189.06
583.298	189.06
583.508	188.06
583.719	179.06
583.929	209.06
584.139	174.06
584.35	194.06
584.56	185.06
584.77	185.06
584.981	168.06
585.191	178.06
585.401	193.06
585.611	175.06
585.821	190.06
586.032	174.06
586.242	190.06
586.452	201.06
586.662	195.06
586.872	182.06
587.082	170.06
587.292	183.06
587.502	176.06
587.713	178.06
587.923	170.06
588.133	174.06
588.343	170.06
588.553	157.06
588.762	186.06
588.972	175.06
589.182	203.06
589.392	210.06
589.602	194.06
589.812	206.06
590.022	199.06
590.232	177.06
590.441	187.06
590.651	166.06
590.861	185.06
591.071	173.06
591.281	186.06
591.49	182.06
591.7	194.06
591.91	188.06
592.119	158.06
592.329	193.06
592.539	196.06
592.748	196.06
592.958	205.06
593.167	187.06
593.377	171.06
593.587	177.06
593.796	180.06
594.006	180.06
594.215	178.06
594.424	188.06
594.634	172.06
594.843	184.06
595.053	176.06
595.262	166.06
595.472	177.06
595.681	151.06
595.89	177.06
596.1	157.06
596.309	188.06
596.518	181.06
596.727	180.06
596.937	166.06
597.146	161.06
597.355	166.06
597.564	164.06
597.774	175.06
597.983	151.06
598.192	167.06
598.401	171.06
598.61	172.06
598.819	177.06
599.028	177.06
599.237	158.06
599.446	154.06
599.655	165.06
599.864	159.06
600.073	170.06
600.282	157.06
600.491	159.06
600.7	142.06
600.909	166.06
601.118	150.06
601.327	169.06
601.536	176.06
601.745	168.06
601.953	165.06
602.162	153.06
602.371	143.06
602.58	168.06
602.789	162.06
602.997	159.06
603.206	169.06
603.415	160.06
603.623	147.06
603.832	179.06
604.041	161.06
604.249	157.06
604.458	141.06
604.666	148.06
604.875	160.06
605.084	151.06
605.292	147.06
605.501	146.06
605.709	157.06
605.918	166.06
606.126	170.06
606.334	149.06
606.543	159.06
606.751	151.06
606.96	143.06
607.168	149.06
607.376	154.06
607.585	155.06
607.793	157.06
608.001	155.06
608.21	165.06
608.418	156.06
608.626	167.06
608.834	161.06
609.043	153.06
609.251	149.06
609.459	156.06
609.667	150.06
609.875	142.06
610.083	161.06
610.291	164.06
610.499	166.06
610.707	164.06
610.916	152.06
611.124	164.06
611.332	152.06
611.54	171.06
611.748	170.06
611.955	161.06
612.163	166.06
612.371	152.06
612.579	158.06
612.787	156.06
612.995	149.06
613.203	143.06
613.411	139.06
613.618	160.06
613.826	151.06
614.034	150.06
614.242	156.06
614.449	161.06
614.657	151.06
614.865	166.06
615.072	154.06
615.28	157.06
615.488	163.06
615.695	157.06
615.903	159.06
616.111	133.06
616.318	148.06
616.526	151.06
616.733	169.06
616.941	168.06
617.148	149.06
617.356	153.06
617.563	161.06
617.771	157.06
617.978	138.06
618.185	151.06
618.393	151.06
618.6	154.06
618.807	131.06
619.015	161.06
619.222	160.06
619.429	181.06
619.637	142.06
619.844	149.06
620.051	149.06
620.258	156.06
620.466	165.06
620.673	152.06
620.88	150.06
621.087	155.06
621.294	149.06
621.501	149.06
621.708	143.06
621.915	165.06
622.122	137.06
622.329	149.06
622.536	147.06
622.743	144.06
622.95	141.06
623.157	159.06
623.364	161.06
623.571	139.06
623.778	163.06
623.985	152.06
624.192	148.06
624.399	158.06
624.606	145.06
624.812	143.06
625.019	143.06
625.226	126.06
625.433	158.06
625.639	134.06
625.846	139.06
626.053	140.06
626.259	136.06
626.466	148.06
626.673	147.06
626.879	137.06
627.086	144.06
627.293	134.06
627.499	147.06
627.706	158.06
627.912	146.06
628.119	126.06
628.325	164.06
628.532	140.06
628.738	146.06
628.945	137.06
629.151	135.06
629.357	149.06
629.564	140.06
629.77	149.06
629.976	154.06
630.183	129.06
630.389	132.06
630.595	133.06
630.802	130.06
631.008	127.06
631.214	130.06
631.42	134.06
631.627	142.06
631.833	140.06
632.039	146.06
632.245	128.06
632.451	138.06
632.657	126.06
632.863	141.06
633.069	139.06
633.275	138.06
633.481	138.06
633.688	126.06
633.893	127.06
634.099	137.06
634.305	131.06
634.511	144.06
634.717	131.06
634.923	121.06
635.129	127.06
635.335	134.06
635.541	117.06
635.747	125.06
635.952	134.06
636.158	153.06
636.364	125.06
636.57	143.06
636.775	132.06
636.981	139.06
637.187	137.06
637.392	135.06
637.598	129.06
637.804	123.06
638.009	138.06
638.215	139.06
638.421	130.06
638.626	144.06
638.832	125.06
639.037	142.06
639.243	126.06
639.448	125.06
639.654	130.06
639.859	133.06
640.065	130.06
640.27	144.06
640.475	125.06
640.681	119.06
640.886	121.06
641.091	123.06
641.297	138.06
641.502	125.06
641.707	134.06
641.913	126.06
642.118	138.06
642.323	119.06
642.528	143.06
642.733	131.06
642.939	123.06
643.144	132.06
643.349	128.06
643.554	136.06
643.759	134.06
643.964	137.06
644.169	121.06
644.374	119.06
644.579	129.06
644.784	121.06
644.989	117.06
645.194	120.06
645.399	139.06
645.604	118.06
645.809	109.06
646.014	120.06
646.219	113.06
646.423	124.06
646.628	115.06
646.833	122.06
647.038	123.06
647.243	125.06
647.447	116.06
647.652	113.06
647.857	136.06
648.062	115.06
648.266	122.06
648.471	124.06
648.676	124.06
648.88	123.06
649.085	109.06
649.289	129.06
649.494	123.06
649.698	141.06
649.903	134.06
650.107	127.06
650.312	125.06
650.516	116.06
650.721	131.06
650.925	99.06
651.13	121.06
651.334	128.06
651.539	124.06
651.743	120.06
651.947	122.06
652.152	100.06
652.356	125.06
652.56	106.06
652.764	111.06
652.969	114.06
653.173	109.06
653.377	121.06
653.581	124.06
653.785	115.06
653.99	114.06
654.194	110.06
654.398	108.06
654.602	101.06
654.806	103.06
655.01	121.06
655.214	124.06
655.418	126.06
655.622	117.06
655.826	110.06
656.03	111.06
656.234	110.06
656.438	112.06
656.642	114.06
656.846	108.06
657.049	117.06
657.253	112.06
657.457	111.06
657.661	100.06
657.865	99.06
658.068	118.06
658.272	98.06
658.476	105.06
658.68	92.06
658.883	90.06
659.087	98.06
659.291	94.06
659.494	102.06
659.698	91.06
659.901	105.06
660.105	93.06
660.309	91.06
660.512	105.06
660.716	94.06
660.919	99.06
661.123	101.06
661.326	88.06
661.53	75.06
661.733	98.06
661.936	92.06
662.14	89.06
662.343	86.06
662.546	88.06
662.75	97.06
662.953	90.06
663.156	83.06
663.36	102.06
663.563	89.06
663.766	97.06
663.969	96.06
664.173	94.06
664.376	97.06
664.579	88.06
664.782	95.06
664.985	86.06
665.188	82.06
665.391	77.06
665.594	92.06
665.797	94.06
666	72.06
666.203	77.06
666.406	85.06
666.609	86.06
666.812	91.06
667.015	83.06
667.218	90.06
667.421	72.06
667.624	88.06
667.827	83.06
668.03	96.06
668.232	85.06
668.435	96.06
668.638	87.06
668.841	94.06
669.043	82.06
669.246	84.06
669.449	105.06
669.651	84.06
669.854	83.06
670.057	81.06
670.259	77.06
670.462	74.06
670.665	94.06
670.867	78.06
671.07	85.06
671.272	71.06
671.475	84.06
671.677	87.06
671.88	75.06
672.082	80.06
672.284	97.06
672.487	90.06
672.689	93.06
672.892	83.06
