Data from 1982.PennyLincolnUp.Lamp.En5.5.200Scan.071819.P1_HRD10591_16-47-03-962.txt Node
Date: Thu Jul 18 16:47:03 EDT 2019
User: cochatt
Spectrometer: HR+D1059
Trigger mode: 1
Integration Time (sec): 1.000000E-1
Scans to average: 1
Electric dark correction enabled: true
Nonlinearity correction enabled: false
Boxcar width: 0
XAxis mode: Wavelengths
Number of Pixels in Spectrum: 2048
>>>>>Begin Spectral Data<<<<<
223.165	-16.12
223.4	-16.12
223.635	-16.12
223.869	-11.12
224.104	-25.12
224.338	-14.12
224.573	-16.12
224.808	-8.12
225.042	-13.12
225.277	3.88
225.511	1.88
225.746	1.88
225.98	-4.12
226.215	11.88
226.449	5.88
226.683	23.88
226.918	24.88
227.152	33.88
227.387	23.88
227.621	44.88
227.856	35.88
228.09	38.88
228.324	58.88
228.559	66.88
228.793	75.88
229.027	93.88
229.262	79.88
229.496	91.88
229.73	119.88
229.964	125.88
230.199	107.88
230.433	97.88
230.667	97.88
230.901	82.88
231.136	104.88
231.37	107.88
231.604	110.88
231.838	104.88
232.072	100.88
232.306	111.88
232.541	103.88
232.775	115.88
233.009	99.88
233.243	116.88
233.477	97.88
233.711	117.88
233.945	108.88
234.179	100.88
234.413	103.88
234.647	103.88
234.881	108.88
235.115	103.88
235.349	116.88
235.583	102.88
235.817	104.88
236.051	101.88
236.285	94.88
236.519	115.88
236.753	114.88
236.987	122.88
237.221	146.88
237.455	179.88
237.689	145.88
237.922	130.88
238.156	114.88
238.39	115.88
238.624	103.88
238.858	99.88
239.091	110.88
239.325	100.88
239.559	100.88
239.793	117.88
240.027	112.88
240.26	124.88
240.494	145.88
240.728	126.88
240.961	117.88
241.195	131.88
241.429	106.88
241.662	116.88
241.896	110.88
242.13	107.88
242.363	129.88
242.597	127.88
242.83	123.88
243.064	119.88
243.298	122.88
243.531	113.88
243.765	105.88
243.998	122.88
244.232	111.88
244.465	132.88
244.699	115.88
244.932	136.88
245.166	115.88
245.399	109.88
245.633	129.88
245.866	132.88
246.099	127.88
246.333	130.88
246.566	114.88
246.8	138.88
247.033	131.88
247.266	151.88
247.5	135.88
247.733	146.88
247.966	152.88
248.2	147.88
248.433	136.88
248.666	133.88
248.899	143.88
249.133	157.88
249.366	158.88
249.599	145.88
249.832	153.88
250.066	151.88
250.299	153.88
250.532	154.88
250.765	155.88
250.998	170.88
251.231	179.88
251.465	179.88
251.698	171.88
251.931	163.88
252.164	151.88
252.397	157.88
252.63	163.88
252.863	167.88
253.096	167.88
253.329	159.88
253.562	175.88
253.795	183.88
254.028	159.88
254.261	184.88
254.494	188.88
254.727	209.88
254.96	221.88
255.193	209.88
255.426	192.88
255.659	163.88
255.892	206.88
256.124	187.88
256.357	179.88
256.59	185.88
256.823	191.88
257.056	163.88
257.289	192.88
257.521	180.88
257.754	168.88
257.987	180.88
258.22	179.88
258.452	172.88
258.685	166.88
258.918	161.88
259.151	176.88
259.383	184.88
259.616	177.88
259.849	185.88
260.081	182.88
260.314	201.88
260.547	194.88
260.779	193.88
261.012	182.88
261.244	184.88
261.477	166.88
261.71	180.88
261.942	179.88
262.175	184.88
262.407	195.88
262.64	175.88
262.872	164.88
263.105	168.88
263.337	163.88
263.57	156.88
263.802	160.88
264.035	173.88
264.267	160.88
264.499	182.88
264.732	173.88
264.964	169.88
265.197	180.88
265.429	178.88
265.661	164.88
265.894	171.88
266.126	179.88
266.358	179.88
266.591	170.88
266.823	163.88
267.055	174.88
267.287	191.88
267.52	174.88
267.752	202.88
267.984	178.88
268.216	181.88
268.448	176.88
268.681	192.88
268.913	203.88
269.145	224.88
269.377	215.88
269.609	202.88
269.841	230.88
270.073	222.88
270.306	217.88
270.538	236.88
270.77	254.88
271.002	240.88
271.234	236.88
271.466	240.88
271.698	228.88
271.93	251.88
272.162	257.88
272.394	264.88
272.626	231.88
272.858	215.88
273.09	228.88
273.322	225.88
273.553	210.88
273.785	209.88
274.017	199.88
274.249	195.88
274.481	197.88
274.713	212.88
274.945	208.88
275.176	200.88
275.408	212.88
275.64	209.88
275.872	210.88
276.104	199.88
276.335	219.88
276.567	196.88
276.799	219.88
277.031	231.88
277.262	262.88
277.494	259.88
277.726	236.88
277.957	241.88
278.189	215.88
278.421	207.88
278.652	202.88
278.884	199.88
279.115	215.88
279.347	208.88
279.579	205.88
279.81	208.88
280.042	217.88
280.273	218.88
280.505	223.88
280.736	200.88
280.968	218.88
281.199	198.88
281.431	211.88
281.662	205.88
281.894	218.88
282.125	210.88
282.356	210.88
282.588	253.88
282.819	236.88
283.051	215.88
283.282	204.88
283.513	207.88
283.745	232.88
283.976	219.88
284.207	220.88
284.439	222.88
284.67	226.88
284.901	228.88
285.132	220.88
285.364	204.88
285.595	205.88
285.826	204.88
286.057	218.88
286.288	211.88
286.52	219.88
286.751	202.88
286.982	204.88
287.213	220.88
287.444	220.88
287.675	215.88
287.906	219.88
288.138	216.88
288.369	204.88
288.6	236.88
288.831	217.88
289.062	228.88
289.293	243.88
289.524	222.88
289.755	217.88
289.986	210.88
290.217	236.88
290.448	222.88
290.679	213.88
290.91	216.88
291.141	226.88
291.371	227.88
291.602	229.88
291.833	219.88
292.064	211.88
292.295	218.88
292.526	219.88
292.757	204.88
292.987	213.88
293.218	232.88
293.449	224.88
293.68	223.88
293.91	229.88
294.141	235.88
294.372	224.88
294.603	217.88
294.833	220.88
295.064	216.88
295.295	214.88
295.525	218.88
295.756	234.88
295.987	247.88
296.217	244.88
296.448	261.88
296.679	245.88
296.909	219.88
297.14	220.88
297.37	233.88
297.601	236.88
297.831	226.88
298.062	224.88
298.292	232.88
298.523	237.88
298.753	228.88
298.984	240.88
299.214	234.88
299.445	236.88
299.675	234.88
299.905	230.88
300.136	238.88
300.366	252.88
300.597	249.88
300.827	262.88
301.057	246.88
301.288	252.88
301.518	237.88
301.748	235.88
301.979	241.88
302.209	261.88
302.439	252.88
302.669	234.88
302.9	239.88
303.13	233.88
303.36	250.88
303.59	256.88
303.82	242.88
304.051	244.88
304.281	235.88
304.511	241.88
304.741	244.88
304.971	238.88
305.201	239.88
305.431	232.88
305.661	248.88
305.891	250.88
306.121	255.88
306.352	257.88
306.582	235.88
306.812	253.88
307.042	255.88
307.272	250.88
307.502	264.88
307.731	263.88
307.961	258.88
308.191	255.88
308.421	253.88
308.651	245.88
308.881	271.88
309.111	266.88
309.341	260.88
309.571	280.88
309.8	281.88
310.03	300.88
310.26	290.88
310.49	305.88
310.72	292.88
310.949	305.88
311.179	299.88
311.409	291.88
311.639	293.88
311.868	289.88
312.098	289.88
312.328	311.88
312.557	307.88
312.787	311.88
313.017	319.88
313.246	293.88
313.476	284.88
313.706	288.88
313.935	309.88
314.165	294.88
314.394	298.88
314.624	312.88
314.853	289.88
315.083	298.88
315.312	290.88
315.542	288.88
315.771	297.88
316.001	292.88
316.23	269.88
316.46	292.88
316.689	282.88
316.919	299.88
317.148	306.88
317.377	285.88
317.607	300.88
317.836	291.88
318.065	285.88
318.295	283.88
318.524	287.88
318.753	299.88
318.983	278.88
319.212	287.88
319.441	326.88
319.67	305.88
319.9	298.88
320.129	301.88
320.358	291.88
320.587	300.88
320.816	294.88
321.046	303.88
321.275	308.88
321.504	316.88
321.733	322.88
321.962	321.88
322.191	336.88
322.42	346.88
322.649	361.88
322.878	367.88
323.108	367.88
323.337	396.88
323.566	413.88
323.795	442.88
324.024	480.88
324.253	641.88
324.482	912.88
324.71	1340.88
324.939	1787.88
325.168	1434.88
325.397	780.88
325.626	519.88
325.855	459.88
326.084	409.88
326.313	403.88
326.542	411.88
326.77	449.88
326.999	542.88
327.228	779.88
327.457	1163.88
327.686	1286.88
327.914	851.88
328.143	551.88
328.372	502.88
328.6	469.88
328.829	460.88
329.058	445.88
329.287	460.88
329.515	444.88
329.744	412.88
329.972	417.88
330.201	414.88
330.43	458.88
330.658	439.88
330.887	480.88
331.115	469.88
331.344	424.88
331.572	401.88
331.801	394.88
332.03	371.88
332.258	356.88
332.486	351.88
332.715	348.88
332.943	353.88
333.172	338.88
333.4	335.88
333.629	353.88
333.857	363.88
334.085	383.88
334.314	378.88
334.542	388.88
334.771	403.88
334.999	371.88
335.227	345.88
335.455	335.88
335.684	341.88
335.912	345.88
336.14	324.88
336.369	323.88
336.597	327.88
336.825	337.88
337.053	325.88
337.281	317.88
337.51	323.88
337.738	317.88
337.966	320.88
338.194	329.88
338.422	341.88
338.65	341.88
338.878	317.88
339.106	340.88
339.334	329.88
339.562	309.88
339.79	331.88
340.018	332.88
340.246	332.88
340.474	338.88
340.702	313.88
340.93	294.88
341.158	300.88
341.386	319.88
341.614	323.88
341.842	326.88
342.07	319.88
342.298	303.88
342.526	316.88
342.754	307.88
342.981	305.88
343.209	307.88
343.437	320.88
343.665	309.88
343.893	319.88
344.12	327.88
344.348	319.88
344.576	321.88
344.804	309.88
345.031	327.88
345.259	356.88
345.487	326.88
345.714	331.88
345.942	312.88
346.17	291.88
346.397	321.88
346.625	327.88
346.853	325.88
347.08	313.88
347.308	331.88
347.535	326.88
347.763	303.88
347.99	328.88
348.218	317.88
348.445	341.88
348.673	329.88
348.9	313.88
349.128	309.88
349.355	298.88
349.583	304.88
349.81	299.88
350.037	285.88
350.265	307.88
350.492	308.88
350.72	294.88
350.947	313.88
351.174	324.88
351.402	312.88
351.629	303.88
351.856	313.88
352.083	317.88
352.311	312.88
352.538	322.88
352.765	312.88
352.992	307.88
353.22	320.88
353.447	298.88
353.674	307.88
353.901	294.88
354.128	292.88
354.355	288.88
354.583	292.88
354.81	281.88
355.037	283.88
355.264	267.88
355.491	288.88
355.718	275.88
355.945	277.88
356.172	274.88
356.399	285.88
356.626	286.88
356.853	275.88
357.08	289.88
357.307	275.88
357.534	279.88
357.761	295.88
357.988	285.88
358.215	287.88
358.441	277.88
358.668	291.88
358.895	292.88
359.122	296.88
359.349	305.88
359.576	313.88
359.802	347.88
360.029	356.88
360.256	359.88
360.483	337.88
360.709	316.88
360.936	299.88
361.163	315.88
361.39	313.88
361.616	298.88
361.843	298.88
362.07	314.88
362.296	303.88
362.523	290.88
362.749	313.88
362.976	289.88
363.203	313.88
363.429	307.88
363.656	294.88
363.882	295.88
364.109	263.88
364.335	299.88
364.562	287.88
364.788	285.88
365.015	264.88
365.241	293.88
365.468	298.88
365.694	284.88
365.92	293.88
366.147	280.88
366.373	294.88
366.599	287.88
366.826	289.88
367.052	287.88
367.278	305.88
367.505	279.88
367.731	276.88
367.957	279.88
368.184	292.88
368.41	289.88
368.636	311.88
368.862	300.88
369.089	293.88
369.315	283.88
369.541	280.88
369.767	282.88
369.993	280.88
370.219	282.88
370.445	262.88
370.672	274.88
370.898	278.88
371.124	263.88
371.35	285.88
371.576	277.88
371.802	257.88
372.028	277.88
372.254	285.88
372.48	280.88
372.706	263.88
372.932	269.88
373.158	259.88
373.384	285.88
373.61	275.88
373.835	264.88
374.061	282.88
374.287	263.88
374.513	278.88
374.739	281.88
374.965	288.88
375.191	268.88
375.416	277.88
375.642	282.88
375.868	268.88
376.094	266.88
376.319	281.88
376.545	272.88
376.771	276.88
376.997	278.88
377.222	279.88
377.448	256.88
377.674	270.88
377.899	261.88
378.125	281.88
378.35	276.88
378.576	253.88
378.802	243.88
379.027	277.88
379.253	260.88
379.478	280.88
379.704	275.88
379.929	259.88
380.155	254.88
380.38	263.88
380.606	267.88
380.831	273.88
381.057	265.88
381.282	277.88
381.507	259.88
381.733	260.88
381.958	264.88
382.184	281.88
382.409	271.88
382.634	268.88
382.86	270.88
383.085	291.88
383.31	271.88
383.535	270.88
383.761	290.88
383.986	278.88
384.211	280.88
384.436	279.88
384.662	279.88
384.887	266.88
385.112	271.88
385.337	290.88
385.562	287.88
385.787	293.88
386.013	281.88
386.238	295.88
386.463	287.88
386.688	290.88
386.913	285.88
387.138	273.88
387.363	296.88
387.588	281.88
387.813	261.88
388.038	281.88
388.263	269.88
388.488	287.88
388.713	257.88
388.938	276.88
389.163	284.88
389.387	292.88
389.612	291.88
389.837	279.88
390.062	299.88
390.287	285.88
390.512	310.88
390.736	293.88
390.961	297.88
391.186	280.88
391.411	276.88
391.636	290.88
391.86	259.88
392.085	277.88
392.31	289.88
392.534	290.88
392.759	287.88
392.984	288.88
393.208	289.88
393.433	266.88
393.658	283.88
393.882	287.88
394.107	288.88
394.331	285.88
394.556	274.88
394.78	289.88
395.005	291.88
395.229	284.88
395.454	294.88
395.678	296.88
395.903	300.88
396.127	314.88
396.352	291.88
396.576	299.88
396.801	280.88
397.025	289.88
397.249	300.88
397.474	301.88
397.698	287.88
397.922	314.88
398.147	310.88
398.371	316.88
398.595	309.88
398.82	288.88
399.044	322.88
399.268	331.88
399.492	334.88
399.717	359.88
399.941	367.88
400.165	373.88
400.389	369.88
400.613	351.88
400.837	337.88
401.062	323.88
401.286	319.88
401.51	308.88
401.734	319.88
401.958	332.88
402.182	311.88
402.406	325.88
402.63	323.88
402.854	338.88
403.078	319.88
403.302	319.88
403.526	331.88
403.75	352.88
403.974	306.88
404.198	325.88
404.422	319.88
404.645	335.88
404.869	344.88
405.093	360.88
405.317	375.88
405.541	399.88
405.765	363.88
405.988	337.88
406.212	346.88
406.436	367.88
406.66	375.88
406.883	370.88
407.107	378.88
407.331	409.88
407.555	426.88
407.778	428.88
408.002	390.88
408.226	363.88
408.449	363.88
408.673	350.88
408.896	375.88
409.12	411.88
409.344	346.88
409.567	340.88
409.791	326.88
410.014	337.88
410.238	345.88
410.461	323.88
410.685	326.88
410.908	336.88
411.132	364.88
411.355	371.88
411.578	359.88
411.802	336.88
412.025	329.88
412.249	329.88
412.472	324.88
412.695	371.88
412.919	351.88
413.142	329.88
413.365	324.88
413.589	316.88
413.812	300.88
414.035	306.88
414.258	295.88
414.482	310.88
414.705	293.88
414.928	295.88
415.151	298.88
415.374	315.88
415.597	311.88
415.821	321.88
416.044	304.88
416.267	297.88
416.49	324.88
416.713	291.88
416.936	336.88
417.159	291.88
417.382	298.88
417.605	299.88
417.828	323.88
418.051	319.88
418.274	311.88
418.497	291.88
418.72	290.88
418.943	298.88
419.166	312.88
419.389	313.88
419.611	317.88
419.834	310.88
420.057	316.88
420.28	327.88
420.503	312.88
420.726	322.88
420.948	324.88
421.171	355.88
421.394	359.88
421.617	345.88
421.839	333.88
422.062	328.88
422.285	347.88
422.507	369.88
422.73	398.88
422.953	388.88
423.175	346.88
423.398	346.88
423.621	321.88
423.843	351.88
424.066	352.88
424.288	346.88
424.511	353.88
424.733	383.88
424.956	451.88
425.178	444.88
425.401	421.88
425.623	426.88
425.846	398.88
426.068	347.88
426.291	341.88
426.513	343.88
426.735	361.88
426.958	403.88
427.18	428.88
427.402	523.88
427.625	576.88
427.847	504.88
428.069	439.88
428.292	394.88
428.514	348.88
428.736	355.88
428.958	355.88
429.181	344.88
429.403	333.88
429.625	315.88
429.847	373.88
430.069	391.88
430.292	400.88
430.514	339.88
430.736	323.88
430.958	321.88
431.18	309.88
431.402	318.88
431.624	303.88
431.846	306.88
432.068	287.88
432.29	307.88
432.512	309.88
432.734	300.88
432.956	320.88
433.178	319.88
433.4	328.88
433.622	316.88
433.844	314.88
434.066	299.88
434.287	318.88
434.509	307.88
434.731	308.88
434.953	312.88
435.175	329.88
435.397	364.88
435.618	343.88
435.84	390.88
436.062	456.88
436.284	450.88
436.505	389.88
436.727	364.88
436.949	343.88
437.17	347.88
437.392	344.88
437.614	340.88
437.835	359.88
438.057	422.88
438.278	481.88
438.5	484.88
438.721	531.88
438.943	477.88
439.165	404.88
439.386	384.88
439.608	384.88
439.829	381.88
440.05	380.88
440.272	415.88
440.493	399.88
440.715	343.88
440.936	341.88
441.158	330.88
441.379	345.88
441.6	349.88
441.822	348.88
442.043	371.88
442.264	467.88
442.486	450.88
442.707	376.88
442.928	379.88
443.149	367.88
443.371	376.88
443.592	407.88
443.813	456.88
444.034	515.88
444.255	404.88
444.476	375.88
444.698	341.88
444.919	338.88
445.14	421.88
445.361	409.88
445.582	405.88
445.803	431.88
446.024	502.88
446.245	511.88
446.466	452.88
446.687	407.88
446.908	353.88
447.129	370.88
447.35	335.88
447.571	340.88
447.792	332.88
448.013	340.88
448.234	346.88
448.455	375.88
448.675	458.88
448.896	496.88
449.117	450.88
449.338	431.88
449.559	488.88
449.779	507.88
450	420.88
450.221	385.88
450.442	328.88
450.662	327.88
450.883	344.88
451.104	334.88
451.324	329.88
451.545	314.88
451.766	288.88
451.986	283.88
452.207	290.88
452.428	279.88
452.648	295.88
452.869	290.88
453.089	323.88
453.31	300.88
453.53	287.88
453.751	303.88
453.971	300.88
454.192	309.88
454.412	311.88
454.633	269.88
454.853	289.88
455.073	292.88
455.294	310.88
455.514	347.88
455.734	343.88
455.955	299.88
456.175	274.88
456.395	276.88
456.616	287.88
456.836	293.88
457.056	279.88
457.276	271.88
457.497	275.88
457.717	281.88
457.937	277.88
458.157	266.88
458.377	305.88
458.598	319.88
458.818	375.88
459.038	387.88
459.258	405.88
459.478	342.88
459.698	307.88
459.918	300.88
460.138	296.88
460.358	301.88
460.578	304.88
460.798	304.88
461.018	301.88
461.238	293.88
461.458	289.88
461.678	293.88
461.898	291.88
462.118	312.88
462.338	305.88
462.558	311.88
462.777	311.88
462.997	300.88
463.217	298.88
463.437	321.88
463.657	313.88
463.876	316.88
464.096	308.88
464.316	310.88
464.536	309.88
464.755	309.88
464.975	334.88
465.195	365.88
465.414	409.88
465.634	365.88
465.854	328.88
466.073	317.88
466.293	306.88
466.512	302.88
466.732	298.88
466.951	284.88
467.171	283.88
467.391	297.88
467.61	317.88
467.829	326.88
468.049	301.88
468.268	297.88
468.488	314.88
468.707	297.88
468.927	307.88
469.146	294.88
469.365	293.88
469.585	307.88
469.804	303.88
470.023	308.88
470.243	304.88
470.462	308.88
470.681	296.88
470.901	307.88
471.12	290.88
471.339	295.88
471.558	305.88
471.777	291.88
471.997	287.88
472.216	306.88
472.435	332.88
472.654	321.88
472.873	305.88
473.092	292.88
473.311	290.88
473.53	305.88
473.749	309.88
473.968	353.88
474.187	401.88
474.406	405.88
474.625	336.88
474.844	300.88
475.063	321.88
475.282	304.88
475.501	320.88
475.72	307.88
475.939	303.88
476.158	303.88
476.377	315.88
476.596	283.88
476.814	317.88
477.033	332.88
477.252	324.88
477.471	333.88
477.69	319.88
477.908	321.88
478.127	306.88
478.346	311.88
478.564	315.88
478.783	318.88
479.002	331.88
479.22	346.88
479.439	347.88
479.658	351.88
479.876	336.88
480.095	355.88
480.313	359.88
480.532	354.88
480.751	357.88
480.969	370.88
481.188	426.88
481.406	458.88
481.624	352.88
481.843	369.88
482.061	357.88
482.28	347.88
482.498	353.88
482.717	356.88
482.935	360.88
483.153	322.88
483.372	350.88
483.59	356.88
483.808	359.88
484.027	342.88
484.245	372.88
484.463	362.88
484.681	351.88
484.9	344.88
485.118	364.88
485.336	342.88
485.554	361.88
485.772	384.88
485.99	365.88
486.209	362.88
486.427	365.88
486.645	361.88
486.863	377.88
487.081	380.88
487.299	367.88
487.517	393.88
487.735	383.88
487.953	373.88
488.171	389.88
488.389	374.88
488.607	384.88
488.825	363.88
489.043	391.88
489.261	369.88
489.479	371.88
489.696	381.88
489.914	392.88
490.132	397.88
490.35	392.88
490.568	395.88
490.786	392.88
491.003	387.88
491.221	407.88
491.439	418.88
491.657	421.88
491.874	420.88
492.092	436.88
492.31	427.88
492.527	421.88
492.745	426.88
492.963	421.88
493.18	435.88
493.398	445.88
493.615	435.88
493.833	441.88
494.05	442.88
494.268	422.88
494.485	447.88
494.703	445.88
494.92	423.88
495.138	437.88
495.355	433.88
495.573	452.88
495.79	420.88
496.008	425.88
496.225	433.88
496.442	459.88
496.66	460.88
496.877	435.88
497.094	445.88
497.312	429.88
497.529	462.88
497.746	453.88
497.963	454.88
498.181	483.88
498.398	477.88
498.615	473.88
498.832	476.88
499.049	484.88
499.267	491.88
499.484	479.88
499.701	497.88
499.918	530.88
500.135	525.88
500.352	533.88
500.569	527.88
500.786	536.88
501.003	559.88
501.22	552.88
501.437	550.88
501.654	531.88
501.871	512.88
502.088	531.88
502.305	504.88
502.522	503.88
502.739	473.88
502.956	497.88
503.172	460.88
503.389	450.88
503.606	449.88
503.823	449.88
504.04	452.88
504.256	435.88
504.473	447.88
504.69	453.88
504.907	435.88
505.123	419.88
505.34	437.88
505.557	436.88
505.773	444.88
505.99	408.88
506.207	447.88
506.423	425.88
506.64	427.88
506.856	411.88
507.073	423.88
507.289	402.88
507.506	416.88
507.722	436.88
507.939	447.88
508.155	432.88
508.372	397.88
508.588	405.88
508.805	420.88
509.021	400.88
509.238	416.88
509.454	439.88
509.67	433.88
509.887	420.88
510.103	436.88
510.319	437.88
510.536	515.88
510.752	833.88
510.968	660.88
511.184	435.88
511.401	396.88
511.617	419.88
511.833	419.88
512.049	394.88
512.265	397.88
512.481	392.88
512.698	388.88
512.914	376.88
513.13	396.88
513.346	379.88
513.562	384.88
513.778	380.88
513.994	407.88
514.21	410.88
514.426	427.88
514.642	466.88
514.858	476.88
515.074	515.88
515.29	619.88
515.506	901.88
515.721	732.88
515.937	486.88
516.153	455.88
516.369	444.88
516.585	405.88
516.801	410.88
517.016	403.88
517.232	398.88
517.448	406.88
517.664	396.88
517.879	393.88
518.095	397.88
518.311	404.88
518.527	377.88
518.742	401.88
518.958	364.88
519.173	389.88
519.389	387.88
519.605	378.88
519.82	381.88
520.036	417.88
520.251	427.88
520.467	435.88
520.682	448.88
520.898	431.88
521.113	490.88
521.329	502.88
521.544	567.88
521.76	726.88
521.975	1216.88
522.19	1115.88
522.406	612.88
522.621	466.88
522.836	426.88
523.052	391.88
523.267	405.88
523.482	381.88
523.698	369.88
523.913	351.88
524.128	387.88
524.343	367.88
524.559	347.88
524.774	346.88
524.989	341.88
525.204	333.88
525.419	351.88
525.634	353.88
525.849	336.88
526.064	322.88
526.28	320.88
526.495	331.88
526.71	330.88
526.925	339.88
527.14	316.88
527.355	324.88
527.57	317.88
527.785	337.88
527.999	314.88
528.214	320.88
528.429	326.88
528.644	311.88
528.859	326.88
529.074	325.88
529.289	338.88
529.503	387.88
529.718	379.88
529.933	364.88
530.148	321.88
530.363	327.88
530.577	338.88
530.792	322.88
531.007	322.88
531.221	306.88
531.436	303.88
531.651	301.88
531.865	315.88
532.08	301.88
532.295	307.88
532.509	303.88
532.724	302.88
532.938	307.88
533.153	293.88
533.367	290.88
533.582	311.88
533.796	299.88
534.011	291.88
534.225	299.88
534.44	290.88
534.654	300.88
534.868	293.88
535.083	291.88
535.297	304.88
535.511	319.88
535.726	309.88
535.94	304.88
536.154	309.88
536.369	284.88
536.583	318.88
536.797	300.88
537.011	292.88
537.225	304.88
537.44	290.88
537.654	291.88
537.868	300.88
538.082	307.88
538.296	298.88
538.51	289.88
538.724	292.88
538.938	288.88
539.153	307.88
539.367	302.88
539.581	292.88
539.795	298.88
540.009	280.88
540.222	294.88
540.436	299.88
540.65	299.88
540.864	290.88
541.078	317.88
541.292	303.88
541.506	307.88
541.72	300.88
541.934	293.88
542.147	292.88
542.361	300.88
542.575	273.88
542.789	286.88
543.002	285.88
543.216	297.88
543.43	286.88
543.644	283.88
543.857	291.88
544.071	312.88
544.285	281.88
544.498	298.88
544.712	275.88
544.925	271.88
545.139	289.88
545.352	287.88
545.566	275.88
545.779	273.88
545.993	267.88
546.206	296.88
546.42	287.88
546.633	283.88
546.847	279.88
547.06	287.88
547.274	268.88
547.487	262.88
547.7	273.88
547.914	277.88
548.127	285.88
548.34	275.88
548.554	279.88
548.767	280.88
548.98	297.88
549.193	268.88
549.407	291.88
549.62	277.88
549.833	268.88
550.046	270.88
550.259	275.88
550.473	260.88
550.686	263.88
550.899	273.88
551.112	281.88
551.325	279.88
551.538	270.88
551.751	244.88
551.964	275.88
552.177	253.88
552.39	265.88
552.603	262.88
552.816	276.88
553.029	266.88
553.242	267.88
553.455	274.88
553.667	267.88
553.88	293.88
554.093	290.88
554.306	278.88
554.519	259.88
554.732	277.88
554.944	266.88
555.157	260.88
555.37	264.88
555.583	265.88
555.795	267.88
556.008	265.88
556.221	282.88
556.433	247.88
556.646	259.88
556.859	265.88
557.071	251.88
557.284	257.88
557.496	241.88
557.709	253.88
557.921	257.88
558.134	261.88
558.346	240.88
558.559	255.88
558.771	246.88
558.984	248.88
559.196	252.88
559.409	243.88
559.621	237.88
559.833	245.88
560.046	246.88
560.258	242.88
560.47	243.88
560.683	225.88
560.895	246.88
561.107	241.88
561.32	240.88
561.532	232.88
561.744	236.88
561.956	232.88
562.168	256.88
562.381	240.88
562.593	240.88
562.805	244.88
563.017	251.88
563.229	243.88
563.441	254.88
563.653	240.88
563.865	249.88
564.077	252.88
564.289	261.88
564.501	240.88
564.713	253.88
564.925	259.88
565.137	264.88
565.349	245.88
565.561	250.88
565.773	257.88
565.985	255.88
566.197	273.88
566.408	264.88
566.62	273.88
566.832	267.88
567.044	285.88
567.255	291.88
567.467	257.88
567.679	298.88
567.891	261.88
568.102	280.88
568.314	264.88
568.526	270.88
568.737	273.88
568.949	246.88
569.161	260.88
569.372	248.88
569.584	261.88
569.795	259.88
570.007	252.88
570.218	300.88
570.43	249.88
570.641	248.88
570.853	227.88
571.064	251.88
571.276	241.88
571.487	234.88
571.698	225.88
571.91	222.88
572.121	220.88
572.333	242.88
572.544	236.88
572.755	225.88
572.966	220.88
573.178	225.88
573.389	230.88
573.6	227.88
573.811	227.88
574.023	216.88
574.234	217.88
574.445	211.88
574.656	231.88
574.867	211.88
575.078	204.88
575.289	205.88
575.501	236.88
575.712	243.88
575.923	211.88
576.134	204.88
576.345	204.88
576.556	223.88
576.767	216.88
576.978	225.88
577.188	217.88
577.399	214.88
577.61	204.88
577.821	190.88
578.032	202.88
578.243	251.88
578.454	405.88
578.665	299.88
578.875	207.88
579.086	204.88
579.297	216.88
579.508	202.88
579.718	210.88
579.929	202.88
580.14	187.88
580.35	186.88
580.561	212.88
580.772	202.88
580.982	213.88
581.193	202.88
581.403	201.88
581.614	211.88
581.825	203.88
582.035	183.88
582.246	212.88
582.456	207.88
582.667	208.88
582.877	196.88
583.087	202.88
583.298	201.88
583.508	208.88
583.719	191.88
583.929	195.88
584.139	180.88
584.35	207.88
584.56	211.88
584.77	218.88
584.981	215.88
585.191	196.88
585.401	205.88
585.611	200.88
585.821	182.88
586.032	212.88
586.242	204.88
586.452	196.88
586.662	202.88
586.872	201.88
587.082	187.88
587.292	197.88
587.502	195.88
587.713	198.88
587.923	208.88
588.133	207.88
588.343	201.88
588.553	198.88
588.762	209.88
588.972	207.88
589.182	189.88
589.392	191.88
589.602	198.88
589.812	185.88
590.022	197.88
590.232	184.88
590.441	185.88
590.651	195.88
590.861	196.88
591.071	192.88
591.281	203.88
591.49	200.88
591.7	185.88
591.91	189.88
592.119	203.88
592.329	198.88
592.539	208.88
592.748	195.88
592.958	198.88
593.167	179.88
593.377	185.88
593.587	202.88
593.796	189.88
594.006	198.88
594.215	194.88
594.424	197.88
594.634	190.88
594.843	193.88
595.053	195.88
595.262	193.88
595.472	196.88
595.681	212.88
595.89	189.88
596.1	178.88
596.309	183.88
596.518	182.88
596.727	191.88
596.937	187.88
597.146	185.88
597.355	186.88
597.564	179.88
597.774	197.88
597.983	188.88
598.192	182.88
598.401	155.88
598.61	159.88
598.819	179.88
599.028	182.88
599.237	192.88
599.446	176.88
599.655	182.88
599.864	178.88
600.073	175.88
600.282	170.88
600.491	179.88
600.7	169.88
600.909	169.88
601.118	179.88
601.327	188.88
601.536	169.88
601.745	193.88
601.953	176.88
602.162	182.88
602.371	165.88
602.58	182.88
602.789	190.88
602.997	175.88
603.206	184.88
603.415	167.88
603.623	156.88
603.832	163.88
604.041	172.88
604.249	177.88
604.458	171.88
604.666	167.88
604.875	171.88
605.084	185.88
605.292	177.88
605.501	176.88
605.709	161.88
605.918	160.88
606.126	181.88
606.334	169.88
606.543	175.88
606.751	171.88
606.96	171.88
607.168	158.88
607.376	169.88
607.585	167.88
607.793	169.88
608.001	156.88
608.21	173.88
608.418	186.88
608.626	177.88
608.834	176.88
609.043	184.88
609.251	175.88
609.459	155.88
609.667	169.88
609.875	175.88
610.083	160.88
610.291	171.88
610.499	181.88
610.707	175.88
610.916	162.88
611.124	165.88
611.332	182.88
611.54	180.88
611.748	162.88
611.955	160.88
612.163	169.88
612.371	174.88
612.579	167.88
612.787	159.88
612.995	165.88
613.203	170.88
613.411	170.88
613.618	180.88
613.826	151.88
614.034	170.88
614.242	166.88
614.449	152.88
614.657	171.88
614.865	166.88
615.072	160.88
615.28	168.88
615.488	171.88
615.695	161.88
615.903	163.88
616.111	165.88
616.318	167.88
616.526	167.88
616.733	162.88
616.941	175.88
617.148	166.88
617.356	148.88
617.563	161.88
617.771	154.88
617.978	152.88
618.185	153.88
618.393	168.88
618.6	148.88
618.807	144.88
619.015	158.88
619.222	153.88
619.429	152.88
619.637	172.88
619.844	175.88
620.051	162.88
620.258	165.88
620.466	163.88
620.673	168.88
620.88	156.88
621.087	165.88
621.294	159.88
621.501	149.88
621.708	158.88
621.915	155.88
622.122	162.88
622.329	160.88
622.536	168.88
622.743	146.88
622.95	164.88
623.157	155.88
623.364	156.88
623.571	158.88
623.778	150.88
623.985	160.88
624.192	141.88
624.399	159.88
624.606	150.88
624.812	159.88
625.019	152.88
625.226	155.88
625.433	153.88
625.639	147.88
625.846	159.88
626.053	137.88
626.259	152.88
626.466	149.88
626.673	146.88
626.879	138.88
627.086	155.88
627.293	152.88
627.499	164.88
627.706	145.88
627.912	155.88
628.119	159.88
628.325	161.88
628.532	155.88
628.738	143.88
628.945	151.88
629.151	129.88
629.357	147.88
629.564	141.88
629.77	153.88
629.976	144.88
630.183	151.88
630.389	155.88
630.595	141.88
630.802	131.88
631.008	161.88
631.214	152.88
631.42	147.88
631.627	145.88
631.833	148.88
632.039	146.88
632.245	130.88
632.451	143.88
632.657	125.88
632.863	127.88
633.069	148.88
633.275	145.88
633.481	138.88
633.688	154.88
633.893	125.88
634.099	144.88
634.305	162.88
634.511	135.88
634.717	148.88
634.923	148.88
635.129	129.88
635.335	137.88
635.541	143.88
635.747	139.88
635.952	123.88
636.158	121.88
636.364	152.88
636.57	145.88
636.775	149.88
636.981	137.88
637.187	125.88
637.392	144.88
637.598	122.88
637.804	126.88
638.009	134.88
638.215	152.88
638.421	131.88
638.626	131.88
638.832	148.88
639.037	143.88
639.243	127.88
639.448	123.88
639.654	151.88
639.859	132.88
640.065	141.88
640.27	138.88
640.475	134.88
640.681	137.88
640.886	138.88
641.091	129.88
641.297	139.88
641.502	148.88
641.707	125.88
641.913	132.88
642.118	127.88
642.323	128.88
642.528	128.88
642.733	147.88
642.939	126.88
643.144	133.88
643.349	127.88
643.554	132.88
643.759	117.88
643.964	115.88
644.169	129.88
644.374	121.88
644.579	145.88
644.784	129.88
644.989	143.88
645.194	125.88
645.399	125.88
645.604	123.88
645.809	126.88
646.014	112.88
646.219	131.88
646.423	121.88
646.628	151.88
646.833	130.88
647.038	119.88
647.243	132.88
647.447	138.88
647.652	128.88
647.857	120.88
648.062	126.88
648.266	119.88
648.471	121.88
648.676	126.88
648.88	141.88
649.085	141.88
649.289	135.88
649.494	145.88
649.698	147.88
649.903	132.88
650.107	133.88
650.312	141.88
650.516	110.88
650.721	117.88
650.925	118.88
651.13	119.88
651.334	121.88
651.539	125.88
651.743	116.88
651.947	121.88
652.152	119.88
652.356	122.88
652.56	122.88
652.764	121.88
652.969	106.88
653.173	114.88
653.377	102.88
653.581	121.88
653.785	124.88
653.99	115.88
654.194	107.88
654.398	101.88
654.602	127.88
654.806	111.88
655.01	119.88
655.214	106.88
655.418	103.88
655.622	107.88
655.826	111.88
656.03	127.88
656.234	108.88
656.438	115.88
656.642	119.88
656.846	106.88
657.049	108.88
657.253	116.88
657.457	106.88
657.661	100.88
657.865	109.88
658.068	110.88
658.272	103.88
658.476	85.88
658.68	104.88
658.883	97.88
659.087	94.88
659.291	87.88
659.494	103.88
659.698	103.88
659.901	103.88
660.105	83.88
660.309	95.88
660.512	81.88
660.716	89.88
660.919	78.88
661.123	97.88
661.326	82.88
661.53	95.88
661.733	76.88
661.936	76.88
662.14	83.88
662.343	80.88
662.546	88.88
662.75	86.88
662.953	94.88
663.156	94.88
663.36	86.88
663.563	73.88
663.766	85.88
663.969	85.88
664.173	83.88
664.376	86.88
664.579	88.88
664.782	85.88
664.985	83.88
665.188	77.88
665.391	77.88
665.594	76.88
665.797	79.88
666	77.88
666.203	89.88
666.406	79.88
666.609	72.88
666.812	76.88
667.015	68.88
667.218	87.88
667.421	92.88
667.624	90.88
667.827	84.88
668.03	58.88
668.232	78.88
668.435	92.88
668.638	77.88
668.841	87.88
669.043	77.88
669.246	80.88
669.449	78.88
669.651	85.88
669.854	73.88
670.057	84.88
670.259	71.88
670.462	75.88
670.665	76.88
670.867	72.88
671.07	92.88
671.272	86.88
671.475	95.88
671.677	91.88
671.88	87.88
672.082	80.88
672.284	86.88
672.487	78.88
672.689	87.88
672.892	76.88
