Data from 1982.PennyLincolnUp.Lamp.En5.5.200Scan.071819.P1_HRD10591_16-44-50-961.txt Node
Date: Thu Jul 18 16:44:50 EDT 2019
User: cochatt
Spectrometer: HR+D1059
Trigger mode: 1
Integration Time (sec): 1.000000E-1
Scans to average: 1
Electric dark correction enabled: true
Nonlinearity correction enabled: false
Boxcar width: 0
XAxis mode: Wavelengths
Number of Pixels in Spectrum: 2048
>>>>>Begin Spectral Data<<<<<
223.165	-23.62
223.4	-23.62
223.635	-23.62
223.869	-8.62
224.104	-21.62
224.338	-15.62
224.573	-7.62
224.808	-12.62
225.042	-10.62
225.277	-9.62
225.511	1.38
225.746	8.38
225.98	8.38
226.215	7.38
226.449	13.38
226.683	22.38
226.918	30.38
227.152	18.38
227.387	35.38
227.621	32.38
227.856	42.38
228.09	45.38
228.324	50.38
228.559	53.38
228.793	60.38
229.027	91.38
229.262	81.38
229.496	80.38
229.73	100.38
229.964	104.38
230.199	111.38
230.433	97.38
230.667	95.38
230.901	85.38
231.136	108.38
231.37	96.38
231.604	99.38
231.838	101.38
232.072	97.38
232.306	88.38
232.541	101.38
232.775	117.38
233.009	103.38
233.243	94.38
233.477	109.38
233.711	100.38
233.945	90.38
234.179	98.38
234.413	100.38
234.647	96.38
234.881	108.38
235.115	103.38
235.349	95.38
235.583	91.38
235.817	104.38
236.051	105.38
236.285	111.38
236.519	88.38
236.753	94.38
236.987	115.38
237.221	127.38
237.455	157.38
237.689	121.38
237.922	105.38
238.156	108.38
238.39	101.38
238.624	95.38
238.858	88.38
239.091	107.38
239.325	112.38
239.559	112.38
239.793	114.38
240.027	98.38
240.26	97.38
240.494	106.38
240.728	117.38
240.961	111.38
241.195	112.38
241.429	103.38
241.662	121.38
241.896	113.38
242.13	99.38
242.363	117.38
242.597	115.38
242.83	102.38
243.064	93.38
243.298	108.38
243.531	111.38
243.765	109.38
243.998	106.38
244.232	109.38
244.465	123.38
244.699	118.38
244.932	118.38
245.166	120.38
245.399	123.38
245.633	102.38
245.866	111.38
246.099	122.38
246.333	119.38
246.566	108.38
246.8	138.38
247.033	131.38
247.266	122.38
247.5	130.38
247.733	118.38
247.966	112.38
248.2	132.38
248.433	120.38
248.666	136.38
248.899	136.38
249.133	127.38
249.366	130.38
249.599	121.38
249.832	132.38
250.066	137.38
250.299	129.38
250.532	135.38
250.765	141.38
250.998	129.38
251.231	135.38
251.465	155.38
251.698	161.38
251.931	141.38
252.164	143.38
252.397	141.38
252.63	131.38
252.863	139.38
253.096	136.38
253.329	143.38
253.562	145.38
253.795	144.38
254.028	146.38
254.261	156.38
254.494	149.38
254.727	163.38
254.96	197.38
255.193	184.38
255.426	162.38
255.659	158.38
255.892	155.38
256.124	162.38
256.357	138.38
256.59	168.38
256.823	144.38
257.056	139.38
257.289	137.38
257.521	147.38
257.754	150.38
257.987	156.38
258.22	164.38
258.452	141.38
258.685	147.38
258.918	156.38
259.151	153.38
259.383	145.38
259.616	158.38
259.849	169.38
260.081	169.38
260.314	163.38
260.547	171.38
260.779	154.38
261.012	165.38
261.244	144.38
261.477	143.38
261.71	154.38
261.942	156.38
262.175	159.38
262.407	153.38
262.64	157.38
262.872	163.38
263.105	145.38
263.337	150.38
263.57	159.38
263.802	166.38
264.035	154.38
264.267	147.38
264.499	143.38
264.732	152.38
264.964	165.38
265.197	166.38
265.429	159.38
265.661	147.38
265.894	164.38
266.126	166.38
266.358	139.38
266.591	129.38
266.823	161.38
267.055	156.38
267.287	159.38
267.52	141.38
267.752	147.38
267.984	152.38
268.216	153.38
268.448	155.38
268.681	150.38
268.913	166.38
269.145	181.38
269.377	175.38
269.609	169.38
269.841	172.38
270.073	180.38
270.306	188.38
270.538	186.38
270.77	196.38
271.002	188.38
271.234	183.38
271.466	194.38
271.698	212.38
271.93	206.38
272.162	200.38
272.394	193.38
272.626	202.38
272.858	175.38
273.09	182.38
273.322	196.38
273.553	180.38
273.785	173.38
274.017	185.38
274.249	187.38
274.481	172.38
274.713	170.38
274.945	168.38
275.176	174.38
275.408	173.38
275.64	161.38
275.872	173.38
276.104	181.38
276.335	173.38
276.567	175.38
276.799	179.38
277.031	199.38
277.262	188.38
277.494	197.38
277.726	198.38
277.957	167.38
278.189	175.38
278.421	181.38
278.652	195.38
278.884	182.38
279.115	191.38
279.347	163.38
279.579	179.38
279.81	192.38
280.042	169.38
280.273	172.38
280.505	179.38
280.736	175.38
280.968	163.38
281.199	171.38
281.431	183.38
281.662	171.38
281.894	183.38
282.125	182.38
282.356	180.38
282.588	181.38
282.819	207.38
283.051	194.38
283.282	180.38
283.513	184.38
283.745	174.38
283.976	188.38
284.207	198.38
284.439	163.38
284.67	177.38
284.901	177.38
285.132	179.38
285.364	186.38
285.595	190.38
285.826	184.38
286.057	173.38
286.288	185.38
286.52	179.38
286.751	188.38
286.982	181.38
287.213	167.38
287.444	191.38
287.675	183.38
287.906	182.38
288.138	186.38
288.369	204.38
288.6	198.38
288.831	197.38
289.062	198.38
289.293	185.38
289.524	191.38
289.755	189.38
289.986	167.38
290.217	195.38
290.448	184.38
290.679	184.38
290.91	177.38
291.141	191.38
291.371	183.38
291.602	196.38
291.833	208.38
292.064	184.38
292.295	197.38
292.526	191.38
292.757	191.38
292.987	186.38
293.218	194.38
293.449	198.38
293.68	192.38
293.91	169.38
294.141	183.38
294.372	190.38
294.603	182.38
294.833	208.38
295.064	189.38
295.295	200.38
295.525	199.38
295.756	191.38
295.987	182.38
296.217	188.38
296.448	199.38
296.679	185.38
296.909	176.38
297.14	188.38
297.37	202.38
297.601	206.38
297.831	186.38
298.062	194.38
298.292	199.38
298.523	199.38
298.753	198.38
298.984	216.38
299.214	205.38
299.445	202.38
299.675	197.38
299.905	190.38
300.136	212.38
300.366	208.38
300.597	201.38
300.827	200.38
301.057	198.38
301.288	220.38
301.518	212.38
301.748	189.38
301.979	200.38
302.209	221.38
302.439	206.38
302.669	232.38
302.9	211.38
303.13	191.38
303.36	210.38
303.59	211.38
303.82	226.38
304.051	225.38
304.281	199.38
304.511	223.38
304.741	210.38
304.971	185.38
305.201	201.38
305.431	197.38
305.661	232.38
305.891	213.38
306.121	210.38
306.352	216.38
306.582	204.38
306.812	214.38
307.042	228.38
307.272	202.38
307.502	208.38
307.731	216.38
307.961	219.38
308.191	236.38
308.421	216.38
308.651	219.38
308.881	214.38
309.111	220.38
309.341	227.38
309.571	213.38
309.8	230.38
310.03	221.38
310.26	231.38
310.49	225.38
310.72	233.38
310.949	237.38
311.179	234.38
311.409	221.38
311.639	221.38
311.868	235.38
312.098	230.38
312.328	231.38
312.557	239.38
312.787	250.38
313.017	253.38
313.246	232.38
313.476	223.38
313.706	231.38
313.935	227.38
314.165	244.38
314.394	239.38
314.624	252.38
314.853	225.38
315.083	230.38
315.312	255.38
315.542	223.38
315.771	236.38
316.001	231.38
316.23	211.38
316.46	235.38
316.689	229.38
316.919	244.38
317.148	221.38
317.377	221.38
317.607	228.38
317.836	224.38
318.065	229.38
318.295	227.38
318.524	239.38
318.753	230.38
318.983	211.38
319.212	238.38
319.441	232.38
319.67	238.38
319.9	225.38
320.129	234.38
320.358	227.38
320.587	248.38
320.816	242.38
321.046	248.38
321.275	233.38
321.504	251.38
321.733	243.38
321.962	247.38
322.191	258.38
322.42	257.38
322.649	275.38
322.878	258.38
323.108	263.38
323.337	286.38
323.566	293.38
323.795	305.38
324.024	330.38
324.253	407.38
324.482	548.38
324.71	792.38
324.939	1100.38
325.168	857.38
325.397	476.38
325.626	345.38
325.855	295.38
326.084	296.38
326.313	295.38
326.542	282.38
326.77	339.38
326.999	378.38
327.228	515.38
327.457	721.38
327.686	791.38
327.914	525.38
328.143	352.38
328.372	330.38
328.6	327.38
328.829	320.38
329.058	319.38
329.287	317.38
329.515	298.38
329.744	292.38
329.972	295.38
330.201	309.38
330.43	319.38
330.658	335.38
330.887	341.38
331.115	311.38
331.344	293.38
331.572	283.38
331.801	279.38
332.03	287.38
332.258	286.38
332.486	260.38
332.715	259.38
332.943	257.38
333.172	274.38
333.4	260.38
333.629	273.38
333.857	259.38
334.085	275.38
334.314	273.38
334.542	273.38
334.771	265.38
334.999	278.38
335.227	282.38
335.455	261.38
335.684	259.38
335.912	254.38
336.14	256.38
336.369	264.38
336.597	279.38
336.825	243.38
337.053	247.38
337.281	237.38
337.51	253.38
337.738	263.38
337.966	256.38
338.194	261.38
338.422	244.38
338.65	260.38
338.878	260.38
339.106	268.38
339.334	249.38
339.562	266.38
339.79	246.38
340.018	265.38
340.246	273.38
340.474	264.38
340.702	267.38
340.93	266.38
341.158	247.38
341.386	244.38
341.614	252.38
341.842	255.38
342.07	254.38
342.298	262.38
342.526	254.38
342.754	256.38
342.981	268.38
343.209	235.38
343.437	244.38
343.665	265.38
343.893	266.38
344.12	251.38
344.348	253.38
344.576	259.38
344.804	252.38
345.031	262.38
345.259	251.38
345.487	245.38
345.714	250.38
345.942	252.38
346.17	265.38
346.397	246.38
346.625	265.38
346.853	237.38
347.08	243.38
347.308	244.38
347.535	258.38
347.763	245.38
347.99	244.38
348.218	241.38
348.445	238.38
348.673	252.38
348.9	254.38
349.128	244.38
349.355	243.38
349.583	247.38
349.81	264.38
350.037	262.38
350.265	236.38
350.492	231.38
350.72	247.38
350.947	240.38
351.174	267.38
351.402	265.38
351.629	255.38
351.856	247.38
352.083	233.38
352.311	243.38
352.538	257.38
352.765	249.38
352.992	246.38
353.22	234.38
353.447	230.38
353.674	236.38
353.901	228.38
354.128	241.38
354.355	235.38
354.583	228.38
354.81	229.38
355.037	255.38
355.264	257.38
355.491	241.38
355.718	235.38
355.945	235.38
356.172	224.38
356.399	230.38
356.626	231.38
356.853	235.38
357.08	230.38
357.307	228.38
357.534	246.38
357.761	236.38
357.988	236.38
358.215	223.38
358.441	232.38
358.668	234.38
358.895	228.38
359.122	230.38
359.349	234.38
359.576	248.38
359.802	255.38
360.029	262.38
360.256	267.38
360.483	257.38
360.709	241.38
360.936	260.38
361.163	269.38
361.39	254.38
361.616	251.38
361.843	238.38
362.07	233.38
362.296	226.38
362.523	231.38
362.749	257.38
362.976	243.38
363.203	240.38
363.429	237.38
363.656	234.38
363.882	232.38
364.109	228.38
364.335	231.38
364.562	233.38
364.788	234.38
365.015	235.38
365.241	225.38
365.468	224.38
365.694	251.38
365.92	229.38
366.147	237.38
366.373	239.38
366.599	246.38
366.826	239.38
367.052	254.38
367.278	233.38
367.505	243.38
367.731	236.38
367.957	253.38
368.184	237.38
368.41	251.38
368.636	233.38
368.862	245.38
369.089	237.38
369.315	234.38
369.541	236.38
369.767	231.38
369.993	250.38
370.219	226.38
370.445	243.38
370.672	231.38
370.898	213.38
371.124	240.38
371.35	218.38
371.576	238.38
371.802	220.38
372.028	240.38
372.254	241.38
372.48	246.38
372.706	240.38
372.932	255.38
373.158	250.38
373.384	235.38
373.61	227.38
373.835	227.38
374.061	229.38
374.287	252.38
374.513	259.38
374.739	246.38
374.965	230.38
375.191	231.38
375.416	227.38
375.642	236.38
375.868	231.38
376.094	227.38
376.319	237.38
376.545	230.38
376.771	238.38
376.997	214.38
377.222	216.38
377.448	232.38
377.674	229.38
377.899	214.38
378.125	224.38
378.35	225.38
378.576	235.38
378.802	235.38
379.027	234.38
379.253	215.38
379.478	236.38
379.704	222.38
379.929	231.38
380.155	227.38
380.38	209.38
380.606	232.38
380.831	231.38
381.057	227.38
381.282	230.38
381.507	234.38
381.733	228.38
381.958	234.38
382.184	237.38
382.409	238.38
382.634	243.38
382.86	226.38
383.085	237.38
383.31	251.38
383.535	249.38
383.761	236.38
383.986	236.38
384.211	241.38
384.436	253.38
384.662	247.38
384.887	246.38
385.112	232.38
385.337	241.38
385.562	238.38
385.787	243.38
386.013	243.38
386.238	239.38
386.463	255.38
386.688	227.38
386.913	243.38
387.138	245.38
387.363	222.38
387.588	235.38
387.813	251.38
388.038	231.38
388.263	249.38
388.488	238.38
388.713	238.38
388.938	239.38
389.163	247.38
389.387	239.38
389.612	238.38
389.837	236.38
390.062	243.38
390.287	221.38
390.512	249.38
390.736	240.38
390.961	256.38
391.186	244.38
391.411	259.38
391.636	246.38
391.86	241.38
392.085	244.38
392.31	237.38
392.534	250.38
392.759	245.38
392.984	235.38
393.208	243.38
393.433	252.38
393.658	240.38
393.882	215.38
394.107	234.38
394.331	250.38
394.556	239.38
394.78	246.38
395.005	252.38
395.229	245.38
395.454	259.38
395.678	246.38
395.903	251.38
396.127	261.38
396.352	255.38
396.576	253.38
396.801	259.38
397.025	234.38
397.249	273.38
397.474	265.38
397.698	257.38
397.922	271.38
398.147	252.38
398.371	255.38
398.595	259.38
398.82	270.38
399.044	273.38
399.268	268.38
399.492	282.38
399.717	300.38
399.941	323.38
400.165	326.38
400.389	303.38
400.613	315.38
400.837	289.38
401.062	276.38
401.286	278.38
401.51	277.38
401.734	269.38
401.958	255.38
402.182	265.38
402.406	281.38
402.63	276.38
402.854	258.38
403.078	280.38
403.302	276.38
403.526	269.38
403.75	271.38
403.974	272.38
404.198	260.38
404.422	278.38
404.645	278.38
404.869	264.38
405.093	288.38
405.317	307.38
405.541	324.38
405.765	299.38
405.988	280.38
406.212	285.38
406.436	292.38
406.66	293.38
406.883	282.38
407.107	321.38
407.331	316.38
407.555	345.38
407.778	368.38
408.002	303.38
408.226	298.38
408.449	303.38
408.673	299.38
408.896	317.38
409.12	332.38
409.344	304.38
409.567	279.38
409.791	281.38
410.014	277.38
410.238	265.38
410.461	269.38
410.685	271.38
410.908	281.38
411.132	312.38
411.355	313.38
411.578	284.38
411.802	288.38
412.025	290.38
412.249	264.38
412.472	287.38
412.695	288.38
412.919	283.38
413.142	272.38
413.365	267.38
413.589	272.38
413.812	273.38
414.035	261.38
414.258	267.38
414.482	265.38
414.705	255.38
414.928	265.38
415.151	254.38
415.374	253.38
415.597	269.38
415.821	259.38
416.044	243.38
416.267	260.38
416.49	254.38
416.713	256.38
416.936	263.38
417.159	257.38
417.382	253.38
417.605	271.38
417.828	263.38
418.051	261.38
418.274	279.38
418.497	252.38
418.72	268.38
418.943	246.38
419.166	264.38
419.389	283.38
419.611	250.38
419.834	271.38
420.057	264.38
420.28	263.38
420.503	287.38
420.726	285.38
420.948	278.38
421.171	311.38
421.394	307.38
421.617	270.38
421.839	284.38
422.062	269.38
422.285	270.38
422.507	271.38
422.73	328.38
422.953	340.38
423.175	294.38
423.398	282.38
423.621	299.38
423.843	291.38
424.066	276.38
424.288	285.38
424.511	297.38
424.733	334.38
424.956	373.38
425.178	360.38
425.401	343.38
425.623	330.38
425.846	306.38
426.068	301.38
426.291	291.38
426.513	273.38
426.735	291.38
426.958	310.38
427.18	356.38
427.402	415.38
427.625	451.38
427.847	375.38
428.069	347.38
428.292	295.38
428.514	284.38
428.736	283.38
428.958	269.38
429.181	258.38
429.403	293.38
429.625	259.38
429.847	311.38
430.069	341.38
430.292	328.38
430.514	286.38
430.736	283.38
430.958	266.38
431.18	258.38
431.402	268.38
431.624	236.38
431.846	273.38
432.068	256.38
432.29	268.38
432.512	249.38
432.734	273.38
432.956	272.38
433.178	263.38
433.4	252.38
433.622	253.38
433.844	267.38
434.066	262.38
434.287	263.38
434.509	260.38
434.731	261.38
434.953	256.38
435.175	279.38
435.397	282.38
435.618	305.38
435.84	303.38
436.062	337.38
436.284	352.38
436.505	341.38
436.727	285.38
436.949	279.38
437.17	257.38
437.392	275.38
437.614	292.38
437.835	312.38
438.057	331.38
438.278	383.38
438.5	394.38
438.721	412.38
438.943	398.38
439.165	336.38
439.386	283.38
439.608	305.38
439.829	297.38
440.05	295.38
440.272	320.38
440.493	291.38
440.715	271.38
440.936	282.38
441.158	284.38
441.379	255.38
441.6	291.38
441.822	270.38
442.043	316.38
442.264	323.38
442.486	359.38
442.707	311.38
442.928	274.38
443.149	280.38
443.371	307.38
443.592	337.38
443.813	368.38
444.034	382.38
444.255	328.38
444.476	288.38
444.698	283.38
444.919	277.38
445.14	373.38
445.361	335.38
445.582	301.38
445.803	347.38
446.024	377.38
446.245	395.38
446.466	367.38
446.687	296.38
446.908	292.38
447.129	287.38
447.35	265.38
447.571	274.38
447.792	276.38
448.013	283.38
448.234	300.38
448.455	317.38
448.675	361.38
448.896	410.38
449.117	337.38
449.338	357.38
449.559	375.38
449.779	414.38
450	340.38
450.221	283.38
450.442	261.38
450.662	269.38
450.883	268.38
451.104	259.38
451.324	266.38
451.545	252.38
451.766	258.38
451.986	255.38
452.207	233.38
452.428	247.38
452.648	232.38
452.869	247.38
453.089	243.38
453.31	245.38
453.53	262.38
453.751	262.38
453.971	260.38
454.192	257.38
454.412	237.38
454.633	238.38
454.853	241.38
455.073	229.38
455.294	262.38
455.514	284.38
455.734	273.38
455.955	244.38
456.175	234.38
456.395	228.38
456.616	228.38
456.836	223.38
457.056	237.38
457.276	227.38
457.497	246.38
457.717	240.38
457.937	232.38
458.157	237.38
458.377	236.38
458.598	278.38
458.818	273.38
459.038	309.38
459.258	301.38
459.478	287.38
459.698	253.38
459.918	246.38
460.138	259.38
460.358	264.38
460.578	264.38
460.798	272.38
461.018	246.38
461.238	254.38
461.458	262.38
461.678	263.38
461.898	245.38
462.118	263.38
462.338	247.38
462.558	251.38
462.777	276.38
462.997	263.38
463.217	275.38
463.437	279.38
463.657	252.38
463.876	263.38
464.096	264.38
464.316	273.38
464.536	272.38
464.755	265.38
464.975	278.38
465.195	289.38
465.414	316.38
465.634	283.38
465.854	263.38
466.073	263.38
466.293	265.38
466.512	251.38
466.732	264.38
466.951	265.38
467.171	250.38
467.391	249.38
467.61	255.38
467.829	253.38
468.049	244.38
468.268	222.38
468.488	245.38
468.707	237.38
468.927	238.38
469.146	250.38
469.365	239.38
469.585	240.38
469.804	261.38
470.023	245.38
470.243	246.38
470.462	227.38
470.681	269.38
470.901	266.38
471.12	256.38
471.339	264.38
471.558	236.38
471.777	254.38
471.997	245.38
472.216	248.38
472.435	261.38
472.654	262.38
472.873	276.38
473.092	249.38
473.311	247.38
473.53	257.38
473.749	258.38
473.968	290.38
474.187	329.38
474.406	337.38
474.625	291.38
474.844	262.38
475.063	244.38
475.282	267.38
475.501	253.38
475.72	259.38
475.939	269.38
476.158	260.38
476.377	272.38
476.596	267.38
476.814	255.38
477.033	261.38
477.252	257.38
477.471	267.38
477.69	284.38
477.908	281.38
478.127	273.38
478.346	270.38
478.564	269.38
478.783	283.38
479.002	277.38
479.22	262.38
479.439	296.38
479.658	281.38
479.876	297.38
480.095	313.38
480.313	311.38
480.532	324.38
480.751	301.38
480.969	309.38
481.188	309.38
481.406	324.38
481.624	307.38
481.843	299.38
482.061	296.38
482.28	313.38
482.498	290.38
482.717	291.38
482.935	311.38
483.153	277.38
483.372	281.38
483.59	303.38
483.808	279.38
484.027	283.38
484.245	297.38
484.463	300.38
484.681	298.38
484.9	307.38
485.118	298.38
485.336	301.38
485.554	301.38
485.772	284.38
485.99	278.38
486.209	300.38
486.427	293.38
486.645	303.38
486.863	315.38
487.081	318.38
487.299	321.38
487.517	304.38
487.735	302.38
487.953	328.38
488.171	313.38
488.389	323.38
488.607	316.38
488.825	319.38
489.043	312.38
489.261	298.38
489.479	319.38
489.696	319.38
489.914	309.38
490.132	320.38
490.35	329.38
490.568	317.38
490.786	312.38
491.003	329.38
491.221	343.38
491.439	333.38
491.657	345.38
491.874	353.38
492.092	345.38
492.31	352.38
492.527	363.38
492.745	322.38
492.963	348.38
493.18	343.38
493.398	344.38
493.615	338.38
493.833	351.38
494.05	356.38
494.268	349.38
494.485	351.38
494.703	343.38
494.92	356.38
495.138	354.38
495.355	344.38
495.573	364.38
495.79	344.38
496.008	376.38
496.225	355.38
496.442	365.38
496.66	359.38
496.877	360.38
497.094	366.38
497.312	375.38
497.529	369.38
497.746	377.38
497.963	391.38
498.181	365.38
498.398	379.38
498.615	372.38
498.832	377.38
499.049	401.38
499.267	416.38
499.484	414.38
499.701	428.38
499.918	403.38
500.135	459.38
500.352	447.38
500.569	449.38
500.786	439.38
501.003	449.38
501.22	437.38
501.437	437.38
501.654	426.38
501.871	419.38
502.088	401.38
502.305	399.38
502.522	407.38
502.739	387.38
502.956	384.38
503.172	377.38
503.389	378.38
503.606	375.38
503.823	372.38
504.04	366.38
504.256	355.38
504.473	357.38
504.69	356.38
504.907	363.38
505.123	345.38
505.34	360.38
505.557	348.38
505.773	360.38
505.99	330.38
506.207	349.38
506.423	336.38
506.64	347.38
506.856	347.38
507.073	345.38
507.289	334.38
507.506	315.38
507.722	326.38
507.939	339.38
508.155	328.38
508.372	323.38
508.588	335.38
508.805	321.38
509.021	316.38
509.238	339.38
509.454	345.38
509.67	327.38
509.887	332.38
510.103	340.38
510.319	349.38
510.536	355.38
510.752	539.38
510.968	456.38
511.184	347.38
511.401	326.38
511.617	321.38
511.833	316.38
512.049	314.38
512.265	309.38
512.481	316.38
512.698	330.38
512.914	316.38
513.13	300.38
513.346	297.38
513.562	314.38
513.778	313.38
513.994	309.38
514.21	325.38
514.426	341.38
514.642	340.38
514.858	339.38
515.074	367.38
515.29	431.38
515.506	580.38
515.721	461.38
515.937	384.38
516.153	345.38
516.369	307.38
516.585	304.38
516.801	317.38
517.016	311.38
517.232	315.38
517.448	310.38
517.664	327.38
517.879	310.38
518.095	317.38
518.311	329.38
518.527	321.38
518.742	328.38
518.958	328.38
519.173	316.38
519.389	320.38
519.605	321.38
519.82	308.38
520.036	321.38
520.251	325.38
520.467	352.38
520.682	321.38
520.898	345.38
521.113	330.38
521.329	349.38
521.544	400.38
521.76	464.38
521.975	724.38
522.19	682.38
522.406	448.38
522.621	333.38
522.836	333.38
523.052	329.38
523.267	325.38
523.482	319.38
523.698	304.38
523.913	311.38
524.128	297.38
524.343	289.38
524.559	299.38
524.774	280.38
524.989	291.38
525.204	285.38
525.419	271.38
525.634	261.38
525.849	272.38
526.064	261.38
526.28	289.38
526.495	283.38
526.71	260.38
526.925	287.38
527.14	271.38
527.355	270.38
527.57	268.38
527.785	278.38
527.999	269.38
528.214	275.38
528.429	288.38
528.644	279.38
528.859	259.38
529.074	263.38
529.289	282.38
529.503	318.38
529.718	308.38
529.933	276.38
530.148	276.38
530.363	273.38
530.577	260.38
530.792	268.38
531.007	252.38
531.221	266.38
531.436	267.38
531.651	237.38
531.865	255.38
532.08	262.38
532.295	263.38
532.509	248.38
532.724	243.38
532.938	259.38
533.153	260.38
533.367	267.38
533.582	273.38
533.796	266.38
534.011	267.38
534.225	251.38
534.44	262.38
534.654	233.38
534.868	252.38
535.083	264.38
535.297	264.38
535.511	244.38
535.726	250.38
535.94	260.38
536.154	251.38
536.369	238.38
536.583	255.38
536.797	245.38
537.011	232.38
537.225	252.38
537.44	246.38
537.654	230.38
537.868	258.38
538.082	240.38
538.296	251.38
538.51	265.38
538.724	237.38
538.938	243.38
539.153	271.38
539.367	263.38
539.581	253.38
539.795	250.38
540.009	249.38
540.222	241.38
540.436	261.38
540.65	248.38
540.864	265.38
541.078	271.38
541.292	267.38
541.506	250.38
541.72	270.38
541.934	256.38
542.147	260.38
542.361	271.38
542.575	249.38
542.789	240.38
543.002	252.38
543.216	274.38
543.43	221.38
543.644	240.38
543.857	241.38
544.071	256.38
544.285	267.38
544.498	236.38
544.712	251.38
544.925	257.38
545.139	269.38
545.352	243.38
545.566	255.38
545.779	239.38
545.993	260.38
546.206	249.38
546.42	253.38
546.633	247.38
546.847	254.38
547.06	239.38
547.274	259.38
547.487	262.38
547.7	250.38
547.914	247.38
548.127	251.38
548.34	234.38
548.554	243.38
548.767	220.38
548.98	247.38
549.193	232.38
549.407	233.38
549.62	230.38
549.833	248.38
550.046	233.38
550.259	247.38
550.473	242.38
550.686	231.38
550.899	238.38
551.112	237.38
551.325	229.38
551.538	244.38
551.751	245.38
551.964	243.38
552.177	213.38
552.39	227.38
552.603	219.38
552.816	237.38
553.029	238.38
553.242	245.38
553.455	223.38
553.667	231.38
553.88	238.38
554.093	240.38
554.306	251.38
554.519	234.38
554.732	231.38
554.944	230.38
555.157	222.38
555.37	222.38
555.583	224.38
555.795	244.38
556.008	235.38
556.221	223.38
556.433	239.38
556.646	221.38
556.859	221.38
557.071	224.38
557.284	229.38
557.496	217.38
557.709	229.38
557.921	224.38
558.134	234.38
558.346	216.38
558.559	225.38
558.771	206.38
558.984	213.38
559.196	209.38
559.409	212.38
559.621	220.38
559.833	217.38
560.046	205.38
560.258	217.38
560.47	225.38
560.683	214.38
560.895	225.38
561.107	214.38
561.32	211.38
561.532	219.38
561.744	219.38
561.956	226.38
562.168	215.38
562.381	218.38
562.593	212.38
562.805	225.38
563.017	216.38
563.229	220.38
563.441	223.38
563.653	226.38
563.865	217.38
564.077	224.38
564.289	228.38
564.501	236.38
564.713	224.38
564.925	227.38
565.137	211.38
565.349	215.38
565.561	245.38
565.773	235.38
565.985	245.38
566.197	246.38
566.408	238.38
566.62	241.38
566.832	233.38
567.044	271.38
567.255	247.38
567.467	244.38
567.679	259.38
567.891	262.38
568.102	265.38
568.314	254.38
568.526	230.38
568.737	238.38
568.949	233.38
569.161	232.38
569.372	223.38
569.584	215.38
569.795	215.38
570.007	222.38
570.218	240.38
570.43	223.38
570.641	225.38
570.853	223.38
571.064	217.38
571.276	208.38
571.487	208.38
571.698	215.38
571.91	217.38
572.121	206.38
572.333	218.38
572.544	202.38
572.755	215.38
572.966	192.38
573.178	206.38
573.389	194.38
573.6	185.38
573.811	185.38
574.023	204.38
574.234	209.38
574.445	198.38
574.656	190.38
574.867	190.38
575.078	194.38
575.289	188.38
575.501	185.38
575.712	179.38
575.923	192.38
576.134	193.38
576.345	200.38
576.556	207.38
576.767	193.38
576.978	199.38
577.188	193.38
577.399	183.38
577.61	196.38
577.821	188.38
578.032	183.38
578.243	186.38
578.454	294.38
578.665	231.38
578.875	205.38
579.086	200.38
579.297	187.38
579.508	195.38
579.718	175.38
579.929	193.38
580.14	191.38
580.35	176.38
580.561	170.38
580.772	168.38
580.982	189.38
581.193	184.38
581.403	174.38
581.614	180.38
581.825	185.38
582.035	181.38
582.246	189.38
582.456	187.38
582.667	184.38
582.877	180.38
583.087	183.38
583.298	180.38
583.508	190.38
583.719	180.38
583.929	181.38
584.139	172.38
584.35	163.38
584.56	185.38
584.77	181.38
584.981	172.38
585.191	176.38
585.401	185.38
585.611	186.38
585.821	187.38
586.032	182.38
586.242	177.38
586.452	179.38
586.662	179.38
586.872	184.38
587.082	183.38
587.292	179.38
587.502	181.38
587.713	163.38
587.923	190.38
588.133	176.38
588.343	163.38
588.553	175.38
588.762	190.38
588.972	183.38
589.182	204.38
589.392	203.38
589.602	203.38
589.812	204.38
590.022	184.38
590.232	178.38
590.441	173.38
590.651	183.38
590.861	181.38
591.071	189.38
591.281	187.38
591.49	185.38
591.7	171.38
591.91	185.38
592.119	185.38
592.329	187.38
592.539	172.38
592.748	181.38
592.958	171.38
593.167	192.38
593.377	167.38
593.587	197.38
593.796	177.38
594.006	183.38
594.215	171.38
594.424	183.38
594.634	187.38
594.843	181.38
595.053	165.38
595.262	174.38
595.472	172.38
595.681	187.38
595.89	166.38
596.1	154.38
596.309	179.38
596.518	180.38
596.727	169.38
596.937	186.38
597.146	174.38
597.355	159.38
597.564	159.38
597.774	158.38
597.983	173.38
598.192	178.38
598.401	157.38
598.61	161.38
598.819	165.38
599.028	175.38
599.237	168.38
599.446	174.38
599.655	164.38
599.864	167.38
600.073	165.38
600.282	172.38
600.491	165.38
600.7	151.38
600.909	156.38
601.118	151.38
601.327	167.38
601.536	163.38
601.745	162.38
601.953	164.38
602.162	164.38
602.371	161.38
602.58	156.38
602.789	155.38
602.997	151.38
603.206	169.38
603.415	167.38
603.623	157.38
603.832	157.38
604.041	154.38
604.249	156.38
604.458	171.38
604.666	171.38
604.875	152.38
605.084	165.38
605.292	145.38
605.501	155.38
605.709	149.38
605.918	163.38
606.126	163.38
606.334	158.38
606.543	156.38
606.751	160.38
606.96	156.38
607.168	161.38
607.376	150.38
607.585	154.38
607.793	167.38
608.001	145.38
608.21	153.38
608.418	166.38
608.626	152.38
608.834	138.38
609.043	171.38
609.251	157.38
609.459	155.38
609.667	160.38
609.875	153.38
610.083	151.38
610.291	164.38
610.499	143.38
610.707	171.38
610.916	154.38
611.124	175.38
611.332	176.38
611.54	172.38
611.748	151.38
611.955	184.38
612.163	167.38
612.371	165.38
612.579	166.38
612.787	158.38
612.995	137.38
613.203	151.38
613.411	165.38
613.618	144.38
613.826	160.38
614.034	154.38
614.242	145.38
614.449	157.38
614.657	156.38
614.865	155.38
615.072	157.38
615.28	160.38
615.488	149.38
615.695	155.38
615.903	139.38
616.111	152.38
616.318	141.38
616.526	155.38
616.733	167.38
616.941	150.38
617.148	160.38
617.356	161.38
617.563	138.38
617.771	144.38
617.978	152.38
618.185	143.38
618.393	145.38
618.6	157.38
618.807	142.38
619.015	171.38
619.222	155.38
619.429	149.38
619.637	158.38
619.844	155.38
620.051	155.38
620.258	152.38
620.466	152.38
620.673	167.38
620.88	171.38
621.087	159.38
621.294	144.38
621.501	166.38
621.708	136.38
621.915	172.38
622.122	157.38
622.329	152.38
622.536	144.38
622.743	145.38
622.95	167.38
623.157	140.38
623.364	157.38
623.571	160.38
623.778	142.38
623.985	153.38
624.192	153.38
624.399	138.38
624.606	140.38
624.812	153.38
625.019	131.38
625.226	148.38
625.433	149.38
625.639	146.38
625.846	133.38
626.053	146.38
626.259	155.38
626.466	140.38
626.673	154.38
626.879	130.38
627.086	145.38
627.293	134.38
627.499	147.38
627.706	145.38
627.912	145.38
628.119	147.38
628.325	127.38
628.532	130.38
628.738	146.38
628.945	151.38
629.151	148.38
629.357	151.38
629.564	145.38
629.77	133.38
629.976	141.38
630.183	141.38
630.389	141.38
630.595	146.38
630.802	139.38
631.008	147.38
631.214	134.38
631.42	135.38
631.627	133.38
631.833	143.38
632.039	141.38
632.245	137.38
632.451	136.38
632.657	144.38
632.863	136.38
633.069	134.38
633.275	141.38
633.481	141.38
633.688	139.38
633.893	144.38
634.099	147.38
634.305	133.38
634.511	122.38
634.717	121.38
634.923	138.38
635.129	135.38
635.335	127.38
635.541	124.38
635.747	138.38
635.952	136.38
636.158	137.38
636.364	133.38
636.57	138.38
636.775	135.38
636.981	120.38
637.187	125.38
637.392	125.38
637.598	141.38
637.804	120.38
638.009	137.38
638.215	129.38
638.421	130.38
638.626	121.38
638.832	132.38
639.037	120.38
639.243	123.38
639.448	125.38
639.654	129.38
639.859	128.38
640.065	142.38
640.27	135.38
640.475	125.38
640.681	119.38
640.886	127.38
641.091	138.38
641.297	140.38
641.502	122.38
641.707	127.38
641.913	127.38
642.118	125.38
642.323	133.38
642.528	143.38
642.733	137.38
642.939	127.38
643.144	116.38
643.349	134.38
643.554	123.38
643.759	142.38
643.964	127.38
644.169	140.38
644.374	124.38
644.579	138.38
644.784	109.38
644.989	130.38
645.194	143.38
645.399	141.38
645.604	126.38
645.809	129.38
646.014	119.38
646.219	127.38
646.423	128.38
646.628	114.38
646.833	131.38
647.038	123.38
647.243	112.38
647.447	116.38
647.652	123.38
647.857	126.38
648.062	127.38
648.266	133.38
648.471	136.38
648.676	123.38
648.88	118.38
649.085	115.38
649.289	131.38
649.494	132.38
649.698	140.38
649.903	138.38
650.107	120.38
650.312	129.38
650.516	128.38
650.721	112.38
650.925	117.38
651.13	122.38
651.334	121.38
651.539	125.38
651.743	121.38
651.947	118.38
652.152	124.38
652.356	122.38
652.56	113.38
652.764	113.38
652.969	106.38
653.173	110.38
653.377	126.38
653.581	108.38
653.785	115.38
653.99	136.38
654.194	128.38
654.398	112.38
654.602	123.38
654.806	123.38
655.01	115.38
655.214	129.38
655.418	104.38
655.622	125.38
655.826	117.38
656.03	123.38
656.234	110.38
656.438	98.38
656.642	110.38
656.846	129.38
657.049	113.38
657.253	110.38
657.457	108.38
657.661	112.38
657.865	112.38
658.068	107.38
658.272	112.38
658.476	119.38
658.68	109.38
658.883	96.38
659.087	89.38
659.291	94.38
659.494	86.38
659.698	93.38
659.901	93.38
660.105	91.38
660.309	87.38
660.512	111.38
660.716	92.38
660.919	92.38
661.123	88.38
661.326	95.38
661.53	105.38
661.733	76.38
661.936	95.38
662.14	99.38
662.343	88.38
662.546	96.38
662.75	88.38
662.953	97.38
663.156	95.38
663.36	87.38
663.563	98.38
663.766	86.38
663.969	83.38
664.173	84.38
664.376	92.38
664.579	95.38
664.782	79.38
664.985	96.38
665.188	96.38
665.391	78.38
665.594	75.38
665.797	88.38
666	107.38
666.203	85.38
666.406	102.38
666.609	95.38
666.812	76.38
667.015	96.38
667.218	74.38
667.421	77.38
667.624	85.38
667.827	83.38
668.03	78.38
668.232	85.38
668.435	91.38
668.638	91.38
668.841	76.38
669.043	88.38
669.246	81.38
669.449	73.38
669.651	75.38
669.854	73.38
670.057	93.38
670.259	79.38
670.462	74.38
670.665	73.38
670.867	69.38
671.07	75.38
671.272	93.38
671.475	95.38
671.677	76.38
671.88	82.38
672.082	86.38
672.284	79.38
672.487	80.38
672.689	80.38
672.892	86.38
