Data from 1982.PennyLincolnUp.Lamp.En5.5.200Scan.071819.P1_HRD10591_16-47-31-962.txt Node
Date: Thu Jul 18 16:47:31 EDT 2019
User: cochatt
Spectrometer: HR+D1059
Trigger mode: 1
Integration Time (sec): 1.000000E-1
Scans to average: 1
Electric dark correction enabled: true
Nonlinearity correction enabled: false
Boxcar width: 0
XAxis mode: Wavelengths
Number of Pixels in Spectrum: 2048
>>>>>Begin Spectral Data<<<<<
223.165	-28.12
223.4	-28.12
223.635	-28.12
223.869	-7.12
224.104	-24.12
224.338	-15.12
224.573	-4.12
224.808	-15.12
225.042	-8.12
225.277	-12.12
225.511	2.88
225.746	11.88
225.98	1.88
226.215	8.88
226.449	-1.12
226.683	28.88
226.918	26.88
227.152	33.88
227.387	44.88
227.621	36.88
227.856	26.88
228.09	36.88
228.324	35.88
228.559	60.88
228.793	56.88
229.027	107.88
229.262	97.88
229.496	105.88
229.73	121.88
229.964	126.88
230.199	107.88
230.433	97.88
230.667	97.88
230.901	93.88
231.136	104.88
231.37	112.88
231.604	97.88
231.838	112.88
232.072	102.88
232.306	106.88
232.541	105.88
232.775	114.88
233.009	98.88
233.243	100.88
233.477	107.88
233.711	90.88
233.945	108.88
234.179	106.88
234.413	106.88
234.647	105.88
234.881	106.88
235.115	98.88
235.349	104.88
235.583	109.88
235.817	106.88
236.051	102.88
236.285	120.88
236.519	103.88
236.753	114.88
236.987	116.88
237.221	162.88
237.455	188.88
237.689	158.88
237.922	123.88
238.156	116.88
238.39	104.88
238.624	108.88
238.858	106.88
239.091	96.88
239.325	95.88
239.559	124.88
239.793	115.88
240.027	118.88
240.26	120.88
240.494	138.88
240.728	131.88
240.961	124.88
241.195	119.88
241.429	118.88
241.662	109.88
241.896	115.88
242.13	120.88
242.363	109.88
242.597	106.88
242.83	125.88
243.064	128.88
243.298	113.88
243.531	107.88
243.765	130.88
243.998	133.88
244.232	114.88
244.465	108.88
244.699	118.88
244.932	114.88
245.166	118.88
245.399	135.88
245.633	125.88
245.866	128.88
246.099	129.88
246.333	131.88
246.566	138.88
246.8	127.88
247.033	129.88
247.266	139.88
247.5	131.88
247.733	134.88
247.966	148.88
248.2	149.88
248.433	132.88
248.666	150.88
248.899	168.88
249.133	164.88
249.366	172.88
249.599	166.88
249.832	141.88
250.066	125.88
250.299	156.88
250.532	170.88
250.765	168.88
250.998	188.88
251.231	182.88
251.465	178.88
251.698	170.88
251.931	163.88
252.164	174.88
252.397	165.88
252.63	165.88
252.863	164.88
253.096	186.88
253.329	183.88
253.562	178.88
253.795	182.88
254.028	177.88
254.261	181.88
254.494	197.88
254.727	208.88
254.96	218.88
255.193	221.88
255.426	203.88
255.659	193.88
255.892	199.88
256.124	176.88
256.357	202.88
256.59	190.88
256.823	181.88
257.056	173.88
257.289	156.88
257.521	159.88
257.754	179.88
257.987	162.88
258.22	167.88
258.452	162.88
258.685	182.88
258.918	174.88
259.151	166.88
259.383	172.88
259.616	189.88
259.849	187.88
260.081	202.88
260.314	201.88
260.547	197.88
260.779	197.88
261.012	197.88
261.244	201.88
261.477	187.88
261.71	182.88
261.942	199.88
262.175	194.88
262.407	190.88
262.64	198.88
262.872	165.88
263.105	180.88
263.337	186.88
263.57	172.88
263.802	172.88
264.035	176.88
264.267	186.88
264.499	175.88
264.732	167.88
264.964	171.88
265.197	168.88
265.429	178.88
265.661	169.88
265.894	165.88
266.126	174.88
266.358	190.88
266.591	186.88
266.823	180.88
267.055	173.88
267.287	173.88
267.52	173.88
267.752	181.88
267.984	175.88
268.216	192.88
268.448	190.88
268.681	196.88
268.913	219.88
269.145	216.88
269.377	228.88
269.609	228.88
269.841	214.88
270.073	226.88
270.306	240.88
270.538	264.88
270.77	271.88
271.002	253.88
271.234	259.88
271.466	254.88
271.698	265.88
271.93	249.88
272.162	278.88
272.394	265.88
272.626	234.88
272.858	237.88
273.09	232.88
273.322	234.88
273.553	238.88
273.785	225.88
274.017	213.88
274.249	215.88
274.481	213.88
274.713	235.88
274.945	229.88
275.176	220.88
275.408	228.88
275.64	208.88
275.872	230.88
276.104	219.88
276.335	213.88
276.567	218.88
276.799	236.88
277.031	259.88
277.262	265.88
277.494	259.88
277.726	244.88
277.957	241.88
278.189	234.88
278.421	237.88
278.652	201.88
278.884	216.88
279.115	226.88
279.347	223.88
279.579	214.88
279.81	224.88
280.042	200.88
280.273	204.88
280.505	220.88
280.736	230.88
280.968	226.88
281.199	212.88
281.431	205.88
281.662	228.88
281.894	213.88
282.125	210.88
282.356	231.88
282.588	254.88
282.819	240.88
283.051	226.88
283.282	221.88
283.513	210.88
283.745	223.88
283.976	224.88
284.207	220.88
284.439	230.88
284.67	231.88
284.901	237.88
285.132	223.88
285.364	227.88
285.595	226.88
285.826	210.88
286.057	241.88
286.288	227.88
286.52	224.88
286.751	202.88
286.982	231.88
287.213	218.88
287.444	223.88
287.675	237.88
287.906	234.88
288.138	233.88
288.369	232.88
288.6	251.88
288.831	248.88
289.062	241.88
289.293	247.88
289.524	233.88
289.755	234.88
289.986	217.88
290.217	226.88
290.448	230.88
290.679	209.88
290.91	222.88
291.141	221.88
291.371	214.88
291.602	210.88
291.833	228.88
292.064	213.88
292.295	221.88
292.526	224.88
292.757	233.88
292.987	227.88
293.218	234.88
293.449	231.88
293.68	223.88
293.91	232.88
294.141	233.88
294.372	214.88
294.603	224.88
294.833	221.88
295.064	234.88
295.295	225.88
295.525	235.88
295.756	231.88
295.987	230.88
296.217	259.88
296.448	237.88
296.679	235.88
296.909	212.88
297.14	234.88
297.37	246.88
297.601	240.88
297.831	247.88
298.062	237.88
298.292	240.88
298.523	248.88
298.753	228.88
298.984	236.88
299.214	245.88
299.445	233.88
299.675	228.88
299.905	258.88
300.136	258.88
300.366	229.88
300.597	241.88
300.827	244.88
301.057	251.88
301.288	261.88
301.518	246.88
301.748	242.88
301.979	247.88
302.209	256.88
302.439	271.88
302.669	265.88
302.9	246.88
303.13	269.88
303.36	254.88
303.59	265.88
303.82	266.88
304.051	268.88
304.281	257.88
304.511	246.88
304.741	246.88
304.971	257.88
305.201	276.88
305.431	257.88
305.661	250.88
305.891	252.88
306.121	240.88
306.352	254.88
306.582	257.88
306.812	274.88
307.042	234.88
307.272	262.88
307.502	290.88
307.731	264.88
307.961	252.88
308.191	272.88
308.421	275.88
308.651	269.88
308.881	274.88
309.111	254.88
309.341	273.88
309.571	295.88
309.8	284.88
310.03	289.88
310.26	290.88
310.49	295.88
310.72	307.88
310.949	312.88
311.179	329.88
311.409	320.88
311.639	293.88
311.868	297.88
312.098	299.88
312.328	307.88
312.557	334.88
312.787	323.88
313.017	315.88
313.246	311.88
313.476	286.88
313.706	299.88
313.935	319.88
314.165	325.88
314.394	316.88
314.624	312.88
314.853	294.88
315.083	301.88
315.312	306.88
315.542	293.88
315.771	288.88
316.001	299.88
316.23	319.88
316.46	305.88
316.689	285.88
316.919	315.88
317.148	318.88
317.377	324.88
317.607	292.88
317.836	294.88
318.065	308.88
318.295	301.88
318.524	299.88
318.753	294.88
318.983	295.88
319.212	292.88
319.441	306.88
319.67	315.88
319.9	290.88
320.129	283.88
320.358	313.88
320.587	302.88
320.816	310.88
321.046	301.88
321.275	322.88
321.504	312.88
321.733	326.88
321.962	318.88
322.191	320.88
322.42	357.88
322.649	368.88
322.878	360.88
323.108	390.88
323.337	415.88
323.566	429.88
323.795	449.88
324.024	508.88
324.253	634.88
324.482	932.88
324.71	1400.88
324.939	1846.88
325.168	1515.88
325.397	781.88
325.626	532.88
325.855	463.88
326.084	434.88
326.313	404.88
326.542	408.88
326.77	471.88
326.999	581.88
327.228	822.88
327.457	1210.88
327.686	1324.88
327.914	884.88
328.143	578.88
328.372	537.88
328.6	479.88
328.829	490.88
329.058	448.88
329.287	434.88
329.515	446.88
329.744	436.88
329.972	438.88
330.201	442.88
330.43	474.88
330.658	487.88
330.887	494.88
331.115	486.88
331.344	397.88
331.572	404.88
331.801	402.88
332.03	388.88
332.258	373.88
332.486	358.88
332.715	360.88
332.943	377.88
333.172	359.88
333.4	364.88
333.629	356.88
333.857	381.88
334.085	374.88
334.314	383.88
334.542	420.88
334.771	432.88
334.999	376.88
335.227	375.88
335.455	341.88
335.684	353.88
335.912	339.88
336.14	344.88
336.369	343.88
336.597	343.88
336.825	353.88
337.053	333.88
337.281	324.88
337.51	321.88
337.738	358.88
337.966	358.88
338.194	348.88
338.422	317.88
338.65	342.88
338.878	322.88
339.106	321.88
339.334	334.88
339.562	338.88
339.79	321.88
340.018	337.88
340.246	348.88
340.474	333.88
340.702	344.88
340.93	353.88
341.158	334.88
341.386	327.88
341.614	326.88
341.842	350.88
342.07	341.88
342.298	327.88
342.526	307.88
342.754	299.88
342.981	321.88
343.209	313.88
343.437	316.88
343.665	305.88
343.893	305.88
344.12	325.88
344.348	327.88
344.576	331.88
344.804	352.88
345.031	331.88
345.259	355.88
345.487	346.88
345.714	324.88
345.942	343.88
346.17	330.88
346.397	315.88
346.625	312.88
346.853	306.88
347.08	318.88
347.308	320.88
347.535	314.88
347.763	338.88
347.99	324.88
348.218	336.88
348.445	330.88
348.673	340.88
348.9	312.88
349.128	342.88
349.355	306.88
349.583	298.88
349.81	305.88
350.037	304.88
350.265	302.88
350.492	300.88
350.72	300.88
350.947	327.88
351.174	337.88
351.402	333.88
351.629	342.88
351.856	325.88
352.083	321.88
352.311	312.88
352.538	330.88
352.765	322.88
352.992	307.88
353.22	312.88
353.447	308.88
353.674	323.88
353.901	318.88
354.128	310.88
354.355	298.88
354.583	279.88
354.81	273.88
355.037	297.88
355.264	280.88
355.491	281.88
355.718	292.88
355.945	290.88
356.172	292.88
356.399	291.88
356.626	272.88
356.853	283.88
357.08	301.88
357.307	293.88
357.534	293.88
357.761	301.88
357.988	285.88
358.215	307.88
358.441	264.88
358.668	282.88
358.895	298.88
359.122	299.88
359.349	298.88
359.576	333.88
359.802	329.88
360.029	346.88
360.256	360.88
360.483	327.88
360.709	313.88
360.936	334.88
361.163	308.88
361.39	316.88
361.616	310.88
361.843	298.88
362.07	297.88
362.296	321.88
362.523	304.88
362.749	313.88
362.976	311.88
363.203	293.88
363.429	291.88
363.656	307.88
363.882	316.88
364.109	301.88
364.335	279.88
364.562	283.88
364.788	294.88
365.015	315.88
365.241	280.88
365.468	292.88
365.694	306.88
365.92	315.88
366.147	296.88
366.373	292.88
366.599	293.88
366.826	286.88
367.052	286.88
367.278	298.88
367.505	300.88
367.731	298.88
367.957	301.88
368.184	286.88
368.41	294.88
368.636	314.88
368.862	316.88
369.089	312.88
369.315	288.88
369.541	280.88
369.767	282.88
369.993	270.88
370.219	293.88
370.445	286.88
370.672	284.88
370.898	282.88
371.124	274.88
371.35	301.88
371.576	273.88
371.802	296.88
372.028	281.88
372.254	277.88
372.48	271.88
372.706	288.88
372.932	274.88
373.158	299.88
373.384	280.88
373.61	287.88
373.835	294.88
374.061	286.88
374.287	292.88
374.513	288.88
374.739	288.88
374.965	281.88
375.191	276.88
375.416	274.88
375.642	283.88
375.868	285.88
376.094	281.88
376.319	283.88
376.545	282.88
376.771	272.88
376.997	271.88
377.222	271.88
377.448	276.88
377.674	267.88
377.899	265.88
378.125	272.88
378.35	266.88
378.576	273.88
378.802	264.88
379.027	281.88
379.253	277.88
379.478	267.88
379.704	249.88
379.929	295.88
380.155	281.88
380.38	281.88
380.606	290.88
380.831	283.88
381.057	277.88
381.282	281.88
381.507	282.88
381.733	270.88
381.958	279.88
382.184	286.88
382.409	288.88
382.634	284.88
382.86	308.88
383.085	300.88
383.31	296.88
383.535	280.88
383.761	273.88
383.986	272.88
384.211	284.88
384.436	310.88
384.662	282.88
384.887	283.88
385.112	279.88
385.337	284.88
385.562	294.88
385.787	289.88
386.013	314.88
386.238	291.88
386.463	308.88
386.688	291.88
386.913	289.88
387.138	290.88
387.363	276.88
387.588	283.88
387.813	298.88
388.038	305.88
388.263	283.88
388.488	281.88
388.713	291.88
388.938	262.88
389.163	302.88
389.387	291.88
389.612	271.88
389.837	289.88
390.062	290.88
390.287	301.88
390.512	300.88
390.736	302.88
390.961	303.88
391.186	309.88
391.411	301.88
391.636	284.88
391.86	272.88
392.085	292.88
392.31	296.88
392.534	299.88
392.759	281.88
392.984	283.88
393.208	289.88
393.433	290.88
393.658	288.88
393.882	288.88
394.107	287.88
394.331	295.88
394.556	285.88
394.78	288.88
395.005	286.88
395.229	305.88
395.454	288.88
395.678	298.88
395.903	321.88
396.127	305.88
396.352	304.88
396.576	287.88
396.801	294.88
397.025	284.88
397.249	288.88
397.474	290.88
397.698	302.88
397.922	329.88
398.147	308.88
398.371	315.88
398.595	342.88
398.82	316.88
399.044	322.88
399.268	322.88
399.492	352.88
399.717	356.88
399.941	374.88
400.165	382.88
400.389	385.88
400.613	362.88
400.837	324.88
401.062	325.88
401.286	351.88
401.51	299.88
401.734	301.88
401.958	323.88
402.182	316.88
402.406	320.88
402.63	336.88
402.854	313.88
403.078	325.88
403.302	311.88
403.526	314.88
403.75	308.88
403.974	320.88
404.198	333.88
404.422	330.88
404.645	341.88
404.869	351.88
405.093	368.88
405.317	380.88
405.541	392.88
405.765	358.88
405.988	365.88
406.212	362.88
406.436	382.88
406.66	374.88
406.883	377.88
407.107	359.88
407.331	396.88
407.555	445.88
407.778	435.88
408.002	412.88
408.226	368.88
408.449	370.88
408.673	364.88
408.896	380.88
409.12	385.88
409.344	383.88
409.567	353.88
409.791	343.88
410.014	313.88
410.238	344.88
410.461	331.88
410.685	352.88
410.908	355.88
411.132	373.88
411.355	387.88
411.578	388.88
411.802	337.88
412.025	333.88
412.249	334.88
412.472	355.88
412.695	384.88
412.919	365.88
413.142	338.88
413.365	329.88
413.589	334.88
413.812	307.88
414.035	324.88
414.258	328.88
414.482	316.88
414.705	314.88
414.928	293.88
415.151	318.88
415.374	332.88
415.597	308.88
415.821	310.88
416.044	302.88
416.267	328.88
416.49	316.88
416.713	318.88
416.936	317.88
417.159	326.88
417.382	332.88
417.605	311.88
417.828	343.88
418.051	337.88
418.274	319.88
418.497	308.88
418.72	320.88
418.943	326.88
419.166	322.88
419.389	333.88
419.611	331.88
419.834	323.88
420.057	338.88
420.28	341.88
420.503	334.88
420.726	329.88
420.948	360.88
421.171	363.88
421.394	382.88
421.617	325.88
421.839	336.88
422.062	328.88
422.285	338.88
422.507	394.88
422.73	416.88
422.953	417.88
423.175	377.88
423.398	352.88
423.621	346.88
423.843	356.88
424.066	375.88
424.288	358.88
424.511	388.88
424.733	404.88
424.956	451.88
425.178	438.88
425.401	443.88
425.623	439.88
425.846	384.88
426.068	390.88
426.291	369.88
426.513	355.88
426.735	354.88
426.958	410.88
427.18	450.88
427.402	540.88
427.625	571.88
427.847	529.88
428.069	454.88
428.292	384.88
428.514	405.88
428.736	345.88
428.958	352.88
429.181	339.88
429.403	342.88
429.625	363.88
429.847	363.88
430.069	429.88
430.292	395.88
430.514	357.88
430.736	314.88
430.958	329.88
431.18	329.88
431.402	313.88
431.624	308.88
431.846	306.88
432.068	292.88
432.29	304.88
432.512	316.88
432.734	305.88
432.956	316.88
433.178	332.88
433.4	334.88
433.622	325.88
433.844	316.88
434.066	302.88
434.287	314.88
434.509	300.88
434.731	309.88
434.953	328.88
435.175	342.88
435.397	357.88
435.618	357.88
435.84	397.88
436.062	457.88
436.284	477.88
436.505	421.88
436.727	365.88
436.949	364.88
437.17	349.88
437.392	358.88
437.614	329.88
437.835	374.88
438.057	461.88
438.278	492.88
438.5	506.88
438.721	542.88
438.943	501.88
439.165	426.88
439.386	369.88
439.608	377.88
439.829	344.88
440.05	407.88
440.272	432.88
440.493	391.88
440.715	362.88
440.936	338.88
441.158	320.88
441.379	359.88
441.6	340.88
441.822	364.88
442.043	386.88
442.264	448.88
442.486	469.88
442.707	420.88
442.928	369.88
443.149	370.88
443.371	405.88
443.592	418.88
443.813	470.88
444.034	508.88
444.255	429.88
444.476	380.88
444.698	355.88
444.919	355.88
445.14	433.88
445.361	415.88
445.582	391.88
445.803	449.88
446.024	533.88
446.245	535.88
446.466	473.88
446.687	378.88
446.908	363.88
447.129	370.88
447.35	346.88
447.571	336.88
447.792	350.88
448.013	359.88
448.234	357.88
448.455	387.88
448.675	459.88
448.896	524.88
449.117	444.88
449.338	438.88
449.559	491.88
449.779	548.88
450	442.88
450.221	371.88
450.442	354.88
450.662	331.88
450.883	337.88
451.104	347.88
451.324	334.88
451.545	348.88
451.766	322.88
451.986	293.88
452.207	314.88
452.428	326.88
452.648	303.88
452.869	320.88
453.089	304.88
453.31	325.88
453.53	296.88
453.751	294.88
453.971	315.88
454.192	318.88
454.412	316.88
454.633	302.88
454.853	296.88
455.073	305.88
455.294	328.88
455.514	363.88
455.734	354.88
455.955	318.88
456.175	288.88
456.395	281.88
456.616	280.88
456.836	299.88
457.056	266.88
457.276	274.88
457.497	297.88
457.717	301.88
457.937	292.88
458.157	283.88
458.377	290.88
458.598	323.88
458.818	347.88
459.038	420.88
459.258	420.88
459.478	327.88
459.698	322.88
459.918	324.88
460.138	319.88
460.358	316.88
460.578	308.88
460.798	313.88
461.018	318.88
461.238	321.88
461.458	329.88
461.678	305.88
461.898	309.88
462.118	326.88
462.338	324.88
462.558	310.88
462.777	327.88
462.997	307.88
463.217	320.88
463.437	336.88
463.657	342.88
463.876	317.88
464.096	330.88
464.316	320.88
464.536	326.88
464.755	331.88
464.975	346.88
465.195	374.88
465.414	407.88
465.634	364.88
465.854	344.88
466.073	320.88
466.293	300.88
466.512	308.88
466.732	294.88
466.951	298.88
467.171	310.88
467.391	294.88
467.61	299.88
467.829	324.88
468.049	327.88
468.268	309.88
468.488	283.88
468.707	293.88
468.927	284.88
469.146	283.88
469.365	294.88
469.585	298.88
469.804	308.88
470.023	312.88
470.243	294.88
470.462	322.88
470.681	329.88
470.901	309.88
471.12	308.88
471.339	312.88
471.558	305.88
471.777	299.88
471.997	325.88
472.216	312.88
472.435	334.88
472.654	334.88
472.873	321.88
473.092	307.88
473.311	293.88
473.53	297.88
473.749	304.88
473.968	361.88
474.187	413.88
474.406	440.88
474.625	340.88
474.844	335.88
475.063	321.88
475.282	315.88
475.501	310.88
475.72	300.88
475.939	320.88
476.158	320.88
476.377	331.88
476.596	316.88
476.814	324.88
477.033	334.88
477.252	335.88
477.471	326.88
477.69	331.88
477.908	333.88
478.127	342.88
478.346	321.88
478.564	322.88
478.783	350.88
479.002	333.88
479.22	347.88
479.439	362.88
479.658	376.88
479.876	382.88
480.095	358.88
480.313	377.88
480.532	384.88
480.751	363.88
480.969	382.88
481.188	413.88
481.406	442.88
481.624	402.88
481.843	378.88
482.061	375.88
482.28	365.88
482.498	380.88
482.717	349.88
482.935	343.88
483.153	361.88
483.372	347.88
483.59	359.88
483.808	362.88
484.027	352.88
484.245	346.88
484.463	354.88
484.681	364.88
484.9	360.88
485.118	356.88
485.336	368.88
485.554	378.88
485.772	360.88
485.99	351.88
486.209	376.88
486.427	368.88
486.645	398.88
486.863	384.88
487.081	373.88
487.299	390.88
487.517	383.88
487.735	380.88
487.953	389.88
488.171	372.88
488.389	389.88
488.607	400.88
488.825	361.88
489.043	377.88
489.261	386.88
489.479	382.88
489.696	394.88
489.914	382.88
490.132	386.88
490.35	394.88
490.568	420.88
490.786	406.88
491.003	405.88
491.221	425.88
491.439	423.88
491.657	437.88
491.874	443.88
492.092	443.88
492.31	439.88
492.527	452.88
492.745	450.88
492.963	438.88
493.18	463.88
493.398	438.88
493.615	444.88
493.833	447.88
494.05	434.88
494.268	444.88
494.485	448.88
494.703	430.88
494.92	461.88
495.138	458.88
495.355	466.88
495.573	458.88
495.79	438.88
496.008	445.88
496.225	444.88
496.442	427.88
496.66	425.88
496.877	442.88
497.094	448.88
497.312	472.88
497.529	451.88
497.746	444.88
497.963	460.88
498.181	479.88
498.398	482.88
498.615	475.88
498.832	487.88
499.049	502.88
499.267	507.88
499.484	483.88
499.701	514.88
499.918	516.88
500.135	538.88
500.352	545.88
500.569	562.88
500.786	555.88
501.003	539.88
501.22	554.88
501.437	544.88
501.654	535.88
501.871	518.88
502.088	509.88
502.305	507.88
502.522	497.88
502.739	468.88
502.956	458.88
503.172	465.88
503.389	457.88
503.606	469.88
503.823	465.88
504.04	453.88
504.256	443.88
504.473	441.88
504.69	421.88
504.907	446.88
505.123	429.88
505.34	444.88
505.557	432.88
505.773	417.88
505.99	426.88
506.207	451.88
506.423	457.88
506.64	435.88
506.856	419.88
507.073	434.88
507.289	440.88
507.506	435.88
507.722	438.88
507.939	460.88
508.155	436.88
508.372	419.88
508.588	424.88
508.805	415.88
509.021	410.88
509.238	432.88
509.454	454.88
509.67	442.88
509.887	436.88
510.103	411.88
510.319	434.88
510.536	498.88
510.752	839.88
510.968	667.88
511.184	463.88
511.401	412.88
511.617	422.88
511.833	410.88
512.049	392.88
512.265	395.88
512.481	395.88
512.698	404.88
512.914	397.88
513.13	404.88
513.346	393.88
513.562	393.88
513.778	406.88
513.994	406.88
514.21	412.88
514.426	423.88
514.642	471.88
514.858	491.88
515.074	529.88
515.29	624.88
515.506	948.88
515.721	736.88
515.937	491.88
516.153	457.88
516.369	428.88
516.585	404.88
516.801	429.88
517.016	406.88
517.232	409.88
517.448	404.88
517.664	399.88
517.879	404.88
518.095	389.88
518.311	398.88
518.527	398.88
518.742	397.88
518.958	405.88
519.173	387.88
519.389	405.88
519.605	405.88
519.82	408.88
520.036	400.88
520.251	434.88
520.467	460.88
520.682	445.88
520.898	460.88
521.113	463.88
521.329	505.88
521.544	592.88
521.76	742.88
521.975	1228.88
522.19	1136.88
522.406	629.88
522.621	481.88
522.836	427.88
523.052	397.88
523.267	380.88
523.482	378.88
523.698	375.88
523.913	374.88
524.128	376.88
524.343	367.88
524.559	370.88
524.774	344.88
524.989	362.88
525.204	377.88
525.419	357.88
525.634	340.88
525.849	344.88
526.064	344.88
526.28	360.88
526.495	340.88
526.71	329.88
526.925	329.88
527.14	331.88
527.355	313.88
527.57	323.88
527.785	317.88
527.999	321.88
528.214	343.88
528.429	317.88
528.644	322.88
528.859	316.88
529.074	322.88
529.289	349.88
529.503	407.88
529.718	378.88
529.933	359.88
530.148	342.88
530.363	335.88
530.577	322.88
530.792	320.88
531.007	337.88
531.221	326.88
531.436	318.88
531.651	326.88
531.865	297.88
532.08	332.88
532.295	322.88
532.509	305.88
532.724	339.88
532.938	314.88
533.153	311.88
533.367	299.88
533.582	321.88
533.796	299.88
534.011	302.88
534.225	297.88
534.44	308.88
534.654	294.88
534.868	292.88
535.083	326.88
535.297	315.88
535.511	305.88
535.726	317.88
535.94	313.88
536.154	307.88
536.369	318.88
536.583	307.88
536.797	297.88
537.011	295.88
537.225	301.88
537.44	285.88
537.654	294.88
537.868	291.88
538.082	297.88
538.296	309.88
538.51	313.88
538.724	309.88
538.938	315.88
539.153	311.88
539.367	314.88
539.581	312.88
539.795	298.88
540.009	281.88
540.222	288.88
540.436	312.88
540.65	314.88
540.864	299.88
541.078	304.88
541.292	323.88
541.506	310.88
541.72	315.88
541.934	307.88
542.147	321.88
542.361	293.88
542.575	291.88
542.789	291.88
543.002	279.88
543.216	307.88
543.43	295.88
543.644	318.88
543.857	295.88
544.071	275.88
544.285	296.88
544.498	298.88
544.712	273.88
544.925	319.88
545.139	273.88
545.352	298.88
545.566	309.88
545.779	291.88
545.993	297.88
546.206	275.88
546.42	287.88
546.633	279.88
546.847	282.88
547.06	265.88
547.274	272.88
547.487	277.88
547.7	276.88
547.914	285.88
548.127	284.88
548.34	297.88
548.554	276.88
548.767	283.88
548.98	275.88
549.193	270.88
549.407	290.88
549.62	274.88
549.833	276.88
550.046	274.88
550.259	265.88
550.473	280.88
550.686	261.88
550.899	279.88
551.112	288.88
551.325	266.88
551.538	271.88
551.751	280.88
551.964	269.88
552.177	281.88
552.39	277.88
552.603	253.88
552.816	299.88
553.029	281.88
553.242	266.88
553.455	289.88
553.667	306.88
553.88	295.88
554.093	285.88
554.306	292.88
554.519	281.88
554.732	288.88
554.944	273.88
555.157	293.88
555.37	282.88
555.583	277.88
555.795	277.88
556.008	275.88
556.221	265.88
556.433	252.88
556.646	269.88
556.859	258.88
557.071	253.88
557.284	257.88
557.496	246.88
557.709	271.88
557.921	268.88
558.134	232.88
558.346	259.88
558.559	233.88
558.771	251.88
558.984	248.88
559.196	248.88
559.409	252.88
559.621	250.88
559.833	257.88
560.046	248.88
560.258	252.88
560.47	250.88
560.683	235.88
560.895	268.88
561.107	262.88
561.32	258.88
561.532	245.88
561.744	259.88
561.956	266.88
562.168	245.88
562.381	270.88
562.593	252.88
562.805	258.88
563.017	248.88
563.229	245.88
563.441	258.88
563.653	244.88
563.865	240.88
564.077	247.88
564.289	266.88
564.501	248.88
564.713	242.88
564.925	253.88
565.137	273.88
565.349	248.88
565.561	253.88
565.773	266.88
565.985	259.88
566.197	270.88
566.408	256.88
566.62	273.88
566.832	267.88
567.044	298.88
567.255	292.88
567.467	279.88
567.679	283.88
567.891	308.88
568.102	286.88
568.314	266.88
568.526	266.88
568.737	276.88
568.949	260.88
569.161	261.88
569.372	258.88
569.584	257.88
569.795	268.88
570.007	245.88
570.218	274.88
570.43	281.88
570.641	251.88
570.853	220.88
571.064	263.88
571.276	240.88
571.487	233.88
571.698	224.88
571.91	233.88
572.121	245.88
572.333	224.88
572.544	214.88
572.755	215.88
572.966	225.88
573.178	217.88
573.389	212.88
573.6	229.88
573.811	225.88
574.023	205.88
574.234	219.88
574.445	209.88
574.656	235.88
574.867	221.88
575.078	221.88
575.289	221.88
575.501	205.88
575.712	215.88
575.923	215.88
576.134	216.88
576.345	218.88
576.556	214.88
576.767	199.88
576.978	225.88
577.188	218.88
577.399	233.88
577.61	214.88
577.821	218.88
578.032	216.88
578.243	244.88
578.454	401.88
578.665	296.88
578.875	224.88
579.086	210.88
579.297	215.88
579.508	209.88
579.718	209.88
579.929	223.88
580.14	211.88
580.35	204.88
580.561	204.88
580.772	194.88
580.982	227.88
581.193	201.88
581.403	214.88
581.614	218.88
581.825	235.88
582.035	190.88
582.246	203.88
582.456	189.88
582.667	191.88
582.877	197.88
583.087	205.88
583.298	186.88
583.508	181.88
583.719	209.88
583.929	209.88
584.139	182.88
584.35	187.88
584.56	201.88
584.77	194.88
584.981	202.88
585.191	206.88
585.401	199.88
585.611	206.88
585.821	196.88
586.032	208.88
586.242	199.88
586.452	198.88
586.662	193.88
586.872	199.88
587.082	206.88
587.292	212.88
587.502	206.88
587.713	202.88
587.923	184.88
588.133	204.88
588.343	192.88
588.553	192.88
588.762	200.88
588.972	202.88
589.182	214.88
589.392	191.88
589.602	211.88
589.812	204.88
590.022	205.88
590.232	186.88
590.441	190.88
590.651	188.88
590.861	213.88
591.071	209.88
591.281	206.88
591.49	209.88
591.7	178.88
591.91	195.88
592.119	193.88
592.329	194.88
592.539	217.88
592.748	203.88
592.958	205.88
593.167	191.88
593.377	196.88
593.587	201.88
593.796	204.88
594.006	206.88
594.215	200.88
594.424	213.88
594.634	196.88
594.843	190.88
595.053	192.88
595.262	198.88
595.472	197.88
595.681	195.88
595.89	207.88
596.1	186.88
596.309	196.88
596.518	181.88
596.727	195.88
596.937	188.88
597.146	196.88
597.355	191.88
597.564	180.88
597.774	192.88
597.983	181.88
598.192	178.88
598.401	176.88
598.61	186.88
598.819	184.88
599.028	182.88
599.237	180.88
599.446	185.88
599.655	186.88
599.864	177.88
600.073	180.88
600.282	181.88
600.491	187.88
600.7	185.88
600.909	180.88
601.118	182.88
601.327	180.88
601.536	180.88
601.745	168.88
601.953	171.88
602.162	182.88
602.371	184.88
602.58	170.88
602.789	189.88
602.997	192.88
603.206	172.88
603.415	153.88
603.623	182.88
603.832	183.88
604.041	181.88
604.249	180.88
604.458	171.88
604.666	195.88
604.875	181.88
605.084	152.88
605.292	182.88
605.501	176.88
605.709	169.88
605.918	168.88
606.126	186.88
606.334	164.88
606.543	167.88
606.751	176.88
606.96	186.88
607.168	174.88
607.376	174.88
607.585	179.88
607.793	188.88
608.001	188.88
608.21	173.88
608.418	179.88
608.626	164.88
608.834	162.88
609.043	162.88
609.251	161.88
609.459	170.88
609.667	162.88
609.875	168.88
610.083	189.88
610.291	162.88
610.499	157.88
610.707	169.88
610.916	182.88
611.124	171.88
611.332	178.88
611.54	182.88
611.748	177.88
611.955	181.88
612.163	173.88
612.371	176.88
612.579	176.88
612.787	172.88
612.995	183.88
613.203	161.88
613.411	163.88
613.618	154.88
613.826	181.88
614.034	174.88
614.242	157.88
614.449	178.88
614.657	173.88
614.865	164.88
615.072	160.88
615.28	166.88
615.488	177.88
615.695	165.88
615.903	166.88
616.111	168.88
616.318	187.88
616.526	160.88
616.733	175.88
616.941	169.88
617.148	160.88
617.356	174.88
617.563	172.88
617.771	153.88
617.978	181.88
618.185	170.88
618.393	173.88
618.6	157.88
618.807	162.88
619.015	174.88
619.222	180.88
619.429	165.88
619.637	178.88
619.844	150.88
620.051	164.88
620.258	160.88
620.466	142.88
620.673	160.88
620.88	169.88
621.087	163.88
621.294	162.88
621.501	150.88
621.708	155.88
621.915	160.88
622.122	162.88
622.329	171.88
622.536	161.88
622.743	153.88
622.95	172.88
623.157	156.88
623.364	164.88
623.571	166.88
623.778	156.88
623.985	153.88
624.192	146.88
624.399	149.88
624.606	161.88
624.812	162.88
625.019	157.88
625.226	150.88
625.433	142.88
625.639	148.88
625.846	157.88
626.053	149.88
626.259	153.88
626.466	153.88
626.673	158.88
626.879	148.88
627.086	146.88
627.293	155.88
627.499	143.88
627.706	143.88
627.912	157.88
628.119	154.88
628.325	145.88
628.532	156.88
628.738	146.88
628.945	150.88
629.151	135.88
629.357	149.88
629.564	141.88
629.77	152.88
629.976	151.88
630.183	141.88
630.389	141.88
630.595	128.88
630.802	134.88
631.008	149.88
631.214	152.88
631.42	140.88
631.627	170.88
631.833	129.88
632.039	138.88
632.245	142.88
632.451	143.88
632.657	147.88
632.863	139.88
633.069	149.88
633.275	143.88
633.481	145.88
633.688	143.88
633.893	138.88
634.099	156.88
634.305	136.88
634.511	144.88
634.717	148.88
634.923	129.88
635.129	144.88
635.335	140.88
635.541	150.88
635.747	159.88
635.952	128.88
636.158	148.88
636.364	148.88
636.57	141.88
636.775	136.88
636.981	155.88
637.187	142.88
637.392	144.88
637.598	130.88
637.804	130.88
638.009	136.88
638.215	132.88
638.421	141.88
638.626	138.88
638.832	136.88
639.037	130.88
639.243	136.88
639.448	131.88
639.654	134.88
639.859	139.88
640.065	133.88
640.27	136.88
640.475	148.88
640.681	150.88
640.886	126.88
641.091	127.88
641.297	138.88
641.502	125.88
641.707	132.88
641.913	118.88
642.118	135.88
642.323	148.88
642.528	128.88
642.733	140.88
642.939	133.88
643.144	129.88
643.349	137.88
643.554	130.88
643.759	130.88
643.964	125.88
644.169	136.88
644.374	128.88
644.579	130.88
644.784	130.88
644.989	124.88
645.194	142.88
645.399	132.88
645.604	130.88
645.809	126.88
646.014	124.88
646.219	130.88
646.423	135.88
646.628	140.88
646.833	138.88
647.038	122.88
647.243	131.88
647.447	136.88
647.652	123.88
647.857	138.88
648.062	128.88
648.266	149.88
648.471	133.88
648.676	140.88
648.88	137.88
649.085	156.88
649.289	137.88
649.494	129.88
649.698	153.88
649.903	139.88
650.107	140.88
650.312	121.88
650.516	142.88
650.721	133.88
650.925	119.88
651.13	120.88
651.334	118.88
651.539	122.88
651.743	118.88
651.947	107.88
652.152	129.88
652.356	119.88
652.56	112.88
652.764	110.88
652.969	128.88
653.173	115.88
653.377	106.88
653.581	112.88
653.785	113.88
653.99	116.88
654.194	113.88
654.398	125.88
654.602	112.88
654.806	116.88
655.01	129.88
655.214	124.88
655.418	114.88
655.622	114.88
655.826	108.88
656.03	118.88
656.234	118.88
656.438	121.88
656.642	105.88
656.846	106.88
657.049	121.88
657.253	128.88
657.457	115.88
657.661	112.88
657.865	85.88
658.068	105.88
658.272	101.88
658.476	97.88
658.68	107.88
658.883	104.88
659.087	93.88
659.291	99.88
659.494	97.88
659.698	90.88
659.901	99.88
660.105	74.88
660.309	84.88
660.512	96.88
660.716	103.88
660.919	91.88
661.123	78.88
661.326	93.88
661.53	79.88
661.733	83.88
661.936	89.88
662.14	84.88
662.343	93.88
662.546	98.88
662.75	87.88
662.953	89.88
663.156	96.88
663.36	87.88
663.563	86.88
663.766	73.88
663.969	88.88
664.173	68.88
664.376	87.88
664.579	80.88
664.782	107.88
664.985	96.88
665.188	93.88
665.391	95.88
665.594	94.88
665.797	90.88
666	88.88
666.203	73.88
666.406	70.88
666.609	86.88
666.812	71.88
667.015	64.88
667.218	70.88
667.421	75.88
667.624	80.88
667.827	91.88
668.03	78.88
668.232	78.88
668.435	86.88
668.638	88.88
668.841	76.88
669.043	73.88
669.246	88.88
669.449	80.88
669.651	85.88
669.854	83.88
670.057	83.88
670.259	77.88
670.462	89.88
670.665	77.88
670.867	89.88
671.07	96.88
671.272	82.88
671.475	85.88
671.677	89.88
671.88	84.88
672.082	95.88
672.284	72.88
672.487	78.88
672.689	68.88
672.892	82.88
