Data from 1982.PennyLincolnUp.Lamp.En5.5.200Scan.071819.P1_HRD10591_16-46-40-962.txt Node
Date: Thu Jul 18 16:46:40 EDT 2019
User: cochatt
Spectrometer: HR+D1059
Trigger mode: 1
Integration Time (sec): 1.000000E-1
Scans to average: 1
Electric dark correction enabled: true
Nonlinearity correction enabled: false
Boxcar width: 0
XAxis mode: Wavelengths
Number of Pixels in Spectrum: 2048
>>>>>Begin Spectral Data<<<<<
223.165	-24.31
223.4	-24.31
223.635	-24.31
223.869	-8.31
224.104	-13.31
224.338	-22.31
224.573	-2.31
224.808	-22.31
225.042	-12.31
225.277	-24.31
225.511	1.69
225.746	-1.31
225.98	5.69
226.215	16.69
226.449	20.69
226.683	18.69
226.918	32.69
227.152	34.69
227.387	37.69
227.621	40.69
227.856	44.69
228.09	49.69
228.324	31.69
228.559	58.69
228.793	57.69
229.027	96.69
229.262	107.69
229.496	107.69
229.73	124.69
229.964	122.69
230.199	99.69
230.433	81.69
230.667	96.69
230.901	92.69
231.136	104.69
231.37	99.69
231.604	83.69
231.838	111.69
232.072	108.69
232.306	102.69
232.541	103.69
232.775	98.69
233.009	103.69
233.243	97.69
233.477	106.69
233.711	104.69
233.945	98.69
234.179	93.69
234.413	114.69
234.647	93.69
234.881	103.69
235.115	112.69
235.349	95.69
235.583	114.69
235.817	96.69
236.051	94.69
236.285	105.69
236.519	117.69
236.753	122.69
236.987	141.69
237.221	140.69
237.455	184.69
237.689	147.69
237.922	123.69
238.156	116.69
238.39	107.69
238.624	113.69
238.858	100.69
239.091	96.69
239.325	112.69
239.559	105.69
239.793	104.69
240.027	115.69
240.26	133.69
240.494	138.69
240.728	138.69
240.961	116.69
241.195	129.69
241.429	105.69
241.662	102.69
241.896	112.69
242.13	119.69
242.363	126.69
242.597	123.69
242.83	114.69
243.064	124.69
243.298	120.69
243.531	123.69
243.765	113.69
243.998	128.69
244.232	111.69
244.465	119.69
244.699	121.69
244.932	120.69
245.166	121.69
245.399	129.69
245.633	134.69
245.866	123.69
246.099	132.69
246.333	132.69
246.566	131.69
246.8	124.69
247.033	127.69
247.266	137.69
247.5	137.69
247.733	146.69
247.966	131.69
248.2	132.69
248.433	147.69
248.666	145.69
248.899	155.69
249.133	162.69
249.366	163.69
249.599	163.69
249.832	147.69
250.066	157.69
250.299	152.69
250.532	161.69
250.765	163.69
250.998	177.69
251.231	167.69
251.465	157.69
251.698	162.69
251.931	171.69
252.164	157.69
252.397	168.69
252.63	177.69
252.863	179.69
253.096	171.69
253.329	167.69
253.562	173.69
253.795	173.69
254.028	160.69
254.261	188.69
254.494	194.69
254.727	187.69
254.96	216.69
255.193	209.69
255.426	193.69
255.659	192.69
255.892	179.69
256.124	171.69
256.357	176.69
256.59	169.69
256.823	169.69
257.056	160.69
257.289	170.69
257.521	182.69
257.754	164.69
257.987	182.69
258.22	172.69
258.452	151.69
258.685	157.69
258.918	172.69
259.151	179.69
259.383	160.69
259.616	180.69
259.849	172.69
260.081	186.69
260.314	211.69
260.547	210.69
260.779	190.69
261.012	171.69
261.244	186.69
261.477	192.69
261.71	186.69
261.942	181.69
262.175	199.69
262.407	185.69
262.64	188.69
262.872	162.69
263.105	170.69
263.337	177.69
263.57	184.69
263.802	171.69
264.035	164.69
264.267	167.69
264.499	175.69
264.732	179.69
264.964	167.69
265.197	150.69
265.429	176.69
265.661	177.69
265.894	179.69
266.126	160.69
266.358	175.69
266.591	165.69
266.823	181.69
267.055	176.69
267.287	191.69
267.52	183.69
267.752	180.69
267.984	190.69
268.216	189.69
268.448	187.69
268.681	182.69
268.913	197.69
269.145	202.69
269.377	210.69
269.609	208.69
269.841	208.69
270.073	209.69
270.306	234.69
270.538	245.69
270.77	246.69
271.002	237.69
271.234	220.69
271.466	236.69
271.698	243.69
271.93	229.69
272.162	253.69
272.394	256.69
272.626	234.69
272.858	232.69
273.09	229.69
273.322	201.69
273.553	209.69
273.785	216.69
274.017	203.69
274.249	202.69
274.481	195.69
274.713	204.69
274.945	215.69
275.176	205.69
275.408	212.69
275.64	212.69
275.872	206.69
276.104	220.69
276.335	205.69
276.567	214.69
276.799	217.69
277.031	236.69
277.262	243.69
277.494	241.69
277.726	232.69
277.957	235.69
278.189	219.69
278.421	202.69
278.652	203.69
278.884	201.69
279.115	224.69
279.347	196.69
279.579	213.69
279.81	195.69
280.042	200.69
280.273	215.69
280.505	209.69
280.736	199.69
280.968	214.69
281.199	204.69
281.431	209.69
281.662	183.69
281.894	204.69
282.125	219.69
282.356	236.69
282.588	216.69
282.819	243.69
283.051	220.69
283.282	210.69
283.513	201.69
283.745	203.69
283.976	191.69
284.207	200.69
284.439	219.69
284.67	215.69
284.901	209.69
285.132	209.69
285.364	211.69
285.595	204.69
285.826	199.69
286.057	223.69
286.288	215.69
286.52	223.69
286.751	222.69
286.982	223.69
287.213	215.69
287.444	227.69
287.675	215.69
287.906	220.69
288.138	234.69
288.369	231.69
288.6	231.69
288.831	228.69
289.062	221.69
289.293	209.69
289.524	216.69
289.755	208.69
289.986	216.69
290.217	232.69
290.448	211.69
290.679	218.69
290.91	216.69
291.141	221.69
291.371	231.69
291.602	223.69
291.833	216.69
292.064	216.69
292.295	216.69
292.526	213.69
292.757	205.69
292.987	209.69
293.218	223.69
293.449	209.69
293.68	229.69
293.91	225.69
294.141	208.69
294.372	230.69
294.603	211.69
294.833	228.69
295.064	214.69
295.295	239.69
295.525	216.69
295.756	228.69
295.987	218.69
296.217	240.69
296.448	253.69
296.679	238.69
296.909	232.69
297.14	209.69
297.37	223.69
297.601	242.69
297.831	228.69
298.062	215.69
298.292	211.69
298.523	223.69
298.753	235.69
298.984	221.69
299.214	223.69
299.445	235.69
299.675	224.69
299.905	247.69
300.136	235.69
300.366	236.69
300.597	237.69
300.827	243.69
301.057	245.69
301.288	268.69
301.518	259.69
301.748	236.69
301.979	233.69
302.209	233.69
302.439	256.69
302.669	244.69
302.9	234.69
303.13	230.69
303.36	232.69
303.59	256.69
303.82	261.69
304.051	247.69
304.281	253.69
304.511	231.69
304.741	265.69
304.971	250.69
305.201	251.69
305.431	246.69
305.661	231.69
305.891	255.69
306.121	237.69
306.352	232.69
306.582	257.69
306.812	244.69
307.042	253.69
307.272	240.69
307.502	234.69
307.731	257.69
307.961	263.69
308.191	266.69
308.421	251.69
308.651	252.69
308.881	244.69
309.111	259.69
309.341	253.69
309.571	261.69
309.8	277.69
310.03	271.69
310.26	276.69
310.49	275.69
310.72	297.69
310.949	311.69
311.179	314.69
311.409	284.69
311.639	284.69
311.868	292.69
312.098	300.69
312.328	296.69
312.557	311.69
312.787	319.69
313.017	308.69
313.246	304.69
313.476	294.69
313.706	277.69
313.935	269.69
314.165	288.69
314.394	311.69
314.624	311.69
314.853	279.69
315.083	285.69
315.312	290.69
315.542	268.69
315.771	289.69
316.001	277.69
316.23	281.69
316.46	287.69
316.689	281.69
316.919	275.69
317.148	302.69
317.377	296.69
317.607	309.69
317.836	303.69
318.065	270.69
318.295	290.69
318.524	279.69
318.753	287.69
318.983	293.69
319.212	301.69
319.441	295.69
319.67	297.69
319.9	297.69
320.129	285.69
320.358	320.69
320.587	300.69
320.816	310.69
321.046	292.69
321.275	319.69
321.504	305.69
321.733	301.69
321.962	319.69
322.191	338.69
322.42	313.69
322.649	332.69
322.878	331.69
323.108	351.69
323.337	385.69
323.566	405.69
323.795	413.69
324.024	475.69
324.253	605.69
324.482	898.69
324.71	1348.69
324.939	1775.69
325.168	1441.69
325.397	771.69
325.626	516.69
325.855	437.69
326.084	407.69
326.313	416.69
326.542	395.69
326.77	445.69
326.999	554.69
327.228	789.69
327.457	1150.69
327.686	1231.69
327.914	837.69
328.143	573.69
328.372	497.69
328.6	483.69
328.829	453.69
329.058	454.69
329.287	457.69
329.515	409.69
329.744	391.69
329.972	411.69
330.201	399.69
330.43	444.69
330.658	444.69
330.887	486.69
331.115	467.69
331.344	390.69
331.572	391.69
331.801	382.69
332.03	374.69
332.258	369.69
332.486	337.69
332.715	335.69
332.943	342.69
333.172	348.69
333.4	352.69
333.629	317.69
333.857	358.69
334.085	364.69
334.314	367.69
334.542	399.69
334.771	404.69
334.999	380.69
335.227	341.69
335.455	333.69
335.684	322.69
335.912	317.69
336.14	326.69
336.369	332.69
336.597	331.69
336.825	339.69
337.053	318.69
337.281	311.69
337.51	320.69
337.738	338.69
337.966	333.69
338.194	339.69
338.422	339.69
338.65	332.69
338.878	318.69
339.106	319.69
339.334	323.69
339.562	297.69
339.79	298.69
340.018	317.69
340.246	316.69
340.474	311.69
340.702	300.69
340.93	310.69
341.158	314.69
341.386	313.69
341.614	308.69
341.842	333.69
342.07	315.69
342.298	292.69
342.526	307.69
342.754	307.69
342.981	308.69
343.209	318.69
343.437	305.69
343.665	322.69
343.893	306.69
344.12	315.69
344.348	309.69
344.576	309.69
344.804	320.69
345.031	318.69
345.259	329.69
345.487	317.69
345.714	331.69
345.942	299.69
346.17	291.69
346.397	286.69
346.625	297.69
346.853	311.69
347.08	305.69
347.308	287.69
347.535	306.69
347.763	325.69
347.99	317.69
348.218	309.69
348.445	316.69
348.673	314.69
348.9	308.69
349.128	301.69
349.355	275.69
349.583	289.69
349.81	294.69
350.037	299.69
350.265	290.69
350.492	295.69
350.72	285.69
350.947	288.69
351.174	306.69
351.402	323.69
351.629	303.69
351.856	319.69
352.083	309.69
352.311	308.69
352.538	329.69
352.765	333.69
352.992	305.69
353.22	313.69
353.447	294.69
353.674	287.69
353.901	293.69
354.128	289.69
354.355	283.69
354.583	290.69
354.81	273.69
355.037	272.69
355.264	282.69
355.491	277.69
355.718	273.69
355.945	278.69
356.172	270.69
356.399	269.69
356.626	258.69
356.853	278.69
357.08	268.69
357.307	275.69
357.534	268.69
357.761	275.69
357.988	298.69
358.215	275.69
358.441	281.69
358.668	269.69
358.895	259.69
359.122	275.69
359.349	306.69
359.576	330.69
359.802	338.69
360.029	345.69
360.256	362.69
360.483	339.69
360.709	291.69
360.936	295.69
361.163	297.69
361.39	313.69
361.616	287.69
361.843	310.69
362.07	295.69
362.296	298.69
362.523	291.69
362.749	303.69
362.976	293.69
363.203	293.69
363.429	289.69
363.656	278.69
363.882	289.69
364.109	281.69
364.335	288.69
364.562	287.69
364.788	291.69
365.015	282.69
365.241	255.69
365.468	279.69
365.694	295.69
365.92	296.69
366.147	288.69
366.373	277.69
366.599	275.69
366.826	256.69
367.052	292.69
367.278	264.69
367.505	280.69
367.731	285.69
367.957	287.69
368.184	277.69
368.41	285.69
368.636	289.69
368.862	288.69
369.089	279.69
369.315	285.69
369.541	286.69
369.767	262.69
369.993	273.69
370.219	274.69
370.445	275.69
370.672	275.69
370.898	277.69
371.124	282.69
371.35	270.69
371.576	268.69
371.802	260.69
372.028	281.69
372.254	281.69
372.48	270.69
372.706	271.69
372.932	268.69
373.158	269.69
373.384	267.69
373.61	279.69
373.835	267.69
374.061	260.69
374.287	243.69
374.513	267.69
374.739	274.69
374.965	265.69
375.191	283.69
375.416	278.69
375.642	282.69
375.868	261.69
376.094	275.69
376.319	267.69
376.545	268.69
376.771	263.69
376.997	275.69
377.222	280.69
377.448	275.69
377.674	272.69
377.899	262.69
378.125	273.69
378.35	273.69
378.576	269.69
378.802	247.69
379.027	275.69
379.253	259.69
379.478	269.69
379.704	262.69
379.929	241.69
380.155	257.69
380.38	261.69
380.606	262.69
380.831	243.69
381.057	276.69
381.282	278.69
381.507	271.69
381.733	263.69
381.958	260.69
382.184	250.69
382.409	271.69
382.634	271.69
382.86	267.69
383.085	284.69
383.31	260.69
383.535	282.69
383.761	261.69
383.986	266.69
384.211	278.69
384.436	271.69
384.662	262.69
384.887	266.69
385.112	277.69
385.337	265.69
385.562	277.69
385.787	291.69
386.013	297.69
386.238	275.69
386.463	271.69
386.688	280.69
386.913	280.69
387.138	280.69
387.363	298.69
387.588	270.69
387.813	274.69
388.038	277.69
388.263	261.69
388.488	284.69
388.713	273.69
388.938	289.69
389.163	272.69
389.387	278.69
389.612	257.69
389.837	290.69
390.062	280.69
390.287	259.69
390.512	274.69
390.736	282.69
390.961	274.69
391.186	282.69
391.411	284.69
391.636	285.69
391.86	269.69
392.085	281.69
392.31	285.69
392.534	269.69
392.759	283.69
392.984	283.69
393.208	282.69
393.433	287.69
393.658	253.69
393.882	281.69
394.107	280.69
394.331	274.69
394.556	275.69
394.78	275.69
395.005	283.69
395.229	291.69
395.454	271.69
395.678	278.69
395.903	276.69
396.127	301.69
396.352	284.69
396.576	299.69
396.801	284.69
397.025	303.69
397.249	283.69
397.474	308.69
397.698	285.69
397.922	309.69
398.147	284.69
398.371	305.69
398.595	292.69
398.82	305.69
399.044	325.69
399.268	325.69
399.492	328.69
399.717	344.69
399.941	342.69
400.165	363.69
400.389	368.69
400.613	345.69
400.837	295.69
401.062	314.69
401.286	303.69
401.51	301.69
401.734	293.69
401.958	304.69
402.182	316.69
402.406	331.69
402.63	311.69
402.854	324.69
403.078	329.69
403.302	298.69
403.526	319.69
403.75	317.69
403.974	311.69
404.198	325.69
404.422	313.69
404.645	322.69
404.869	323.69
405.093	335.69
405.317	359.69
405.541	379.69
405.765	346.69
405.988	323.69
406.212	347.69
406.436	342.69
406.66	368.69
406.883	351.69
407.107	363.69
407.331	382.69
407.555	417.69
407.778	409.69
408.002	392.69
408.226	355.69
408.449	339.69
408.673	357.69
408.896	383.69
409.12	385.69
409.344	378.69
409.567	327.69
409.791	319.69
410.014	303.69
410.238	318.69
410.461	294.69
410.685	312.69
410.908	328.69
411.132	358.69
411.355	360.69
411.578	351.69
411.802	326.69
412.025	311.69
412.249	332.69
412.472	348.69
412.695	372.69
412.919	351.69
413.142	319.69
413.365	312.69
413.589	294.69
413.812	300.69
414.035	290.69
414.258	293.69
414.482	291.69
414.705	296.69
414.928	292.69
415.151	292.69
415.374	295.69
415.597	292.69
415.821	307.69
416.044	301.69
416.267	297.69
416.49	294.69
416.713	288.69
416.936	315.69
417.159	297.69
417.382	309.69
417.605	320.69
417.828	326.69
418.051	312.69
418.274	325.69
418.497	306.69
418.72	310.69
418.943	297.69
419.166	301.69
419.389	321.69
419.611	320.69
419.834	307.69
420.057	317.69
420.28	332.69
420.503	311.69
420.726	317.69
420.948	317.69
421.171	338.69
421.394	360.69
421.617	318.69
421.839	311.69
422.062	328.69
422.285	329.69
422.507	355.69
422.73	402.69
422.953	391.69
423.175	327.69
423.398	343.69
423.621	335.69
423.843	348.69
424.066	344.69
424.288	349.69
424.511	364.69
424.733	391.69
424.956	447.69
425.178	412.69
425.401	411.69
425.623	430.69
425.846	371.69
426.068	328.69
426.291	332.69
426.513	337.69
426.735	361.69
426.958	372.69
427.18	450.69
427.402	500.69
427.625	555.69
427.847	508.69
428.069	437.69
428.292	399.69
428.514	353.69
428.736	326.69
428.958	336.69
429.181	327.69
429.403	311.69
429.625	319.69
429.847	370.69
430.069	409.69
430.292	387.69
430.514	341.69
430.736	317.69
430.958	328.69
431.18	296.69
431.402	312.69
431.624	314.69
431.846	301.69
432.068	287.69
432.29	297.69
432.512	283.69
432.734	294.69
432.956	307.69
433.178	326.69
433.4	313.69
433.622	308.69
433.844	301.69
434.066	298.69
434.287	290.69
434.509	298.69
434.731	305.69
434.953	300.69
435.175	323.69
435.397	343.69
435.618	349.69
435.84	391.69
436.062	444.69
436.284	473.69
436.505	409.69
436.727	357.69
436.949	310.69
437.17	317.69
437.392	311.69
437.614	343.69
437.835	379.69
438.057	420.69
438.278	481.69
438.5	489.69
438.721	534.69
438.943	496.69
439.165	392.69
439.386	373.69
439.608	374.69
439.829	352.69
440.05	379.69
440.272	409.69
440.493	399.69
440.715	341.69
440.936	327.69
441.158	324.69
441.379	325.69
441.6	345.69
441.822	354.69
442.043	373.69
442.264	419.69
442.486	432.69
442.707	382.69
442.928	353.69
443.149	360.69
443.371	387.69
443.592	418.69
443.813	482.69
444.034	506.69
444.255	403.69
444.476	365.69
444.698	369.69
444.919	321.69
445.14	439.69
445.361	391.69
445.582	393.69
445.803	407.69
446.024	471.69
446.245	513.69
446.466	432.69
446.687	379.69
446.908	360.69
447.129	336.69
447.35	310.69
447.571	345.69
447.792	339.69
448.013	339.69
448.234	361.69
448.455	396.69
448.675	440.69
448.896	478.69
449.117	436.69
449.338	408.69
449.559	510.69
449.779	533.69
450	422.69
450.221	386.69
450.442	347.69
450.662	328.69
450.883	331.69
451.104	317.69
451.324	326.69
451.545	321.69
451.766	312.69
451.986	311.69
452.207	311.69
452.428	263.69
452.648	306.69
452.869	307.69
453.089	308.69
453.31	311.69
453.53	303.69
453.751	286.69
453.971	296.69
454.192	319.69
454.412	279.69
454.633	291.69
454.853	321.69
455.073	284.69
455.294	299.69
455.514	356.69
455.734	335.69
455.955	281.69
456.175	289.69
456.395	267.69
456.616	275.69
456.836	281.69
457.056	276.69
457.276	245.69
457.497	275.69
457.717	287.69
457.937	276.69
458.157	267.69
458.377	292.69
458.598	292.69
458.818	347.69
459.038	392.69
459.258	397.69
459.478	337.69
459.698	303.69
459.918	311.69
460.138	304.69
460.358	285.69
460.578	293.69
460.798	300.69
461.018	313.69
461.238	305.69
461.458	289.69
461.678	287.69
461.898	291.69
462.118	280.69
462.338	289.69
462.558	291.69
462.777	306.69
462.997	315.69
463.217	305.69
463.437	314.69
463.657	309.69
463.876	311.69
464.096	325.69
464.316	303.69
464.536	300.69
464.755	327.69
464.975	311.69
465.195	364.69
465.414	408.69
465.634	373.69
465.854	327.69
466.073	303.69
466.293	309.69
466.512	306.69
466.732	283.69
466.951	295.69
467.171	292.69
467.391	289.69
467.61	307.69
467.829	315.69
468.049	299.69
468.268	296.69
468.488	278.69
468.707	288.69
468.927	298.69
469.146	289.69
469.365	289.69
469.585	292.69
469.804	309.69
470.023	303.69
470.243	319.69
470.462	307.69
470.681	316.69
470.901	304.69
471.12	305.69
471.339	311.69
471.558	288.69
471.777	297.69
471.997	305.69
472.216	316.69
472.435	339.69
472.654	314.69
472.873	298.69
473.092	300.69
473.311	311.69
473.53	293.69
473.749	288.69
473.968	350.69
474.187	421.69
474.406	381.69
474.625	329.69
474.844	320.69
475.063	298.69
475.282	309.69
475.501	303.69
475.72	312.69
475.939	285.69
476.158	308.69
476.377	304.69
476.596	312.69
476.814	305.69
477.033	299.69
477.252	307.69
477.471	307.69
477.69	302.69
477.908	322.69
478.127	341.69
478.346	316.69
478.564	322.69
478.783	340.69
479.002	321.69
479.22	325.69
479.439	328.69
479.658	363.69
479.876	361.69
480.095	338.69
480.313	364.69
480.532	369.69
480.751	367.69
480.969	368.69
481.188	390.69
481.406	431.69
481.624	371.69
481.843	337.69
482.061	367.69
482.28	337.69
482.498	352.69
482.717	344.69
482.935	351.69
483.153	323.69
483.372	339.69
483.59	321.69
483.808	332.69
484.027	355.69
484.245	341.69
484.463	334.69
484.681	353.69
484.9	351.69
485.118	343.69
485.336	368.69
485.554	350.69
485.772	367.69
485.99	367.69
486.209	357.69
486.427	353.69
486.645	366.69
486.863	371.69
487.081	379.69
487.299	375.69
487.517	365.69
487.735	356.69
487.953	371.69
488.171	360.69
488.389	363.69
488.607	351.69
488.825	357.69
489.043	344.69
489.261	374.69
489.479	379.69
489.696	379.69
489.914	374.69
490.132	376.69
490.35	368.69
490.568	381.69
490.786	383.69
491.003	400.69
491.221	423.69
491.439	393.69
491.657	427.69
491.874	428.69
492.092	416.69
492.31	436.69
492.527	424.69
492.745	421.69
492.963	430.69
493.18	435.69
493.398	420.69
493.615	421.69
493.833	434.69
494.05	421.69
494.268	415.69
494.485	426.69
494.703	421.69
494.92	395.69
495.138	415.69
495.355	432.69
495.573	443.69
495.79	436.69
496.008	428.69
496.225	435.69
496.442	429.69
496.66	416.69
496.877	416.69
497.094	438.69
497.312	432.69
497.529	469.69
497.746	460.69
497.963	440.69
498.181	462.69
498.398	457.69
498.615	469.69
498.832	489.69
499.049	473.69
499.267	469.69
499.484	487.69
499.701	505.69
499.918	523.69
500.135	481.69
500.352	528.69
500.569	533.69
500.786	538.69
501.003	535.69
501.22	534.69
501.437	519.69
501.654	540.69
501.871	515.69
502.088	512.69
502.305	498.69
502.522	478.69
502.739	449.69
502.956	443.69
503.172	431.69
503.389	458.69
503.606	442.69
503.823	432.69
504.04	439.69
504.256	428.69
504.473	425.69
504.69	426.69
504.907	423.69
505.123	439.69
505.34	423.69
505.557	428.69
505.773	412.69
505.99	409.69
506.207	420.69
506.423	436.69
506.64	428.69
506.856	424.69
507.073	413.69
507.289	419.69
507.506	411.69
507.722	423.69
507.939	427.69
508.155	424.69
508.372	417.69
508.588	392.69
508.805	404.69
509.021	390.69
509.238	426.69
509.454	444.69
509.67	437.69
509.887	412.69
510.103	412.69
510.319	413.69
510.536	486.69
510.752	833.69
510.968	666.69
511.184	413.69
511.401	406.69
511.617	405.69
511.833	378.69
512.049	370.69
512.265	369.69
512.481	381.69
512.698	378.69
512.914	394.69
513.13	379.69
513.346	364.69
513.562	394.69
513.778	391.69
513.994	381.69
514.21	399.69
514.426	422.69
514.642	436.69
514.858	477.69
515.074	493.69
515.29	612.69
515.506	892.69
515.721	715.69
515.937	482.69
516.153	429.69
516.369	421.69
516.585	389.69
516.801	392.69
517.016	402.69
517.232	381.69
517.448	372.69
517.664	400.69
517.879	383.69
518.095	379.69
518.311	394.69
518.527	391.69
518.742	364.69
518.958	390.69
519.173	383.69
519.389	373.69
519.605	389.69
519.82	379.69
520.036	388.69
520.251	417.69
520.467	416.69
520.682	423.69
520.898	432.69
521.113	461.69
521.329	512.69
521.544	573.69
521.76	726.69
521.975	1224.69
522.19	1101.69
522.406	628.69
522.621	445.69
522.836	421.69
523.052	404.69
523.267	392.69
523.482	362.69
523.698	383.69
523.913	371.69
524.128	376.69
524.343	354.69
524.559	349.69
524.774	331.69
524.989	348.69
525.204	335.69
525.419	345.69
525.634	332.69
525.849	333.69
526.064	344.69
526.28	311.69
526.495	322.69
526.71	327.69
526.925	324.69
527.14	304.69
527.355	305.69
527.57	304.69
527.785	322.69
527.999	319.69
528.214	324.69
528.429	324.69
528.644	323.69
528.859	321.69
529.074	326.69
529.289	355.69
529.503	401.69
529.718	364.69
529.933	346.69
530.148	347.69
530.363	323.69
530.577	301.69
530.792	315.69
531.007	300.69
531.221	316.69
531.436	315.69
531.651	319.69
531.865	315.69
532.08	311.69
532.295	301.69
532.509	297.69
532.724	288.69
532.938	308.69
533.153	287.69
533.367	295.69
533.582	287.69
533.796	297.69
534.011	288.69
534.225	279.69
534.44	296.69
534.654	290.69
534.868	286.69
535.083	288.69
535.297	307.69
535.511	315.69
535.726	293.69
535.94	290.69
536.154	291.69
536.369	306.69
536.583	311.69
536.797	288.69
537.011	291.69
537.225	297.69
537.44	284.69
537.654	287.69
537.868	280.69
538.082	282.69
538.296	276.69
538.51	300.69
538.724	288.69
538.938	288.69
539.153	295.69
539.367	292.69
539.581	298.69
539.795	287.69
540.009	288.69
540.222	271.69
540.436	280.69
540.65	293.69
540.864	290.69
541.078	297.69
541.292	307.69
541.506	301.69
541.72	303.69
541.934	272.69
542.147	285.69
542.361	281.69
542.575	296.69
542.789	292.69
543.002	286.69
543.216	286.69
543.43	296.69
543.644	291.69
543.857	292.69
544.071	289.69
544.285	281.69
544.498	285.69
544.712	296.69
544.925	284.69
545.139	278.69
545.352	272.69
545.566	293.69
545.779	289.69
545.993	289.69
546.206	279.69
546.42	276.69
546.633	276.69
546.847	259.69
547.06	276.69
547.274	275.69
547.487	271.69
547.7	281.69
547.914	279.69
548.127	295.69
548.34	270.69
548.554	276.69
548.767	257.69
548.98	259.69
549.193	254.69
549.407	260.69
549.62	261.69
549.833	280.69
550.046	259.69
550.259	264.69
550.473	268.69
550.686	259.69
550.899	275.69
551.112	266.69
551.325	257.69
551.538	258.69
551.751	258.69
551.964	273.69
552.177	259.69
552.39	280.69
552.603	272.69
552.816	257.69
553.029	259.69
553.242	275.69
553.455	281.69
553.667	291.69
553.88	288.69
554.093	268.69
554.306	308.69
554.519	279.69
554.732	244.69
554.944	287.69
555.157	280.69
555.37	267.69
555.583	252.69
555.795	241.69
556.008	255.69
556.221	256.69
556.433	233.69
556.646	244.69
556.859	233.69
557.071	254.69
557.284	221.69
557.496	247.69
557.709	269.69
557.921	237.69
558.134	230.69
558.346	240.69
558.559	237.69
558.771	232.69
558.984	254.69
559.196	227.69
559.409	247.69
559.621	230.69
559.833	238.69
560.046	245.69
560.258	254.69
560.47	239.69
560.683	235.69
560.895	255.69
561.107	245.69
561.32	242.69
561.532	221.69
561.744	236.69
561.956	234.69
562.168	236.69
562.381	252.69
562.593	239.69
562.805	219.69
563.017	213.69
563.229	235.69
563.441	250.69
563.653	257.69
563.865	251.69
564.077	230.69
564.289	267.69
564.501	253.69
564.713	241.69
564.925	231.69
565.137	265.69
565.349	237.69
565.561	273.69
565.773	259.69
565.985	259.69
566.197	258.69
566.408	243.69
566.62	247.69
566.832	272.69
567.044	268.69
567.255	265.69
567.467	256.69
567.679	271.69
567.891	296.69
568.102	283.69
568.314	289.69
568.526	270.69
568.737	269.69
568.949	259.69
569.161	246.69
569.372	231.69
569.584	244.69
569.795	260.69
570.007	249.69
570.218	263.69
570.43	249.69
570.641	246.69
570.853	242.69
571.064	239.69
571.276	229.69
571.487	219.69
571.698	217.69
571.91	223.69
572.121	236.69
572.333	244.69
572.544	234.69
572.755	225.69
572.966	231.69
573.178	209.69
573.389	225.69
573.6	227.69
573.811	216.69
574.023	227.69
574.234	231.69
574.445	217.69
574.656	208.69
574.867	217.69
575.078	213.69
575.289	220.69
575.501	212.69
575.712	214.69
575.923	221.69
576.134	200.69
576.345	217.69
576.556	210.69
576.767	205.69
576.978	226.69
577.188	235.69
577.399	212.69
577.61	210.69
577.821	223.69
578.032	232.69
578.243	259.69
578.454	411.69
578.665	289.69
578.875	211.69
579.086	200.69
579.297	216.69
579.508	215.69
579.718	223.69
579.929	197.69
580.14	192.69
580.35	199.69
580.561	205.69
580.772	214.69
580.982	192.69
581.193	208.69
581.403	197.69
581.614	188.69
581.825	205.69
582.035	198.69
582.246	200.69
582.456	204.69
582.667	189.69
582.877	199.69
583.087	191.69
583.298	197.69
583.508	209.69
583.719	198.69
583.929	189.69
584.139	211.69
584.35	195.69
584.56	178.69
584.77	207.69
584.981	193.69
585.191	205.69
585.401	188.69
585.611	208.69
585.821	202.69
586.032	189.69
586.242	196.69
586.452	191.69
586.662	191.69
586.872	203.69
587.082	187.69
587.292	192.69
587.502	199.69
587.713	189.69
587.923	198.69
588.133	192.69
588.343	188.69
588.553	201.69
588.762	196.69
588.972	179.69
589.182	193.69
589.392	190.69
589.602	182.69
589.812	197.69
590.022	185.69
590.232	195.69
590.441	188.69
590.651	186.69
590.861	205.69
591.071	180.69
591.281	198.69
591.49	182.69
591.7	191.69
591.91	200.69
592.119	199.69
592.329	192.69
592.539	208.69
592.748	197.69
592.958	183.69
593.167	183.69
593.377	193.69
593.587	194.69
593.796	195.69
594.006	194.69
594.215	188.69
594.424	184.69
594.634	197.69
594.843	208.69
595.053	188.69
595.262	193.69
595.472	185.69
595.681	185.69
595.89	188.69
596.1	187.69
596.309	186.69
596.518	179.69
596.727	184.69
596.937	170.69
597.146	187.69
597.355	170.69
597.564	184.69
597.774	180.69
597.983	185.69
598.192	180.69
598.401	172.69
598.61	195.69
598.819	180.69
599.028	169.69
599.237	168.69
599.446	177.69
599.655	191.69
599.864	175.69
600.073	183.69
600.282	179.69
600.491	167.69
600.7	182.69
600.909	171.69
601.118	179.69
601.327	159.69
601.536	165.69
601.745	167.69
601.953	173.69
602.162	178.69
602.371	178.69
602.58	172.69
602.789	168.69
602.997	178.69
603.206	181.69
603.415	161.69
603.623	168.69
603.832	157.69
604.041	160.69
604.249	162.69
604.458	169.69
604.666	179.69
604.875	163.69
605.084	164.69
605.292	160.69
605.501	171.69
605.709	162.69
605.918	173.69
606.126	186.69
606.334	173.69
606.543	195.69
606.751	164.69
606.96	160.69
607.168	160.69
607.376	169.69
607.585	173.69
607.793	172.69
608.001	160.69
608.21	163.69
608.418	173.69
608.626	175.69
608.834	181.69
609.043	163.69
609.251	183.69
609.459	164.69
609.667	170.69
609.875	158.69
610.083	160.69
610.291	154.69
610.499	164.69
610.707	169.69
610.916	160.69
611.124	151.69
611.332	179.69
611.54	179.69
611.748	182.69
611.955	173.69
612.163	168.69
612.371	167.69
612.579	151.69
612.787	147.69
612.995	166.69
613.203	157.69
613.411	155.69
613.618	163.69
613.826	162.69
614.034	173.69
614.242	162.69
614.449	164.69
614.657	168.69
614.865	162.69
615.072	154.69
615.28	147.69
615.488	160.69
615.695	149.69
615.903	167.69
616.111	166.69
616.318	159.69
616.526	168.69
616.733	178.69
616.941	175.69
617.148	153.69
617.356	169.69
617.563	151.69
617.771	170.69
617.978	140.69
618.185	159.69
618.393	141.69
618.6	145.69
618.807	159.69
619.015	151.69
619.222	185.69
619.429	157.69
619.637	155.69
619.844	145.69
620.051	163.69
620.258	151.69
620.466	159.69
620.673	147.69
620.88	155.69
621.087	163.69
621.294	160.69
621.501	167.69
621.708	161.69
621.915	160.69
622.122	157.69
622.329	156.69
622.536	151.69
622.743	144.69
622.95	149.69
623.157	142.69
623.364	145.69
623.571	127.69
623.778	153.69
623.985	146.69
624.192	141.69
624.399	146.69
624.606	150.69
624.812	166.69
625.019	155.69
625.226	156.69
625.433	144.69
625.639	143.69
625.846	152.69
626.053	152.69
626.259	146.69
626.466	145.69
626.673	145.69
626.879	140.69
627.086	144.69
627.293	145.69
627.499	151.69
627.706	161.69
627.912	147.69
628.119	145.69
628.325	140.69
628.532	140.69
628.738	153.69
628.945	152.69
629.151	163.69
629.357	140.69
629.564	149.69
629.77	151.69
629.976	117.69
630.183	141.69
630.389	138.69
630.595	148.69
630.802	144.69
631.008	132.69
631.214	154.69
631.42	157.69
631.627	140.69
631.833	135.69
632.039	133.69
632.245	137.69
632.451	135.69
632.657	141.69
632.863	152.69
633.069	141.69
633.275	139.69
633.481	140.69
633.688	124.69
633.893	151.69
634.099	136.69
634.305	139.69
634.511	142.69
634.717	145.69
634.923	133.69
635.129	131.69
635.335	136.69
635.541	137.69
635.747	137.69
635.952	146.69
636.158	135.69
636.364	132.69
636.57	137.69
636.775	155.69
636.981	139.69
637.187	135.69
637.392	136.69
637.598	134.69
637.804	135.69
638.009	138.69
638.215	141.69
638.421	133.69
638.626	146.69
638.832	137.69
639.037	126.69
639.243	131.69
639.448	124.69
639.654	133.69
639.859	133.69
640.065	131.69
640.27	136.69
640.475	147.69
640.681	117.69
640.886	130.69
641.091	135.69
641.297	136.69
641.502	126.69
641.707	128.69
641.913	118.69
642.118	121.69
642.323	141.69
642.528	148.69
642.733	144.69
642.939	138.69
643.144	124.69
643.349	132.69
643.554	129.69
643.759	132.69
643.964	116.69
644.169	117.69
644.374	123.69
644.579	132.69
644.784	122.69
644.989	125.69
645.194	123.69
645.399	136.69
645.604	123.69
645.809	129.69
646.014	125.69
646.219	131.69
646.423	126.69
646.628	131.69
646.833	121.69
647.038	146.69
647.243	116.69
647.447	137.69
647.652	133.69
647.857	131.69
648.062	130.69
648.266	126.69
648.471	121.69
648.676	122.69
648.88	126.69
649.085	140.69
649.289	143.69
649.494	133.69
649.698	155.69
649.903	159.69
650.107	132.69
650.312	131.69
650.516	121.69
650.721	130.69
650.925	113.69
651.13	119.69
651.334	109.69
651.539	121.69
651.743	123.69
651.947	121.69
652.152	122.69
652.356	122.69
652.56	107.69
652.764	114.69
652.969	109.69
653.173	105.69
653.377	108.69
653.581	116.69
653.785	115.69
653.99	112.69
654.194	108.69
654.398	113.69
654.602	105.69
654.806	121.69
655.01	122.69
655.214	112.69
655.418	105.69
655.622	115.69
655.826	120.69
656.03	108.69
656.234	106.69
656.438	114.69
656.642	108.69
656.846	109.69
657.049	124.69
657.253	102.69
657.457	99.69
657.661	101.69
657.865	93.69
658.068	104.69
658.272	94.69
658.476	98.69
658.68	100.69
658.883	106.69
659.087	86.69
659.291	107.69
659.494	100.69
659.698	95.69
659.901	96.69
660.105	93.69
660.309	85.69
660.512	83.69
660.716	92.69
660.919	89.69
661.123	77.69
661.326	86.69
661.53	80.69
661.733	85.69
661.936	73.69
662.14	78.69
662.343	92.69
662.546	79.69
662.75	92.69
662.953	83.69
663.156	92.69
663.36	78.69
663.563	97.69
663.766	78.69
663.969	78.69
664.173	67.69
664.376	76.69
664.579	83.69
664.782	83.69
664.985	83.69
665.188	88.69
665.391	71.69
665.594	76.69
665.797	63.69
666	59.69
666.203	82.69
666.406	93.69
666.609	79.69
666.812	91.69
667.015	81.69
667.218	86.69
667.421	80.69
667.624	80.69
667.827	75.69
668.03	99.69
668.232	80.69
668.435	83.69
668.638	77.69
668.841	77.69
669.043	73.69
669.246	86.69
669.449	102.69
669.651	81.69
669.854	85.69
670.057	74.69
670.259	73.69
670.462	71.69
670.665	81.69
670.867	78.69
671.07	80.69
671.272	71.69
671.475	85.69
671.677	76.69
671.88	73.69
672.082	87.69
672.284	73.69
672.487	77.69
672.689	87.69
672.892	78.69
