Data from 1982.PennyLincolnUp.Lamp.En5.5.200Scan.071819.P1_HRD10591_16-47-41-962.txt Node
Date: Thu Jul 18 16:47:41 EDT 2019
User: cochatt
Spectrometer: HR+D1059
Trigger mode: 1
Integration Time (sec): 1.000000E-1
Scans to average: 1
Electric dark correction enabled: true
Nonlinearity correction enabled: false
Boxcar width: 0
XAxis mode: Wavelengths
Number of Pixels in Spectrum: 2048
>>>>>Begin Spectral Data<<<<<
223.165	-11.62
223.4	-11.62
223.635	-11.62
223.869	-5.62
224.104	-27.62
224.338	-14.62
224.573	-10.62
224.808	-14.62
225.042	-11.62
225.277	-7.62
225.511	-2.62
225.746	-4.62
225.98	2.38
226.215	-1.62
226.449	25.38
226.683	28.38
226.918	31.38
227.152	25.38
227.387	31.38
227.621	42.38
227.856	40.38
228.09	52.38
228.324	57.38
228.559	46.38
228.793	55.38
229.027	90.38
229.262	107.38
229.496	105.38
229.73	113.38
229.964	139.38
230.199	114.38
230.433	100.38
230.667	108.38
230.901	105.38
231.136	103.38
231.37	103.38
231.604	99.38
231.838	79.38
232.072	114.38
232.306	110.38
232.541	111.38
232.775	100.38
233.009	108.38
233.243	103.38
233.477	121.38
233.711	99.38
233.945	101.38
234.179	100.38
234.413	110.38
234.647	91.38
234.881	85.38
235.115	110.38
235.349	111.38
235.583	101.38
235.817	99.38
236.051	99.38
236.285	115.38
236.519	118.38
236.753	124.38
236.987	131.38
237.221	147.38
237.455	169.38
237.689	152.38
237.922	127.38
238.156	120.38
238.39	127.38
238.624	102.38
238.858	107.38
239.091	103.38
239.325	115.38
239.559	102.38
239.793	113.38
240.027	129.38
240.26	125.38
240.494	135.38
240.728	121.38
240.961	130.38
241.195	118.38
241.429	124.38
241.662	101.38
241.896	115.38
242.13	115.38
242.363	110.38
242.597	109.38
242.83	114.38
243.064	113.38
243.298	117.38
243.531	124.38
243.765	112.38
243.998	129.38
244.232	118.38
244.465	125.38
244.699	125.38
244.932	119.38
245.166	113.38
245.399	119.38
245.633	127.38
245.866	134.38
246.099	122.38
246.333	124.38
246.566	137.38
246.8	123.38
247.033	145.38
247.266	136.38
247.5	126.38
247.733	129.38
247.966	137.38
248.2	157.38
248.433	150.38
248.666	142.38
248.899	156.38
249.133	159.38
249.366	170.38
249.599	152.38
249.832	157.38
250.066	152.38
250.299	148.38
250.532	165.38
250.765	161.38
250.998	189.38
251.231	175.38
251.465	173.38
251.698	166.38
251.931	158.38
252.164	180.38
252.397	157.38
252.63	157.38
252.863	171.38
253.096	166.38
253.329	187.38
253.562	188.38
253.795	204.38
254.028	173.38
254.261	172.38
254.494	191.38
254.727	209.38
254.96	215.38
255.193	227.38
255.426	199.38
255.659	186.38
255.892	194.38
256.124	199.38
256.357	194.38
256.59	188.38
256.823	186.38
257.056	166.38
257.289	188.38
257.521	173.38
257.754	170.38
257.987	173.38
258.22	176.38
258.452	173.38
258.685	165.38
258.918	175.38
259.151	174.38
259.383	181.38
259.616	175.38
259.849	183.38
260.081	189.38
260.314	209.38
260.547	213.38
260.779	199.38
261.012	195.38
261.244	188.38
261.477	178.38
261.71	191.38
261.942	208.38
262.175	201.38
262.407	184.38
262.64	161.38
262.872	160.38
263.105	171.38
263.337	192.38
263.57	173.38
263.802	170.38
264.035	189.38
264.267	172.38
264.499	179.38
264.732	186.38
264.964	187.38
265.197	181.38
265.429	181.38
265.661	182.38
265.894	190.38
266.126	185.38
266.358	177.38
266.591	180.38
266.823	173.38
267.055	179.38
267.287	183.38
267.52	169.38
267.752	195.38
267.984	184.38
268.216	184.38
268.448	184.38
268.681	181.38
268.913	209.38
269.145	217.38
269.377	217.38
269.609	212.38
269.841	225.38
270.073	224.38
270.306	242.38
270.538	269.38
270.77	257.38
271.002	235.38
271.234	229.38
271.466	241.38
271.698	247.38
271.93	249.38
272.162	261.38
272.394	243.38
272.626	249.38
272.858	233.38
273.09	210.38
273.322	235.38
273.553	203.38
273.785	215.38
274.017	204.38
274.249	215.38
274.481	217.38
274.713	211.38
274.945	210.38
275.176	204.38
275.408	215.38
275.64	228.38
275.872	194.38
276.104	223.38
276.335	209.38
276.567	212.38
276.799	224.38
277.031	246.38
277.262	246.38
277.494	247.38
277.726	258.38
277.957	220.38
278.189	221.38
278.421	212.38
278.652	204.38
278.884	213.38
279.115	212.38
279.347	205.38
279.579	205.38
279.81	197.38
280.042	210.38
280.273	198.38
280.505	210.38
280.736	218.38
280.968	204.38
281.199	207.38
281.431	205.38
281.662	209.38
281.894	206.38
282.125	219.38
282.356	242.38
282.588	242.38
282.819	241.38
283.051	225.38
283.282	195.38
283.513	229.38
283.745	215.38
283.976	227.38
284.207	224.38
284.439	204.38
284.67	218.38
284.901	212.38
285.132	210.38
285.364	205.38
285.595	224.38
285.826	205.38
286.057	209.38
286.288	209.38
286.52	206.38
286.751	220.38
286.982	219.38
287.213	214.38
287.444	207.38
287.675	227.38
287.906	230.38
288.138	236.38
288.369	225.38
288.6	249.38
288.831	259.38
289.062	230.38
289.293	221.38
289.524	203.38
289.755	218.38
289.986	228.38
290.217	230.38
290.448	215.38
290.679	227.38
290.91	235.38
291.141	222.38
291.371	225.38
291.602	223.38
291.833	227.38
292.064	229.38
292.295	231.38
292.526	215.38
292.757	237.38
292.987	219.38
293.218	203.38
293.449	232.38
293.68	219.38
293.91	220.38
294.141	225.38
294.372	227.38
294.603	214.38
294.833	229.38
295.064	234.38
295.295	225.38
295.525	232.38
295.756	236.38
295.987	218.38
296.217	249.38
296.448	247.38
296.679	230.38
296.909	225.38
297.14	228.38
297.37	234.38
297.601	217.38
297.831	219.38
298.062	234.38
298.292	236.38
298.523	226.38
298.753	244.38
298.984	217.38
299.214	231.38
299.445	234.38
299.675	250.38
299.905	232.38
300.136	250.38
300.366	227.38
300.597	238.38
300.827	252.38
301.057	237.38
301.288	251.38
301.518	252.38
301.748	253.38
301.979	255.38
302.209	251.38
302.439	251.38
302.669	260.38
302.9	253.38
303.13	242.38
303.36	258.38
303.59	252.38
303.82	249.38
304.051	256.38
304.281	257.38
304.511	246.38
304.741	246.38
304.971	225.38
305.201	255.38
305.431	234.38
305.661	259.38
305.891	251.38
306.121	261.38
306.352	261.38
306.582	270.38
306.812	268.38
307.042	264.38
307.272	254.38
307.502	272.38
307.731	276.38
307.961	245.38
308.191	252.38
308.421	246.38
308.651	249.38
308.881	253.38
309.111	251.38
309.341	263.38
309.571	261.38
309.8	270.38
310.03	291.38
310.26	291.38
310.49	293.38
310.72	315.38
310.949	296.38
311.179	318.38
311.409	271.38
311.639	289.38
311.868	299.38
312.098	299.38
312.328	315.38
312.557	314.38
312.787	328.38
313.017	318.38
313.246	302.38
313.476	293.38
313.706	298.38
313.935	313.38
314.165	318.38
314.394	305.38
314.624	300.38
314.853	309.38
315.083	295.38
315.312	302.38
315.542	284.38
315.771	278.38
316.001	288.38
316.23	275.38
316.46	281.38
316.689	285.38
316.919	284.38
317.148	306.38
317.377	319.38
317.607	292.38
317.836	289.38
318.065	291.38
318.295	305.38
318.524	289.38
318.753	285.38
318.983	290.38
319.212	287.38
319.441	291.38
319.67	312.38
319.9	278.38
320.129	299.38
320.358	290.38
320.587	308.38
320.816	296.38
321.046	316.38
321.275	310.38
321.504	302.38
321.733	315.38
321.962	323.38
322.191	343.38
322.42	355.38
322.649	362.38
322.878	366.38
323.108	380.38
323.337	394.38
323.566	420.38
323.795	423.38
324.024	474.38
324.253	632.38
324.482	933.38
324.71	1385.38
324.939	1782.38
325.168	1441.38
325.397	795.38
325.626	557.38
325.855	457.38
326.084	412.38
326.313	410.38
326.542	433.38
326.77	458.38
326.999	586.38
327.228	825.38
327.457	1164.38
327.686	1313.38
327.914	863.38
328.143	590.38
328.372	519.38
328.6	490.38
328.829	463.38
329.058	470.38
329.287	459.38
329.515	429.38
329.744	395.38
329.972	400.38
330.201	424.38
330.43	460.38
330.658	468.38
330.887	475.38
331.115	485.38
331.344	400.38
331.572	402.38
331.801	386.38
332.03	372.38
332.258	333.38
332.486	351.38
332.715	346.38
332.943	334.38
333.172	330.38
333.4	329.38
333.629	357.38
333.857	350.38
334.085	358.38
334.314	388.38
334.542	377.38
334.771	417.38
334.999	389.38
335.227	351.38
335.455	308.38
335.684	327.38
335.912	338.38
336.14	333.38
336.369	334.38
336.597	335.38
336.825	370.38
337.053	321.38
337.281	335.38
337.51	326.38
337.738	317.38
337.966	305.38
338.194	331.38
338.422	327.38
338.65	313.38
338.878	335.38
339.106	314.38
339.334	316.38
339.562	303.38
339.79	307.38
340.018	297.38
340.246	317.38
340.474	319.38
340.702	317.38
340.93	330.38
341.158	314.38
341.386	324.38
341.614	306.38
341.842	316.38
342.07	328.38
342.298	313.38
342.526	312.38
342.754	329.38
342.981	297.38
343.209	302.38
343.437	303.38
343.665	305.38
343.893	317.38
344.12	333.38
344.348	311.38
344.576	313.38
344.804	330.38
345.031	317.38
345.259	339.38
345.487	309.38
345.714	306.38
345.942	323.38
346.17	319.38
346.397	305.38
346.625	311.38
346.853	317.38
347.08	311.38
347.308	305.38
347.535	313.38
347.763	321.38
347.99	332.38
348.218	330.38
348.445	321.38
348.673	322.38
348.9	302.38
349.128	291.38
349.355	287.38
349.583	287.38
349.81	300.38
350.037	307.38
350.265	299.38
350.492	302.38
350.72	305.38
350.947	311.38
351.174	309.38
351.402	312.38
351.629	325.38
351.856	313.38
352.083	302.38
352.311	313.38
352.538	321.38
352.765	327.38
352.992	316.38
353.22	296.38
353.447	305.38
353.674	309.38
353.901	300.38
354.128	285.38
354.355	301.38
354.583	318.38
354.81	283.38
355.037	274.38
355.264	276.38
355.491	275.38
355.718	286.38
355.945	295.38
356.172	281.38
356.399	280.38
356.626	299.38
356.853	281.38
357.08	273.38
357.307	283.38
357.534	267.38
357.761	274.38
357.988	291.38
358.215	286.38
358.441	280.38
358.668	279.38
358.895	296.38
359.122	295.38
359.349	306.38
359.576	309.38
359.802	331.38
360.029	336.38
360.256	354.38
360.483	314.38
360.709	302.38
360.936	299.38
361.163	320.38
361.39	317.38
361.616	298.38
361.843	279.38
362.07	299.38
362.296	307.38
362.523	294.38
362.749	289.38
362.976	290.38
363.203	300.38
363.429	284.38
363.656	279.38
363.882	264.38
364.109	279.38
364.335	285.38
364.562	293.38
364.788	273.38
365.015	284.38
365.241	291.38
365.468	293.38
365.694	300.38
365.92	283.38
366.147	278.38
366.373	292.38
366.599	292.38
366.826	289.38
367.052	280.38
367.278	290.38
367.505	279.38
367.731	269.38
367.957	261.38
368.184	276.38
368.41	275.38
368.636	283.38
368.862	283.38
369.089	272.38
369.315	272.38
369.541	269.38
369.767	289.38
369.993	276.38
370.219	271.38
370.445	263.38
370.672	262.38
370.898	285.38
371.124	270.38
371.35	281.38
371.576	277.38
371.802	269.38
372.028	271.38
372.254	264.38
372.48	280.38
372.706	273.38
372.932	263.38
373.158	275.38
373.384	266.38
373.61	270.38
373.835	275.38
374.061	283.38
374.287	271.38
374.513	270.38
374.739	291.38
374.965	276.38
375.191	253.38
375.416	256.38
375.642	286.38
375.868	272.38
376.094	279.38
376.319	270.38
376.545	278.38
376.771	266.38
376.997	268.38
377.222	271.38
377.448	262.38
377.674	259.38
377.899	252.38
378.125	267.38
378.35	269.38
378.576	266.38
378.802	262.38
379.027	249.38
379.253	261.38
379.478	251.38
379.704	267.38
379.929	250.38
380.155	247.38
380.38	268.38
380.606	270.38
380.831	253.38
381.057	277.38
381.282	259.38
381.507	266.38
381.733	266.38
381.958	267.38
382.184	277.38
382.409	274.38
382.634	286.38
382.86	271.38
383.085	263.38
383.31	272.38
383.535	280.38
383.761	276.38
383.986	275.38
384.211	275.38
384.436	268.38
384.662	262.38
384.887	283.38
385.112	262.38
385.337	257.38
385.562	280.38
385.787	298.38
386.013	289.38
386.238	296.38
386.463	285.38
386.688	286.38
386.913	268.38
387.138	273.38
387.363	265.38
387.588	284.38
387.813	285.38
388.038	275.38
388.263	260.38
388.488	252.38
388.713	271.38
388.938	266.38
389.163	298.38
389.387	278.38
389.612	278.38
389.837	291.38
390.062	274.38
390.287	284.38
390.512	283.38
390.736	279.38
390.961	265.38
391.186	273.38
391.411	277.38
391.636	261.38
391.86	290.38
392.085	283.38
392.31	294.38
392.534	272.38
392.759	283.38
392.984	274.38
393.208	264.38
393.433	266.38
393.658	278.38
393.882	262.38
394.107	281.38
394.331	272.38
394.556	286.38
394.78	277.38
395.005	247.38
395.229	270.38
395.454	275.38
395.678	284.38
395.903	298.38
396.127	315.38
396.352	297.38
396.576	300.38
396.801	281.38
397.025	285.38
397.249	291.38
397.474	263.38
397.698	292.38
397.922	284.38
398.147	311.38
398.371	299.38
398.595	298.38
398.82	299.38
399.044	296.38
399.268	321.38
399.492	310.38
399.717	332.38
399.941	351.38
400.165	370.38
400.389	381.38
400.613	346.38
400.837	319.38
401.062	321.38
401.286	323.38
401.51	298.38
401.734	311.38
401.958	317.38
402.182	320.38
402.406	318.38
402.63	323.38
402.854	302.38
403.078	307.38
403.302	312.38
403.526	326.38
403.75	301.38
403.974	307.38
404.198	335.38
404.422	319.38
404.645	306.38
404.869	320.38
405.093	342.38
405.317	365.38
405.541	381.38
405.765	335.38
405.988	337.38
406.212	356.38
406.436	359.38
406.66	355.38
406.883	343.38
407.107	368.38
407.331	393.38
407.555	429.38
407.778	413.38
408.002	367.38
408.226	356.38
408.449	363.38
408.673	359.38
408.896	386.38
409.12	398.38
409.344	359.38
409.567	349.38
409.791	345.38
410.014	326.38
410.238	310.38
410.461	298.38
410.685	337.38
410.908	340.38
411.132	361.38
411.355	373.38
411.578	350.38
411.802	325.38
412.025	313.38
412.249	332.38
412.472	336.38
412.695	367.38
412.919	349.38
413.142	318.38
413.365	327.38
413.589	314.38
413.812	293.38
414.035	307.38
414.258	297.38
414.482	292.38
414.705	302.38
414.928	301.38
415.151	299.38
415.374	284.38
415.597	291.38
415.821	310.38
416.044	307.38
416.267	317.38
416.49	292.38
416.713	292.38
416.936	286.38
417.159	296.38
417.382	313.38
417.605	298.38
417.828	327.38
418.051	328.38
418.274	317.38
418.497	297.38
418.72	301.38
418.943	303.38
419.166	317.38
419.389	298.38
419.611	319.38
419.834	299.38
420.057	321.38
420.28	334.38
420.503	305.38
420.726	308.38
420.948	322.38
421.171	360.38
421.394	363.38
421.617	324.38
421.839	318.38
422.062	329.38
422.285	327.38
422.507	369.38
422.73	407.38
422.953	391.38
423.175	340.38
423.398	350.38
423.621	327.38
423.843	371.38
424.066	349.38
424.288	349.38
424.511	356.38
424.733	384.38
424.956	449.38
425.178	429.38
425.401	423.38
425.623	420.38
425.846	369.38
426.068	332.38
426.291	343.38
426.513	356.38
426.735	354.38
426.958	378.38
427.18	433.38
427.402	523.38
427.625	580.38
427.847	497.38
428.069	445.38
428.292	377.38
428.514	344.38
428.736	331.38
428.958	321.38
429.181	335.38
429.403	334.38
429.625	327.38
429.847	350.38
430.069	386.38
430.292	394.38
430.514	333.38
430.736	317.38
430.958	294.38
431.18	312.38
431.402	303.38
431.624	296.38
431.846	312.38
432.068	307.38
432.29	318.38
432.512	307.38
432.734	306.38
432.956	329.38
433.178	311.38
433.4	311.38
433.622	310.38
433.844	271.38
434.066	307.38
434.287	308.38
434.509	285.38
434.731	301.38
434.953	296.38
435.175	320.38
435.397	345.38
435.618	377.38
435.84	394.38
436.062	455.38
436.284	491.38
436.505	391.38
436.727	354.38
436.949	339.38
437.17	318.38
437.392	315.38
437.614	330.38
437.835	370.38
438.057	450.38
438.278	496.38
438.5	490.38
438.721	531.38
438.943	486.38
439.165	389.38
439.386	365.38
439.608	377.38
439.829	364.38
440.05	383.38
440.272	413.38
440.493	367.38
440.715	346.38
440.936	330.38
441.158	341.38
441.379	321.38
441.6	338.38
441.822	338.38
442.043	355.38
442.264	424.38
442.486	433.38
442.707	391.38
442.928	352.38
443.149	379.38
443.371	381.38
443.592	396.38
443.813	454.38
444.034	486.38
444.255	404.38
444.476	366.38
444.698	345.38
444.919	335.38
445.14	438.38
445.361	394.38
445.582	379.38
445.803	441.38
446.024	489.38
446.245	517.38
446.466	463.38
446.687	368.38
446.908	365.38
447.129	331.38
447.35	330.38
447.571	343.38
447.792	323.38
448.013	342.38
448.234	360.38
448.455	379.38
448.675	453.38
448.896	515.38
449.117	461.38
449.338	423.38
449.559	478.38
449.779	520.38
450	427.38
450.221	353.38
450.442	334.38
450.662	311.38
450.883	332.38
451.104	335.38
451.324	353.38
451.545	324.38
451.766	317.38
451.986	318.38
452.207	291.38
452.428	300.38
452.648	291.38
452.869	281.38
453.089	286.38
453.31	298.38
453.53	299.38
453.751	282.38
453.971	315.38
454.192	329.38
454.412	311.38
454.633	294.38
454.853	287.38
455.073	286.38
455.294	340.38
455.514	355.38
455.734	347.38
455.955	296.38
456.175	271.38
456.395	263.38
456.616	275.38
456.836	271.38
457.056	269.38
457.276	274.38
457.497	273.38
457.717	297.38
457.937	299.38
458.157	282.38
458.377	288.38
458.598	304.38
458.818	331.38
459.038	378.38
459.258	385.38
459.478	338.38
459.698	312.38
459.918	323.38
460.138	296.38
460.358	311.38
460.578	307.38
460.798	289.38
461.018	311.38
461.238	289.38
461.458	288.38
461.678	284.38
461.898	292.38
462.118	297.38
462.338	292.38
462.558	311.38
462.777	307.38
462.997	307.38
463.217	299.38
463.437	315.38
463.657	319.38
463.876	295.38
464.096	300.38
464.316	310.38
464.536	317.38
464.755	318.38
464.975	319.38
465.195	358.38
465.414	398.38
465.634	353.38
465.854	317.38
466.073	323.38
466.293	316.38
466.512	302.38
466.732	323.38
466.951	298.38
467.171	300.38
467.391	281.38
467.61	313.38
467.829	291.38
468.049	301.38
468.268	318.38
468.488	289.38
468.707	282.38
468.927	289.38
469.146	283.38
469.365	268.38
469.585	285.38
469.804	302.38
470.023	271.38
470.243	302.38
470.462	305.38
470.681	315.38
470.901	323.38
471.12	299.38
471.339	290.38
471.558	286.38
471.777	290.38
471.997	293.38
472.216	299.38
472.435	322.38
472.654	323.38
472.873	311.38
473.092	305.38
473.311	281.38
473.53	314.38
473.749	315.38
473.968	350.38
474.187	414.38
474.406	419.38
474.625	343.38
474.844	309.38
475.063	306.38
475.282	307.38
475.501	300.38
475.72	316.38
475.939	309.38
476.158	311.38
476.377	320.38
476.596	315.38
476.814	307.38
477.033	320.38
477.252	322.38
477.471	311.38
477.69	328.38
477.908	335.38
478.127	321.38
478.346	301.38
478.564	319.38
478.783	329.38
479.002	325.38
479.22	345.38
479.439	327.38
479.658	356.38
479.876	364.38
480.095	354.38
480.313	364.38
480.532	345.38
480.751	353.38
480.969	361.38
481.188	405.38
481.406	417.38
481.624	380.38
481.843	362.38
482.061	351.38
482.28	339.38
482.498	353.38
482.717	356.38
482.935	346.38
483.153	332.38
483.372	343.38
483.59	348.38
483.808	341.38
484.027	340.38
484.245	350.38
484.463	369.38
484.681	362.38
484.9	356.38
485.118	326.38
485.336	342.38
485.554	329.38
485.772	355.38
485.99	349.38
486.209	389.38
486.427	357.38
486.645	375.38
486.863	367.38
487.081	360.38
487.299	392.38
487.517	381.38
487.735	369.38
487.953	375.38
488.171	364.38
488.389	366.38
488.607	388.38
488.825	357.38
489.043	377.38
489.261	388.38
489.479	366.38
489.696	377.38
489.914	387.38
490.132	399.38
490.35	381.38
490.568	382.38
490.786	401.38
491.003	407.38
491.221	399.38
491.439	407.38
491.657	399.38
491.874	427.38
492.092	411.38
492.31	435.38
492.527	435.38
492.745	434.38
492.963	430.38
493.18	453.38
493.398	449.38
493.615	423.38
493.833	431.38
494.05	428.38
494.268	448.38
494.485	444.38
494.703	449.38
494.92	435.38
495.138	432.38
495.355	423.38
495.573	426.38
495.79	439.38
496.008	445.38
496.225	433.38
496.442	444.38
496.66	425.38
496.877	414.38
497.094	426.38
497.312	435.38
497.529	423.38
497.746	452.38
497.963	451.38
498.181	447.38
498.398	457.38
498.615	468.38
498.832	483.38
499.049	476.38
499.267	473.38
499.484	461.38
499.701	515.38
499.918	486.38
500.135	477.38
500.352	524.38
500.569	527.38
500.786	535.38
501.003	525.38
501.22	521.38
501.437	518.38
501.654	526.38
501.871	516.38
502.088	516.38
502.305	480.38
502.522	486.38
502.739	468.38
502.956	456.38
503.172	432.38
503.389	450.38
503.606	429.38
503.823	431.38
504.04	442.38
504.256	430.38
504.473	420.38
504.69	429.38
504.907	417.38
505.123	433.38
505.34	429.38
505.557	403.38
505.773	420.38
505.99	437.38
506.207	410.38
506.423	436.38
506.64	414.38
506.856	437.38
507.073	426.38
507.289	426.38
507.506	421.38
507.722	416.38
507.939	440.38
508.155	429.38
508.372	407.38
508.588	407.38
508.805	405.38
509.021	394.38
509.238	403.38
509.454	419.38
509.67	415.38
509.887	424.38
510.103	410.38
510.319	433.38
510.536	503.38
510.752	812.38
510.968	619.38
511.184	411.38
511.401	415.38
511.617	393.38
511.833	379.38
512.049	395.38
512.265	370.38
512.481	393.38
512.698	386.38
512.914	385.38
513.13	391.38
513.346	409.38
513.562	381.38
513.778	404.38
513.994	415.38
514.21	415.38
514.426	418.38
514.642	437.38
514.858	453.38
515.074	528.38
515.29	610.38
515.506	871.38
515.721	719.38
515.937	478.38
516.153	435.38
516.369	406.38
516.585	427.38
516.801	386.38
517.016	388.38
517.232	370.38
517.448	373.38
517.664	390.38
517.879	402.38
518.095	377.38
518.311	375.38
518.527	397.38
518.742	392.38
518.958	384.38
519.173	387.38
519.389	408.38
519.605	393.38
519.82	405.38
520.036	397.38
520.251	412.38
520.467	426.38
520.682	449.38
520.898	433.38
521.113	466.38
521.329	480.38
521.544	565.38
521.76	700.38
521.975	1188.38
522.19	1082.38
522.406	631.38
522.621	460.38
522.836	414.38
523.052	392.38
523.267	395.38
523.482	361.38
523.698	347.38
523.913	376.38
524.128	366.38
524.343	351.38
524.559	354.38
524.774	317.38
524.989	340.38
525.204	369.38
525.419	332.38
525.634	341.38
525.849	345.38
526.064	315.38
526.28	315.38
526.495	324.38
526.71	323.38
526.925	332.38
527.14	319.38
527.355	321.38
527.57	306.38
527.785	317.38
527.999	307.38
528.214	307.38
528.429	343.38
528.644	321.38
528.859	315.38
529.074	328.38
529.289	346.38
529.503	376.38
529.718	360.38
529.933	358.38
530.148	334.38
530.363	323.38
530.577	328.38
530.792	326.38
531.007	305.38
531.221	323.38
531.436	305.38
531.651	300.38
531.865	305.38
532.08	298.38
532.295	260.38
532.509	296.38
532.724	315.38
532.938	306.38
533.153	300.38
533.367	301.38
533.582	309.38
533.796	294.38
534.011	291.38
534.225	289.38
534.44	292.38
534.654	300.38
534.868	297.38
535.083	285.38
535.297	280.38
535.511	319.38
535.726	305.38
535.94	289.38
536.154	308.38
536.369	309.38
536.583	294.38
536.797	297.38
537.011	293.38
537.225	287.38
537.44	295.38
537.654	303.38
537.868	282.38
538.082	289.38
538.296	280.38
538.51	315.38
538.724	299.38
538.938	291.38
539.153	306.38
539.367	323.38
539.581	293.38
539.795	294.38
540.009	308.38
540.222	302.38
540.436	297.38
540.65	293.38
540.864	290.38
541.078	312.38
541.292	301.38
541.506	290.38
541.72	270.38
541.934	297.38
542.147	288.38
542.361	305.38
542.575	284.38
542.789	271.38
543.002	298.38
543.216	300.38
543.43	313.38
543.644	304.38
543.857	293.38
544.071	277.38
544.285	303.38
544.498	286.38
544.712	289.38
544.925	301.38
545.139	292.38
545.352	270.38
545.566	285.38
545.779	278.38
545.993	281.38
546.206	283.38
546.42	290.38
546.633	296.38
546.847	279.38
547.06	274.38
547.274	284.38
547.487	281.38
547.7	285.38
547.914	277.38
548.127	277.38
548.34	272.38
548.554	276.38
548.767	290.38
548.98	272.38
549.193	262.38
549.407	269.38
549.62	258.38
549.833	269.38
550.046	280.38
550.259	276.38
550.473	260.38
550.686	242.38
550.899	249.38
551.112	258.38
551.325	282.38
551.538	278.38
551.751	263.38
551.964	274.38
552.177	275.38
552.39	265.38
552.603	250.38
552.816	271.38
553.029	261.38
553.242	268.38
553.455	272.38
553.667	277.38
553.88	281.38
554.093	267.38
554.306	268.38
554.519	266.38
554.732	265.38
554.944	277.38
555.157	269.38
555.37	247.38
555.583	249.38
555.795	247.38
556.008	254.38
556.221	251.38
556.433	267.38
556.646	257.38
556.859	269.38
557.071	242.38
557.284	254.38
557.496	251.38
557.709	254.38
557.921	257.38
558.134	253.38
558.346	257.38
558.559	255.38
558.771	245.38
558.984	247.38
559.196	254.38
559.409	263.38
559.621	234.38
559.833	226.38
560.046	233.38
560.258	249.38
560.47	243.38
560.683	243.38
560.895	241.38
561.107	238.38
561.32	257.38
561.532	246.38
561.744	242.38
561.956	233.38
562.168	234.38
562.381	245.38
562.593	257.38
562.805	243.38
563.017	226.38
563.229	253.38
563.441	249.38
563.653	256.38
563.865	243.38
564.077	219.38
564.289	246.38
564.501	246.38
564.713	261.38
564.925	257.38
565.137	269.38
565.349	260.38
565.561	266.38
565.773	252.38
565.985	255.38
566.197	240.38
566.408	245.38
566.62	247.38
566.832	280.38
567.044	270.38
567.255	271.38
567.467	280.38
567.679	274.38
567.891	296.38
568.102	263.38
568.314	274.38
568.526	267.38
568.737	258.38
568.949	251.38
569.161	257.38
569.372	234.38
569.584	238.38
569.795	240.38
570.007	263.38
570.218	283.38
570.43	275.38
570.641	246.38
570.853	243.38
571.064	239.38
571.276	234.38
571.487	241.38
571.698	247.38
571.91	227.38
572.121	232.38
572.333	210.38
572.544	220.38
572.755	236.38
572.966	199.38
573.178	220.38
573.389	225.38
573.6	206.38
573.811	220.38
574.023	234.38
574.234	223.38
574.445	214.38
574.656	213.38
574.867	214.38
575.078	227.38
575.289	238.38
575.501	215.38
575.712	217.38
575.923	201.38
576.134	207.38
576.345	207.38
576.556	205.38
576.767	200.38
576.978	200.38
577.188	217.38
577.399	209.38
577.61	209.38
577.821	203.38
578.032	236.38
578.243	245.38
578.454	376.38
578.665	298.38
578.875	230.38
579.086	219.38
579.297	201.38
579.508	210.38
579.718	212.38
579.929	216.38
580.14	198.38
580.35	204.38
580.561	219.38
580.772	208.38
580.982	213.38
581.193	201.38
581.403	210.38
581.614	214.38
581.825	205.38
582.035	202.38
582.246	208.38
582.456	211.38
582.667	195.38
582.877	190.38
583.087	197.38
583.298	207.38
583.508	206.38
583.719	190.38
583.929	212.38
584.139	214.38
584.35	194.38
584.56	201.38
584.77	195.38
584.981	192.38
585.191	198.38
585.401	186.38
585.611	167.38
585.821	197.38
586.032	212.38
586.242	204.38
586.452	193.38
586.662	191.38
586.872	195.38
587.082	174.38
587.292	191.38
587.502	214.38
587.713	199.38
587.923	189.38
588.133	179.38
588.343	187.38
588.553	185.38
588.762	208.38
588.972	200.38
589.182	197.38
589.392	184.38
589.602	204.38
589.812	196.38
590.022	195.38
590.232	198.38
590.441	194.38
590.651	180.38
590.861	203.38
591.071	184.38
591.281	217.38
591.49	196.38
591.7	199.38
591.91	198.38
592.119	202.38
592.329	201.38
592.539	213.38
592.748	193.38
592.958	203.38
593.167	183.38
593.377	185.38
593.587	205.38
593.796	196.38
594.006	184.38
594.215	200.38
594.424	198.38
594.634	211.38
594.843	193.38
595.053	198.38
595.262	185.38
595.472	191.38
595.681	191.38
595.89	188.38
596.1	182.38
596.309	193.38
596.518	177.38
596.727	191.38
596.937	170.38
597.146	173.38
597.355	181.38
597.564	186.38
597.774	203.38
597.983	183.38
598.192	194.38
598.401	181.38
598.61	175.38
598.819	187.38
599.028	178.38
599.237	194.38
599.446	183.38
599.655	191.38
599.864	169.38
600.073	183.38
600.282	185.38
600.491	194.38
600.7	181.38
600.909	166.38
601.118	169.38
601.327	175.38
601.536	166.38
601.745	166.38
601.953	177.38
602.162	181.38
602.371	182.38
602.58	163.38
602.789	181.38
602.997	178.38
603.206	170.38
603.415	178.38
603.623	170.38
603.832	159.38
604.041	167.38
604.249	171.38
604.458	174.38
604.666	170.38
604.875	171.38
605.084	165.38
605.292	164.38
605.501	179.38
605.709	178.38
605.918	182.38
606.126	169.38
606.334	153.38
606.543	189.38
606.751	170.38
606.96	170.38
607.168	155.38
607.376	161.38
607.585	161.38
607.793	174.38
608.001	154.38
608.21	169.38
608.418	170.38
608.626	149.38
608.834	149.38
609.043	157.38
609.251	171.38
609.459	163.38
609.667	173.38
609.875	167.38
610.083	167.38
610.291	160.38
610.499	171.38
610.707	164.38
610.916	171.38
611.124	161.38
611.332	174.38
611.54	162.38
611.748	165.38
611.955	190.38
612.163	162.38
612.371	157.38
612.579	172.38
612.787	157.38
612.995	173.38
613.203	184.38
613.411	172.38
613.618	162.38
613.826	153.38
614.034	163.38
614.242	173.38
614.449	157.38
614.657	149.38
614.865	172.38
615.072	157.38
615.28	166.38
615.488	170.38
615.695	164.38
615.903	173.38
616.111	166.38
616.318	162.38
616.526	172.38
616.733	168.38
616.941	170.38
617.148	170.38
617.356	168.38
617.563	155.38
617.771	167.38
617.978	172.38
618.185	172.38
618.393	173.38
618.6	149.38
618.807	166.38
619.015	154.38
619.222	156.38
619.429	156.38
619.637	173.38
619.844	157.38
620.051	158.38
620.258	167.38
620.466	171.38
620.673	137.38
620.88	163.38
621.087	153.38
621.294	178.38
621.501	150.38
621.708	150.38
621.915	150.38
622.122	162.38
622.329	142.38
622.536	159.38
622.743	156.38
622.95	165.38
623.157	172.38
623.364	155.38
623.571	155.38
623.778	157.38
623.985	152.38
624.192	170.38
624.399	149.38
624.606	149.38
624.812	155.38
625.019	152.38
625.226	157.38
625.433	146.38
625.639	153.38
625.846	171.38
626.053	156.38
626.259	142.38
626.466	138.38
626.673	151.38
626.879	137.38
627.086	138.38
627.293	151.38
627.499	160.38
627.706	162.38
627.912	151.38
628.119	146.38
628.325	154.38
628.532	131.38
628.738	143.38
628.945	146.38
629.151	155.38
629.357	138.38
629.564	157.38
629.77	151.38
629.976	157.38
630.183	144.38
630.389	135.38
630.595	149.38
630.802	129.38
631.008	144.38
631.214	138.38
631.42	144.38
631.627	153.38
631.833	128.38
632.039	126.38
632.245	135.38
632.451	131.38
632.657	148.38
632.863	137.38
633.069	156.38
633.275	141.38
633.481	131.38
633.688	140.38
633.893	141.38
634.099	123.38
634.305	142.38
634.511	136.38
634.717	140.38
634.923	129.38
635.129	124.38
635.335	142.38
635.541	158.38
635.747	138.38
635.952	140.38
636.158	136.38
636.364	131.38
636.57	145.38
636.775	152.38
636.981	138.38
637.187	139.38
637.392	141.38
637.598	141.38
637.804	142.38
638.009	128.38
638.215	137.38
638.421	135.38
638.626	144.38
638.832	140.38
639.037	137.38
639.243	147.38
639.448	144.38
639.654	124.38
639.859	137.38
640.065	136.38
640.27	140.38
640.475	139.38
640.681	126.38
640.886	133.38
641.091	118.38
641.297	131.38
641.502	136.38
641.707	130.38
641.913	127.38
642.118	139.38
642.323	134.38
642.528	134.38
642.733	117.38
642.939	132.38
643.144	132.38
643.349	132.38
643.554	133.38
643.759	133.38
643.964	132.38
644.169	139.38
644.374	144.38
644.579	110.38
644.784	123.38
644.989	136.38
645.194	131.38
645.399	134.38
645.604	127.38
645.809	133.38
646.014	147.38
646.219	138.38
646.423	134.38
646.628	132.38
646.833	130.38
647.038	121.38
647.243	125.38
647.447	135.38
647.652	127.38
647.857	125.38
648.062	136.38
648.266	124.38
648.471	133.38
648.676	118.38
648.88	131.38
649.085	133.38
649.289	125.38
649.494	116.38
649.698	155.38
649.903	155.38
650.107	140.38
650.312	142.38
650.516	137.38
650.721	141.38
650.925	123.38
651.13	113.38
651.334	118.38
651.539	133.38
651.743	130.38
651.947	127.38
652.152	138.38
652.356	115.38
652.56	114.38
652.764	111.38
652.969	118.38
653.173	115.38
653.377	118.38
653.581	121.38
653.785	108.38
653.99	118.38
654.194	124.38
654.398	115.38
654.602	98.38
654.806	95.38
655.01	117.38
655.214	118.38
655.418	109.38
655.622	120.38
655.826	111.38
656.03	119.38
656.234	124.38
656.438	118.38
656.642	115.38
656.846	115.38
657.049	111.38
657.253	115.38
657.457	113.38
657.661	116.38
657.865	119.38
658.068	112.38
658.272	104.38
658.476	96.38
658.68	93.38
658.883	91.38
659.087	92.38
659.291	98.38
659.494	88.38
659.698	93.38
659.901	87.38
660.105	104.38
660.309	93.38
660.512	93.38
660.716	98.38
660.919	88.38
661.123	83.38
661.326	101.38
661.53	95.38
661.733	77.38
661.936	78.38
662.14	94.38
662.343	80.38
662.546	83.38
662.75	88.38
662.953	79.38
663.156	88.38
663.36	70.38
663.563	85.38
663.766	75.38
663.969	83.38
664.173	67.38
664.376	84.38
664.579	81.38
664.782	73.38
664.985	83.38
665.188	79.38
665.391	82.38
665.594	89.38
665.797	77.38
666	93.38
666.203	81.38
666.406	82.38
666.609	84.38
666.812	83.38
667.015	87.38
667.218	91.38
667.421	59.38
667.624	90.38
667.827	85.38
668.03	72.38
668.232	91.38
668.435	87.38
668.638	85.38
668.841	98.38
669.043	80.38
669.246	84.38
669.449	81.38
669.651	93.38
669.854	81.38
670.057	81.38
670.259	87.38
670.462	76.38
670.665	83.38
670.867	88.38
671.07	71.38
671.272	79.38
671.475	90.38
671.677	82.38
671.88	78.38
672.082	83.38
672.284	73.38
672.487	88.38
672.689	86.38
672.892	76.38
