Data from 1982.PennyLincolnUp.Lamp.En5.5.200Scan.071819.P1_HRD10591_16-45-27-961.txt Node
Date: Thu Jul 18 16:45:27 EDT 2019
User: cochatt
Spectrometer: HR+D1059
Trigger mode: 1
Integration Time (sec): 1.000000E-1
Scans to average: 1
Electric dark correction enabled: true
Nonlinearity correction enabled: false
Boxcar width: 0
XAxis mode: Wavelengths
Number of Pixels in Spectrum: 2048
>>>>>Begin Spectral Data<<<<<
223.165	-4.62
223.4	-4.62
223.635	-4.62
223.869	-10.62
224.104	-20.62
224.338	-10.62
224.573	-14.62
224.808	-12.62
225.042	-19.62
225.277	-19.62
225.511	-5.62
225.746	4.38
225.98	11.38
226.215	11.38
226.449	11.38
226.683	16.38
226.918	29.38
227.152	34.38
227.387	37.38
227.621	48.38
227.856	58.38
228.09	44.38
228.324	58.38
228.559	53.38
228.793	54.38
229.027	80.38
229.262	83.38
229.496	107.38
229.73	112.38
229.964	112.38
230.199	118.38
230.433	107.38
230.667	94.38
230.901	115.38
231.136	99.38
231.37	101.38
231.604	96.38
231.838	97.38
232.072	93.38
232.306	99.38
232.541	89.38
232.775	90.38
233.009	88.38
233.243	100.38
233.477	97.38
233.711	94.38
233.945	90.38
234.179	90.38
234.413	93.38
234.647	108.38
234.881	103.38
235.115	95.38
235.349	84.38
235.583	94.38
235.817	113.38
236.051	91.38
236.285	96.38
236.519	108.38
236.753	120.38
236.987	126.38
237.221	131.38
237.455	176.38
237.689	151.38
237.922	103.38
238.156	110.38
238.39	114.38
238.624	128.38
238.858	99.38
239.091	102.38
239.325	111.38
239.559	104.38
239.793	99.38
240.027	109.38
240.26	121.38
240.494	128.38
240.728	113.38
240.961	115.38
241.195	105.38
241.429	101.38
241.662	116.38
241.896	108.38
242.13	114.38
242.363	118.38
242.597	121.38
242.83	112.38
243.064	103.38
243.298	119.38
243.531	105.38
243.765	110.38
243.998	109.38
244.232	119.38
244.465	106.38
244.699	100.38
244.932	117.38
245.166	130.38
245.399	117.38
245.633	112.38
245.866	124.38
246.099	114.38
246.333	125.38
246.566	124.38
246.8	124.38
247.033	120.38
247.266	147.38
247.5	127.38
247.733	125.38
247.966	136.38
248.2	136.38
248.433	153.38
248.666	137.38
248.899	136.38
249.133	157.38
249.366	180.38
249.599	152.38
249.832	132.38
250.066	133.38
250.299	133.38
250.532	163.38
250.765	168.38
250.998	171.38
251.231	204.38
251.465	166.38
251.698	148.38
251.931	152.38
252.164	158.38
252.397	150.38
252.63	180.38
252.863	176.38
253.096	168.38
253.329	188.38
253.562	177.38
253.795	176.38
254.028	163.38
254.261	168.38
254.494	172.38
254.727	186.38
254.96	216.38
255.193	196.38
255.426	189.38
255.659	164.38
255.892	182.38
256.124	173.38
256.357	194.38
256.59	170.38
256.823	157.38
257.056	169.38
257.289	148.38
257.521	151.38
257.754	165.38
257.987	156.38
258.22	150.38
258.452	163.38
258.685	164.38
258.918	178.38
259.151	178.38
259.383	178.38
259.616	171.38
259.849	182.38
260.081	190.38
260.314	194.38
260.547	212.38
260.779	184.38
261.012	187.38
261.244	173.38
261.477	192.38
261.71	184.38
261.942	186.38
262.175	181.38
262.407	181.38
262.64	172.38
262.872	157.38
263.105	164.38
263.337	179.38
263.57	180.38
263.802	163.38
264.035	162.38
264.267	171.38
264.499	163.38
264.732	159.38
264.964	155.38
265.197	160.38
265.429	164.38
265.661	156.38
265.894	163.38
266.126	168.38
266.358	181.38
266.591	180.38
266.823	182.38
267.055	169.38
267.287	165.38
267.52	154.38
267.752	172.38
267.984	176.38
268.216	168.38
268.448	171.38
268.681	167.38
268.913	188.38
269.145	212.38
269.377	191.38
269.609	201.38
269.841	192.38
270.073	198.38
270.306	223.38
270.538	241.38
270.77	238.38
271.002	220.38
271.234	217.38
271.466	221.38
271.698	231.38
271.93	242.38
272.162	232.38
272.394	228.38
272.626	214.38
272.858	201.38
273.09	211.38
273.322	206.38
273.553	215.38
273.785	206.38
274.017	185.38
274.249	214.38
274.481	212.38
274.713	214.38
274.945	201.38
275.176	206.38
275.408	193.38
275.64	199.38
275.872	195.38
276.104	210.38
276.335	206.38
276.567	206.38
276.799	205.38
277.031	228.38
277.262	238.38
277.494	250.38
277.726	235.38
277.957	214.38
278.189	208.38
278.421	210.38
278.652	204.38
278.884	180.38
279.115	213.38
279.347	211.38
279.579	222.38
279.81	208.38
280.042	194.38
280.273	196.38
280.505	196.38
280.736	206.38
280.968	184.38
281.199	188.38
281.431	208.38
281.662	209.38
281.894	186.38
282.125	209.38
282.356	206.38
282.588	228.38
282.819	238.38
283.051	200.38
283.282	212.38
283.513	210.38
283.745	196.38
283.976	211.38
284.207	214.38
284.439	188.38
284.67	211.38
284.901	205.38
285.132	189.38
285.364	213.38
285.595	195.38
285.826	211.38
286.057	202.38
286.288	224.38
286.52	203.38
286.751	203.38
286.982	221.38
287.213	221.38
287.444	200.38
287.675	216.38
287.906	218.38
288.138	231.38
288.369	209.38
288.6	212.38
288.831	221.38
289.062	220.38
289.293	240.38
289.524	214.38
289.755	213.38
289.986	211.38
290.217	219.38
290.448	204.38
290.679	200.38
290.91	213.38
291.141	213.38
291.371	205.38
291.602	234.38
291.833	212.38
292.064	206.38
292.295	202.38
292.526	195.38
292.757	195.38
292.987	198.38
293.218	211.38
293.449	197.38
293.68	215.38
293.91	202.38
294.141	212.38
294.372	214.38
294.603	214.38
294.833	210.38
295.064	226.38
295.295	218.38
295.525	202.38
295.756	217.38
295.987	230.38
296.217	229.38
296.448	229.38
296.679	224.38
296.909	224.38
297.14	217.38
297.37	222.38
297.601	226.38
297.831	228.38
298.062	215.38
298.292	228.38
298.523	214.38
298.753	216.38
298.984	213.38
299.214	215.38
299.445	213.38
299.675	219.38
299.905	226.38
300.136	230.38
300.366	234.38
300.597	233.38
300.827	222.38
301.057	224.38
301.288	243.38
301.518	235.38
301.748	235.38
301.979	236.38
302.209	245.38
302.439	240.38
302.669	237.38
302.9	246.38
303.13	220.38
303.36	249.38
303.59	241.38
303.82	239.38
304.051	252.38
304.281	226.38
304.511	236.38
304.741	237.38
304.971	241.38
305.201	237.38
305.431	245.38
305.661	240.38
305.891	239.38
306.121	246.38
306.352	246.38
306.582	236.38
306.812	238.38
307.042	243.38
307.272	230.38
307.502	253.38
307.731	245.38
307.961	248.38
308.191	259.38
308.421	244.38
308.651	243.38
308.881	260.38
309.111	264.38
309.341	254.38
309.571	256.38
309.8	243.38
310.03	264.38
310.26	280.38
310.49	264.38
310.72	277.38
310.949	273.38
311.179	284.38
311.409	272.38
311.639	281.38
311.868	280.38
312.098	266.38
312.328	284.38
312.557	305.38
312.787	295.38
313.017	290.38
313.246	287.38
313.476	279.38
313.706	282.38
313.935	271.38
314.165	284.38
314.394	304.38
314.624	289.38
314.853	293.38
315.083	283.38
315.312	268.38
315.542	276.38
315.771	273.38
316.001	281.38
316.23	273.38
316.46	264.38
316.689	272.38
316.919	279.38
317.148	291.38
317.377	297.38
317.607	295.38
317.836	270.38
318.065	281.38
318.295	278.38
318.524	250.38
318.753	268.38
318.983	272.38
319.212	268.38
319.441	270.38
319.67	261.38
319.9	280.38
320.129	292.38
320.358	298.38
320.587	266.38
320.816	278.38
321.046	297.38
321.275	282.38
321.504	293.38
321.733	279.38
321.962	298.38
322.191	316.38
322.42	310.38
322.649	309.38
322.878	324.38
323.108	344.38
323.337	356.38
323.566	379.38
323.795	397.38
324.024	438.38
324.253	542.38
324.482	776.38
324.71	1176.38
324.939	1572.38
325.168	1223.38
325.397	686.38
325.626	487.38
325.855	413.38
326.084	362.38
326.313	390.38
326.542	360.38
326.77	427.38
326.999	524.38
327.228	731.38
327.457	981.38
327.686	1129.38
327.914	765.38
328.143	492.38
328.372	448.38
328.6	422.38
328.829	401.38
329.058	417.38
329.287	410.38
329.515	393.38
329.744	371.38
329.972	365.38
330.201	369.38
330.43	384.38
330.658	422.38
330.887	412.38
331.115	419.38
331.344	389.38
331.572	360.38
331.801	345.38
332.03	330.38
332.258	342.38
332.486	312.38
332.715	313.38
332.943	324.38
333.172	336.38
333.4	326.38
333.629	326.38
333.857	329.38
334.085	334.38
334.314	357.38
334.542	365.38
334.771	369.38
334.999	348.38
335.227	325.38
335.455	303.38
335.684	309.38
335.912	311.38
336.14	302.38
336.369	320.38
336.597	316.38
336.825	338.38
337.053	316.38
337.281	304.38
337.51	302.38
337.738	298.38
337.966	319.38
338.194	325.38
338.422	318.38
338.65	304.38
338.878	298.38
339.106	309.38
339.334	289.38
339.562	303.38
339.79	305.38
340.018	299.38
340.246	314.38
340.474	300.38
340.702	285.38
340.93	308.38
341.158	280.38
341.386	282.38
341.614	287.38
341.842	303.38
342.07	313.38
342.298	311.38
342.526	296.38
342.754	293.38
342.981	297.38
343.209	298.38
343.437	293.38
343.665	290.38
343.893	296.38
344.12	304.38
344.348	301.38
344.576	308.38
344.804	305.38
345.031	327.38
345.259	330.38
345.487	304.38
345.714	310.38
345.942	312.38
346.17	310.38
346.397	296.38
346.625	289.38
346.853	286.38
347.08	274.38
347.308	301.38
347.535	311.38
347.763	314.38
347.99	296.38
348.218	316.38
348.445	295.38
348.673	300.38
348.9	311.38
349.128	301.38
349.355	295.38
349.583	306.38
349.81	282.38
350.037	287.38
350.265	282.38
350.492	277.38
350.72	276.38
350.947	283.38
351.174	291.38
351.402	293.38
351.629	296.38
351.856	285.38
352.083	302.38
352.311	306.38
352.538	319.38
352.765	307.38
352.992	301.38
353.22	294.38
353.447	293.38
353.674	287.38
353.901	279.38
354.128	267.38
354.355	288.38
354.583	277.38
354.81	291.38
355.037	284.38
355.264	265.38
355.491	260.38
355.718	276.38
355.945	269.38
356.172	264.38
356.399	264.38
356.626	258.38
356.853	249.38
357.08	265.38
357.307	269.38
357.534	265.38
357.761	261.38
357.988	279.38
358.215	274.38
358.441	274.38
358.668	284.38
358.895	293.38
359.122	280.38
359.349	284.38
359.576	287.38
359.802	308.38
360.029	336.38
360.256	304.38
360.483	316.38
360.709	294.38
360.936	296.38
361.163	295.38
361.39	285.38
361.616	288.38
361.843	314.38
362.07	283.38
362.296	291.38
362.523	290.38
362.749	291.38
362.976	274.38
363.203	300.38
363.429	252.38
363.656	263.38
363.882	285.38
364.109	269.38
364.335	286.38
364.562	260.38
364.788	256.38
365.015	279.38
365.241	274.38
365.468	288.38
365.694	282.38
365.92	270.38
366.147	274.38
366.373	268.38
366.599	276.38
366.826	264.38
367.052	263.38
367.278	261.38
367.505	266.38
367.731	266.38
367.957	289.38
368.184	278.38
368.41	286.38
368.636	274.38
368.862	269.38
369.089	280.38
369.315	280.38
369.541	267.38
369.767	282.38
369.993	258.38
370.219	268.38
370.445	273.38
370.672	277.38
370.898	281.38
371.124	270.38
371.35	277.38
371.576	264.38
371.802	262.38
372.028	260.38
372.254	276.38
372.48	271.38
372.706	244.38
372.932	269.38
373.158	264.38
373.384	258.38
373.61	282.38
373.835	278.38
374.061	274.38
374.287	268.38
374.513	268.38
374.739	270.38
374.965	272.38
375.191	270.38
375.416	268.38
375.642	274.38
375.868	270.38
376.094	262.38
376.319	271.38
376.545	271.38
376.771	263.38
376.997	262.38
377.222	253.38
377.448	279.38
377.674	255.38
377.899	259.38
378.125	263.38
378.35	251.38
378.576	265.38
378.802	268.38
379.027	282.38
379.253	265.38
379.478	251.38
379.704	252.38
379.929	258.38
380.155	278.38
380.38	270.38
380.606	239.38
380.831	277.38
381.057	256.38
381.282	262.38
381.507	260.38
381.733	257.38
381.958	266.38
382.184	263.38
382.409	277.38
382.634	282.38
382.86	267.38
383.085	278.38
383.31	268.38
383.535	264.38
383.761	268.38
383.986	261.38
384.211	286.38
384.436	267.38
384.662	274.38
384.887	284.38
385.112	266.38
385.337	289.38
385.562	268.38
385.787	279.38
386.013	276.38
386.238	302.38
386.463	293.38
386.688	279.38
386.913	284.38
387.138	272.38
387.363	268.38
387.588	282.38
387.813	267.38
388.038	269.38
388.263	278.38
388.488	288.38
388.713	276.38
388.938	278.38
389.163	284.38
389.387	281.38
389.612	268.38
389.837	253.38
390.062	265.38
390.287	283.38
390.512	273.38
390.736	250.38
390.961	261.38
391.186	278.38
391.411	276.38
391.636	285.38
391.86	288.38
392.085	286.38
392.31	274.38
392.534	286.38
392.759	279.38
392.984	277.38
393.208	286.38
393.433	279.38
393.658	282.38
393.882	286.38
394.107	282.38
394.331	281.38
394.556	287.38
394.78	274.38
395.005	289.38
395.229	277.38
395.454	298.38
395.678	293.38
395.903	282.38
396.127	305.38
396.352	311.38
396.576	283.38
396.801	273.38
397.025	269.38
397.249	280.38
397.474	274.38
397.698	276.38
397.922	295.38
398.147	304.38
398.371	301.38
398.595	310.38
398.82	305.38
399.044	315.38
399.268	317.38
399.492	325.38
399.717	336.38
399.941	330.38
400.165	360.38
400.389	371.38
400.613	346.38
400.837	334.38
401.062	307.38
401.286	321.38
401.51	318.38
401.734	291.38
401.958	306.38
402.182	309.38
402.406	333.38
402.63	323.38
402.854	312.38
403.078	312.38
403.302	305.38
403.526	323.38
403.75	309.38
403.974	300.38
404.198	317.38
404.422	322.38
404.645	315.38
404.869	318.38
405.093	354.38
405.317	341.38
405.541	375.38
405.765	344.38
405.988	331.38
406.212	316.38
406.436	364.38
406.66	350.38
406.883	343.38
407.107	334.38
407.331	377.38
407.555	423.38
407.778	388.38
408.002	376.38
408.226	354.38
408.449	341.38
408.673	348.38
408.896	357.38
409.12	367.38
409.344	343.38
409.567	314.38
409.791	314.38
410.014	329.38
410.238	306.38
410.461	318.38
410.685	341.38
410.908	355.38
411.132	341.38
411.355	364.38
411.578	347.38
411.802	298.38
412.025	303.38
412.249	328.38
412.472	332.38
412.695	346.38
412.919	341.38
413.142	304.38
413.365	298.38
413.589	281.38
413.812	288.38
414.035	304.38
414.258	302.38
414.482	308.38
414.705	300.38
414.928	304.38
415.151	280.38
415.374	286.38
415.597	300.38
415.821	297.38
416.044	301.38
416.267	294.38
416.49	299.38
416.713	296.38
416.936	293.38
417.159	292.38
417.382	299.38
417.605	289.38
417.828	280.38
418.051	309.38
418.274	318.38
418.497	280.38
418.72	289.38
418.943	294.38
419.166	290.38
419.389	294.38
419.611	300.38
419.834	307.38
420.057	314.38
420.28	288.38
420.503	310.38
420.726	302.38
420.948	314.38
421.171	340.38
421.394	376.38
421.617	320.38
421.839	313.38
422.062	322.38
422.285	318.38
422.507	362.38
422.73	393.38
422.953	366.38
423.175	341.38
423.398	333.38
423.621	313.38
423.843	323.38
424.066	327.38
424.288	337.38
424.511	348.38
424.733	379.38
424.956	420.38
425.178	410.38
425.401	379.38
425.623	419.38
425.846	354.38
426.068	338.38
426.291	329.38
426.513	337.38
426.735	352.38
426.958	362.38
427.18	411.38
427.402	493.38
427.625	534.38
427.847	447.38
428.069	379.38
428.292	361.38
428.514	345.38
428.736	331.38
428.958	340.38
429.181	299.38
429.403	313.38
429.625	325.38
429.847	347.38
430.069	376.38
430.292	380.38
430.514	323.38
430.736	319.38
430.958	297.38
431.18	308.38
431.402	294.38
431.624	269.38
431.846	316.38
432.068	291.38
432.29	288.38
432.512	304.38
432.734	294.38
432.956	297.38
433.178	317.38
433.4	308.38
433.622	288.38
433.844	285.38
434.066	298.38
434.287	283.38
434.509	285.38
434.731	312.38
434.953	304.38
435.175	314.38
435.397	344.38
435.618	354.38
435.84	363.38
436.062	425.38
436.284	462.38
436.505	390.38
436.727	358.38
436.949	317.38
437.17	326.38
437.392	293.38
437.614	317.38
437.835	347.38
438.057	410.38
438.278	457.38
438.5	461.38
438.721	501.38
438.943	459.38
439.165	381.38
439.386	345.38
439.608	352.38
439.829	330.38
440.05	359.38
440.272	397.38
440.493	365.38
440.715	331.38
440.936	318.38
441.158	325.38
441.379	319.38
441.6	334.38
441.822	335.38
442.043	358.38
442.264	402.38
442.486	438.38
442.707	360.38
442.928	350.38
443.149	351.38
443.371	366.38
443.592	402.38
443.813	444.38
444.034	458.38
444.255	382.38
444.476	343.38
444.698	336.38
444.919	330.38
445.14	420.38
445.361	371.38
445.582	373.38
445.803	407.38
446.024	452.38
446.245	447.38
446.466	420.38
446.687	369.38
446.908	333.38
447.129	329.38
447.35	333.38
447.571	320.38
447.792	296.38
448.013	331.38
448.234	332.38
448.455	381.38
448.675	432.38
448.896	473.38
449.117	428.38
449.338	414.38
449.559	492.38
449.779	516.38
450	412.38
450.221	362.38
450.442	334.38
450.662	329.38
450.883	313.38
451.104	336.38
451.324	308.38
451.545	294.38
451.766	291.38
451.986	304.38
452.207	282.38
452.428	284.38
452.648	288.38
452.869	275.38
453.089	312.38
453.31	319.38
453.53	305.38
453.751	286.38
453.971	291.38
454.192	302.38
454.412	288.38
454.633	291.38
454.853	274.38
455.073	289.38
455.294	288.38
455.514	337.38
455.734	332.38
455.955	304.38
456.175	269.38
456.395	268.38
456.616	280.38
456.836	285.38
457.056	275.38
457.276	259.38
457.497	272.38
457.717	274.38
457.937	281.38
458.157	263.38
458.377	261.38
458.598	309.38
458.818	325.38
459.038	362.38
459.258	367.38
459.478	324.38
459.698	298.38
459.918	294.38
460.138	331.38
460.358	291.38
460.578	301.38
460.798	300.38
461.018	290.38
461.238	292.38
461.458	298.38
461.678	278.38
461.898	269.38
462.118	303.38
462.338	316.38
462.558	289.38
462.777	300.38
462.997	313.38
463.217	321.38
463.437	298.38
463.657	310.38
463.876	308.38
464.096	317.38
464.316	308.38
464.536	318.38
464.755	300.38
464.975	312.38
465.195	335.38
465.414	376.38
465.634	339.38
465.854	331.38
466.073	311.38
466.293	321.38
466.512	295.38
466.732	298.38
466.951	296.38
467.171	285.38
467.391	277.38
467.61	286.38
467.829	297.38
468.049	280.38
468.268	297.38
468.488	272.38
468.707	285.38
468.927	293.38
469.146	282.38
469.365	290.38
469.585	295.38
469.804	268.38
470.023	292.38
470.243	284.38
470.462	294.38
470.681	308.38
470.901	304.38
471.12	294.38
471.339	291.38
471.558	300.38
471.777	313.38
471.997	310.38
472.216	293.38
472.435	315.38
472.654	318.38
472.873	292.38
473.092	285.38
473.311	283.38
473.53	294.38
473.749	318.38
473.968	337.38
474.187	373.38
474.406	390.38
474.625	345.38
474.844	308.38
475.063	295.38
475.282	312.38
475.501	306.38
475.72	320.38
475.939	305.38
476.158	288.38
476.377	313.38
476.596	297.38
476.814	295.38
477.033	318.38
477.252	300.38
477.471	321.38
477.69	320.38
477.908	306.38
478.127	313.38
478.346	313.38
478.564	318.38
478.783	310.38
479.002	306.38
479.22	333.38
479.439	325.38
479.658	337.38
479.876	331.38
480.095	340.38
480.313	372.38
480.532	358.38
480.751	341.38
480.969	375.38
481.188	362.38
481.406	395.38
481.624	334.38
481.843	348.38
482.061	346.38
482.28	341.38
482.498	310.38
482.717	321.38
482.935	322.38
483.153	331.38
483.372	352.38
483.59	316.38
483.808	335.38
484.027	334.38
484.245	329.38
484.463	340.38
484.681	358.38
484.9	354.38
485.118	338.38
485.336	357.38
485.554	354.38
485.772	340.38
485.99	341.38
486.209	342.38
486.427	350.38
486.645	358.38
486.863	377.38
487.081	360.38
487.299	365.38
487.517	340.38
487.735	348.38
487.953	358.38
488.171	380.38
488.389	349.38
488.607	360.38
488.825	366.38
489.043	348.38
489.261	367.38
489.479	360.38
489.696	369.38
489.914	361.38
490.132	361.38
490.35	388.38
490.568	388.38
490.786	385.38
491.003	358.38
491.221	388.38
491.439	383.38
491.657	386.38
491.874	410.38
492.092	411.38
492.31	413.38
492.527	404.38
492.745	393.38
492.963	415.38
493.18	399.38
493.398	404.38
493.615	386.38
493.833	413.38
494.05	414.38
494.268	406.38
494.485	421.38
494.703	426.38
494.92	425.38
495.138	419.38
495.355	426.38
495.573	427.38
495.79	432.38
496.008	432.38
496.225	429.38
496.442	425.38
496.66	422.38
496.877	423.38
497.094	436.38
497.312	438.38
497.529	418.38
497.746	425.38
497.963	444.38
498.181	444.38
498.398	445.38
498.615	425.38
498.832	463.38
499.049	470.38
499.267	472.38
499.484	470.38
499.701	482.38
499.918	499.38
500.135	512.38
500.352	515.38
500.569	533.38
500.786	531.38
501.003	550.38
501.22	534.38
501.437	493.38
501.654	509.38
501.871	510.38
502.088	503.38
502.305	454.38
502.522	466.38
502.739	471.38
502.956	433.38
503.172	456.38
503.389	440.38
503.606	440.38
503.823	451.38
504.04	434.38
504.256	432.38
504.473	422.38
504.69	423.38
504.907	416.38
505.123	413.38
505.34	417.38
505.557	402.38
505.773	415.38
505.99	422.38
506.207	426.38
506.423	407.38
506.64	413.38
506.856	408.38
507.073	396.38
507.289	391.38
507.506	419.38
507.722	412.38
507.939	414.38
508.155	414.38
508.372	393.38
508.588	376.38
508.805	407.38
509.021	402.38
509.238	390.38
509.454	400.38
509.67	402.38
509.887	387.38
510.103	378.38
510.319	394.38
510.536	465.38
510.752	758.38
510.968	604.38
511.184	390.38
511.401	395.38
511.617	386.38
511.833	379.38
512.049	347.38
512.265	376.38
512.481	382.38
512.698	389.38
512.914	371.38
513.13	376.38
513.346	363.38
513.562	350.38
513.778	366.38
513.994	369.38
514.21	378.38
514.426	411.38
514.642	420.38
514.858	422.38
515.074	474.38
515.29	567.38
515.506	792.38
515.721	667.38
515.937	446.38
516.153	415.38
516.369	388.38
516.585	381.38
516.801	383.38
517.016	394.38
517.232	412.38
517.448	387.38
517.664	377.38
517.879	375.38
518.095	379.38
518.311	394.38
518.527	371.38
518.742	376.38
518.958	368.38
519.173	370.38
519.389	368.38
519.605	368.38
519.82	386.38
520.036	394.38
520.251	426.38
520.467	402.38
520.682	421.38
520.898	399.38
521.113	404.38
521.329	438.38
521.544	503.38
521.76	653.38
521.975	1088.38
522.19	1003.38
522.406	565.38
522.621	442.38
522.836	390.38
523.052	385.38
523.267	376.38
523.482	361.38
523.698	351.38
523.913	349.38
524.128	362.38
524.343	350.38
524.559	342.38
524.774	340.38
524.989	344.38
525.204	347.38
525.419	328.38
525.634	324.38
525.849	320.38
526.064	327.38
526.28	326.38
526.495	312.38
526.71	327.38
526.925	317.38
527.14	313.38
527.355	287.38
527.57	298.38
527.785	304.38
527.999	320.38
528.214	314.38
528.429	307.38
528.644	314.38
528.859	324.38
529.074	321.38
529.289	345.38
529.503	408.38
529.718	360.38
529.933	323.38
530.148	328.38
530.363	316.38
530.577	298.38
530.792	317.38
531.007	299.38
531.221	310.38
531.436	313.38
531.651	296.38
531.865	291.38
532.08	294.38
532.295	297.38
532.509	292.38
532.724	307.38
532.938	289.38
533.153	304.38
533.367	307.38
533.582	288.38
533.796	308.38
534.011	298.38
534.225	284.38
534.44	278.38
534.654	277.38
534.868	288.38
535.083	286.38
535.297	288.38
535.511	294.38
535.726	287.38
535.94	302.38
536.154	297.38
536.369	270.38
536.583	276.38
536.797	265.38
537.011	278.38
537.225	292.38
537.44	291.38
537.654	300.38
537.868	277.38
538.082	272.38
538.296	287.38
538.51	305.38
538.724	265.38
538.938	278.38
539.153	286.38
539.367	316.38
539.581	277.38
539.795	296.38
540.009	291.38
540.222	287.38
540.436	284.38
540.65	274.38
540.864	296.38
541.078	288.38
541.292	292.38
541.506	298.38
541.72	285.38
541.934	281.38
542.147	289.38
542.361	274.38
542.575	278.38
542.789	290.38
543.002	283.38
543.216	287.38
543.43	291.38
543.644	288.38
543.857	292.38
544.071	282.38
544.285	296.38
544.498	290.38
544.712	278.38
544.925	282.38
545.139	283.38
545.352	281.38
545.566	264.38
545.779	284.38
545.993	268.38
546.206	274.38
546.42	292.38
546.633	277.38
546.847	273.38
547.06	297.38
547.274	283.38
547.487	278.38
547.7	284.38
547.914	274.38
548.127	260.38
548.34	277.38
548.554	269.38
548.767	270.38
548.98	262.38
549.193	267.38
549.407	270.38
549.62	280.38
549.833	287.38
550.046	254.38
550.259	250.38
550.473	253.38
550.686	270.38
550.899	266.38
551.112	249.38
551.325	274.38
551.538	279.38
551.751	261.38
551.964	251.38
552.177	270.38
552.39	273.38
552.603	264.38
552.816	257.38
553.029	275.38
553.242	251.38
553.455	282.38
553.667	271.38
553.88	280.38
554.093	265.38
554.306	266.38
554.519	278.38
554.732	281.38
554.944	274.38
555.157	276.38
555.37	246.38
555.583	259.38
555.795	265.38
556.008	249.38
556.221	252.38
556.433	242.38
556.646	248.38
556.859	258.38
557.071	240.38
557.284	249.38
557.496	256.38
557.709	254.38
557.921	257.38
558.134	242.38
558.346	249.38
558.559	239.38
558.771	251.38
558.984	237.38
559.196	243.38
559.409	218.38
559.621	242.38
559.833	256.38
560.046	257.38
560.258	229.38
560.47	254.38
560.683	258.38
560.895	237.38
561.107	227.38
561.32	244.38
561.532	252.38
561.744	237.38
561.956	235.38
562.168	223.38
562.381	233.38
562.593	237.38
562.805	237.38
563.017	248.38
563.229	246.38
563.441	258.38
563.653	257.38
563.865	236.38
564.077	242.38
564.289	255.38
564.501	254.38
564.713	252.38
564.925	254.38
565.137	243.38
565.349	272.38
565.561	269.38
565.773	284.38
565.985	270.38
566.197	277.38
566.408	262.38
566.62	279.38
566.832	262.38
567.044	248.38
567.255	262.38
567.467	266.38
567.679	283.38
567.891	275.38
568.102	284.38
568.314	252.38
568.526	275.38
568.737	248.38
568.949	265.38
569.161	246.38
569.372	233.38
569.584	240.38
569.795	254.38
570.007	236.38
570.218	274.38
570.43	256.38
570.641	238.38
570.853	236.38
571.064	242.38
571.276	235.38
571.487	230.38
571.698	233.38
571.91	209.38
572.121	231.38
572.333	229.38
572.544	223.38
572.755	220.38
572.966	218.38
573.178	217.38
573.389	221.38
573.6	208.38
573.811	223.38
574.023	201.38
574.234	197.38
574.445	219.38
574.656	210.38
574.867	205.38
575.078	219.38
575.289	210.38
575.501	207.38
575.712	211.38
575.923	228.38
576.134	208.38
576.345	228.38
576.556	201.38
576.767	230.38
576.978	199.38
577.188	211.38
577.399	227.38
577.61	213.38
577.821	214.38
578.032	205.38
578.243	234.38
578.454	380.38
578.665	278.38
578.875	206.38
579.086	202.38
579.297	214.38
579.508	197.38
579.718	194.38
579.929	199.38
580.14	205.38
580.35	203.38
580.561	215.38
580.772	186.38
580.982	200.38
581.193	196.38
581.403	200.38
581.614	217.38
581.825	196.38
582.035	195.38
582.246	203.38
582.456	203.38
582.667	205.38
582.877	186.38
583.087	188.38
583.298	196.38
583.508	206.38
583.719	213.38
583.929	192.38
584.139	197.38
584.35	184.38
584.56	210.38
584.77	207.38
584.981	191.38
585.191	206.38
585.401	186.38
585.611	194.38
585.821	184.38
586.032	205.38
586.242	201.38
586.452	183.38
586.662	198.38
586.872	178.38
587.082	178.38
587.292	196.38
587.502	183.38
587.713	193.38
587.923	184.38
588.133	188.38
588.343	200.38
588.553	193.38
588.762	190.38
588.972	209.38
589.182	195.38
589.392	192.38
589.602	198.38
589.812	185.38
590.022	204.38
590.232	193.38
590.441	192.38
590.651	190.38
590.861	199.38
591.071	197.38
591.281	187.38
591.49	186.38
591.7	184.38
591.91	190.38
592.119	188.38
592.329	199.38
592.539	194.38
592.748	209.38
592.958	189.38
593.167	194.38
593.377	188.38
593.587	185.38
593.796	191.38
594.006	202.38
594.215	184.38
594.424	188.38
594.634	189.38
594.843	186.38
595.053	192.38
595.262	181.38
595.472	190.38
595.681	178.38
595.89	183.38
596.1	207.38
596.309	192.38
596.518	180.38
596.727	186.38
596.937	179.38
597.146	179.38
597.355	184.38
597.564	176.38
597.774	164.38
597.983	185.38
598.192	184.38
598.401	186.38
598.61	178.38
598.819	183.38
599.028	184.38
599.237	162.38
599.446	164.38
599.655	168.38
599.864	186.38
600.073	169.38
600.282	182.38
600.491	181.38
600.7	172.38
600.909	165.38
601.118	170.38
601.327	154.38
601.536	161.38
601.745	180.38
601.953	170.38
602.162	171.38
602.371	170.38
602.58	166.38
602.789	180.38
602.997	181.38
603.206	174.38
603.415	166.38
603.623	162.38
603.832	166.38
604.041	173.38
604.249	169.38
604.458	158.38
604.666	177.38
604.875	164.38
605.084	177.38
605.292	179.38
605.501	168.38
605.709	179.38
605.918	168.38
606.126	162.38
606.334	176.38
606.543	180.38
606.751	176.38
606.96	156.38
607.168	173.38
607.376	166.38
607.585	162.38
607.793	171.38
608.001	176.38
608.21	154.38
608.418	160.38
608.626	159.38
608.834	166.38
609.043	160.38
609.251	162.38
609.459	161.38
609.667	166.38
609.875	183.38
610.083	160.38
610.291	168.38
610.499	161.38
610.707	162.38
610.916	160.38
611.124	172.38
611.332	170.38
611.54	158.38
611.748	193.38
611.955	172.38
612.163	155.38
612.371	170.38
612.579	153.38
612.787	180.38
612.995	168.38
613.203	166.38
613.411	152.38
613.618	164.38
613.826	168.38
614.034	176.38
614.242	169.38
614.449	156.38
614.657	146.38
614.865	161.38
615.072	165.38
615.28	157.38
615.488	164.38
615.695	161.38
615.903	152.38
616.111	168.38
616.318	161.38
616.526	167.38
616.733	166.38
616.941	164.38
617.148	161.38
617.356	185.38
617.563	168.38
617.771	174.38
617.978	156.38
618.185	157.38
618.393	170.38
618.6	150.38
618.807	156.38
619.015	161.38
619.222	146.38
619.429	152.38
619.637	161.38
619.844	142.38
620.051	183.38
620.258	152.38
620.466	149.38
620.673	157.38
620.88	165.38
621.087	176.38
621.294	161.38
621.501	162.38
621.708	160.38
621.915	150.38
622.122	144.38
622.329	156.38
622.536	146.38
622.743	153.38
622.95	144.38
623.157	149.38
623.364	153.38
623.571	156.38
623.778	146.38
623.985	153.38
624.192	157.38
624.399	164.38
624.606	163.38
624.812	142.38
625.019	143.38
625.226	146.38
625.433	146.38
625.639	153.38
625.846	140.38
626.053	152.38
626.259	142.38
626.466	158.38
626.673	147.38
626.879	147.38
627.086	154.38
627.293	146.38
627.499	140.38
627.706	152.38
627.912	137.38
628.119	149.38
628.325	147.38
628.532	147.38
628.738	148.38
628.945	140.38
629.151	141.38
629.357	145.38
629.564	152.38
629.77	145.38
629.976	153.38
630.183	140.38
630.389	135.38
630.595	132.38
630.802	126.38
631.008	144.38
631.214	138.38
631.42	157.38
631.627	140.38
631.833	140.38
632.039	133.38
632.245	137.38
632.451	151.38
632.657	132.38
632.863	139.38
633.069	129.38
633.275	127.38
633.481	132.38
633.688	131.38
633.893	153.38
634.099	142.38
634.305	138.38
634.511	128.38
634.717	128.38
634.923	119.38
635.129	140.38
635.335	112.38
635.541	126.38
635.747	136.38
635.952	143.38
636.158	135.38
636.364	137.38
636.57	127.38
636.775	150.38
636.981	130.38
637.187	138.38
637.392	127.38
637.598	139.38
637.804	141.38
638.009	150.38
638.215	132.38
638.421	137.38
638.626	144.38
638.832	119.38
639.037	134.38
639.243	136.38
639.448	125.38
639.654	148.38
639.859	124.38
640.065	137.38
640.27	134.38
640.475	132.38
640.681	133.38
640.886	125.38
641.091	137.38
641.297	134.38
641.502	140.38
641.707	130.38
641.913	125.38
642.118	128.38
642.323	122.38
642.528	138.38
642.733	125.38
642.939	132.38
643.144	129.38
643.349	136.38
643.554	127.38
643.759	116.38
643.964	123.38
644.169	118.38
644.374	102.38
644.579	130.38
644.784	124.38
644.989	140.38
645.194	118.38
645.399	142.38
645.604	122.38
645.809	136.38
646.014	129.38
646.219	128.38
646.423	124.38
646.628	125.38
646.833	133.38
647.038	140.38
647.243	139.38
647.447	137.38
647.652	122.38
647.857	120.38
648.062	134.38
648.266	136.38
648.471	142.38
648.676	123.38
648.88	124.38
649.085	133.38
649.289	136.38
649.494	135.38
649.698	143.38
649.903	141.38
650.107	127.38
650.312	130.38
650.516	129.38
650.721	145.38
650.925	134.38
651.13	116.38
651.334	135.38
651.539	119.38
651.743	129.38
651.947	128.38
652.152	129.38
652.356	121.38
652.56	124.38
652.764	115.38
652.969	114.38
653.173	116.38
653.377	121.38
653.581	119.38
653.785	131.38
653.99	123.38
654.194	116.38
654.398	118.38
654.602	128.38
654.806	112.38
655.01	117.38
655.214	113.38
655.418	120.38
655.622	99.38
655.826	99.38
656.03	104.38
656.234	128.38
656.438	113.38
656.642	114.38
656.846	107.38
657.049	114.38
657.253	110.38
657.457	116.38
657.661	118.38
657.865	100.38
658.068	97.38
658.272	107.38
658.476	92.38
658.68	101.38
658.883	108.38
659.087	93.38
659.291	88.38
659.494	87.38
659.698	99.38
659.901	98.38
660.105	89.38
660.309	88.38
660.512	105.38
660.716	88.38
660.919	80.38
661.123	76.38
661.326	76.38
661.53	106.38
661.733	78.38
661.936	89.38
662.14	78.38
662.343	91.38
662.546	88.38
662.75	81.38
662.953	88.38
663.156	81.38
663.36	82.38
663.563	92.38
663.766	80.38
663.969	81.38
664.173	83.38
664.376	84.38
664.579	86.38
664.782	85.38
664.985	80.38
665.188	78.38
665.391	91.38
665.594	88.38
665.797	95.38
666	86.38
666.203	73.38
666.406	69.38
666.609	83.38
666.812	90.38
667.015	86.38
667.218	87.38
667.421	75.38
667.624	92.38
667.827	72.38
668.03	82.38
668.232	73.38
668.435	80.38
668.638	65.38
668.841	78.38
669.043	74.38
669.246	76.38
669.449	93.38
669.651	90.38
669.854	64.38
670.057	84.38
670.259	100.38
670.462	75.38
670.665	83.38
670.867	78.38
671.07	79.38
671.272	85.38
671.475	106.38
671.677	75.38
671.88	101.38
672.082	76.38
672.284	77.38
672.487	74.38
672.689	66.38
672.892	73.38
