Data from 1982.PennyLincolnUp.Lamp.En5.5.200Scan.071819.P1_HRD10591_16-47-33-962.txt Node
Date: Thu Jul 18 16:47:33 EDT 2019
User: cochatt
Spectrometer: HR+D1059
Trigger mode: 1
Integration Time (sec): 1.000000E-1
Scans to average: 1
Electric dark correction enabled: true
Nonlinearity correction enabled: false
Boxcar width: 0
XAxis mode: Wavelengths
Number of Pixels in Spectrum: 2048
>>>>>Begin Spectral Data<<<<<
223.165	-9.94
223.4	-9.94
223.635	-9.94
223.869	-22.94
224.104	-10.94
224.338	-13.94
224.573	-16.94
224.808	-22.94
225.042	-10.94
225.277	-5.94
225.511	6.06
225.746	5.06
225.98	4.06
226.215	15.06
226.449	1.06
226.683	18.06
226.918	27.06
227.152	38.06
227.387	27.06
227.621	34.06
227.856	38.06
228.09	60.06
228.324	62.06
228.559	67.06
228.793	66.06
229.027	78.06
229.262	105.06
229.496	109.06
229.73	114.06
229.964	116.06
230.199	118.06
230.433	85.06
230.667	103.06
230.901	100.06
231.136	90.06
231.37	101.06
231.604	101.06
231.838	103.06
232.072	107.06
232.306	95.06
232.541	87.06
232.775	100.06
233.009	90.06
233.243	95.06
233.477	106.06
233.711	99.06
233.945	98.06
234.179	101.06
234.413	109.06
234.647	104.06
234.881	99.06
235.115	105.06
235.349	109.06
235.583	99.06
235.817	105.06
236.051	109.06
236.285	126.06
236.519	113.06
236.753	119.06
236.987	129.06
237.221	152.06
237.455	176.06
237.689	148.06
237.922	125.06
238.156	132.06
238.39	100.06
238.624	119.06
238.858	117.06
239.091	101.06
239.325	109.06
239.559	105.06
239.793	124.06
240.027	126.06
240.26	128.06
240.494	134.06
240.728	118.06
240.961	116.06
241.195	117.06
241.429	111.06
241.662	123.06
241.896	112.06
242.13	113.06
242.363	121.06
242.597	117.06
242.83	89.06
243.064	133.06
243.298	124.06
243.531	121.06
243.765	116.06
243.998	112.06
244.232	126.06
244.465	119.06
244.699	123.06
244.932	124.06
245.166	135.06
245.399	130.06
245.633	128.06
245.866	122.06
246.099	120.06
246.333	135.06
246.566	131.06
246.8	134.06
247.033	118.06
247.266	142.06
247.5	144.06
247.733	136.06
247.966	126.06
248.2	146.06
248.433	139.06
248.666	144.06
248.899	159.06
249.133	168.06
249.366	183.06
249.599	164.06
249.832	144.06
250.066	162.06
250.299	154.06
250.532	164.06
250.765	156.06
250.998	201.06
251.231	176.06
251.465	170.06
251.698	162.06
251.931	160.06
252.164	160.06
252.397	163.06
252.63	179.06
252.863	174.06
253.096	169.06
253.329	191.06
253.562	185.06
253.795	180.06
254.028	176.06
254.261	189.06
254.494	183.06
254.727	216.06
254.96	225.06
255.193	203.06
255.426	184.06
255.659	184.06
255.892	195.06
256.124	178.06
256.357	189.06
256.59	193.06
256.823	186.06
257.056	187.06
257.289	168.06
257.521	176.06
257.754	154.06
257.987	160.06
258.22	173.06
258.452	169.06
258.685	157.06
258.918	166.06
259.151	166.06
259.383	173.06
259.616	169.06
259.849	168.06
260.081	194.06
260.314	202.06
260.547	212.06
260.779	203.06
261.012	200.06
261.244	170.06
261.477	185.06
261.71	167.06
261.942	184.06
262.175	197.06
262.407	197.06
262.64	170.06
262.872	166.06
263.105	176.06
263.337	162.06
263.57	176.06
263.802	186.06
264.035	167.06
264.267	164.06
264.499	163.06
264.732	178.06
264.964	190.06
265.197	193.06
265.429	171.06
265.661	185.06
265.894	189.06
266.126	182.06
266.358	179.06
266.591	179.06
266.823	187.06
267.055	170.06
267.287	180.06
267.52	182.06
267.752	195.06
267.984	192.06
268.216	186.06
268.448	190.06
268.681	195.06
268.913	208.06
269.145	205.06
269.377	224.06
269.609	225.06
269.841	217.06
270.073	225.06
270.306	236.06
270.538	248.06
270.77	259.06
271.002	260.06
271.234	253.06
271.466	246.06
271.698	258.06
271.93	263.06
272.162	267.06
272.394	243.06
272.626	242.06
272.858	215.06
273.09	226.06
273.322	227.06
273.553	205.06
273.785	219.06
274.017	223.06
274.249	213.06
274.481	203.06
274.713	211.06
274.945	208.06
275.176	219.06
275.408	231.06
275.64	232.06
275.872	229.06
276.104	211.06
276.335	214.06
276.567	216.06
276.799	219.06
277.031	245.06
277.262	250.06
277.494	243.06
277.726	224.06
277.957	220.06
278.189	232.06
278.421	221.06
278.652	205.06
278.884	225.06
279.115	216.06
279.347	216.06
279.579	215.06
279.81	219.06
280.042	216.06
280.273	212.06
280.505	204.06
280.736	206.06
280.968	214.06
281.199	200.06
281.431	217.06
281.662	213.06
281.894	232.06
282.125	206.06
282.356	238.06
282.588	233.06
282.819	236.06
283.051	219.06
283.282	211.06
283.513	226.06
283.745	214.06
283.976	212.06
284.207	218.06
284.439	228.06
284.67	205.06
284.901	219.06
285.132	217.06
285.364	221.06
285.595	217.06
285.826	236.06
286.057	221.06
286.288	215.06
286.52	213.06
286.751	214.06
286.982	210.06
287.213	221.06
287.444	230.06
287.675	225.06
287.906	217.06
288.138	224.06
288.369	265.06
288.6	241.06
288.831	221.06
289.062	211.06
289.293	215.06
289.524	225.06
289.755	229.06
289.986	232.06
290.217	232.06
290.448	229.06
290.679	216.06
290.91	232.06
291.141	228.06
291.371	229.06
291.602	238.06
291.833	197.06
292.064	226.06
292.295	221.06
292.526	220.06
292.757	207.06
292.987	231.06
293.218	212.06
293.449	238.06
293.68	242.06
293.91	236.06
294.141	224.06
294.372	229.06
294.603	222.06
294.833	235.06
295.064	204.06
295.295	220.06
295.525	229.06
295.756	219.06
295.987	242.06
296.217	252.06
296.448	263.06
296.679	258.06
296.909	229.06
297.14	225.06
297.37	226.06
297.601	250.06
297.831	240.06
298.062	229.06
298.292	250.06
298.523	221.06
298.753	229.06
298.984	253.06
299.214	218.06
299.445	256.06
299.675	243.06
299.905	232.06
300.136	250.06
300.366	245.06
300.597	238.06
300.827	251.06
301.057	249.06
301.288	242.06
301.518	238.06
301.748	258.06
301.979	250.06
302.209	262.06
302.439	252.06
302.669	258.06
302.9	246.06
303.13	253.06
303.36	260.06
303.59	265.06
303.82	271.06
304.051	261.06
304.281	249.06
304.511	267.06
304.741	252.06
304.971	241.06
305.201	264.06
305.431	250.06
305.661	265.06
305.891	274.06
306.121	259.06
306.352	249.06
306.582	259.06
306.812	260.06
307.042	257.06
307.272	254.06
307.502	268.06
307.731	251.06
307.961	262.06
308.191	268.06
308.421	276.06
308.651	270.06
308.881	290.06
309.111	274.06
309.341	271.06
309.571	280.06
309.8	290.06
310.03	280.06
310.26	306.06
310.49	280.06
310.72	299.06
310.949	329.06
311.179	332.06
311.409	302.06
311.639	293.06
311.868	298.06
312.098	304.06
312.328	298.06
312.557	333.06
312.787	332.06
313.017	331.06
313.246	313.06
313.476	289.06
313.706	296.06
313.935	298.06
314.165	317.06
314.394	316.06
314.624	317.06
314.853	304.06
315.083	292.06
315.312	302.06
315.542	291.06
315.771	288.06
316.001	282.06
316.23	307.06
316.46	278.06
316.689	283.06
316.919	293.06
317.148	303.06
317.377	325.06
317.607	314.06
317.836	309.06
318.065	289.06
318.295	285.06
318.524	301.06
318.753	311.06
318.983	288.06
319.212	303.06
319.441	316.06
319.67	291.06
319.9	295.06
320.129	301.06
320.358	296.06
320.587	322.06
320.816	315.06
321.046	318.06
321.275	337.06
321.504	326.06
321.733	311.06
321.962	342.06
322.191	332.06
322.42	357.06
322.649	384.06
322.878	370.06
323.108	381.06
323.337	415.06
323.566	406.06
323.795	435.06
324.024	512.06
324.253	647.06
324.482	956.06
324.71	1432.06
324.939	1818.06
325.168	1502.06
325.397	809.06
325.626	541.06
325.855	430.06
326.084	409.06
326.313	389.06
326.542	424.06
326.77	463.06
326.999	587.06
327.228	843.06
327.457	1194.06
327.686	1350.06
327.914	892.06
328.143	604.06
328.372	534.06
328.6	479.06
328.829	468.06
329.058	484.06
329.287	480.06
329.515	429.06
329.744	424.06
329.972	415.06
330.201	440.06
330.43	459.06
330.658	466.06
330.887	484.06
331.115	503.06
331.344	413.06
331.572	387.06
331.801	398.06
332.03	401.06
332.258	378.06
332.486	344.06
332.715	356.06
332.943	368.06
333.172	350.06
333.4	348.06
333.629	369.06
333.857	370.06
334.085	382.06
334.314	395.06
334.542	405.06
334.771	402.06
334.999	378.06
335.227	351.06
335.455	353.06
335.684	348.06
335.912	328.06
336.14	333.06
336.369	349.06
336.597	370.06
336.825	344.06
337.053	330.06
337.281	318.06
337.51	328.06
337.738	319.06
337.966	342.06
338.194	349.06
338.422	336.06
338.65	315.06
338.878	346.06
339.106	318.06
339.334	320.06
339.562	324.06
339.79	342.06
340.018	317.06
340.246	328.06
340.474	325.06
340.702	322.06
340.93	319.06
341.158	337.06
341.386	310.06
341.614	359.06
341.842	321.06
342.07	313.06
342.298	308.06
342.526	307.06
342.754	339.06
342.981	311.06
343.209	311.06
343.437	314.06
343.665	330.06
343.893	314.06
344.12	336.06
344.348	323.06
344.576	332.06
344.804	331.06
345.031	330.06
345.259	333.06
345.487	321.06
345.714	316.06
345.942	333.06
346.17	323.06
346.397	314.06
346.625	333.06
346.853	306.06
347.08	323.06
347.308	310.06
347.535	321.06
347.763	328.06
347.99	331.06
348.218	327.06
348.445	325.06
348.673	331.06
348.9	312.06
349.128	312.06
349.355	326.06
349.583	320.06
349.81	305.06
350.037	313.06
350.265	300.06
350.492	312.06
350.72	297.06
350.947	310.06
351.174	324.06
351.402	323.06
351.629	328.06
351.856	317.06
352.083	304.06
352.311	323.06
352.538	331.06
352.765	326.06
352.992	313.06
353.22	314.06
353.447	319.06
353.674	290.06
353.901	296.06
354.128	293.06
354.355	290.06
354.583	316.06
354.81	289.06
355.037	290.06
355.264	300.06
355.491	280.06
355.718	299.06
355.945	297.06
356.172	289.06
356.399	300.06
356.626	284.06
356.853	288.06
357.08	278.06
357.307	271.06
357.534	277.06
357.761	299.06
357.988	274.06
358.215	277.06
358.441	313.06
358.668	284.06
358.895	280.06
359.122	290.06
359.349	307.06
359.576	326.06
359.802	346.06
360.029	369.06
360.256	341.06
360.483	311.06
360.709	313.06
360.936	301.06
361.163	316.06
361.39	312.06
361.616	298.06
361.843	311.06
362.07	291.06
362.296	312.06
362.523	306.06
362.749	300.06
362.976	292.06
363.203	289.06
363.429	285.06
363.656	309.06
363.882	298.06
364.109	286.06
364.335	314.06
364.562	292.06
364.788	305.06
365.015	297.06
365.241	292.06
365.468	292.06
365.694	293.06
365.92	326.06
366.147	297.06
366.373	311.06
366.599	277.06
366.826	286.06
367.052	291.06
367.278	302.06
367.505	293.06
367.731	297.06
367.957	282.06
368.184	290.06
368.41	293.06
368.636	293.06
368.862	300.06
369.089	281.06
369.315	286.06
369.541	282.06
369.767	300.06
369.993	296.06
370.219	283.06
370.445	278.06
370.672	284.06
370.898	272.06
371.124	267.06
371.35	278.06
371.576	280.06
371.802	268.06
372.028	268.06
372.254	286.06
372.48	279.06
372.706	282.06
372.932	285.06
373.158	291.06
373.384	302.06
373.61	276.06
373.835	274.06
374.061	269.06
374.287	279.06
374.513	258.06
374.739	274.06
374.965	279.06
375.191	278.06
375.416	267.06
375.642	261.06
375.868	286.06
376.094	277.06
376.319	279.06
376.545	255.06
376.771	290.06
376.997	258.06
377.222	277.06
377.448	294.06
377.674	251.06
377.899	260.06
378.125	268.06
378.35	286.06
378.576	259.06
378.802	275.06
379.027	277.06
379.253	273.06
379.478	258.06
379.704	270.06
379.929	276.06
380.155	264.06
380.38	282.06
380.606	280.06
380.831	292.06
381.057	280.06
381.282	264.06
381.507	268.06
381.733	296.06
381.958	281.06
382.184	249.06
382.409	278.06
382.634	269.06
382.86	262.06
383.085	278.06
383.31	281.06
383.535	281.06
383.761	292.06
383.986	282.06
384.211	283.06
384.436	283.06
384.662	280.06
384.887	284.06
385.112	280.06
385.337	294.06
385.562	304.06
385.787	282.06
386.013	297.06
386.238	292.06
386.463	295.06
386.688	292.06
386.913	300.06
387.138	293.06
387.363	310.06
387.588	270.06
387.813	286.06
388.038	294.06
388.263	310.06
388.488	286.06
388.713	292.06
388.938	288.06
389.163	292.06
389.387	279.06
389.612	279.06
389.837	291.06
390.062	294.06
390.287	305.06
390.512	287.06
390.736	274.06
390.961	276.06
391.186	289.06
391.411	280.06
391.636	276.06
391.86	293.06
392.085	269.06
392.31	308.06
392.534	292.06
392.759	288.06
392.984	273.06
393.208	282.06
393.433	287.06
393.658	284.06
393.882	301.06
394.107	288.06
394.331	281.06
394.556	280.06
394.78	292.06
395.005	292.06
395.229	304.06
395.454	300.06
395.678	307.06
395.903	309.06
396.127	307.06
396.352	305.06
396.576	304.06
396.801	302.06
397.025	282.06
397.249	309.06
397.474	317.06
397.698	292.06
397.922	326.06
398.147	318.06
398.371	315.06
398.595	315.06
398.82	301.06
399.044	312.06
399.268	330.06
399.492	334.06
399.717	344.06
399.941	371.06
400.165	358.06
400.389	392.06
400.613	348.06
400.837	340.06
401.062	321.06
401.286	328.06
401.51	315.06
401.734	330.06
401.958	337.06
402.182	308.06
402.406	331.06
402.63	329.06
402.854	331.06
403.078	322.06
403.302	324.06
403.526	328.06
403.75	344.06
403.974	334.06
404.198	311.06
404.422	329.06
404.645	346.06
404.869	360.06
405.093	353.06
405.317	376.06
405.541	390.06
405.765	368.06
405.988	344.06
406.212	376.06
406.436	384.06
406.66	393.06
406.883	380.06
407.107	366.06
407.331	420.06
407.555	432.06
407.778	430.06
408.002	421.06
408.226	387.06
408.449	358.06
408.673	370.06
408.896	382.06
409.12	418.06
409.344	376.06
409.567	344.06
409.791	344.06
410.014	337.06
410.238	319.06
410.461	324.06
410.685	332.06
410.908	352.06
411.132	365.06
411.355	385.06
411.578	346.06
411.802	338.06
412.025	344.06
412.249	344.06
412.472	347.06
412.695	361.06
412.919	362.06
413.142	326.06
413.365	330.06
413.589	309.06
413.812	319.06
414.035	311.06
414.258	320.06
414.482	310.06
414.705	310.06
414.928	335.06
415.151	279.06
415.374	290.06
415.597	282.06
415.821	322.06
416.044	310.06
416.267	309.06
416.49	320.06
416.713	305.06
416.936	290.06
417.159	319.06
417.382	307.06
417.605	317.06
417.828	317.06
418.051	337.06
418.274	314.06
418.497	300.06
418.72	312.06
418.943	313.06
419.166	326.06
419.389	336.06
419.611	316.06
419.834	327.06
420.057	350.06
420.28	340.06
420.503	351.06
420.726	336.06
420.948	344.06
421.171	365.06
421.394	384.06
421.617	352.06
421.839	327.06
422.062	320.06
422.285	340.06
422.507	374.06
422.73	423.06
422.953	404.06
423.175	368.06
423.398	349.06
423.621	334.06
423.843	336.06
424.066	369.06
424.288	349.06
424.511	378.06
424.733	396.06
424.956	451.06
425.178	452.06
425.401	456.06
425.623	437.06
425.846	380.06
426.068	344.06
426.291	361.06
426.513	339.06
426.735	361.06
426.958	393.06
427.18	476.06
427.402	520.06
427.625	595.06
427.847	518.06
428.069	447.06
428.292	389.06
428.514	370.06
428.736	347.06
428.958	328.06
429.181	347.06
429.403	328.06
429.625	335.06
429.847	364.06
430.069	388.06
430.292	405.06
430.514	338.06
430.736	337.06
430.958	319.06
431.18	306.06
431.402	332.06
431.624	311.06
431.846	309.06
432.068	295.06
432.29	298.06
432.512	300.06
432.734	320.06
432.956	315.06
433.178	326.06
433.4	320.06
433.622	333.06
433.844	322.06
434.066	310.06
434.287	304.06
434.509	317.06
434.731	334.06
434.953	327.06
435.175	331.06
435.397	358.06
435.618	355.06
435.84	392.06
436.062	461.06
436.284	470.06
436.505	399.06
436.727	381.06
436.949	370.06
437.17	328.06
437.392	329.06
437.614	341.06
437.835	376.06
438.057	436.06
438.278	526.06
438.5	491.06
438.721	530.06
438.943	511.06
439.165	405.06
439.386	361.06
439.608	376.06
439.829	380.06
440.05	388.06
440.272	425.06
440.493	384.06
440.715	362.06
440.936	358.06
441.158	336.06
441.379	330.06
441.6	354.06
441.822	368.06
442.043	384.06
442.264	452.06
442.486	453.06
442.707	386.06
442.928	372.06
443.149	378.06
443.371	398.06
443.592	414.06
443.813	481.06
444.034	520.06
444.255	410.06
444.476	369.06
444.698	368.06
444.919	365.06
445.14	451.06
445.361	422.06
445.582	399.06
445.803	437.06
446.024	511.06
446.245	493.06
446.466	448.06
446.687	403.06
446.908	370.06
447.129	345.06
447.35	328.06
447.571	336.06
447.792	330.06
448.013	334.06
448.234	342.06
448.455	404.06
448.675	461.06
448.896	522.06
449.117	448.06
449.338	454.06
449.559	470.06
449.779	543.06
450	452.06
450.221	365.06
450.442	361.06
450.662	336.06
450.883	323.06
451.104	338.06
451.324	326.06
451.545	324.06
451.766	298.06
451.986	300.06
452.207	298.06
452.428	295.06
452.648	307.06
452.869	308.06
453.089	294.06
453.31	313.06
453.53	321.06
453.751	282.06
453.971	300.06
454.192	316.06
454.412	311.06
454.633	309.06
454.853	290.06
455.073	278.06
455.294	334.06
455.514	366.06
455.734	363.06
455.955	314.06
456.175	306.06
456.395	284.06
456.616	267.06
456.836	282.06
457.056	276.06
457.276	269.06
457.497	286.06
457.717	279.06
457.937	298.06
458.157	281.06
458.377	292.06
458.598	312.06
458.818	357.06
459.038	407.06
459.258	408.06
459.478	358.06
459.698	314.06
459.918	328.06
460.138	312.06
460.358	293.06
460.578	301.06
460.798	313.06
461.018	306.06
461.238	299.06
461.458	304.06
461.678	302.06
461.898	305.06
462.118	303.06
462.338	318.06
462.558	305.06
462.777	310.06
462.997	331.06
463.217	317.06
463.437	347.06
463.657	314.06
463.876	300.06
464.096	300.06
464.316	318.06
464.536	317.06
464.755	350.06
464.975	345.06
465.195	353.06
465.414	410.06
465.634	366.06
465.854	350.06
466.073	325.06
466.293	315.06
466.512	316.06
466.732	286.06
466.951	289.06
467.171	293.06
467.391	314.06
467.61	292.06
467.829	298.06
468.049	313.06
468.268	311.06
468.488	297.06
468.707	310.06
468.927	290.06
469.146	299.06
469.365	313.06
469.585	282.06
469.804	285.06
470.023	300.06
470.243	308.06
470.462	313.06
470.681	329.06
470.901	315.06
471.12	308.06
471.339	310.06
471.558	338.06
471.777	317.06
471.997	337.06
472.216	306.06
472.435	353.06
472.654	337.06
472.873	299.06
473.092	299.06
473.311	320.06
473.53	318.06
473.749	322.06
473.968	347.06
474.187	432.06
474.406	429.06
474.625	372.06
474.844	325.06
475.063	292.06
475.282	298.06
475.501	306.06
475.72	316.06
475.939	319.06
476.158	313.06
476.377	288.06
476.596	299.06
476.814	329.06
477.033	322.06
477.252	327.06
477.471	320.06
477.69	331.06
477.908	330.06
478.127	334.06
478.346	337.06
478.564	334.06
478.783	330.06
479.002	342.06
479.22	331.06
479.439	365.06
479.658	378.06
479.876	384.06
480.095	379.06
480.313	377.06
480.532	377.06
480.751	350.06
480.969	384.06
481.188	416.06
481.406	414.06
481.624	398.06
481.843	378.06
482.061	378.06
482.28	367.06
482.498	342.06
482.717	357.06
482.935	359.06
483.153	357.06
483.372	352.06
483.59	357.06
483.808	351.06
484.027	327.06
484.245	361.06
484.463	353.06
484.681	367.06
484.9	406.06
485.118	365.06
485.336	359.06
485.554	378.06
485.772	368.06
485.99	355.06
486.209	381.06
486.427	377.06
486.645	387.06
486.863	394.06
487.081	372.06
487.299	379.06
487.517	383.06
487.735	381.06
487.953	387.06
488.171	376.06
488.389	351.06
488.607	388.06
488.825	375.06
489.043	377.06
489.261	391.06
489.479	387.06
489.696	375.06
489.914	391.06
490.132	366.06
490.35	386.06
490.568	394.06
490.786	406.06
491.003	391.06
491.221	410.06
491.439	417.06
491.657	411.06
491.874	408.06
492.092	438.06
492.31	447.06
492.527	438.06
492.745	432.06
492.963	437.06
493.18	459.06
493.398	468.06
493.615	461.06
493.833	433.06
494.05	449.06
494.268	437.06
494.485	448.06
494.703	457.06
494.92	450.06
495.138	451.06
495.355	440.06
495.573	443.06
495.79	464.06
496.008	456.06
496.225	457.06
496.442	442.06
496.66	480.06
496.877	443.06
497.094	461.06
497.312	451.06
497.529	465.06
497.746	432.06
497.963	484.06
498.181	480.06
498.398	478.06
498.615	512.06
498.832	474.06
499.049	477.06
499.267	490.06
499.484	492.06
499.701	523.06
499.918	515.06
500.135	533.06
500.352	533.06
500.569	556.06
500.786	557.06
501.003	563.06
501.22	530.06
501.437	527.06
501.654	542.06
501.871	545.06
502.088	542.06
502.305	510.06
502.522	472.06
502.739	484.06
502.956	464.06
503.172	454.06
503.389	479.06
503.606	464.06
503.823	459.06
504.04	455.06
504.256	452.06
504.473	460.06
504.69	452.06
504.907	449.06
505.123	423.06
505.34	423.06
505.557	425.06
505.773	444.06
505.99	413.06
506.207	452.06
506.423	432.06
506.64	423.06
506.856	424.06
507.073	423.06
507.289	425.06
507.506	431.06
507.722	436.06
507.939	433.06
508.155	449.06
508.372	435.06
508.588	419.06
508.805	408.06
509.021	446.06
509.238	438.06
509.454	443.06
509.67	436.06
509.887	425.06
510.103	417.06
510.319	430.06
510.536	510.06
510.752	854.06
510.968	658.06
511.184	446.06
511.401	417.06
511.617	396.06
511.833	404.06
512.049	403.06
512.265	396.06
512.481	388.06
512.698	407.06
512.914	418.06
513.13	390.06
513.346	408.06
513.562	387.06
513.778	404.06
513.994	407.06
514.21	426.06
514.426	438.06
514.642	477.06
514.858	497.06
515.074	526.06
515.29	634.06
515.506	928.06
515.721	728.06
515.937	504.06
516.153	435.06
516.369	414.06
516.585	428.06
516.801	404.06
517.016	410.06
517.232	398.06
517.448	399.06
517.664	396.06
517.879	382.06
518.095	396.06
518.311	392.06
518.527	396.06
518.742	388.06
518.958	398.06
519.173	390.06
519.389	408.06
519.605	393.06
519.82	392.06
520.036	416.06
520.251	421.06
520.467	438.06
520.682	446.06
520.898	451.06
521.113	462.06
521.329	513.06
521.544	581.06
521.76	745.06
521.975	1225.06
522.19	1117.06
522.406	617.06
522.621	474.06
522.836	421.06
523.052	390.06
523.267	386.06
523.482	391.06
523.698	344.06
523.913	389.06
524.128	394.06
524.343	361.06
524.559	365.06
524.774	356.06
524.989	356.06
525.204	346.06
525.419	352.06
525.634	331.06
525.849	341.06
526.064	341.06
526.28	340.06
526.495	344.06
526.71	336.06
526.925	327.06
527.14	320.06
527.355	325.06
527.57	338.06
527.785	328.06
527.999	315.06
528.214	322.06
528.429	329.06
528.644	312.06
528.859	332.06
529.074	313.06
529.289	333.06
529.503	412.06
529.718	413.06
529.933	351.06
530.148	344.06
530.363	328.06
530.577	314.06
530.792	317.06
531.007	317.06
531.221	307.06
531.436	308.06
531.651	326.06
531.865	310.06
532.08	321.06
532.295	294.06
532.509	320.06
532.724	310.06
532.938	326.06
533.153	308.06
533.367	308.06
533.582	299.06
533.796	302.06
534.011	317.06
534.225	305.06
534.44	298.06
534.654	297.06
534.868	306.06
535.083	290.06
535.297	301.06
535.511	300.06
535.726	295.06
535.94	308.06
536.154	310.06
536.369	301.06
536.583	313.06
536.797	310.06
537.011	297.06
537.225	277.06
537.44	290.06
537.654	301.06
537.868	300.06
538.082	305.06
538.296	310.06
538.51	288.06
538.724	297.06
538.938	288.06
539.153	288.06
539.367	296.06
539.581	300.06
539.795	313.06
540.009	298.06
540.222	294.06
540.436	317.06
540.65	303.06
540.864	298.06
541.078	295.06
541.292	322.06
541.506	293.06
541.72	310.06
541.934	299.06
542.147	302.06
542.361	294.06
542.575	290.06
542.789	284.06
543.002	297.06
543.216	290.06
543.43	294.06
543.644	323.06
543.857	302.06
544.071	306.06
544.285	300.06
544.498	291.06
544.712	278.06
544.925	288.06
545.139	290.06
545.352	286.06
545.566	294.06
545.779	289.06
545.993	276.06
546.206	276.06
546.42	290.06
546.633	296.06
546.847	300.06
547.06	284.06
547.274	260.06
547.487	273.06
547.7	276.06
547.914	301.06
548.127	292.06
548.34	279.06
548.554	291.06
548.767	277.06
548.98	283.06
549.193	270.06
549.407	271.06
549.62	258.06
549.833	287.06
550.046	275.06
550.259	267.06
550.473	277.06
550.686	277.06
550.899	286.06
551.112	275.06
551.325	273.06
551.538	280.06
551.751	262.06
551.964	278.06
552.177	276.06
552.39	266.06
552.603	272.06
552.816	275.06
553.029	301.06
553.242	297.06
553.455	282.06
553.667	297.06
553.88	288.06
554.093	280.06
554.306	288.06
554.519	286.06
554.732	276.06
554.944	260.06
555.157	270.06
555.37	277.06
555.583	253.06
555.795	265.06
556.008	276.06
556.221	270.06
556.433	270.06
556.646	254.06
556.859	262.06
557.071	253.06
557.284	260.06
557.496	261.06
557.709	256.06
557.921	256.06
558.134	265.06
558.346	258.06
558.559	243.06
558.771	254.06
558.984	251.06
559.196	235.06
559.409	226.06
559.621	240.06
559.833	249.06
560.046	244.06
560.258	256.06
560.47	236.06
560.683	247.06
560.895	260.06
561.107	260.06
561.32	254.06
561.532	256.06
561.744	260.06
561.956	252.06
562.168	241.06
562.381	247.06
562.593	243.06
562.805	248.06
563.017	249.06
563.229	240.06
563.441	245.06
563.653	235.06
563.865	220.06
564.077	262.06
564.289	270.06
564.501	237.06
564.713	270.06
564.925	246.06
565.137	269.06
565.349	250.06
565.561	252.06
565.773	276.06
565.985	261.06
566.197	284.06
566.408	271.06
566.62	260.06
566.832	276.06
567.044	285.06
567.255	282.06
567.467	285.06
567.679	281.06
567.891	281.06
568.102	292.06
568.314	278.06
568.526	283.06
568.737	262.06
568.949	262.06
569.161	261.06
569.372	254.06
569.584	246.06
569.795	252.06
570.007	263.06
570.218	293.06
570.43	267.06
570.641	264.06
570.853	248.06
571.064	242.06
571.276	241.06
571.487	246.06
571.698	246.06
571.91	230.06
572.121	228.06
572.333	229.06
572.544	227.06
572.755	226.06
572.966	237.06
573.178	234.06
573.389	229.06
573.6	225.06
573.811	217.06
574.023	227.06
574.234	223.06
574.445	225.06
574.656	212.06
574.867	211.06
575.078	215.06
575.289	221.06
575.501	213.06
575.712	204.06
575.923	212.06
576.134	220.06
576.345	207.06
576.556	219.06
576.767	215.06
576.978	217.06
577.188	222.06
577.399	221.06
577.61	200.06
577.821	204.06
578.032	230.06
578.243	253.06
578.454	406.06
578.665	301.06
578.875	234.06
579.086	214.06
579.297	215.06
579.508	226.06
579.718	219.06
579.929	216.06
580.14	198.06
580.35	218.06
580.561	193.06
580.772	205.06
580.982	191.06
581.193	199.06
581.403	211.06
581.614	212.06
581.825	213.06
582.035	220.06
582.246	196.06
582.456	205.06
582.667	203.06
582.877	191.06
583.087	198.06
583.298	206.06
583.508	197.06
583.719	209.06
583.929	193.06
584.139	197.06
584.35	195.06
584.56	192.06
584.77	208.06
584.981	211.06
585.191	196.06
585.401	194.06
585.611	186.06
585.821	200.06
586.032	186.06
586.242	200.06
586.452	207.06
586.662	212.06
586.872	202.06
587.082	185.06
587.292	181.06
587.502	187.06
587.713	213.06
587.923	203.06
588.133	192.06
588.343	191.06
588.553	175.06
588.762	195.06
588.972	203.06
589.182	207.06
589.392	195.06
589.602	190.06
589.812	207.06
590.022	198.06
590.232	214.06
590.441	204.06
590.651	192.06
590.861	184.06
591.071	188.06
591.281	191.06
591.49	193.06
591.7	193.06
591.91	203.06
592.119	192.06
592.329	188.06
592.539	209.06
592.748	203.06
592.958	228.06
593.167	196.06
593.377	204.06
593.587	202.06
593.796	206.06
594.006	195.06
594.215	199.06
594.424	188.06
594.634	199.06
594.843	203.06
595.053	186.06
595.262	203.06
595.472	202.06
595.681	181.06
595.89	189.06
596.1	191.06
596.309	198.06
596.518	203.06
596.727	202.06
596.937	174.06
597.146	197.06
597.355	184.06
597.564	166.06
597.774	180.06
597.983	167.06
598.192	184.06
598.401	185.06
598.61	177.06
598.819	193.06
599.028	170.06
599.237	176.06
599.446	176.06
599.655	185.06
599.864	191.06
600.073	174.06
600.282	180.06
600.491	171.06
600.7	170.06
600.909	188.06
601.118	182.06
601.327	185.06
601.536	184.06
601.745	161.06
601.953	184.06
602.162	178.06
602.371	192.06
602.58	174.06
602.789	172.06
602.997	173.06
603.206	172.06
603.415	177.06
603.623	186.06
603.832	171.06
604.041	168.06
604.249	156.06
604.458	171.06
604.666	165.06
604.875	164.06
605.084	177.06
605.292	173.06
605.501	180.06
605.709	157.06
605.918	178.06
606.126	173.06
606.334	174.06
606.543	183.06
606.751	186.06
606.96	175.06
607.168	189.06
607.376	186.06
607.585	181.06
607.793	159.06
608.001	169.06
608.21	184.06
608.418	167.06
608.626	165.06
608.834	171.06
609.043	181.06
609.251	179.06
609.459	184.06
609.667	167.06
609.875	162.06
610.083	168.06
610.291	172.06
610.499	163.06
610.707	177.06
610.916	168.06
611.124	179.06
611.332	165.06
611.54	186.06
611.748	174.06
611.955	161.06
612.163	158.06
612.371	163.06
612.579	168.06
612.787	161.06
612.995	178.06
613.203	185.06
613.411	177.06
613.618	164.06
613.826	162.06
614.034	168.06
614.242	167.06
614.449	177.06
614.657	182.06
614.865	165.06
615.072	168.06
615.28	164.06
615.488	173.06
615.695	176.06
615.903	156.06
616.111	169.06
616.318	170.06
616.526	160.06
616.733	176.06
616.941	170.06
617.148	179.06
617.356	161.06
617.563	159.06
617.771	182.06
617.978	180.06
618.185	164.06
618.393	165.06
618.6	163.06
618.807	152.06
619.015	160.06
619.222	167.06
619.429	163.06
619.637	152.06
619.844	163.06
620.051	164.06
620.258	163.06
620.466	160.06
620.673	156.06
620.88	155.06
621.087	163.06
621.294	147.06
621.501	155.06
621.708	172.06
621.915	152.06
622.122	161.06
622.329	161.06
622.536	162.06
622.743	158.06
622.95	153.06
623.157	137.06
623.364	157.06
623.571	157.06
623.778	168.06
623.985	165.06
624.192	146.06
624.399	167.06
624.606	168.06
624.812	161.06
625.019	164.06
625.226	160.06
625.433	160.06
625.639	149.06
625.846	154.06
626.053	155.06
626.259	157.06
626.466	147.06
626.673	148.06
626.879	156.06
627.086	157.06
627.293	160.06
627.499	161.06
627.706	156.06
627.912	161.06
628.119	150.06
628.325	152.06
628.532	154.06
628.738	128.06
628.945	126.06
629.151	146.06
629.357	157.06
629.564	143.06
629.77	141.06
629.976	148.06
630.183	146.06
630.389	152.06
630.595	155.06
630.802	147.06
631.008	142.06
631.214	139.06
631.42	142.06
631.627	148.06
631.833	154.06
632.039	158.06
632.245	151.06
632.451	146.06
632.657	141.06
632.863	134.06
633.069	148.06
633.275	133.06
633.481	151.06
633.688	134.06
633.893	138.06
634.099	141.06
634.305	134.06
634.511	150.06
634.717	133.06
634.923	132.06
635.129	148.06
635.335	141.06
635.541	128.06
635.747	141.06
635.952	141.06
636.158	142.06
636.364	149.06
636.57	143.06
636.775	142.06
636.981	127.06
637.187	157.06
637.392	136.06
637.598	138.06
637.804	144.06
638.009	146.06
638.215	126.06
638.421	141.06
638.626	124.06
638.832	149.06
639.037	147.06
639.243	130.06
639.448	132.06
639.654	135.06
639.859	134.06
640.065	130.06
640.27	140.06
640.475	140.06
640.681	126.06
640.886	141.06
641.091	139.06
641.297	129.06
641.502	142.06
641.707	134.06
641.913	118.06
642.118	133.06
642.323	140.06
642.528	133.06
642.733	134.06
642.939	145.06
643.144	132.06
643.349	124.06
643.554	153.06
643.759	135.06
643.964	137.06
644.169	132.06
644.374	129.06
644.579	129.06
644.784	147.06
644.989	141.06
645.194	124.06
645.399	122.06
645.604	130.06
645.809	127.06
646.014	139.06
646.219	130.06
646.423	138.06
646.628	139.06
646.833	128.06
647.038	126.06
647.243	124.06
647.447	137.06
647.652	129.06
647.857	128.06
648.062	130.06
648.266	135.06
648.471	118.06
648.676	126.06
648.88	126.06
649.085	131.06
649.289	138.06
649.494	158.06
649.698	155.06
649.903	157.06
650.107	155.06
650.312	133.06
650.516	136.06
650.721	140.06
650.925	108.06
651.13	133.06
651.334	133.06
651.539	132.06
651.743	115.06
651.947	124.06
652.152	138.06
652.356	132.06
652.56	109.06
652.764	116.06
652.969	119.06
653.173	115.06
653.377	119.06
653.581	124.06
653.785	118.06
653.99	120.06
654.194	122.06
654.398	113.06
654.602	107.06
654.806	107.06
655.01	120.06
655.214	132.06
655.418	120.06
655.622	120.06
655.826	127.06
656.03	113.06
656.234	121.06
656.438	130.06
656.642	113.06
656.846	119.06
657.049	108.06
657.253	106.06
657.457	107.06
657.661	103.06
657.865	110.06
658.068	108.06
658.272	99.06
658.476	101.06
658.68	92.06
658.883	101.06
659.087	90.06
659.291	92.06
659.494	117.06
659.698	99.06
659.901	100.06
660.105	88.06
660.309	101.06
660.512	90.06
660.716	88.06
660.919	86.06
661.123	93.06
661.326	71.06
661.53	81.06
661.733	90.06
661.936	88.06
662.14	83.06
662.343	93.06
662.546	110.06
662.75	85.06
662.953	86.06
663.156	81.06
663.36	85.06
663.563	96.06
663.766	81.06
663.969	76.06
664.173	85.06
664.376	94.06
664.579	89.06
664.782	66.06
664.985	87.06
665.188	94.06
665.391	90.06
665.594	64.06
665.797	103.06
666	81.06
666.203	76.06
666.406	89.06
666.609	66.06
666.812	84.06
667.015	87.06
667.218	88.06
667.421	76.06
667.624	84.06
667.827	85.06
668.03	85.06
668.232	84.06
668.435	87.06
668.638	85.06
668.841	84.06
669.043	85.06
669.246	82.06
669.449	77.06
669.651	88.06
669.854	83.06
670.057	92.06
670.259	79.06
670.462	83.06
670.665	80.06
670.867	97.06
671.07	77.06
671.272	92.06
671.475	93.06
671.677	81.06
671.88	74.06
672.082	99.06
672.284	90.06
672.487	82.06
672.689	87.06
672.892	75.06
