Data from 1982.PennyLincolnUp.Lamp.En5.5.200Scan.071819.P1_HRD10591_16-46-04-961.txt Node
Date: Thu Jul 18 16:46:04 EDT 2019
User: cochatt
Spectrometer: HR+D1059
Trigger mode: 1
Integration Time (sec): 1.000000E-1
Scans to average: 1
Electric dark correction enabled: true
Nonlinearity correction enabled: false
Boxcar width: 0
XAxis mode: Wavelengths
Number of Pixels in Spectrum: 2048
>>>>>Begin Spectral Data<<<<<
223.165	-6.94
223.4	-6.94
223.635	-6.94
223.869	-28.94
224.104	-14.94
224.338	0.06
224.573	-23.94
224.808	-17.94
225.042	-11.94
225.277	10.06
225.511	-6.94
225.746	-7.94
225.98	5.06
226.215	11.06
226.449	10.06
226.683	24.06
226.918	23.06
227.152	36.06
227.387	23.06
227.621	37.06
227.856	43.06
228.09	49.06
228.324	47.06
228.559	45.06
228.793	67.06
229.027	78.06
229.262	99.06
229.496	103.06
229.73	104.06
229.964	107.06
230.199	113.06
230.433	109.06
230.667	82.06
230.901	77.06
231.136	80.06
231.37	97.06
231.604	102.06
231.838	93.06
232.072	97.06
232.306	103.06
232.541	97.06
232.775	88.06
233.009	94.06
233.243	98.06
233.477	86.06
233.711	110.06
233.945	104.06
234.179	103.06
234.413	105.06
234.647	106.06
234.881	99.06
235.115	96.06
235.349	100.06
235.583	105.06
235.817	115.06
236.051	110.06
236.285	102.06
236.519	98.06
236.753	100.06
236.987	117.06
237.221	145.06
237.455	171.06
237.689	162.06
237.922	103.06
238.156	122.06
238.39	113.06
238.624	110.06
238.858	109.06
239.091	109.06
239.325	116.06
239.559	102.06
239.793	97.06
240.027	93.06
240.26	123.06
240.494	125.06
240.728	116.06
240.961	129.06
241.195	109.06
241.429	121.06
241.662	106.06
241.896	118.06
242.13	122.06
242.363	120.06
242.597	105.06
242.83	113.06
243.064	106.06
243.298	112.06
243.531	130.06
243.765	121.06
243.998	133.06
244.232	103.06
244.465	119.06
244.699	116.06
244.932	127.06
245.166	115.06
245.399	125.06
245.633	120.06
245.866	119.06
246.099	115.06
246.333	113.06
246.566	106.06
246.8	125.06
247.033	117.06
247.266	126.06
247.5	125.06
247.733	149.06
247.966	150.06
248.2	126.06
248.433	147.06
248.666	141.06
248.899	147.06
249.133	136.06
249.366	169.06
249.599	157.06
249.832	154.06
250.066	133.06
250.299	142.06
250.532	148.06
250.765	164.06
250.998	174.06
251.231	183.06
251.465	168.06
251.698	161.06
251.931	181.06
252.164	155.06
252.397	161.06
252.63	163.06
252.863	155.06
253.096	164.06
253.329	177.06
253.562	175.06
253.795	156.06
254.028	158.06
254.261	151.06
254.494	193.06
254.727	209.06
254.96	187.06
255.193	183.06
255.426	193.06
255.659	181.06
255.892	185.06
256.124	192.06
256.357	166.06
256.59	159.06
256.823	166.06
257.056	165.06
257.289	168.06
257.521	151.06
257.754	165.06
257.987	176.06
258.22	174.06
258.452	166.06
258.685	165.06
258.918	166.06
259.151	177.06
259.383	167.06
259.616	182.06
259.849	171.06
260.081	177.06
260.314	192.06
260.547	188.06
260.779	166.06
261.012	162.06
261.244	174.06
261.477	182.06
261.71	166.06
261.942	170.06
262.175	191.06
262.407	185.06
262.64	177.06
262.872	177.06
263.105	170.06
263.337	167.06
263.57	158.06
263.802	167.06
264.035	167.06
264.267	162.06
264.499	167.06
264.732	163.06
264.964	163.06
265.197	159.06
265.429	159.06
265.661	182.06
265.894	166.06
266.126	164.06
266.358	156.06
266.591	168.06
266.823	178.06
267.055	162.06
267.287	165.06
267.52	173.06
267.752	176.06
267.984	181.06
268.216	181.06
268.448	180.06
268.681	189.06
268.913	175.06
269.145	213.06
269.377	216.06
269.609	197.06
269.841	213.06
270.073	221.06
270.306	234.06
270.538	261.06
270.77	234.06
271.002	234.06
271.234	221.06
271.466	232.06
271.698	243.06
271.93	239.06
272.162	242.06
272.394	231.06
272.626	229.06
272.858	236.06
273.09	209.06
273.322	190.06
273.553	219.06
273.785	205.06
274.017	209.06
274.249	190.06
274.481	203.06
274.713	205.06
274.945	205.06
275.176	207.06
275.408	196.06
275.64	203.06
275.872	202.06
276.104	191.06
276.335	212.06
276.567	214.06
276.799	221.06
277.031	225.06
277.262	231.06
277.494	233.06
277.726	227.06
277.957	200.06
278.189	233.06
278.421	212.06
278.652	218.06
278.884	201.06
279.115	214.06
279.347	202.06
279.579	197.06
279.81	196.06
280.042	219.06
280.273	200.06
280.505	189.06
280.736	198.06
280.968	216.06
281.199	195.06
281.431	206.06
281.662	201.06
281.894	185.06
282.125	204.06
282.356	213.06
282.588	221.06
282.819	237.06
283.051	229.06
283.282	208.06
283.513	201.06
283.745	212.06
283.976	217.06
284.207	221.06
284.439	206.06
284.67	198.06
284.901	202.06
285.132	210.06
285.364	211.06
285.595	201.06
285.826	215.06
286.057	211.06
286.288	207.06
286.52	197.06
286.751	229.06
286.982	214.06
287.213	199.06
287.444	218.06
287.675	207.06
287.906	226.06
288.138	232.06
288.369	226.06
288.6	223.06
288.831	215.06
289.062	198.06
289.293	232.06
289.524	215.06
289.755	207.06
289.986	205.06
290.217	221.06
290.448	223.06
290.679	208.06
290.91	207.06
291.141	205.06
291.371	230.06
291.602	210.06
291.833	214.06
292.064	222.06
292.295	217.06
292.526	213.06
292.757	202.06
292.987	227.06
293.218	213.06
293.449	226.06
293.68	210.06
293.91	227.06
294.141	215.06
294.372	213.06
294.603	215.06
294.833	235.06
295.064	223.06
295.295	209.06
295.525	230.06
295.756	219.06
295.987	241.06
296.217	247.06
296.448	247.06
296.679	222.06
296.909	235.06
297.14	224.06
297.37	215.06
297.601	228.06
297.831	218.06
298.062	228.06
298.292	231.06
298.523	226.06
298.753	231.06
298.984	229.06
299.214	232.06
299.445	225.06
299.675	225.06
299.905	228.06
300.136	235.06
300.366	226.06
300.597	241.06
300.827	219.06
301.057	241.06
301.288	250.06
301.518	249.06
301.748	235.06
301.979	227.06
302.209	228.06
302.439	214.06
302.669	242.06
302.9	254.06
303.13	239.06
303.36	238.06
303.59	243.06
303.82	256.06
304.051	237.06
304.281	247.06
304.511	241.06
304.741	238.06
304.971	238.06
305.201	247.06
305.431	250.06
305.661	243.06
305.891	244.06
306.121	241.06
306.352	250.06
306.582	245.06
306.812	235.06
307.042	258.06
307.272	234.06
307.502	256.06
307.731	256.06
307.961	258.06
308.191	259.06
308.421	230.06
308.651	237.06
308.881	249.06
309.111	251.06
309.341	254.06
309.571	256.06
309.8	259.06
310.03	281.06
310.26	286.06
310.49	296.06
310.72	282.06
310.949	295.06
311.179	278.06
311.409	272.06
311.639	285.06
311.868	271.06
312.098	280.06
312.328	279.06
312.557	289.06
312.787	299.06
313.017	305.06
313.246	291.06
313.476	291.06
313.706	285.06
313.935	292.06
314.165	298.06
314.394	307.06
314.624	295.06
314.853	302.06
315.083	270.06
315.312	287.06
315.542	300.06
315.771	275.06
316.001	286.06
316.23	286.06
316.46	302.06
316.689	284.06
316.919	279.06
317.148	277.06
317.377	319.06
317.607	303.06
317.836	293.06
318.065	284.06
318.295	266.06
318.524	278.06
318.753	285.06
318.983	281.06
319.212	306.06
319.441	281.06
319.67	289.06
319.9	275.06
320.129	281.06
320.358	274.06
320.587	288.06
320.816	283.06
321.046	280.06
321.275	314.06
321.504	296.06
321.733	306.06
321.962	313.06
322.191	323.06
322.42	325.06
322.649	358.06
322.878	337.06
323.108	345.06
323.337	395.06
323.566	379.06
323.795	422.06
324.024	481.06
324.253	595.06
324.482	854.06
324.71	1295.06
324.939	1667.06
325.168	1395.06
325.397	716.06
325.626	496.06
325.855	427.06
326.084	410.06
326.313	373.06
326.542	379.06
326.77	431.06
326.999	533.06
327.228	749.06
327.457	1099.06
327.686	1198.06
327.914	843.06
328.143	556.06
328.372	467.06
328.6	481.06
328.829	414.06
329.058	439.06
329.287	435.06
329.515	405.06
329.744	372.06
329.972	378.06
330.201	381.06
330.43	447.06
330.658	449.06
330.887	456.06
331.115	468.06
331.344	417.06
331.572	379.06
331.801	380.06
332.03	371.06
332.258	363.06
332.486	339.06
332.715	324.06
332.943	326.06
333.172	347.06
333.4	334.06
333.629	346.06
333.857	342.06
334.085	358.06
334.314	361.06
334.542	385.06
334.771	368.06
334.999	354.06
335.227	329.06
335.455	351.06
335.684	321.06
335.912	321.06
336.14	313.06
336.369	317.06
336.597	327.06
336.825	323.06
337.053	341.06
337.281	326.06
337.51	297.06
337.738	331.06
337.966	307.06
338.194	321.06
338.422	312.06
338.65	328.06
338.878	298.06
339.106	312.06
339.334	301.06
339.562	297.06
339.79	322.06
340.018	312.06
340.246	313.06
340.474	313.06
340.702	305.06
340.93	298.06
341.158	322.06
341.386	307.06
341.614	303.06
341.842	298.06
342.07	291.06
342.298	305.06
342.526	305.06
342.754	299.06
342.981	285.06
343.209	285.06
343.437	296.06
343.665	297.06
343.893	291.06
344.12	307.06
344.348	322.06
344.576	306.06
344.804	312.06
345.031	338.06
345.259	320.06
345.487	319.06
345.714	294.06
345.942	303.06
346.17	304.06
346.397	308.06
346.625	328.06
346.853	295.06
347.08	305.06
347.308	289.06
347.535	296.06
347.763	312.06
347.99	303.06
348.218	314.06
348.445	318.06
348.673	310.06
348.9	308.06
349.128	285.06
349.355	285.06
349.583	286.06
349.81	283.06
350.037	279.06
350.265	288.06
350.492	276.06
350.72	299.06
350.947	286.06
351.174	316.06
351.402	311.06
351.629	330.06
351.856	289.06
352.083	301.06
352.311	310.06
352.538	300.06
352.765	306.06
352.992	317.06
353.22	295.06
353.447	293.06
353.674	303.06
353.901	285.06
354.128	272.06
354.355	289.06
354.583	284.06
354.81	278.06
355.037	264.06
355.264	270.06
355.491	267.06
355.718	263.06
355.945	270.06
356.172	282.06
356.399	290.06
356.626	278.06
356.853	287.06
357.08	277.06
357.307	276.06
357.534	269.06
357.761	285.06
357.988	265.06
358.215	271.06
358.441	282.06
358.668	268.06
358.895	281.06
359.122	280.06
359.349	285.06
359.576	304.06
359.802	309.06
360.029	328.06
360.256	335.06
360.483	337.06
360.709	304.06
360.936	287.06
361.163	311.06
361.39	296.06
361.616	293.06
361.843	304.06
362.07	283.06
362.296	289.06
362.523	293.06
362.749	286.06
362.976	281.06
363.203	302.06
363.429	269.06
363.656	296.06
363.882	277.06
364.109	281.06
364.335	280.06
364.562	277.06
364.788	285.06
365.015	265.06
365.241	275.06
365.468	281.06
365.694	280.06
365.92	291.06
366.147	272.06
366.373	260.06
366.599	285.06
366.826	281.06
367.052	262.06
367.278	279.06
367.505	276.06
367.731	282.06
367.957	260.06
368.184	285.06
368.41	284.06
368.636	286.06
368.862	285.06
369.089	287.06
369.315	274.06
369.541	267.06
369.767	281.06
369.993	272.06
370.219	268.06
370.445	259.06
370.672	273.06
370.898	278.06
371.124	244.06
371.35	274.06
371.576	253.06
371.802	261.06
372.028	273.06
372.254	274.06
372.48	264.06
372.706	253.06
372.932	284.06
373.158	284.06
373.384	286.06
373.61	270.06
373.835	275.06
374.061	272.06
374.287	261.06
374.513	280.06
374.739	259.06
374.965	273.06
375.191	267.06
375.416	267.06
375.642	277.06
375.868	293.06
376.094	259.06
376.319	267.06
376.545	261.06
376.771	261.06
376.997	266.06
377.222	271.06
377.448	250.06
377.674	263.06
377.899	258.06
378.125	275.06
378.35	256.06
378.576	274.06
378.802	274.06
379.027	265.06
379.253	254.06
379.478	251.06
379.704	258.06
379.929	259.06
380.155	253.06
380.38	239.06
380.606	248.06
380.831	277.06
381.057	277.06
381.282	276.06
381.507	263.06
381.733	262.06
381.958	260.06
382.184	272.06
382.409	263.06
382.634	271.06
382.86	247.06
383.085	252.06
383.31	271.06
383.535	291.06
383.761	270.06
383.986	274.06
384.211	276.06
384.436	277.06
384.662	269.06
384.887	269.06
385.112	276.06
385.337	271.06
385.562	267.06
385.787	258.06
386.013	273.06
386.238	284.06
386.463	279.06
386.688	269.06
386.913	273.06
387.138	267.06
387.363	276.06
387.588	277.06
387.813	274.06
388.038	266.06
388.263	282.06
388.488	270.06
388.713	294.06
388.938	287.06
389.163	290.06
389.387	275.06
389.612	259.06
389.837	286.06
390.062	288.06
390.287	279.06
390.512	268.06
390.736	276.06
390.961	266.06
391.186	282.06
391.411	269.06
391.636	281.06
391.86	290.06
392.085	273.06
392.31	290.06
392.534	279.06
392.759	278.06
392.984	274.06
393.208	266.06
393.433	258.06
393.658	274.06
393.882	283.06
394.107	270.06
394.331	275.06
394.556	274.06
394.78	264.06
395.005	275.06
395.229	280.06
395.454	281.06
395.678	279.06
395.903	279.06
396.127	291.06
396.352	307.06
396.576	278.06
396.801	280.06
397.025	273.06
397.249	296.06
397.474	295.06
397.698	281.06
397.922	299.06
398.147	311.06
398.371	321.06
398.595	308.06
398.82	287.06
399.044	294.06
399.268	299.06
399.492	314.06
399.717	330.06
399.941	332.06
400.165	347.06
400.389	382.06
400.613	353.06
400.837	333.06
401.062	317.06
401.286	309.06
401.51	303.06
401.734	313.06
401.958	322.06
402.182	317.06
402.406	313.06
402.63	315.06
402.854	288.06
403.078	297.06
403.302	317.06
403.526	327.06
403.75	308.06
403.974	311.06
404.198	306.06
404.422	307.06
404.645	319.06
404.869	331.06
405.093	323.06
405.317	369.06
405.541	363.06
405.765	360.06
405.988	354.06
406.212	324.06
406.436	361.06
406.66	371.06
406.883	357.06
407.107	365.06
407.331	377.06
407.555	407.06
407.778	404.06
408.002	386.06
408.226	339.06
408.449	357.06
408.673	354.06
408.896	337.06
409.12	389.06
409.344	360.06
409.567	313.06
409.791	313.06
410.014	320.06
410.238	313.06
410.461	341.06
410.685	321.06
410.908	317.06
411.132	355.06
411.355	366.06
411.578	364.06
411.802	315.06
412.025	292.06
412.249	328.06
412.472	344.06
412.695	350.06
412.919	341.06
413.142	309.06
413.365	314.06
413.589	313.06
413.812	297.06
414.035	307.06
414.258	316.06
414.482	294.06
414.705	291.06
414.928	280.06
415.151	289.06
415.374	267.06
415.597	299.06
415.821	272.06
416.044	304.06
416.267	305.06
416.49	294.06
416.713	296.06
416.936	299.06
417.159	272.06
417.382	292.06
417.605	304.06
417.828	321.06
418.051	314.06
418.274	293.06
418.497	283.06
418.72	322.06
418.943	287.06
419.166	293.06
419.389	305.06
419.611	317.06
419.834	300.06
420.057	325.06
420.28	307.06
420.503	322.06
420.726	298.06
420.948	324.06
421.171	347.06
421.394	369.06
421.617	303.06
421.839	319.06
422.062	318.06
422.285	306.06
422.507	356.06
422.73	393.06
422.953	377.06
423.175	342.06
423.398	324.06
423.621	340.06
423.843	341.06
424.066	337.06
424.288	325.06
424.511	349.06
424.733	385.06
424.956	435.06
425.178	414.06
425.401	429.06
425.623	421.06
425.846	373.06
426.068	338.06
426.291	346.06
426.513	335.06
426.735	354.06
426.958	393.06
427.18	429.06
427.402	501.06
427.625	559.06
427.847	498.06
428.069	455.06
428.292	365.06
428.514	342.06
428.736	322.06
428.958	315.06
429.181	325.06
429.403	317.06
429.625	312.06
429.847	357.06
430.069	378.06
430.292	388.06
430.514	315.06
430.736	330.06
430.958	314.06
431.18	309.06
431.402	297.06
431.624	286.06
431.846	281.06
432.068	293.06
432.29	297.06
432.512	296.06
432.734	289.06
432.956	311.06
433.178	313.06
433.4	299.06
433.622	310.06
433.844	296.06
434.066	297.06
434.287	295.06
434.509	285.06
434.731	286.06
434.953	303.06
435.175	310.06
435.397	346.06
435.618	331.06
435.84	371.06
436.062	407.06
436.284	474.06
436.505	395.06
436.727	363.06
436.949	343.06
437.17	323.06
437.392	323.06
437.614	326.06
437.835	371.06
438.057	410.06
438.278	489.06
438.5	448.06
438.721	506.06
438.943	478.06
439.165	382.06
439.386	354.06
439.608	353.06
439.829	360.06
440.05	384.06
440.272	397.06
440.493	378.06
440.715	337.06
440.936	323.06
441.158	323.06
441.379	321.06
441.6	325.06
441.822	334.06
442.043	377.06
442.264	412.06
442.486	448.06
442.707	359.06
442.928	367.06
443.149	357.06
443.371	369.06
443.592	397.06
443.813	441.06
444.034	482.06
444.255	381.06
444.476	365.06
444.698	343.06
444.919	338.06
445.14	415.06
445.361	383.06
445.582	372.06
445.803	418.06
446.024	493.06
446.245	475.06
446.466	425.06
446.687	382.06
446.908	357.06
447.129	337.06
447.35	341.06
447.571	316.06
447.792	325.06
448.013	331.06
448.234	349.06
448.455	372.06
448.675	439.06
448.896	502.06
449.117	442.06
449.338	398.06
449.559	466.06
449.779	509.06
450	410.06
450.221	354.06
450.442	328.06
450.662	304.06
450.883	329.06
451.104	345.06
451.324	328.06
451.545	302.06
451.766	294.06
451.986	296.06
452.207	286.06
452.428	286.06
452.648	272.06
452.869	323.06
453.089	317.06
453.31	312.06
453.53	291.06
453.751	284.06
453.971	285.06
454.192	301.06
454.412	322.06
454.633	305.06
454.853	275.06
455.073	305.06
455.294	320.06
455.514	349.06
455.734	339.06
455.955	270.06
456.175	277.06
456.395	268.06
456.616	281.06
456.836	268.06
457.056	262.06
457.276	259.06
457.497	273.06
457.717	257.06
457.937	264.06
458.157	275.06
458.377	283.06
458.598	312.06
458.818	327.06
459.038	386.06
459.258	391.06
459.478	312.06
459.698	297.06
459.918	295.06
460.138	290.06
460.358	281.06
460.578	294.06
460.798	282.06
461.018	285.06
461.238	295.06
461.458	275.06
461.678	280.06
461.898	293.06
462.118	264.06
462.338	294.06
462.558	284.06
462.777	313.06
462.997	309.06
463.217	319.06
463.437	310.06
463.657	303.06
463.876	291.06
464.096	297.06
464.316	305.06
464.536	316.06
464.755	323.06
464.975	336.06
465.195	343.06
465.414	397.06
465.634	351.06
465.854	326.06
466.073	294.06
466.293	302.06
466.512	298.06
466.732	291.06
466.951	272.06
467.171	290.06
467.391	293.06
467.61	313.06
467.829	290.06
468.049	291.06
468.268	293.06
468.488	289.06
468.707	270.06
468.927	291.06
469.146	280.06
469.365	290.06
469.585	279.06
469.804	289.06
470.023	311.06
470.243	292.06
470.462	303.06
470.681	325.06
470.901	309.06
471.12	294.06
471.339	282.06
471.558	287.06
471.777	312.06
471.997	282.06
472.216	281.06
472.435	315.06
472.654	304.06
472.873	287.06
473.092	293.06
473.311	294.06
473.53	287.06
473.749	294.06
473.968	346.06
474.187	395.06
474.406	403.06
474.625	337.06
474.844	302.06
475.063	297.06
475.282	301.06
475.501	288.06
475.72	321.06
475.939	317.06
476.158	297.06
476.377	271.06
476.596	312.06
476.814	307.06
477.033	317.06
477.252	312.06
477.471	305.06
477.69	303.06
477.908	312.06
478.127	305.06
478.346	307.06
478.564	333.06
478.783	311.06
479.002	320.06
479.22	346.06
479.439	329.06
479.658	358.06
479.876	349.06
480.095	347.06
480.313	367.06
480.532	367.06
480.751	359.06
480.969	348.06
481.188	403.06
481.406	412.06
481.624	373.06
481.843	349.06
482.061	351.06
482.28	343.06
482.498	329.06
482.717	337.06
482.935	333.06
483.153	337.06
483.372	354.06
483.59	350.06
483.808	334.06
484.027	338.06
484.245	351.06
484.463	335.06
484.681	345.06
484.9	340.06
485.118	356.06
485.336	328.06
485.554	349.06
485.772	343.06
485.99	355.06
486.209	355.06
486.427	356.06
486.645	369.06
486.863	373.06
487.081	361.06
487.299	367.06
487.517	365.06
487.735	367.06
487.953	351.06
488.171	351.06
488.389	362.06
488.607	353.06
488.825	359.06
489.043	355.06
489.261	364.06
489.479	360.06
489.696	369.06
489.914	365.06
490.132	372.06
490.35	374.06
490.568	373.06
490.786	378.06
491.003	374.06
491.221	380.06
491.439	387.06
491.657	426.06
491.874	421.06
492.092	387.06
492.31	417.06
492.527	411.06
492.745	437.06
492.963	434.06
493.18	399.06
493.398	407.06
493.615	437.06
493.833	433.06
494.05	434.06
494.268	427.06
494.485	423.06
494.703	429.06
494.92	416.06
495.138	420.06
495.355	421.06
495.573	427.06
495.79	433.06
496.008	425.06
496.225	429.06
496.442	428.06
496.66	443.06
496.877	409.06
497.094	439.06
497.312	417.06
497.529	434.06
497.746	440.06
497.963	424.06
498.181	444.06
498.398	458.06
498.615	454.06
498.832	452.06
499.049	462.06
499.267	468.06
499.484	487.06
499.701	496.06
499.918	500.06
500.135	516.06
500.352	515.06
500.569	525.06
500.786	531.06
501.003	531.06
501.22	508.06
501.437	529.06
501.654	521.06
501.871	530.06
502.088	528.06
502.305	468.06
502.522	461.06
502.739	460.06
502.956	445.06
503.172	429.06
503.389	426.06
503.606	417.06
503.823	459.06
504.04	415.06
504.256	432.06
504.473	426.06
504.69	419.06
504.907	413.06
505.123	432.06
505.34	426.06
505.557	420.06
505.773	396.06
505.99	416.06
506.207	400.06
506.423	402.06
506.64	410.06
506.856	401.06
507.073	415.06
507.289	409.06
507.506	395.06
507.722	422.06
507.939	418.06
508.155	401.06
508.372	410.06
508.588	396.06
508.805	391.06
509.021	394.06
509.238	406.06
509.454	409.06
509.67	431.06
509.887	385.06
510.103	401.06
510.319	403.06
510.536	475.06
510.752	801.06
510.968	614.06
511.184	410.06
511.401	386.06
511.617	373.06
511.833	385.06
512.049	385.06
512.265	369.06
512.481	394.06
512.698	376.06
512.914	378.06
513.13	391.06
513.346	381.06
513.562	390.06
513.778	375.06
513.994	387.06
514.21	417.06
514.426	415.06
514.642	452.06
514.858	451.06
515.074	481.06
515.29	588.06
515.506	873.06
515.721	706.06
515.937	470.06
516.153	437.06
516.369	417.06
516.585	392.06
516.801	378.06
517.016	385.06
517.232	402.06
517.448	385.06
517.664	390.06
517.879	389.06
518.095	361.06
518.311	398.06
518.527	375.06
518.742	363.06
518.958	361.06
519.173	392.06
519.389	400.06
519.605	373.06
519.82	385.06
520.036	405.06
520.251	405.06
520.467	410.06
520.682	429.06
520.898	420.06
521.113	432.06
521.329	473.06
521.544	537.06
521.76	711.06
521.975	1152.06
522.19	1066.06
522.406	606.06
522.621	438.06
522.836	413.06
523.052	390.06
523.267	375.06
523.482	359.06
523.698	360.06
523.913	330.06
524.128	369.06
524.343	366.06
524.559	341.06
524.774	314.06
524.989	334.06
525.204	350.06
525.419	347.06
525.634	322.06
525.849	329.06
526.064	335.06
526.28	322.06
526.495	320.06
526.71	318.06
526.925	303.06
527.14	312.06
527.355	306.06
527.57	311.06
527.785	333.06
527.999	308.06
528.214	311.06
528.429	312.06
528.644	323.06
528.859	314.06
529.074	315.06
529.289	315.06
529.503	374.06
529.718	369.06
529.933	344.06
530.148	326.06
530.363	330.06
530.577	294.06
530.792	310.06
531.007	305.06
531.221	311.06
531.436	289.06
531.651	291.06
531.865	307.06
532.08	301.06
532.295	295.06
532.509	316.06
532.724	290.06
532.938	292.06
533.153	302.06
533.367	277.06
533.582	303.06
533.796	287.06
534.011	296.06
534.225	295.06
534.44	266.06
534.654	274.06
534.868	291.06
535.083	298.06
535.297	286.06
535.511	295.06
535.726	294.06
535.94	292.06
536.154	299.06
536.369	293.06
536.583	275.06
536.797	282.06
537.011	289.06
537.225	278.06
537.44	270.06
537.654	273.06
537.868	299.06
538.082	288.06
538.296	286.06
538.51	295.06
538.724	288.06
538.938	275.06
539.153	298.06
539.367	306.06
539.581	277.06
539.795	286.06
540.009	287.06
540.222	279.06
540.436	299.06
540.65	293.06
540.864	286.06
541.078	309.06
541.292	302.06
541.506	297.06
541.72	285.06
541.934	276.06
542.147	282.06
542.361	281.06
542.575	279.06
542.789	291.06
543.002	295.06
543.216	277.06
543.43	280.06
543.644	286.06
543.857	294.06
544.071	276.06
544.285	288.06
544.498	267.06
544.712	290.06
544.925	285.06
545.139	271.06
545.352	287.06
545.566	287.06
545.779	273.06
545.993	301.06
546.206	282.06
546.42	284.06
546.633	270.06
546.847	266.06
547.06	279.06
547.274	263.06
547.487	275.06
547.7	283.06
547.914	274.06
548.127	257.06
548.34	283.06
548.554	259.06
548.767	271.06
548.98	267.06
549.193	266.06
549.407	265.06
549.62	259.06
549.833	269.06
550.046	267.06
550.259	258.06
550.473	267.06
550.686	257.06
550.899	276.06
551.112	283.06
551.325	267.06
551.538	272.06
551.751	249.06
551.964	260.06
552.177	273.06
552.39	268.06
552.603	264.06
552.816	269.06
553.029	253.06
553.242	264.06
553.455	275.06
553.667	295.06
553.88	290.06
554.093	270.06
554.306	267.06
554.519	256.06
554.732	256.06
554.944	265.06
555.157	252.06
555.37	251.06
555.583	265.06
555.795	247.06
556.008	242.06
556.221	247.06
556.433	246.06
556.646	243.06
556.859	247.06
557.071	247.06
557.284	246.06
557.496	234.06
557.709	248.06
557.921	249.06
558.134	257.06
558.346	257.06
558.559	250.06
558.771	253.06
558.984	227.06
559.196	232.06
559.409	239.06
559.621	254.06
559.833	240.06
560.046	239.06
560.258	242.06
560.47	257.06
560.683	235.06
560.895	226.06
561.107	242.06
561.32	231.06
561.532	227.06
561.744	249.06
561.956	261.06
562.168	239.06
562.381	238.06
562.593	246.06
562.805	241.06
563.017	216.06
563.229	234.06
563.441	251.06
563.653	240.06
563.865	255.06
564.077	238.06
564.289	237.06
564.501	255.06
564.713	247.06
564.925	237.06
565.137	260.06
565.349	240.06
565.561	257.06
565.773	263.06
565.985	251.06
566.197	257.06
566.408	267.06
566.62	263.06
566.832	259.06
567.044	266.06
567.255	274.06
567.467	268.06
567.679	267.06
567.891	280.06
568.102	282.06
568.314	280.06
568.526	264.06
568.737	275.06
568.949	255.06
569.161	263.06
569.372	258.06
569.584	261.06
569.795	237.06
570.007	249.06
570.218	291.06
570.43	282.06
570.641	226.06
570.853	207.06
571.064	205.06
571.276	219.06
571.487	222.06
571.698	216.06
571.91	225.06
572.121	221.06
572.333	224.06
572.544	231.06
572.755	200.06
572.966	220.06
573.178	219.06
573.389	216.06
573.6	218.06
573.811	221.06
574.023	222.06
574.234	212.06
574.445	231.06
574.656	205.06
574.867	205.06
575.078	211.06
575.289	202.06
575.501	216.06
575.712	207.06
575.923	213.06
576.134	213.06
576.345	201.06
576.556	204.06
576.767	200.06
576.978	208.06
577.188	201.06
577.399	209.06
577.61	206.06
577.821	202.06
578.032	212.06
578.243	229.06
578.454	390.06
578.665	294.06
578.875	222.06
579.086	189.06
579.297	215.06
579.508	207.06
579.718	206.06
579.929	222.06
580.14	200.06
580.35	207.06
580.561	201.06
580.772	199.06
580.982	193.06
581.193	202.06
581.403	199.06
581.614	192.06
581.825	199.06
582.035	186.06
582.246	200.06
582.456	215.06
582.667	197.06
582.877	209.06
583.087	209.06
583.298	194.06
583.508	211.06
583.719	199.06
583.929	209.06
584.139	193.06
584.35	201.06
584.56	197.06
584.77	168.06
584.981	180.06
585.191	193.06
585.401	187.06
585.611	202.06
585.821	190.06
586.032	212.06
586.242	193.06
586.452	187.06
586.662	180.06
586.872	198.06
587.082	196.06
587.292	200.06
587.502	185.06
587.713	175.06
587.923	197.06
588.133	192.06
588.343	213.06
588.553	191.06
588.762	196.06
588.972	195.06
589.182	191.06
589.392	192.06
589.602	187.06
589.812	184.06
590.022	203.06
590.232	178.06
590.441	196.06
590.651	199.06
590.861	204.06
591.071	189.06
591.281	195.06
591.49	183.06
591.7	185.06
591.91	196.06
592.119	182.06
592.329	187.06
592.539	188.06
592.748	185.06
592.958	201.06
593.167	189.06
593.377	187.06
593.587	210.06
593.796	189.06
594.006	196.06
594.215	200.06
594.424	199.06
594.634	194.06
594.843	184.06
595.053	185.06
595.262	207.06
595.472	198.06
595.681	188.06
595.89	177.06
596.1	204.06
596.309	189.06
596.518	165.06
596.727	183.06
596.937	170.06
597.146	179.06
597.355	191.06
597.564	177.06
597.774	165.06
597.983	185.06
598.192	198.06
598.401	177.06
598.61	193.06
598.819	174.06
599.028	178.06
599.237	180.06
599.446	173.06
599.655	171.06
599.864	173.06
600.073	176.06
600.282	177.06
600.491	169.06
600.7	187.06
600.909	167.06
601.118	165.06
601.327	155.06
601.536	176.06
601.745	164.06
601.953	186.06
602.162	180.06
602.371	165.06
602.58	153.06
602.789	171.06
602.997	149.06
603.206	167.06
603.415	175.06
603.623	165.06
603.832	162.06
604.041	167.06
604.249	173.06
604.458	182.06
604.666	162.06
604.875	166.06
605.084	154.06
605.292	165.06
605.501	170.06
605.709	181.06
605.918	170.06
606.126	175.06
606.334	144.06
606.543	153.06
606.751	151.06
606.96	162.06
607.168	184.06
607.376	168.06
607.585	169.06
607.793	170.06
608.001	167.06
608.21	177.06
608.418	169.06
608.626	165.06
608.834	150.06
609.043	150.06
609.251	170.06
609.459	173.06
609.667	161.06
609.875	176.06
610.083	165.06
610.291	159.06
610.499	166.06
610.707	156.06
610.916	144.06
611.124	162.06
611.332	166.06
611.54	174.06
611.748	173.06
611.955	153.06
612.163	155.06
612.371	155.06
612.579	167.06
612.787	139.06
612.995	171.06
613.203	156.06
613.411	163.06
613.618	173.06
613.826	170.06
614.034	177.06
614.242	167.06
614.449	153.06
614.657	162.06
614.865	177.06
615.072	184.06
615.28	153.06
615.488	158.06
615.695	158.06
615.903	154.06
616.111	158.06
616.318	151.06
616.526	152.06
616.733	159.06
616.941	171.06
617.148	158.06
617.356	158.06
617.563	150.06
617.771	175.06
617.978	166.06
618.185	147.06
618.393	168.06
618.6	137.06
618.807	157.06
619.015	155.06
619.222	149.06
619.429	128.06
619.637	157.06
619.844	159.06
620.051	147.06
620.258	154.06
620.466	149.06
620.673	164.06
620.88	149.06
621.087	156.06
621.294	166.06
621.501	167.06
621.708	148.06
621.915	156.06
622.122	162.06
622.329	153.06
622.536	161.06
622.743	154.06
622.95	140.06
623.157	146.06
623.364	149.06
623.571	139.06
623.778	150.06
623.985	148.06
624.192	140.06
624.399	156.06
624.606	145.06
624.812	168.06
625.019	157.06
625.226	157.06
625.433	143.06
625.639	151.06
625.846	146.06
626.053	145.06
626.259	174.06
626.466	158.06
626.673	152.06
626.879	133.06
627.086	153.06
627.293	137.06
627.499	160.06
627.706	145.06
627.912	155.06
628.119	160.06
628.325	139.06
628.532	153.06
628.738	141.06
628.945	134.06
629.151	126.06
629.357	135.06
629.564	145.06
629.77	144.06
629.976	151.06
630.183	160.06
630.389	135.06
630.595	135.06
630.802	142.06
631.008	143.06
631.214	138.06
631.42	141.06
631.627	145.06
631.833	136.06
632.039	140.06
632.245	121.06
632.451	135.06
632.657	139.06
632.863	148.06
633.069	139.06
633.275	138.06
633.481	125.06
633.688	133.06
633.893	140.06
634.099	145.06
634.305	135.06
634.511	134.06
634.717	145.06
634.923	133.06
635.129	153.06
635.335	131.06
635.541	138.06
635.747	136.06
635.952	126.06
636.158	135.06
636.364	138.06
636.57	143.06
636.775	129.06
636.981	124.06
637.187	136.06
637.392	143.06
637.598	131.06
637.804	134.06
638.009	126.06
638.215	129.06
638.421	139.06
638.626	143.06
638.832	133.06
639.037	135.06
639.243	134.06
639.448	139.06
639.654	123.06
639.859	121.06
640.065	110.06
640.27	141.06
640.475	135.06
640.681	143.06
640.886	132.06
641.091	127.06
641.297	130.06
641.502	134.06
641.707	129.06
641.913	129.06
642.118	127.06
642.323	135.06
642.528	134.06
642.733	139.06
642.939	118.06
643.144	136.06
643.349	136.06
643.554	145.06
643.759	133.06
643.964	121.06
644.169	123.06
644.374	137.06
644.579	142.06
644.784	123.06
644.989	131.06
645.194	140.06
645.399	128.06
645.604	118.06
645.809	125.06
646.014	112.06
646.219	115.06
646.423	132.06
646.628	130.06
646.833	133.06
647.038	130.06
647.243	133.06
647.447	115.06
647.652	121.06
647.857	126.06
648.062	128.06
648.266	127.06
648.471	133.06
648.676	126.06
648.88	123.06
649.085	127.06
649.289	124.06
649.494	123.06
649.698	134.06
649.903	141.06
650.107	143.06
650.312	129.06
650.516	139.06
650.721	121.06
650.925	139.06
651.13	116.06
651.334	115.06
651.539	120.06
651.743	123.06
651.947	120.06
652.152	115.06
652.356	121.06
652.56	117.06
652.764	106.06
652.969	107.06
653.173	106.06
653.377	114.06
653.581	109.06
653.785	110.06
653.99	119.06
654.194	118.06
654.398	109.06
654.602	107.06
654.806	99.06
655.01	118.06
655.214	130.06
655.418	111.06
655.622	101.06
655.826	109.06
656.03	116.06
656.234	105.06
656.438	103.06
656.642	110.06
656.846	118.06
657.049	123.06
657.253	106.06
657.457	93.06
657.661	101.06
657.865	103.06
658.068	108.06
658.272	93.06
658.476	94.06
658.68	87.06
658.883	89.06
659.087	109.06
659.291	87.06
659.494	93.06
659.698	89.06
659.901	86.06
660.105	92.06
660.309	92.06
660.512	94.06
660.716	85.06
660.919	97.06
661.123	111.06
661.326	94.06
661.53	100.06
661.733	84.06
661.936	87.06
662.14	94.06
662.343	103.06
662.546	87.06
662.75	96.06
662.953	91.06
663.156	88.06
663.36	79.06
663.563	85.06
663.766	76.06
663.969	85.06
664.173	77.06
664.376	75.06
664.579	72.06
664.782	90.06
664.985	69.06
665.188	77.06
665.391	89.06
665.594	84.06
665.797	70.06
666	79.06
666.203	85.06
666.406	86.06
666.609	81.06
666.812	76.06
667.015	81.06
667.218	75.06
667.421	85.06
667.624	77.06
667.827	85.06
668.03	78.06
668.232	88.06
668.435	73.06
668.638	66.06
668.841	91.06
669.043	95.06
669.246	73.06
669.449	89.06
669.651	85.06
669.854	83.06
670.057	82.06
670.259	75.06
670.462	84.06
670.665	82.06
670.867	73.06
671.07	74.06
671.272	70.06
671.475	74.06
671.677	82.06
671.88	78.06
672.082	90.06
672.284	80.06
672.487	70.06
672.689	70.06
672.892	68.06
