Data from 1983.PennyLincolnUp.Lamp.En5.5.200Scan.071819.P1_HRD10591_16-52-45-964.txt Node
Date: Thu Jul 18 16:52:45 EDT 2019
User: cochatt
Spectrometer: HR+D1059
Trigger mode: 1
Integration Time (sec): 1.000000E-1
Scans to average: 1
Electric dark correction enabled: true
Nonlinearity correction enabled: false
Boxcar width: 0
XAxis mode: Wavelengths
Number of Pixels in Spectrum: 2048
>>>>>Begin Spectral Data<<<<<
223.165	-16.31
223.4	-16.31
223.635	-16.31
223.869	-11.31
224.104	-15.31
224.338	-12.31
224.573	-4.31
224.808	-4.31
225.042	2.69
225.277	-7.31
225.511	-13.31
225.746	-10.31
225.98	13.69
226.215	-2.31
226.449	24.69
226.683	20.69
226.918	12.69
227.152	22.69
227.387	23.69
227.621	36.69
227.856	43.69
228.09	52.69
228.324	62.69
228.559	64.69
228.793	64.69
229.027	95.69
229.262	94.69
229.496	108.69
229.73	108.69
229.964	129.69
230.199	119.69
230.433	111.69
230.667	107.69
230.901	105.69
231.136	95.69
231.37	86.69
231.604	97.69
231.838	106.69
232.072	103.69
232.306	103.69
232.541	114.69
232.775	119.69
233.009	105.69
233.243	101.69
233.477	99.69
233.711	103.69
233.945	115.69
234.179	120.69
234.413	91.69
234.647	113.69
234.881	121.69
235.115	111.69
235.349	104.69
235.583	117.69
235.817	117.69
236.051	119.69
236.285	114.69
236.519	111.69
236.753	130.69
236.987	137.69
237.221	162.69
237.455	209.69
237.689	159.69
237.922	129.69
238.156	97.69
238.39	115.69
238.624	114.69
238.858	108.69
239.091	117.69
239.325	119.69
239.559	128.69
239.793	115.69
240.027	115.69
240.26	120.69
240.494	151.69
240.728	123.69
240.961	129.69
241.195	139.69
241.429	125.69
241.662	124.69
241.896	116.69
242.13	119.69
242.363	104.69
242.597	129.69
242.83	122.69
243.064	133.69
243.298	120.69
243.531	117.69
243.765	118.69
243.998	124.69
244.232	134.69
244.465	124.69
244.699	121.69
244.932	119.69
245.166	130.69
245.399	104.69
245.633	135.69
245.866	131.69
246.099	134.69
246.333	129.69
246.566	138.69
246.8	135.69
247.033	137.69
247.266	139.69
247.5	139.69
247.733	141.69
247.966	160.69
248.2	149.69
248.433	161.69
248.666	161.69
248.899	139.69
249.133	168.69
249.366	196.69
249.599	166.69
249.832	166.69
250.066	156.69
250.299	163.69
250.532	153.69
250.765	160.69
250.998	189.69
251.231	184.69
251.465	180.69
251.698	176.69
251.931	177.69
252.164	171.69
252.397	179.69
252.63	181.69
252.863	179.69
253.096	180.69
253.329	192.69
253.562	193.69
253.795	202.69
254.028	183.69
254.261	200.69
254.494	200.69
254.727	226.69
254.96	220.69
255.193	232.69
255.426	206.69
255.659	204.69
255.892	200.69
256.124	175.69
256.357	196.69
256.59	190.69
256.823	169.69
257.056	174.69
257.289	177.69
257.521	179.69
257.754	203.69
257.987	195.69
258.22	195.69
258.452	178.69
258.685	179.69
258.918	183.69
259.151	184.69
259.383	196.69
259.616	197.69
259.849	195.69
260.081	218.69
260.314	213.69
260.547	202.69
260.779	226.69
261.012	209.69
261.244	179.69
261.477	213.69
261.71	200.69
261.942	202.69
262.175	214.69
262.407	212.69
262.64	199.69
262.872	203.69
263.105	182.69
263.337	177.69
263.57	184.69
263.802	188.69
264.035	173.69
264.267	188.69
264.499	191.69
264.732	196.69
264.964	181.69
265.197	192.69
265.429	197.69
265.661	200.69
265.894	185.69
266.126	168.69
266.358	188.69
266.591	185.69
266.823	201.69
267.055	184.69
267.287	201.69
267.52	190.69
267.752	199.69
267.984	191.69
268.216	189.69
268.448	201.69
268.681	196.69
268.913	211.69
269.145	218.69
269.377	251.69
269.609	236.69
269.841	237.69
270.073	224.69
270.306	230.69
270.538	265.69
270.77	282.69
271.002	255.69
271.234	259.69
271.466	249.69
271.698	253.69
271.93	284.69
272.162	271.69
272.394	279.69
272.626	276.69
272.858	237.69
273.09	250.69
273.322	255.69
273.553	229.69
273.785	245.69
274.017	244.69
274.249	222.69
274.481	221.69
274.713	218.69
274.945	236.69
275.176	244.69
275.408	221.69
275.64	229.69
275.872	228.69
276.104	212.69
276.335	224.69
276.567	231.69
276.799	242.69
277.031	271.69
277.262	263.69
277.494	253.69
277.726	269.69
277.957	265.69
278.189	243.69
278.421	235.69
278.652	229.69
278.884	228.69
279.115	222.69
279.347	223.69
279.579	245.69
279.81	243.69
280.042	229.69
280.273	247.69
280.505	218.69
280.736	233.69
280.968	244.69
281.199	235.69
281.431	230.69
281.662	220.69
281.894	247.69
282.125	243.69
282.356	239.69
282.588	268.69
282.819	269.69
283.051	244.69
283.282	243.69
283.513	242.69
283.745	251.69
283.976	229.69
284.207	243.69
284.439	236.69
284.67	267.69
284.901	249.69
285.132	246.69
285.364	255.69
285.595	261.69
285.826	257.69
286.057	245.69
286.288	239.69
286.52	214.69
286.751	239.69
286.982	247.69
287.213	248.69
287.444	231.69
287.675	253.69
287.906	255.69
288.138	275.69
288.369	255.69
288.6	264.69
288.831	253.69
289.062	263.69
289.293	254.69
289.524	270.69
289.755	253.69
289.986	243.69
290.217	263.69
290.448	235.69
290.679	263.69
290.91	257.69
291.141	261.69
291.371	244.69
291.602	253.69
291.833	244.69
292.064	236.69
292.295	261.69
292.526	259.69
292.757	252.69
292.987	261.69
293.218	259.69
293.449	255.69
293.68	248.69
293.91	262.69
294.141	255.69
294.372	254.69
294.603	265.69
294.833	244.69
295.064	247.69
295.295	257.69
295.525	265.69
295.756	278.69
295.987	269.69
296.217	280.69
296.448	294.69
296.679	261.69
296.909	242.69
297.14	269.69
297.37	259.69
297.601	234.69
297.831	260.69
298.062	251.69
298.292	281.69
298.523	269.69
298.753	260.69
298.984	266.69
299.214	266.69
299.445	260.69
299.675	288.69
299.905	269.69
300.136	276.69
300.366	259.69
300.597	277.69
300.827	265.69
301.057	268.69
301.288	284.69
301.518	296.69
301.748	273.69
301.979	280.69
302.209	277.69
302.439	291.69
302.669	282.69
302.9	273.69
303.13	273.69
303.36	295.69
303.59	289.69
303.82	305.69
304.051	296.69
304.281	287.69
304.511	295.69
304.741	277.69
304.971	294.69
305.201	287.69
305.431	297.69
305.661	288.69
305.891	270.69
306.121	304.69
306.352	300.69
306.582	304.69
306.812	293.69
307.042	300.69
307.272	281.69
307.502	282.69
307.731	266.69
307.961	304.69
308.191	300.69
308.421	282.69
308.651	284.69
308.881	305.69
309.111	308.69
309.341	299.69
309.571	296.69
309.8	325.69
310.03	333.69
310.26	336.69
310.49	325.69
310.72	331.69
310.949	356.69
311.179	326.69
311.409	321.69
311.639	326.69
311.868	329.69
312.098	335.69
312.328	322.69
312.557	320.69
312.787	342.69
313.017	366.69
313.246	350.69
313.476	315.69
313.706	341.69
313.935	332.69
314.165	355.69
314.394	331.69
314.624	359.69
314.853	356.69
315.083	319.69
315.312	323.69
315.542	331.69
315.771	341.69
316.001	324.69
316.23	314.69
316.46	312.69
316.689	333.69
316.919	346.69
317.148	329.69
317.377	325.69
317.607	331.69
317.836	328.69
318.065	316.69
318.295	325.69
318.524	320.69
318.753	323.69
318.983	342.69
319.212	338.69
319.441	335.69
319.67	340.69
319.9	345.69
320.129	340.69
320.358	327.69
320.587	319.69
320.816	342.69
321.046	340.69
321.275	363.69
321.504	361.69
321.733	344.69
321.962	341.69
322.191	368.69
322.42	393.69
322.649	383.69
322.878	381.69
323.108	395.69
323.337	424.69
323.566	403.69
323.795	441.69
324.024	489.69
324.253	594.69
324.482	846.69
324.71	1224.69
324.939	1637.69
325.168	1379.69
325.397	746.69
325.626	525.69
325.855	468.69
326.084	442.69
326.313	433.69
326.542	435.69
326.77	473.69
326.999	555.69
327.228	736.69
327.457	1107.69
327.686	1199.69
327.914	847.69
328.143	589.69
328.372	497.69
328.6	481.69
328.829	479.69
329.058	485.69
329.287	502.69
329.515	459.69
329.744	439.69
329.972	411.69
330.201	437.69
330.43	433.69
330.658	467.69
330.887	491.69
331.115	476.69
331.344	455.69
331.572	401.69
331.801	412.69
332.03	409.69
332.258	397.69
332.486	391.69
332.715	377.69
332.943	371.69
333.172	381.69
333.4	380.69
333.629	403.69
333.857	398.69
334.085	388.69
334.314	393.69
334.542	388.69
334.771	404.69
334.999	377.69
335.227	387.69
335.455	391.69
335.684	377.69
335.912	388.69
336.14	376.69
336.369	362.69
336.597	399.69
336.825	383.69
337.053	395.69
337.281	376.69
337.51	367.69
337.738	374.69
337.966	371.69
338.194	357.69
338.422	356.69
338.65	383.69
338.878	385.69
339.106	378.69
339.334	367.69
339.562	376.69
339.79	369.69
340.018	372.69
340.246	361.69
340.474	373.69
340.702	361.69
340.93	363.69
341.158	347.69
341.386	359.69
341.614	350.69
341.842	358.69
342.07	367.69
342.298	374.69
342.526	385.69
342.754	350.69
342.981	364.69
343.209	359.69
343.437	367.69
343.665	360.69
343.893	377.69
344.12	373.69
344.348	374.69
344.576	359.69
344.804	378.69
345.031	389.69
345.259	375.69
345.487	371.69
345.714	379.69
345.942	338.69
346.17	383.69
346.397	357.69
346.625	357.69
346.853	373.69
347.08	368.69
347.308	342.69
347.535	369.69
347.763	359.69
347.99	379.69
348.218	385.69
348.445	380.69
348.673	362.69
348.9	349.69
349.128	367.69
349.355	349.69
349.583	368.69
349.81	359.69
350.037	355.69
350.265	359.69
350.492	333.69
350.72	344.69
350.947	365.69
351.174	383.69
351.402	367.69
351.629	379.69
351.856	370.69
352.083	377.69
352.311	370.69
352.538	353.69
352.765	363.69
352.992	344.69
353.22	367.69
353.447	359.69
353.674	353.69
353.901	347.69
354.128	370.69
354.355	339.69
354.583	334.69
354.81	324.69
355.037	333.69
355.264	336.69
355.491	353.69
355.718	316.69
355.945	341.69
356.172	333.69
356.399	333.69
356.626	328.69
356.853	336.69
357.08	311.69
357.307	320.69
357.534	331.69
357.761	341.69
357.988	322.69
358.215	335.69
358.441	317.69
358.668	348.69
358.895	357.69
359.122	336.69
359.349	348.69
359.576	354.69
359.802	394.69
360.029	392.69
360.256	381.69
360.483	394.69
360.709	382.69
360.936	360.69
361.163	355.69
361.39	356.69
361.616	362.69
361.843	352.69
362.07	355.69
362.296	360.69
362.523	353.69
362.749	373.69
362.976	364.69
363.203	348.69
363.429	351.69
363.656	349.69
363.882	345.69
364.109	355.69
364.335	354.69
364.562	356.69
364.788	365.69
365.015	356.69
365.241	347.69
365.468	333.69
365.694	351.69
365.92	343.69
366.147	343.69
366.373	338.69
366.599	336.69
366.826	341.69
367.052	346.69
367.278	320.69
367.505	315.69
367.731	345.69
367.957	362.69
368.184	344.69
368.41	358.69
368.636	351.69
368.862	355.69
369.089	340.69
369.315	357.69
369.541	358.69
369.767	351.69
369.993	355.69
370.219	333.69
370.445	343.69
370.672	331.69
370.898	341.69
371.124	363.69
371.35	329.69
371.576	341.69
371.802	337.69
372.028	348.69
372.254	332.69
372.48	328.69
372.706	323.69
372.932	341.69
373.158	353.69
373.384	337.69
373.61	338.69
373.835	336.69
374.061	347.69
374.287	332.69
374.513	364.69
374.739	351.69
374.965	341.69
375.191	330.69
375.416	348.69
375.642	346.69
375.868	356.69
376.094	342.69
376.319	335.69
376.545	365.69
376.771	330.69
376.997	341.69
377.222	335.69
377.448	343.69
377.674	334.69
377.899	341.69
378.125	339.69
378.35	344.69
378.576	333.69
378.802	334.69
379.027	344.69
379.253	337.69
379.478	339.69
379.704	353.69
379.929	354.69
380.155	354.69
380.38	338.69
380.606	343.69
380.831	340.69
381.057	356.69
381.282	329.69
381.507	352.69
381.733	323.69
381.958	344.69
382.184	345.69
382.409	346.69
382.634	355.69
382.86	348.69
383.085	351.69
383.31	365.69
383.535	365.69
383.761	333.69
383.986	346.69
384.211	348.69
384.436	374.69
384.662	355.69
384.887	361.69
385.112	363.69
385.337	360.69
385.562	368.69
385.787	371.69
386.013	371.69
386.238	360.69
386.463	352.69
386.688	368.69
386.913	359.69
387.138	369.69
387.363	379.69
387.588	359.69
387.813	371.69
388.038	383.69
388.263	385.69
388.488	384.69
388.713	368.69
388.938	355.69
389.163	351.69
389.387	379.69
389.612	356.69
389.837	373.69
390.062	377.69
390.287	374.69
390.512	361.69
390.736	368.69
390.961	361.69
391.186	367.69
391.411	379.69
391.636	363.69
391.86	377.69
392.085	389.69
392.31	370.69
392.534	378.69
392.759	376.69
392.984	368.69
393.208	369.69
393.433	370.69
393.658	361.69
393.882	353.69
394.107	370.69
394.331	377.69
394.556	364.69
394.78	371.69
395.005	356.69
395.229	362.69
395.454	375.69
395.678	383.69
395.903	384.69
396.127	396.69
396.352	397.69
396.576	415.69
396.801	389.69
397.025	360.69
397.249	355.69
397.474	386.69
397.698	387.69
397.922	408.69
398.147	405.69
398.371	411.69
398.595	397.69
398.82	395.69
399.044	399.69
399.268	415.69
399.492	432.69
399.717	479.69
399.941	501.69
400.165	495.69
400.389	518.69
400.613	468.69
400.837	445.69
401.062	406.69
401.286	405.69
401.51	419.69
401.734	394.69
401.958	403.69
402.182	409.69
402.406	436.69
402.63	442.69
402.854	430.69
403.078	436.69
403.302	440.69
403.526	412.69
403.75	416.69
403.974	423.69
404.198	445.69
404.422	434.69
404.645	425.69
404.869	427.69
405.093	442.69
405.317	477.69
405.541	481.69
405.765	468.69
405.988	437.69
406.212	431.69
406.436	481.69
406.66	465.69
406.883	457.69
407.107	481.69
407.331	513.69
407.555	556.69
407.778	546.69
408.002	501.69
408.226	467.69
408.449	466.69
408.673	482.69
408.896	503.69
409.12	513.69
409.344	484.69
409.567	454.69
409.791	434.69
410.014	436.69
410.238	423.69
410.461	440.69
410.685	422.69
410.908	453.69
411.132	470.69
411.355	489.69
411.578	463.69
411.802	434.69
412.025	395.69
412.249	424.69
412.472	431.69
412.695	439.69
412.919	413.69
413.142	429.69
413.365	417.69
413.589	407.69
413.812	400.69
414.035	411.69
414.258	393.69
414.482	396.69
414.705	419.69
414.928	394.69
415.151	393.69
415.374	415.69
415.597	384.69
415.821	418.69
416.044	418.69
416.267	416.69
416.49	387.69
416.713	389.69
416.936	398.69
417.159	399.69
417.382	396.69
417.605	396.69
417.828	406.69
418.051	416.69
418.274	414.69
418.497	416.69
418.72	412.69
418.943	409.69
419.166	439.69
419.389	447.69
419.611	424.69
419.834	435.69
420.057	414.69
420.28	420.69
420.503	404.69
420.726	422.69
420.948	424.69
421.171	474.69
421.394	475.69
421.617	444.69
421.839	412.69
422.062	429.69
422.285	451.69
422.507	463.69
422.73	515.69
422.953	505.69
423.175	439.69
423.398	445.69
423.621	427.69
423.843	435.69
424.066	443.69
424.288	434.69
424.511	466.69
424.733	494.69
424.956	556.69
425.178	525.69
425.401	536.69
425.623	554.69
425.846	481.69
426.068	457.69
426.291	449.69
426.513	440.69
426.735	448.69
426.958	493.69
427.18	539.69
427.402	658.69
427.625	721.69
427.847	612.69
428.069	524.69
428.292	464.69
428.514	447.69
428.736	419.69
428.958	434.69
429.181	429.69
429.403	414.69
429.625	426.69
429.847	445.69
430.069	513.69
430.292	503.69
430.514	435.69
430.736	411.69
430.958	424.69
431.18	413.69
431.402	404.69
431.624	404.69
431.846	409.69
432.068	396.69
432.29	396.69
432.512	402.69
432.734	401.69
432.956	388.69
433.178	410.69
433.4	419.69
433.622	399.69
433.844	408.69
434.066	406.69
434.287	406.69
434.509	395.69
434.731	409.69
434.953	412.69
435.175	437.69
435.397	433.69
435.618	451.69
435.84	491.69
436.062	546.69
436.284	596.69
436.505	530.69
436.727	466.69
436.949	429.69
437.17	414.69
437.392	419.69
437.614	412.69
437.835	471.69
438.057	544.69
438.278	610.69
438.5	598.69
438.721	632.69
438.943	602.69
439.165	503.69
439.386	443.69
439.608	477.69
439.829	459.69
440.05	465.69
440.272	517.69
440.493	477.69
440.715	441.69
440.936	407.69
441.158	415.69
441.379	408.69
441.6	417.69
441.822	446.69
442.043	449.69
442.264	537.69
442.486	580.69
442.707	487.69
442.928	465.69
443.149	468.69
443.371	505.69
443.592	521.69
443.813	589.69
444.034	614.69
444.255	530.69
444.476	483.69
444.698	478.69
444.919	456.69
445.14	556.69
445.361	529.69
445.582	493.69
445.803	513.69
446.024	551.69
446.245	580.69
446.466	561.69
446.687	465.69
446.908	460.69
447.129	446.69
447.35	426.69
447.571	447.69
447.792	412.69
448.013	431.69
448.234	434.69
448.455	478.69
448.675	555.69
448.896	644.69
449.117	550.69
449.338	530.69
449.559	593.69
449.779	647.69
450	533.69
450.221	459.69
450.442	437.69
450.662	411.69
450.883	405.69
451.104	421.69
451.324	428.69
451.545	420.69
451.766	399.69
451.986	376.69
452.207	376.69
452.428	376.69
452.648	377.69
452.869	384.69
453.089	376.69
453.31	402.69
453.53	393.69
453.751	380.69
453.971	376.69
454.192	386.69
454.412	372.69
454.633	373.69
454.853	390.69
455.073	376.69
455.294	407.69
455.514	451.69
455.734	434.69
455.955	381.69
456.175	363.69
456.395	361.69
456.616	350.69
456.836	355.69
457.056	357.69
457.276	362.69
457.497	372.69
457.717	369.69
457.937	354.69
458.157	371.69
458.377	383.69
458.598	403.69
458.818	436.69
459.038	482.69
459.258	466.69
459.478	433.69
459.698	406.69
459.918	400.69
460.138	407.69
460.358	396.69
460.578	421.69
460.798	401.69
461.018	422.69
461.238	393.69
461.458	406.69
461.678	396.69
461.898	395.69
462.118	409.69
462.338	404.69
462.558	421.69
462.777	405.69
462.997	447.69
463.217	426.69
463.437	431.69
463.657	416.69
463.876	435.69
464.096	431.69
464.316	440.69
464.536	437.69
464.755	437.69
464.975	423.69
465.195	435.69
465.414	520.69
465.634	473.69
465.854	419.69
466.073	416.69
466.293	404.69
466.512	395.69
466.732	385.69
466.951	375.69
467.171	395.69
467.391	394.69
467.61	399.69
467.829	384.69
468.049	376.69
468.268	378.69
468.488	376.69
468.707	375.69
468.927	377.69
469.146	364.69
469.365	364.69
469.585	382.69
469.804	377.69
470.023	392.69
470.243	400.69
470.462	398.69
470.681	415.69
470.901	395.69
471.12	382.69
471.339	372.69
471.558	394.69
471.777	390.69
471.997	390.69
472.216	393.69
472.435	391.69
472.654	393.69
472.873	380.69
473.092	393.69
473.311	392.69
473.53	387.69
473.749	403.69
473.968	407.69
474.187	515.69
474.406	506.69
474.625	432.69
474.844	390.69
475.063	390.69
475.282	396.69
475.501	403.69
475.72	397.69
475.939	403.69
476.158	421.69
476.377	424.69
476.596	395.69
476.814	410.69
477.033	414.69
477.252	397.69
477.471	402.69
477.69	421.69
477.908	419.69
478.127	438.69
478.346	413.69
478.564	435.69
478.783	439.69
479.002	434.69
479.22	444.69
479.439	452.69
479.658	454.69
479.876	461.69
480.095	468.69
480.313	489.69
480.532	479.69
480.751	467.69
480.969	457.69
481.188	476.69
481.406	468.69
481.624	468.69
481.843	445.69
482.061	459.69
482.28	450.69
482.498	439.69
482.717	454.69
482.935	452.69
483.153	461.69
483.372	461.69
483.59	457.69
483.808	452.69
484.027	449.69
484.245	456.69
484.463	469.69
484.681	470.69
484.9	449.69
485.118	480.69
485.336	461.69
485.554	461.69
485.772	450.69
485.99	471.69
486.209	448.69
486.427	448.69
486.645	465.69
486.863	490.69
487.081	496.69
487.299	481.69
487.517	492.69
487.735	491.69
487.953	471.69
488.171	478.69
488.389	493.69
488.607	496.69
488.825	480.69
489.043	511.69
489.261	502.69
489.479	496.69
489.696	492.69
489.914	508.69
490.132	500.69
490.35	486.69
490.568	499.69
490.786	516.69
491.003	507.69
491.221	527.69
491.439	533.69
491.657	540.69
491.874	552.69
492.092	577.69
492.31	565.69
492.527	545.69
492.745	547.69
492.963	574.69
493.18	560.69
493.398	565.69
493.615	535.69
493.833	561.69
494.05	556.69
494.268	561.69
494.485	573.69
494.703	573.69
494.92	565.69
495.138	572.69
495.355	561.69
495.573	590.69
495.79	595.69
496.008	570.69
496.225	568.69
496.442	583.69
496.66	581.69
496.877	591.69
497.094	595.69
497.312	572.69
497.529	574.69
497.746	590.69
497.963	614.69
498.181	636.69
498.398	623.69
498.615	626.69
498.832	613.69
499.049	651.69
499.267	658.69
499.484	664.69
499.701	698.69
499.918	737.69
500.135	744.69
500.352	778.69
500.569	780.69
500.786	797.69
501.003	805.69
501.22	769.69
501.437	741.69
501.654	717.69
501.871	721.69
502.088	721.69
502.305	668.69
502.522	620.69
502.739	640.69
502.956	613.69
503.172	609.69
503.389	591.69
503.606	599.69
503.823	594.69
504.04	577.69
504.256	588.69
504.473	584.69
504.69	559.69
504.907	571.69
505.123	565.69
505.34	553.69
505.557	577.69
505.773	576.69
505.99	554.69
506.207	559.69
506.423	547.69
506.64	543.69
506.856	556.69
507.073	514.69
507.289	517.69
507.506	543.69
507.722	542.69
507.939	560.69
508.155	556.69
508.372	519.69
508.588	499.69
508.805	504.69
509.021	500.69
509.238	544.69
509.454	537.69
509.67	517.69
509.887	540.69
510.103	528.69
510.319	536.69
510.536	608.69
510.752	1025.69
510.968	808.69
511.184	535.69
511.401	492.69
511.617	500.69
511.833	488.69
512.049	485.69
512.265	466.69
512.481	482.69
512.698	481.69
512.914	497.69
513.13	487.69
513.346	456.69
513.562	483.69
513.778	489.69
513.994	505.69
514.21	518.69
514.426	526.69
514.642	562.69
514.858	588.69
515.074	612.69
515.29	714.69
515.506	1074.69
515.721	852.69
515.937	604.69
516.153	515.69
516.369	522.69
516.585	539.69
516.801	495.69
517.016	497.69
517.232	515.69
517.448	508.69
517.664	523.69
517.879	511.69
518.095	515.69
518.311	499.69
518.527	479.69
518.742	510.69
518.958	504.69
519.173	507.69
519.389	500.69
519.605	495.69
519.82	504.69
520.036	522.69
520.251	533.69
520.467	537.69
520.682	535.69
520.898	548.69
521.113	549.69
521.329	596.69
521.544	645.69
521.76	832.69
521.975	1390.69
522.19	1376.69
522.406	747.69
522.621	565.69
522.836	500.69
523.052	477.69
523.267	473.69
523.482	483.69
523.698	462.69
523.913	442.69
524.128	481.69
524.343	451.69
524.559	450.69
524.774	441.69
524.989	429.69
525.204	434.69
525.419	459.69
525.634	434.69
525.849	413.69
526.064	406.69
526.28	417.69
526.495	416.69
526.71	434.69
526.925	405.69
527.14	396.69
527.355	415.69
527.57	400.69
527.785	410.69
527.999	420.69
528.214	427.69
528.429	407.69
528.644	392.69
528.859	412.69
529.074	396.69
529.289	419.69
529.503	476.69
529.718	449.69
529.933	436.69
530.148	387.69
530.363	391.69
530.577	404.69
530.792	400.69
531.007	406.69
531.221	386.69
531.436	400.69
531.651	397.69
531.865	402.69
532.08	403.69
532.295	379.69
532.509	388.69
532.724	387.69
532.938	391.69
533.153	405.69
533.367	379.69
533.582	385.69
533.796	371.69
534.011	381.69
534.225	384.69
534.44	361.69
534.654	375.69
534.868	386.69
535.083	381.69
535.297	379.69
535.511	407.69
535.726	401.69
535.94	382.69
536.154	373.69
536.369	383.69
536.583	373.69
536.797	370.69
537.011	363.69
537.225	385.69
537.44	380.69
537.654	387.69
537.868	375.69
538.082	383.69
538.296	364.69
538.51	371.69
538.724	394.69
538.938	367.69
539.153	375.69
539.367	383.69
539.581	386.69
539.795	380.69
540.009	369.69
540.222	395.69
540.436	383.69
540.65	383.69
540.864	367.69
541.078	381.69
541.292	380.69
541.506	360.69
541.72	367.69
541.934	386.69
542.147	384.69
542.361	369.69
542.575	365.69
542.789	378.69
543.002	369.69
543.216	363.69
543.43	377.69
543.644	370.69
543.857	385.69
544.071	371.69
544.285	351.69
544.498	369.69
544.712	369.69
544.925	364.69
545.139	345.69
545.352	356.69
545.566	364.69
545.779	359.69
545.993	374.69
546.206	359.69
546.42	379.69
546.633	365.69
546.847	372.69
547.06	345.69
547.274	356.69
547.487	361.69
547.7	368.69
547.914	339.69
548.127	344.69
548.34	372.69
548.554	355.69
548.767	357.69
548.98	362.69
549.193	322.69
549.407	353.69
549.62	343.69
549.833	349.69
550.046	347.69
550.259	336.69
550.473	339.69
550.686	357.69
550.899	338.69
551.112	354.69
551.325	348.69
551.538	332.69
551.751	339.69
551.964	344.69
552.177	345.69
552.39	358.69
552.603	339.69
552.816	360.69
553.029	342.69
553.242	357.69
553.455	357.69
553.667	359.69
553.88	361.69
554.093	351.69
554.306	361.69
554.519	343.69
554.732	344.69
554.944	347.69
555.157	347.69
555.37	333.69
555.583	341.69
555.795	348.69
556.008	312.69
556.221	316.69
556.433	331.69
556.646	334.69
556.859	324.69
557.071	333.69
557.284	336.69
557.496	322.69
557.709	311.69
557.921	319.69
558.134	311.69
558.346	320.69
558.559	327.69
558.771	324.69
558.984	328.69
559.196	322.69
559.409	322.69
559.621	323.69
559.833	319.69
560.046	303.69
560.258	299.69
560.47	302.69
560.683	315.69
560.895	305.69
561.107	323.69
561.32	311.69
561.532	315.69
561.744	322.69
561.956	310.69
562.168	311.69
562.381	324.69
562.593	316.69
562.805	327.69
563.017	323.69
563.229	318.69
563.441	309.69
563.653	321.69
563.865	326.69
564.077	306.69
564.289	296.69
564.501	321.69
564.713	332.69
564.925	346.69
565.137	325.69
565.349	325.69
565.561	345.69
565.773	331.69
565.985	342.69
566.197	345.69
566.408	371.69
566.62	369.69
566.832	385.69
567.044	370.69
567.255	381.69
567.467	384.69
567.679	388.69
567.891	384.69
568.102	378.69
568.314	378.69
568.526	365.69
568.737	362.69
568.949	340.69
569.161	333.69
569.372	346.69
569.584	311.69
569.795	323.69
570.007	298.69
570.218	353.69
570.43	339.69
570.641	325.69
570.853	295.69
571.064	293.69
571.276	307.69
571.487	297.69
571.698	296.69
571.91	308.69
572.121	283.69
572.333	312.69
572.544	277.69
572.755	273.69
572.966	283.69
573.178	286.69
573.389	284.69
573.6	267.69
573.811	290.69
574.023	266.69
574.234	280.69
574.445	264.69
574.656	254.69
574.867	270.69
575.078	282.69
575.289	274.69
575.501	274.69
575.712	265.69
575.923	267.69
576.134	263.69
576.345	270.69
576.556	260.69
576.767	261.69
576.978	272.69
577.188	259.69
577.399	266.69
577.61	243.69
577.821	247.69
578.032	265.69
578.243	297.69
578.454	465.69
578.665	365.69
578.875	274.69
579.086	243.69
579.297	256.69
579.508	269.69
579.718	238.69
579.929	262.69
580.14	256.69
580.35	239.69
580.561	252.69
580.772	236.69
580.982	245.69
581.193	261.69
581.403	244.69
581.614	261.69
581.825	244.69
582.035	251.69
582.246	235.69
582.456	244.69
582.667	248.69
582.877	239.69
583.087	232.69
583.298	253.69
583.508	237.69
583.719	240.69
583.929	249.69
584.139	251.69
584.35	241.69
584.56	242.69
584.77	247.69
584.981	253.69
585.191	228.69
585.401	261.69
585.611	233.69
585.821	244.69
586.032	237.69
586.242	240.69
586.452	253.69
586.662	235.69
586.872	234.69
587.082	245.69
587.292	224.69
587.502	234.69
587.713	237.69
587.923	228.69
588.133	229.69
588.343	240.69
588.553	251.69
588.762	235.69
588.972	233.69
589.182	241.69
589.392	230.69
589.602	236.69
589.812	236.69
590.022	223.69
590.232	233.69
590.441	244.69
590.651	238.69
590.861	241.69
591.071	247.69
591.281	226.69
591.49	230.69
591.7	240.69
591.91	236.69
592.119	239.69
592.329	236.69
592.539	233.69
592.748	233.69
592.958	234.69
593.167	236.69
593.377	235.69
593.587	266.69
593.796	228.69
594.006	242.69
594.215	273.69
594.424	243.69
594.634	244.69
594.843	239.69
595.053	232.69
595.262	241.69
595.472	237.69
595.681	234.69
595.89	228.69
596.1	226.69
596.309	214.69
596.518	221.69
596.727	232.69
596.937	223.69
597.146	223.69
597.355	216.69
597.564	211.69
597.774	224.69
597.983	212.69
598.192	222.69
598.401	214.69
598.61	230.69
598.819	206.69
599.028	201.69
599.237	213.69
599.446	217.69
599.655	212.69
599.864	205.69
600.073	210.69
600.282	210.69
600.491	192.69
600.7	207.69
600.909	212.69
601.118	212.69
601.327	218.69
601.536	210.69
601.745	219.69
601.953	209.69
602.162	207.69
602.371	200.69
602.58	202.69
602.789	194.69
602.997	221.69
603.206	195.69
603.415	210.69
603.623	216.69
603.832	203.69
604.041	193.69
604.249	194.69
604.458	210.69
604.666	205.69
604.875	202.69
605.084	204.69
605.292	201.69
605.501	213.69
605.709	207.69
605.918	204.69
606.126	207.69
606.334	191.69
606.543	198.69
606.751	204.69
606.96	209.69
607.168	197.69
607.376	202.69
607.585	202.69
607.793	200.69
608.001	203.69
608.21	194.69
608.418	199.69
608.626	181.69
608.834	198.69
609.043	197.69
609.251	197.69
609.459	188.69
609.667	200.69
609.875	195.69
610.083	193.69
610.291	200.69
610.499	197.69
610.707	205.69
610.916	209.69
611.124	208.69
611.332	203.69
611.54	195.69
611.748	199.69
611.955	184.69
612.163	198.69
612.371	197.69
612.579	186.69
612.787	187.69
612.995	201.69
613.203	200.69
613.411	195.69
613.618	178.69
613.826	184.69
614.034	194.69
614.242	185.69
614.449	195.69
614.657	181.69
614.865	196.69
615.072	198.69
615.28	194.69
615.488	179.69
615.695	188.69
615.903	200.69
616.111	203.69
616.318	203.69
616.526	185.69
616.733	195.69
616.941	192.69
617.148	197.69
617.356	200.69
617.563	191.69
617.771	181.69
617.978	183.69
618.185	173.69
618.393	195.69
618.6	182.69
618.807	185.69
619.015	191.69
619.222	186.69
619.429	199.69
619.637	200.69
619.844	195.69
620.051	193.69
620.258	165.69
620.466	189.69
620.673	172.69
620.88	187.69
621.087	183.69
621.294	177.69
621.501	171.69
621.708	185.69
621.915	191.69
622.122	179.69
622.329	193.69
622.536	180.69
622.743	167.69
622.95	180.69
623.157	175.69
623.364	188.69
623.571	188.69
623.778	176.69
623.985	177.69
624.192	191.69
624.399	178.69
624.606	184.69
624.812	177.69
625.019	167.69
625.226	180.69
625.433	187.69
625.639	167.69
625.846	185.69
626.053	168.69
626.259	172.69
626.466	164.69
626.673	172.69
626.879	175.69
627.086	181.69
627.293	174.69
627.499	166.69
627.706	183.69
627.912	175.69
628.119	155.69
628.325	180.69
628.532	178.69
628.738	155.69
628.945	165.69
629.151	185.69
629.357	159.69
629.564	166.69
629.77	167.69
629.976	155.69
630.183	159.69
630.389	163.69
630.595	164.69
630.802	173.69
631.008	164.69
631.214	165.69
631.42	176.69
631.627	181.69
631.833	180.69
632.039	154.69
632.245	156.69
632.451	153.69
632.657	156.69
632.863	152.69
633.069	153.69
633.275	161.69
633.481	157.69
633.688	153.69
633.893	169.69
634.099	142.69
634.305	161.69
634.511	146.69
634.717	159.69
634.923	158.69
635.129	156.69
635.335	141.69
635.541	151.69
635.747	161.69
635.952	168.69
636.158	151.69
636.364	152.69
636.57	153.69
636.775	152.69
636.981	161.69
637.187	156.69
637.392	159.69
637.598	165.69
637.804	155.69
638.009	149.69
638.215	144.69
638.421	154.69
638.626	137.69
638.832	147.69
639.037	149.69
639.243	143.69
639.448	163.69
639.654	175.69
639.859	147.69
640.065	144.69
640.27	151.69
640.475	149.69
640.681	142.69
640.886	146.69
641.091	147.69
641.297	147.69
641.502	132.69
641.707	141.69
641.913	132.69
642.118	153.69
642.323	149.69
642.528	136.69
642.733	148.69
642.939	132.69
643.144	159.69
643.349	147.69
643.554	143.69
643.759	144.69
643.964	152.69
644.169	150.69
644.374	140.69
644.579	148.69
644.784	153.69
644.989	154.69
645.194	142.69
645.399	143.69
645.604	146.69
645.809	148.69
646.014	152.69
646.219	140.69
646.423	141.69
646.628	137.69
646.833	152.69
647.038	148.69
647.243	135.69
647.447	148.69
647.652	147.69
647.857	132.69
648.062	151.69
648.266	145.69
648.471	136.69
648.676	159.69
648.88	157.69
649.085	139.69
649.289	155.69
649.494	137.69
649.698	160.69
649.903	162.69
650.107	144.69
650.312	149.69
650.516	124.69
650.721	147.69
650.925	148.69
651.13	139.69
651.334	134.69
651.539	130.69
651.743	124.69
651.947	123.69
652.152	129.69
652.356	133.69
652.56	125.69
652.764	133.69
652.969	114.69
653.173	121.69
653.377	131.69
653.581	131.69
653.785	139.69
653.99	116.69
654.194	122.69
654.398	124.69
654.602	120.69
654.806	121.69
655.01	134.69
655.214	129.69
655.418	137.69
655.622	115.69
655.826	115.69
656.03	121.69
656.234	115.69
656.438	116.69
656.642	125.69
656.846	105.69
657.049	120.69
657.253	124.69
657.457	113.69
657.661	106.69
657.865	113.69
658.068	119.69
658.272	94.69
658.476	92.69
658.68	99.69
658.883	98.69
659.087	87.69
659.291	94.69
659.494	78.69
659.698	85.69
659.901	93.69
660.105	94.69
660.309	87.69
660.512	89.69
660.716	95.69
660.919	87.69
661.123	84.69
661.326	92.69
661.53	93.69
661.733	97.69
661.936	96.69
662.14	87.69
662.343	90.69
662.546	83.69
662.75	95.69
662.953	88.69
663.156	82.69
663.36	88.69
663.563	85.69
663.766	77.69
663.969	69.69
664.173	77.69
664.376	97.69
664.579	94.69
664.782	65.69
664.985	67.69
665.188	89.69
665.391	82.69
665.594	80.69
665.797	91.69
666	88.69
666.203	81.69
666.406	84.69
666.609	81.69
666.812	89.69
667.015	79.69
667.218	99.69
667.421	89.69
667.624	83.69
667.827	80.69
668.03	90.69
668.232	72.69
668.435	84.69
668.638	80.69
668.841	87.69
669.043	76.69
669.246	90.69
669.449	63.69
669.651	69.69
669.854	90.69
670.057	84.69
670.259	86.69
670.462	88.69
670.665	84.69
670.867	83.69
671.07	77.69
671.272	91.69
671.475	79.69
671.677	84.69
671.88	85.69
672.082	75.69
672.284	85.69
672.487	87.69
672.689	75.69
672.892	66.69
