Data from 1983.PennyLincolnUp.Lamp.En5.5.200Scan.071819.P1_HRD10591_16-53-03-965.txt Node
Date: Thu Jul 18 16:53:03 EDT 2019
User: cochatt
Spectrometer: HR+D1059
Trigger mode: 1
Integration Time (sec): 1.000000E-1
Scans to average: 1
Electric dark correction enabled: true
Nonlinearity correction enabled: false
Boxcar width: 0
XAxis mode: Wavelengths
Number of Pixels in Spectrum: 2048
>>>>>Begin Spectral Data<<<<<
223.165	-19.62
223.4	-19.62
223.635	-19.62
223.869	-14.62
224.104	-21.62
224.338	-30.62
224.573	-17.62
224.808	0.38
225.042	-3.62
225.277	-15.62
225.511	-4.62
225.746	6.38
225.98	16.38
226.215	13.38
226.449	14.38
226.683	20.38
226.918	19.38
227.152	37.38
227.387	48.38
227.621	44.38
227.856	41.38
228.09	41.38
228.324	59.38
228.559	60.38
228.793	62.38
229.027	68.38
229.262	90.38
229.496	97.38
229.73	120.38
229.964	131.38
230.199	120.38
230.433	93.38
230.667	106.38
230.901	112.38
231.136	88.38
231.37	101.38
231.604	110.38
231.838	96.38
232.072	112.38
232.306	107.38
232.541	115.38
232.775	121.38
233.009	115.38
233.243	115.38
233.477	116.38
233.711	109.38
233.945	109.38
234.179	108.38
234.413	103.38
234.647	119.38
234.881	119.38
235.115	114.38
235.349	98.38
235.583	105.38
235.817	111.38
236.051	118.38
236.285	121.38
236.519	126.38
236.753	126.38
236.987	130.38
237.221	165.38
237.455	181.38
237.689	157.38
237.922	129.38
238.156	126.38
238.39	115.38
238.624	120.38
238.858	117.38
239.091	118.38
239.325	120.38
239.559	126.38
239.793	118.38
240.027	117.38
240.26	128.38
240.494	147.38
240.728	135.38
240.961	116.38
241.195	139.38
241.429	149.38
241.662	128.38
241.896	123.38
242.13	123.38
242.363	125.38
242.597	116.38
242.83	129.38
243.064	117.38
243.298	123.38
243.531	136.38
243.765	125.38
243.998	124.38
244.232	131.38
244.465	128.38
244.699	132.38
244.932	138.38
245.166	130.38
245.399	138.38
245.633	144.38
245.866	128.38
246.099	121.38
246.333	137.38
246.566	136.38
246.8	137.38
247.033	138.38
247.266	129.38
247.5	148.38
247.733	148.38
247.966	161.38
248.2	146.38
248.433	163.38
248.666	151.38
248.899	181.38
249.133	166.38
249.366	189.38
249.599	157.38
249.832	161.38
250.066	157.38
250.299	170.38
250.532	167.38
250.765	182.38
250.998	194.38
251.231	185.38
251.465	198.38
251.698	177.38
251.931	184.38
252.164	178.38
252.397	170.38
252.63	179.38
252.863	184.38
253.096	195.38
253.329	193.38
253.562	190.38
253.795	192.38
254.028	184.38
254.261	185.38
254.494	206.38
254.727	217.38
254.96	242.38
255.193	229.38
255.426	222.38
255.659	201.38
255.892	180.38
256.124	202.38
256.357	189.38
256.59	185.38
256.823	193.38
257.056	181.38
257.289	191.38
257.521	166.38
257.754	185.38
257.987	198.38
258.22	186.38
258.452	182.38
258.685	214.38
258.918	187.38
259.151	179.38
259.383	188.38
259.616	179.38
259.849	189.38
260.081	200.38
260.314	215.38
260.547	213.38
260.779	220.38
261.012	210.38
261.244	195.38
261.477	182.38
261.71	188.38
261.942	196.38
262.175	213.38
262.407	202.38
262.64	193.38
262.872	188.38
263.105	193.38
263.337	194.38
263.57	217.38
263.802	195.38
264.035	194.38
264.267	198.38
264.499	183.38
264.732	186.38
264.964	191.38
265.197	201.38
265.429	189.38
265.661	182.38
265.894	190.38
266.126	203.38
266.358	195.38
266.591	185.38
266.823	198.38
267.055	203.38
267.287	205.38
267.52	203.38
267.752	212.38
267.984	188.38
268.216	199.38
268.448	207.38
268.681	216.38
268.913	213.38
269.145	214.38
269.377	224.38
269.609	224.38
269.841	242.38
270.073	235.38
270.306	260.38
270.538	262.38
270.77	265.38
271.002	273.38
271.234	258.38
271.466	244.38
271.698	263.38
271.93	288.38
272.162	286.38
272.394	264.38
272.626	249.38
272.858	267.38
273.09	237.38
273.322	247.38
273.553	225.38
273.785	246.38
274.017	221.38
274.249	218.38
274.481	224.38
274.713	218.38
274.945	227.38
275.176	251.38
275.408	240.38
275.64	230.38
275.872	228.38
276.104	222.38
276.335	224.38
276.567	226.38
276.799	246.38
277.031	274.38
277.262	256.38
277.494	257.38
277.726	264.38
277.957	254.38
278.189	245.38
278.421	237.38
278.652	252.38
278.884	260.38
279.115	237.38
279.347	241.38
279.579	219.38
279.81	218.38
280.042	224.38
280.273	234.38
280.505	236.38
280.736	224.38
280.968	242.38
281.199	229.38
281.431	230.38
281.662	237.38
281.894	236.38
282.125	248.38
282.356	264.38
282.588	261.38
282.819	263.38
283.051	244.38
283.282	226.38
283.513	251.38
283.745	237.38
283.976	243.38
284.207	253.38
284.439	236.38
284.67	238.38
284.901	238.38
285.132	222.38
285.364	234.38
285.595	226.38
285.826	232.38
286.057	262.38
286.288	234.38
286.52	235.38
286.751	233.38
286.982	246.38
287.213	256.38
287.444	238.38
287.675	262.38
287.906	248.38
288.138	252.38
288.369	274.38
288.6	265.38
288.831	270.38
289.062	253.38
289.293	255.38
289.524	241.38
289.755	234.38
289.986	244.38
290.217	248.38
290.448	242.38
290.679	252.38
290.91	237.38
291.141	267.38
291.371	258.38
291.602	268.38
291.833	246.38
292.064	256.38
292.295	242.38
292.526	252.38
292.757	259.38
292.987	249.38
293.218	229.38
293.449	246.38
293.68	253.38
293.91	262.38
294.141	242.38
294.372	253.38
294.603	277.38
294.833	246.38
295.064	265.38
295.295	235.38
295.525	261.38
295.756	248.38
295.987	262.38
296.217	279.38
296.448	300.38
296.679	254.38
296.909	254.38
297.14	248.38
297.37	267.38
297.601	261.38
297.831	252.38
298.062	278.38
298.292	274.38
298.523	258.38
298.753	277.38
298.984	251.38
299.214	276.38
299.445	266.38
299.675	272.38
299.905	275.38
300.136	266.38
300.366	260.38
300.597	276.38
300.827	267.38
301.057	281.38
301.288	278.38
301.518	287.38
301.748	272.38
301.979	281.38
302.209	281.38
302.439	263.38
302.669	274.38
302.9	283.38
303.13	299.38
303.36	279.38
303.59	286.38
303.82	306.38
304.051	290.38
304.281	294.38
304.511	289.38
304.741	270.38
304.971	259.38
305.201	286.38
305.431	294.38
305.661	294.38
305.891	290.38
306.121	274.38
306.352	305.38
306.582	292.38
306.812	288.38
307.042	300.38
307.272	279.38
307.502	297.38
307.731	282.38
307.961	284.38
308.191	257.38
308.421	289.38
308.651	277.38
308.881	278.38
309.111	290.38
309.341	294.38
309.571	298.38
309.8	305.38
310.03	317.38
310.26	329.38
310.49	329.38
310.72	333.38
310.949	328.38
311.179	339.38
311.409	333.38
311.639	332.38
311.868	311.38
312.098	328.38
312.328	317.38
312.557	334.38
312.787	353.38
313.017	357.38
313.246	356.38
313.476	330.38
313.706	326.38
313.935	322.38
314.165	324.38
314.394	346.38
314.624	346.38
314.853	335.38
315.083	324.38
315.312	322.38
315.542	331.38
315.771	342.38
316.001	301.38
316.23	329.38
316.46	310.38
316.689	311.38
316.919	327.38
317.148	327.38
317.377	339.38
317.607	341.38
317.836	322.38
318.065	313.38
318.295	317.38
318.524	343.38
318.753	325.38
318.983	338.38
319.212	334.38
319.441	326.38
319.67	370.38
319.9	341.38
320.129	318.38
320.358	345.38
320.587	320.38
320.816	323.38
321.046	341.38
321.275	346.38
321.504	345.38
321.733	330.38
321.962	357.38
322.191	370.38
322.42	398.38
322.649	374.38
322.878	394.38
323.108	424.38
323.337	421.38
323.566	421.38
323.795	451.38
324.024	501.38
324.253	624.38
324.482	884.38
324.71	1266.38
324.939	1730.38
325.168	1403.38
325.397	805.38
325.626	548.38
325.855	475.38
326.084	436.38
326.313	433.38
326.542	426.38
326.77	460.38
326.999	557.38
327.228	776.38
327.457	1117.38
327.686	1286.38
327.914	850.38
328.143	598.38
328.372	518.38
328.6	498.38
328.829	508.38
329.058	498.38
329.287	499.38
329.515	481.38
329.744	432.38
329.972	414.38
330.201	418.38
330.43	429.38
330.658	489.38
330.887	505.38
331.115	500.38
331.344	427.38
331.572	399.38
331.801	409.38
332.03	429.38
332.258	409.38
332.486	393.38
332.715	379.38
332.943	357.38
333.172	374.38
333.4	384.38
333.629	389.38
333.857	388.38
334.085	396.38
334.314	391.38
334.542	375.38
334.771	411.38
334.999	384.38
335.227	373.38
335.455	384.38
335.684	404.38
335.912	372.38
336.14	378.38
336.369	375.38
336.597	378.38
336.825	380.38
337.053	371.38
337.281	380.38
337.51	372.38
337.738	344.38
337.966	358.38
338.194	366.38
338.422	382.38
338.65	376.38
338.878	358.38
339.106	350.38
339.334	364.38
339.562	357.38
339.79	373.38
340.018	361.38
340.246	352.38
340.474	371.38
340.702	364.38
340.93	382.38
341.158	373.38
341.386	377.38
341.614	366.38
341.842	368.38
342.07	361.38
342.298	355.38
342.526	348.38
342.754	337.38
342.981	346.38
343.209	347.38
343.437	362.38
343.665	353.38
343.893	355.38
344.12	387.38
344.348	372.38
344.576	374.38
344.804	374.38
345.031	388.38
345.259	369.38
345.487	385.38
345.714	358.38
345.942	359.38
346.17	364.38
346.397	357.38
346.625	346.38
346.853	361.38
347.08	349.38
347.308	361.38
347.535	366.38
347.763	381.38
347.99	361.38
348.218	365.38
348.445	358.38
348.673	382.38
348.9	371.38
349.128	333.38
349.355	346.38
349.583	341.38
349.81	338.38
350.037	358.38
350.265	352.38
350.492	348.38
350.72	344.38
350.947	371.38
351.174	384.38
351.402	384.38
351.629	357.38
351.856	368.38
352.083	352.38
352.311	347.38
352.538	364.38
352.765	385.38
352.992	388.38
353.22	347.38
353.447	346.38
353.674	345.38
353.901	345.38
354.128	336.38
354.355	332.38
354.583	351.38
354.81	328.38
355.037	333.38
355.264	316.38
355.491	328.38
355.718	346.38
355.945	337.38
356.172	320.38
356.399	324.38
356.626	314.38
356.853	326.38
357.08	309.38
357.307	322.38
357.534	329.38
357.761	326.38
357.988	346.38
358.215	335.38
358.441	354.38
358.668	324.38
358.895	329.38
359.122	346.38
359.349	337.38
359.576	354.38
359.802	376.38
360.029	398.38
360.256	407.38
360.483	382.38
360.709	380.38
360.936	377.38
361.163	359.38
361.39	354.38
361.616	357.38
361.843	346.38
362.07	339.38
362.296	354.38
362.523	356.38
362.749	368.38
362.976	350.38
363.203	340.38
363.429	328.38
363.656	346.38
363.882	330.38
364.109	335.38
364.335	343.38
364.562	330.38
364.788	349.38
365.015	345.38
365.241	338.38
365.468	325.38
365.694	346.38
365.92	349.38
366.147	344.38
366.373	326.38
366.599	345.38
366.826	323.38
367.052	323.38
367.278	330.38
367.505	344.38
367.731	322.38
367.957	330.38
368.184	347.38
368.41	357.38
368.636	365.38
368.862	358.38
369.089	353.38
369.315	348.38
369.541	349.38
369.767	345.38
369.993	334.38
370.219	327.38
370.445	335.38
370.672	334.38
370.898	342.38
371.124	340.38
371.35	326.38
371.576	335.38
371.802	319.38
372.028	332.38
372.254	337.38
372.48	338.38
372.706	327.38
372.932	332.38
373.158	334.38
373.384	331.38
373.61	341.38
373.835	332.38
374.061	319.38
374.287	333.38
374.513	327.38
374.739	342.38
374.965	344.38
375.191	334.38
375.416	338.38
375.642	343.38
375.868	352.38
376.094	343.38
376.319	326.38
376.545	324.38
376.771	340.38
376.997	320.38
377.222	325.38
377.448	323.38
377.674	338.38
377.899	334.38
378.125	338.38
378.35	322.38
378.576	319.38
378.802	329.38
379.027	319.38
379.253	336.38
379.478	333.38
379.704	325.38
379.929	313.38
380.155	346.38
380.38	336.38
380.606	338.38
380.831	308.38
381.057	342.38
381.282	332.38
381.507	342.38
381.733	329.38
381.958	338.38
382.184	345.38
382.409	353.38
382.634	323.38
382.86	351.38
383.085	334.38
383.31	339.38
383.535	352.38
383.761	331.38
383.986	328.38
384.211	357.38
384.436	375.38
384.662	364.38
384.887	369.38
385.112	347.38
385.337	352.38
385.562	348.38
385.787	357.38
386.013	388.38
386.238	366.38
386.463	353.38
386.688	358.38
386.913	357.38
387.138	356.38
387.363	352.38
387.588	360.38
387.813	354.38
388.038	346.38
388.263	361.38
388.488	362.38
388.713	373.38
388.938	357.38
389.163	362.38
389.387	368.38
389.612	376.38
389.837	364.38
390.062	363.38
390.287	371.38
390.512	342.38
390.736	355.38
390.961	346.38
391.186	357.38
391.411	364.38
391.636	356.38
391.86	374.38
392.085	363.38
392.31	359.38
392.534	370.38
392.759	364.38
392.984	358.38
393.208	377.38
393.433	376.38
393.658	346.38
393.882	368.38
394.107	368.38
394.331	363.38
394.556	360.38
394.78	354.38
395.005	362.38
395.229	363.38
395.454	353.38
395.678	359.38
395.903	386.38
396.127	396.38
396.352	392.38
396.576	381.38
396.801	369.38
397.025	360.38
397.249	392.38
397.474	401.38
397.698	347.38
397.922	384.38
398.147	414.38
398.371	409.38
398.595	381.38
398.82	391.38
399.044	397.38
399.268	432.38
399.492	445.38
399.717	453.38
399.941	455.38
400.165	492.38
400.389	476.38
400.613	447.38
400.837	438.38
401.062	419.38
401.286	390.38
401.51	404.38
401.734	408.38
401.958	399.38
402.182	415.38
402.406	413.38
402.63	412.38
402.854	417.38
403.078	398.38
403.302	407.38
403.526	409.38
403.75	406.38
403.974	419.38
404.198	402.38
404.422	415.38
404.645	436.38
404.869	418.38
405.093	418.38
405.317	453.38
405.541	451.38
405.765	447.38
405.988	425.38
406.212	455.38
406.436	456.38
406.66	459.38
406.883	451.38
407.107	464.38
407.331	500.38
407.555	572.38
407.778	525.38
408.002	460.38
408.226	458.38
408.449	474.38
408.673	470.38
408.896	474.38
409.12	500.38
409.344	500.38
409.567	442.38
409.791	433.38
410.014	424.38
410.238	422.38
410.461	453.38
410.685	418.38
410.908	412.38
411.132	465.38
411.355	468.38
411.578	441.38
411.802	436.38
412.025	397.38
412.249	422.38
412.472	430.38
412.695	439.38
412.919	408.38
413.142	376.38
413.365	384.38
413.589	385.38
413.812	392.38
414.035	390.38
414.258	385.38
414.482	398.38
414.705	421.38
414.928	386.38
415.151	389.38
415.374	396.38
415.597	376.38
415.821	385.38
416.044	400.38
416.267	410.38
416.49	376.38
416.713	389.38
416.936	407.38
417.159	382.38
417.382	399.38
417.605	397.38
417.828	410.38
418.051	408.38
418.274	437.38
418.497	404.38
418.72	389.38
418.943	386.38
419.166	423.38
419.389	423.38
419.611	416.38
419.834	428.38
420.057	420.38
420.28	403.38
420.503	418.38
420.726	413.38
420.948	420.38
421.171	448.38
421.394	446.38
421.617	434.38
421.839	398.38
422.062	404.38
422.285	428.38
422.507	446.38
422.73	535.38
422.953	497.38
423.175	453.38
423.398	419.38
423.621	414.38
423.843	452.38
424.066	440.38
424.288	429.38
424.511	452.38
424.733	489.38
424.956	545.38
425.178	537.38
425.401	542.38
425.623	531.38
425.846	466.38
426.068	436.38
426.291	448.38
426.513	465.38
426.735	456.38
426.958	472.38
427.18	532.38
427.402	642.38
427.625	680.38
427.847	618.38
428.069	531.38
428.292	449.38
428.514	460.38
428.736	434.38
428.958	426.38
429.181	425.38
429.403	430.38
429.625	415.38
429.847	431.38
430.069	476.38
430.292	470.38
430.514	434.38
430.736	399.38
430.958	390.38
431.18	401.38
431.402	382.38
431.624	386.38
431.846	388.38
432.068	399.38
432.29	399.38
432.512	407.38
432.734	396.38
432.956	389.38
433.178	405.38
433.4	391.38
433.622	401.38
433.844	372.38
434.066	378.38
434.287	371.38
434.509	386.38
434.731	412.38
434.953	402.38
435.175	401.38
435.397	419.38
435.618	444.38
435.84	481.38
436.062	550.38
436.284	582.38
436.505	484.38
436.727	456.38
436.949	441.38
437.17	406.38
437.392	418.38
437.614	428.38
437.835	466.38
438.057	527.38
438.278	599.38
438.5	604.38
438.721	636.38
438.943	627.38
439.165	502.38
439.386	469.38
439.608	454.38
439.829	457.38
440.05	478.38
440.272	509.38
440.493	467.38
440.715	446.38
440.936	438.38
441.158	425.38
441.379	414.38
441.6	437.38
441.822	462.38
442.043	471.38
442.264	536.38
442.486	549.38
442.707	500.38
442.928	470.38
443.149	456.38
443.371	467.38
443.592	524.38
443.813	581.38
444.034	608.38
444.255	501.38
444.476	453.38
444.698	457.38
444.919	450.38
445.14	549.38
445.361	528.38
445.582	500.38
445.803	519.38
446.024	576.38
446.245	584.38
446.466	561.38
446.687	476.38
446.908	444.38
447.129	421.38
447.35	416.38
447.571	411.38
447.792	417.38
448.013	411.38
448.234	430.38
448.455	460.38
448.675	557.38
448.896	614.38
449.117	545.38
449.338	512.38
449.559	589.38
449.779	635.38
450	523.38
450.221	450.38
450.442	422.38
450.662	418.38
450.883	424.38
451.104	425.38
451.324	404.38
451.545	384.38
451.766	397.38
451.986	386.38
452.207	368.38
452.428	377.38
452.648	360.38
452.869	374.38
453.089	398.38
453.31	409.38
453.53	383.38
453.751	387.38
453.971	378.38
454.192	410.38
454.412	385.38
454.633	389.38
454.853	369.38
455.073	358.38
455.294	382.38
455.514	456.38
455.734	421.38
455.955	357.38
456.175	366.38
456.395	355.38
456.616	345.38
456.836	370.38
457.056	369.38
457.276	345.38
457.497	344.38
457.717	371.38
457.937	342.38
458.157	346.38
458.377	362.38
458.598	408.38
458.818	416.38
459.038	502.38
459.258	487.38
459.478	421.38
459.698	384.38
459.918	394.38
460.138	378.38
460.358	396.38
460.578	389.38
460.798	409.38
461.018	388.38
461.238	389.38
461.458	383.38
461.678	389.38
461.898	387.38
462.118	389.38
462.338	413.38
462.558	407.38
462.777	411.38
462.997	431.38
463.217	427.38
463.437	434.38
463.657	432.38
463.876	425.38
464.096	404.38
464.316	420.38
464.536	408.38
464.755	417.38
464.975	430.38
465.195	474.38
465.414	515.38
465.634	458.38
465.854	406.38
466.073	413.38
466.293	381.38
466.512	387.38
466.732	372.38
466.951	391.38
467.171	379.38
467.391	393.38
467.61	390.38
467.829	398.38
468.049	384.38
468.268	362.38
468.488	373.38
468.707	376.38
468.927	366.38
469.146	378.38
469.365	390.38
469.585	379.38
469.804	361.38
470.023	381.38
470.243	409.38
470.462	414.38
470.681	404.38
470.901	399.38
471.12	388.38
471.339	388.38
471.558	408.38
471.777	374.38
471.997	378.38
472.216	379.38
472.435	387.38
472.654	372.38
472.873	369.38
473.092	386.38
473.311	389.38
473.53	383.38
473.749	412.38
473.968	425.38
474.187	514.38
474.406	509.38
474.625	423.38
474.844	390.38
475.063	396.38
475.282	384.38
475.501	397.38
475.72	402.38
475.939	393.38
476.158	386.38
476.377	392.38
476.596	385.38
476.814	393.38
477.033	407.38
477.252	408.38
477.471	415.38
477.69	420.38
477.908	426.38
478.127	412.38
478.346	405.38
478.564	428.38
478.783	408.38
479.002	428.38
479.22	457.38
479.439	450.38
479.658	455.38
479.876	459.38
480.095	445.38
480.313	473.38
480.532	457.38
480.751	440.38
480.969	466.38
481.188	478.38
481.406	474.38
481.624	471.38
481.843	436.38
482.061	430.38
482.28	457.38
482.498	439.38
482.717	427.38
482.935	463.38
483.153	449.38
483.372	456.38
483.59	422.38
483.808	435.38
484.027	442.38
484.245	445.38
484.463	436.38
484.681	433.38
484.9	470.38
485.118	464.38
485.336	468.38
485.554	442.38
485.772	458.38
485.99	447.38
486.209	470.38
486.427	457.38
486.645	468.38
486.863	481.38
487.081	470.38
487.299	469.38
487.517	468.38
487.735	469.38
487.953	484.38
488.171	487.38
488.389	480.38
488.607	470.38
488.825	487.38
489.043	466.38
489.261	503.38
489.479	466.38
489.696	493.38
489.914	483.38
490.132	485.38
490.35	497.38
490.568	524.38
490.786	519.38
491.003	512.38
491.221	529.38
491.439	535.38
491.657	519.38
491.874	534.38
492.092	544.38
492.31	545.38
492.527	557.38
492.745	546.38
492.963	551.38
493.18	574.38
493.398	589.38
493.615	564.38
493.833	554.38
494.05	584.38
494.268	566.38
494.485	557.38
494.703	567.38
494.92	574.38
495.138	576.38
495.355	586.38
495.573	562.38
495.79	566.38
496.008	581.38
496.225	574.38
496.442	580.38
496.66	563.38
496.877	577.38
497.094	582.38
497.312	581.38
497.529	562.38
497.746	573.38
497.963	578.38
498.181	601.38
498.398	617.38
498.615	622.38
498.832	626.38
499.049	630.38
499.267	669.38
499.484	665.38
499.701	675.38
499.918	688.38
500.135	733.38
500.352	742.38
500.569	738.38
500.786	749.38
501.003	758.38
501.22	748.38
501.437	716.38
501.654	710.38
501.871	715.38
502.088	670.38
502.305	667.38
502.522	634.38
502.739	638.38
502.956	601.38
503.172	597.38
503.389	589.38
503.606	602.38
503.823	584.38
504.04	583.38
504.256	584.38
504.473	564.38
504.69	578.38
504.907	551.38
505.123	552.38
505.34	549.38
505.557	552.38
505.773	545.38
505.99	537.38
506.207	544.38
506.423	544.38
506.64	540.38
506.856	504.38
507.073	542.38
507.289	539.38
507.506	509.38
507.722	524.38
507.939	570.38
508.155	536.38
508.372	530.38
508.588	501.38
508.805	521.38
509.021	522.38
509.238	519.38
509.454	529.38
509.67	524.38
509.887	514.38
510.103	513.38
510.319	552.38
510.536	613.38
510.752	1038.38
510.968	848.38
511.184	554.38
511.401	531.38
511.617	511.38
511.833	526.38
512.049	480.38
512.265	485.38
512.481	488.38
512.698	478.38
512.914	463.38
513.13	486.38
513.346	475.38
513.562	493.38
513.778	505.38
513.994	514.38
514.21	524.38
514.426	550.38
514.642	562.38
514.858	571.38
515.074	625.38
515.29	752.38
515.506	1140.38
515.721	898.38
515.937	603.38
516.153	575.38
516.369	518.38
516.585	532.38
516.801	515.38
517.016	503.38
517.232	517.38
517.448	497.38
517.664	526.38
517.879	507.38
518.095	520.38
518.311	496.38
518.527	513.38
518.742	500.38
518.958	489.38
519.173	507.38
519.389	500.38
519.605	487.38
519.82	486.38
520.036	521.38
520.251	521.38
520.467	558.38
520.682	553.38
520.898	562.38
521.113	585.38
521.329	598.38
521.544	689.38
521.76	888.38
521.975	1478.38
522.19	1480.38
522.406	788.38
522.621	578.38
522.836	530.38
523.052	497.38
523.267	476.38
523.482	454.38
523.698	451.38
523.913	462.38
524.128	469.38
524.343	434.38
524.559	430.38
524.774	416.38
524.989	434.38
525.204	434.38
525.419	449.38
525.634	428.38
525.849	406.38
526.064	407.38
526.28	397.38
526.495	389.38
526.71	415.38
526.925	401.38
527.14	391.38
527.355	403.38
527.57	429.38
527.785	415.38
527.999	404.38
528.214	399.38
528.429	395.38
528.644	413.38
528.859	405.38
529.074	420.38
529.289	443.38
529.503	524.38
529.718	488.38
529.933	426.38
530.148	430.38
530.363	404.38
530.577	408.38
530.792	402.38
531.007	362.38
531.221	383.38
531.436	389.38
531.651	396.38
531.865	390.38
532.08	381.38
532.295	386.38
532.509	383.38
532.724	397.38
532.938	388.38
533.153	389.38
533.367	392.38
533.582	370.38
533.796	399.38
534.011	370.38
534.225	381.38
534.44	383.38
534.654	378.38
534.868	369.38
535.083	370.38
535.297	359.38
535.511	388.38
535.726	394.38
535.94	393.38
536.154	382.38
536.369	368.38
536.583	358.38
536.797	374.38
537.011	379.38
537.225	377.38
537.44	366.38
537.654	357.38
537.868	363.38
538.082	380.38
538.296	378.38
538.51	372.38
538.724	369.38
538.938	369.38
539.153	370.38
539.367	384.38
539.581	372.38
539.795	375.38
540.009	364.38
540.222	365.38
540.436	349.38
540.65	371.38
540.864	380.38
541.078	373.38
541.292	371.38
541.506	388.38
541.72	382.38
541.934	370.38
542.147	376.38
542.361	374.38
542.575	366.38
542.789	388.38
543.002	344.38
543.216	368.38
543.43	374.38
543.644	371.38
543.857	365.38
544.071	391.38
544.285	374.38
544.498	364.38
544.712	367.38
544.925	359.38
545.139	380.38
545.352	368.38
545.566	337.38
545.779	332.38
545.993	363.38
546.206	370.38
546.42	346.38
546.633	360.38
546.847	352.38
547.06	344.38
547.274	343.38
547.487	340.38
547.7	351.38
547.914	343.38
548.127	342.38
548.34	350.38
548.554	348.38
548.767	376.38
548.98	342.38
549.193	352.38
549.407	359.38
549.62	359.38
549.833	350.38
550.046	351.38
550.259	360.38
550.473	348.38
550.686	342.38
550.899	348.38
551.112	368.38
551.325	352.38
551.538	344.38
551.751	334.38
551.964	344.38
552.177	333.38
552.39	340.38
552.603	346.38
552.816	348.38
553.029	349.38
553.242	347.38
553.455	354.38
553.667	369.38
553.88	364.38
554.093	356.38
554.306	369.38
554.519	354.38
554.732	348.38
554.944	323.38
555.157	350.38
555.37	328.38
555.583	315.38
555.795	331.38
556.008	322.38
556.221	343.38
556.433	327.38
556.646	325.38
556.859	312.38
557.071	327.38
557.284	323.38
557.496	319.38
557.709	296.38
557.921	318.38
558.134	321.38
558.346	304.38
558.559	312.38
558.771	310.38
558.984	307.38
559.196	310.38
559.409	312.38
559.621	298.38
559.833	283.38
560.046	305.38
560.258	316.38
560.47	296.38
560.683	304.38
560.895	322.38
561.107	297.38
561.32	302.38
561.532	306.38
561.744	301.38
561.956	306.38
562.168	292.38
562.381	294.38
562.593	316.38
562.805	289.38
563.017	308.38
563.229	314.38
563.441	309.38
563.653	310.38
563.865	298.38
564.077	323.38
564.289	309.38
564.501	334.38
564.713	306.38
564.925	326.38
565.137	316.38
565.349	331.38
565.561	330.38
565.773	324.38
565.985	336.38
566.197	328.38
566.408	325.38
566.62	336.38
566.832	357.38
567.044	348.38
567.255	362.38
567.467	362.38
567.679	386.38
567.891	374.38
568.102	364.38
568.314	370.38
568.526	349.38
568.737	328.38
568.949	329.38
569.161	321.38
569.372	315.38
569.584	326.38
569.795	336.38
570.007	308.38
570.218	349.38
570.43	321.38
570.641	310.38
570.853	306.38
571.064	307.38
571.276	313.38
571.487	288.38
571.698	292.38
571.91	284.38
572.121	291.38
572.333	279.38
572.544	285.38
572.755	290.38
572.966	265.38
573.178	276.38
573.389	262.38
573.6	255.38
573.811	275.38
574.023	281.38
574.234	260.38
574.445	254.38
574.656	269.38
574.867	271.38
575.078	256.38
575.289	273.38
575.501	277.38
575.712	277.38
575.923	273.38
576.134	258.38
576.345	258.38
576.556	265.38
576.767	260.38
576.978	287.38
577.188	265.38
577.399	265.38
577.61	268.38
577.821	262.38
578.032	257.38
578.243	286.38
578.454	492.38
578.665	376.38
578.875	271.38
579.086	250.38
579.297	244.38
579.508	241.38
579.718	248.38
579.929	247.38
580.14	235.38
580.35	267.38
580.561	241.38
580.772	236.38
580.982	249.38
581.193	249.38
581.403	231.38
581.614	232.38
581.825	256.38
582.035	238.38
582.246	265.38
582.456	242.38
582.667	232.38
582.877	235.38
583.087	238.38
583.298	232.38
583.508	233.38
583.719	249.38
583.929	249.38
584.139	248.38
584.35	234.38
584.56	251.38
584.77	228.38
584.981	236.38
585.191	245.38
585.401	222.38
585.611	221.38
585.821	245.38
586.032	234.38
586.242	247.38
586.452	230.38
586.662	246.38
586.872	243.38
587.082	223.38
587.292	232.38
587.502	225.38
587.713	233.38
587.923	242.38
588.133	215.38
588.343	226.38
588.553	242.38
588.762	229.38
588.972	245.38
589.182	242.38
589.392	233.38
589.602	232.38
589.812	241.38
590.022	238.38
590.232	236.38
590.441	227.38
590.651	233.38
590.861	240.38
591.071	244.38
591.281	219.38
591.49	222.38
591.7	254.38
591.91	229.38
592.119	238.38
592.329	249.38
592.539	250.38
592.748	260.38
592.958	252.38
593.167	224.38
593.377	236.38
593.587	252.38
593.796	257.38
594.006	252.38
594.215	235.38
594.424	251.38
594.634	258.38
594.843	239.38
595.053	248.38
595.262	234.38
595.472	243.38
595.681	233.38
595.89	207.38
596.1	217.38
596.309	208.38
596.518	220.38
596.727	233.38
596.937	228.38
597.146	224.38
597.355	230.38
597.564	213.38
597.774	205.38
597.983	211.38
598.192	216.38
598.401	204.38
598.61	219.38
598.819	211.38
599.028	207.38
599.237	195.38
599.446	203.38
599.655	203.38
599.864	213.38
600.073	200.38
600.282	200.38
600.491	205.38
600.7	221.38
600.909	223.38
601.118	218.38
601.327	219.38
601.536	192.38
601.745	226.38
601.953	215.38
602.162	204.38
602.371	205.38
602.58	208.38
602.789	196.38
602.997	212.38
603.206	224.38
603.415	210.38
603.623	199.38
603.832	171.38
604.041	179.38
604.249	204.38
604.458	198.38
604.666	188.38
604.875	191.38
605.084	193.38
605.292	212.38
605.501	209.38
605.709	206.38
605.918	206.38
606.126	210.38
606.334	189.38
606.543	219.38
606.751	211.38
606.96	200.38
607.168	209.38
607.376	201.38
607.585	186.38
607.793	206.38
608.001	208.38
608.21	187.38
608.418	206.38
608.626	197.38
608.834	208.38
609.043	211.38
609.251	189.38
609.459	210.38
609.667	196.38
609.875	180.38
610.083	195.38
610.291	206.38
610.499	196.38
610.707	193.38
610.916	188.38
611.124	201.38
611.332	190.38
611.54	204.38
611.748	218.38
611.955	202.38
612.163	186.38
612.371	197.38
612.579	187.38
612.787	197.38
612.995	190.38
613.203	197.38
613.411	193.38
613.618	193.38
613.826	186.38
614.034	188.38
614.242	196.38
614.449	176.38
614.657	190.38
614.865	194.38
615.072	190.38
615.28	186.38
615.488	188.38
615.695	183.38
615.903	192.38
616.111	184.38
616.318	187.38
616.526	190.38
616.733	182.38
616.941	179.38
617.148	197.38
617.356	194.38
617.563	184.38
617.771	196.38
617.978	188.38
618.185	184.38
618.393	185.38
618.6	194.38
618.807	182.38
619.015	192.38
619.222	205.38
619.429	184.38
619.637	170.38
619.844	196.38
620.051	178.38
620.258	194.38
620.466	186.38
620.673	177.38
620.88	192.38
621.087	184.38
621.294	188.38
621.501	182.38
621.708	191.38
621.915	180.38
622.122	191.38
622.329	153.38
622.536	177.38
622.743	182.38
622.95	187.38
623.157	176.38
623.364	179.38
623.571	193.38
623.778	185.38
623.985	183.38
624.192	173.38
624.399	182.38
624.606	180.38
624.812	169.38
625.019	169.38
625.226	172.38
625.433	168.38
625.639	170.38
625.846	166.38
626.053	175.38
626.259	162.38
626.466	164.38
626.673	168.38
626.879	172.38
627.086	176.38
627.293	171.38
627.499	177.38
627.706	157.38
627.912	163.38
628.119	161.38
628.325	180.38
628.532	154.38
628.738	169.38
628.945	171.38
629.151	161.38
629.357	174.38
629.564	174.38
629.77	148.38
629.976	177.38
630.183	161.38
630.389	155.38
630.595	165.38
630.802	160.38
631.008	156.38
631.214	160.38
631.42	182.38
631.627	169.38
631.833	176.38
632.039	164.38
632.245	154.38
632.451	151.38
632.657	166.38
632.863	156.38
633.069	169.38
633.275	154.38
633.481	154.38
633.688	178.38
633.893	155.38
634.099	151.38
634.305	151.38
634.511	146.38
634.717	164.38
634.923	147.38
635.129	155.38
635.335	145.38
635.541	151.38
635.747	154.38
635.952	148.38
636.158	167.38
636.364	155.38
636.57	165.38
636.775	151.38
636.981	146.38
637.187	145.38
637.392	145.38
637.598	157.38
637.804	147.38
638.009	168.38
638.215	149.38
638.421	150.38
638.626	149.38
638.832	152.38
639.037	158.38
639.243	145.38
639.448	141.38
639.654	161.38
639.859	132.38
640.065	150.38
640.27	159.38
640.475	143.38
640.681	136.38
640.886	166.38
641.091	150.38
641.297	156.38
641.502	158.38
641.707	153.38
641.913	146.38
642.118	151.38
642.323	154.38
642.528	133.38
642.733	151.38
642.939	154.38
643.144	131.38
643.349	140.38
643.554	153.38
643.759	150.38
643.964	144.38
644.169	137.38
644.374	147.38
644.579	136.38
644.784	132.38
644.989	160.38
645.194	146.38
645.399	143.38
645.604	157.38
645.809	137.38
646.014	142.38
646.219	146.38
646.423	142.38
646.628	148.38
646.833	137.38
647.038	132.38
647.243	147.38
647.447	152.38
647.652	132.38
647.857	130.38
648.062	151.38
648.266	148.38
648.471	155.38
648.676	146.38
648.88	128.38
649.085	149.38
649.289	153.38
649.494	146.38
649.698	155.38
649.903	155.38
650.107	140.38
650.312	160.38
650.516	135.38
650.721	134.38
650.925	128.38
651.13	139.38
651.334	124.38
651.539	129.38
651.743	141.38
651.947	127.38
652.152	118.38
652.356	109.38
652.56	126.38
652.764	120.38
652.969	120.38
653.173	141.38
653.377	113.38
653.581	126.38
653.785	127.38
653.99	120.38
654.194	117.38
654.398	124.38
654.602	117.38
654.806	129.38
655.01	119.38
655.214	124.38
655.418	133.38
655.622	131.38
655.826	132.38
656.03	120.38
656.234	126.38
656.438	114.38
656.642	126.38
656.846	131.38
657.049	104.38
657.253	116.38
657.457	118.38
657.661	118.38
657.865	98.38
658.068	97.38
658.272	100.38
658.476	94.38
658.68	102.38
658.883	91.38
659.087	98.38
659.291	104.38
659.494	91.38
659.698	99.38
659.901	108.38
660.105	96.38
660.309	101.38
660.512	85.38
660.716	84.38
660.919	84.38
661.123	91.38
661.326	96.38
661.53	104.38
661.733	84.38
661.936	80.38
662.14	86.38
662.343	92.38
662.546	92.38
662.75	89.38
662.953	84.38
663.156	81.38
663.36	84.38
663.563	97.38
663.766	82.38
663.969	84.38
664.173	92.38
664.376	94.38
664.579	100.38
664.782	86.38
664.985	71.38
665.188	59.38
665.391	74.38
665.594	81.38
665.797	92.38
666	78.38
666.203	85.38
666.406	77.38
666.609	85.38
666.812	92.38
667.015	78.38
667.218	76.38
667.421	74.38
667.624	77.38
667.827	83.38
668.03	89.38
668.232	71.38
668.435	88.38
668.638	80.38
668.841	81.38
669.043	73.38
669.246	74.38
669.449	90.38
669.651	83.38
669.854	62.38
670.057	78.38
670.259	77.38
670.462	76.38
670.665	89.38
670.867	82.38
671.07	77.38
671.272	92.38
671.475	80.38
671.677	94.38
671.88	85.38
672.082	87.38
672.284	73.38
672.487	84.38
672.689	76.38
672.892	91.38
