Data from 1983.PennyLincolnUp.Lamp.En5.5.200Scan.071819.P1_HRD10591_16-54-22-965.txt Node
Date: Thu Jul 18 16:54:22 EDT 2019
User: cochatt
Spectrometer: HR+D1059
Trigger mode: 1
Integration Time (sec): 1.000000E-1
Scans to average: 1
Electric dark correction enabled: true
Nonlinearity correction enabled: false
Boxcar width: 0
XAxis mode: Wavelengths
Number of Pixels in Spectrum: 2048
>>>>>Begin Spectral Data<<<<<
223.165	-9.94
223.4	-9.94
223.635	-9.94
223.869	-7.94
224.104	-5.94
224.338	-13.94
224.573	-18.94
224.808	-28.94
225.042	-8.94
225.277	-3.94
225.511	9.06
225.746	-5.94
225.98	12.06
226.215	11.06
226.449	-1.94
226.683	16.06
226.918	31.06
227.152	27.06
227.387	40.06
227.621	43.06
227.856	30.06
228.09	53.06
228.324	64.06
228.559	55.06
228.793	73.06
229.027	91.06
229.262	102.06
229.496	117.06
229.73	129.06
229.964	146.06
230.199	131.06
230.433	122.06
230.667	117.06
230.901	123.06
231.136	122.06
231.37	120.06
231.604	102.06
231.838	106.06
232.072	107.06
232.306	98.06
232.541	102.06
232.775	116.06
233.009	113.06
233.243	111.06
233.477	115.06
233.711	107.06
233.945	119.06
234.179	125.06
234.413	115.06
234.647	104.06
234.881	119.06
235.115	113.06
235.349	117.06
235.583	125.06
235.817	112.06
236.051	100.06
236.285	112.06
236.519	133.06
236.753	140.06
236.987	159.06
237.221	181.06
237.455	193.06
237.689	169.06
237.922	145.06
238.156	119.06
238.39	137.06
238.624	121.06
238.858	118.06
239.091	123.06
239.325	129.06
239.559	114.06
239.793	125.06
240.027	126.06
240.26	134.06
240.494	152.06
240.728	142.06
240.961	149.06
241.195	135.06
241.429	124.06
241.662	131.06
241.896	127.06
242.13	123.06
242.363	132.06
242.597	133.06
242.83	121.06
243.064	143.06
243.298	133.06
243.531	147.06
243.765	140.06
243.998	146.06
244.232	137.06
244.465	129.06
244.699	132.06
244.932	142.06
245.166	142.06
245.399	133.06
245.633	141.06
245.866	150.06
246.099	133.06
246.333	121.06
246.566	131.06
246.8	138.06
247.033	139.06
247.266	142.06
247.5	139.06
247.733	157.06
247.966	166.06
248.2	159.06
248.433	165.06
248.666	163.06
248.899	177.06
249.133	173.06
249.366	178.06
249.599	194.06
249.832	187.06
250.066	177.06
250.299	185.06
250.532	205.06
250.765	194.06
250.998	223.06
251.231	204.06
251.465	203.06
251.698	206.06
251.931	193.06
252.164	171.06
252.397	185.06
252.63	179.06
252.863	189.06
253.096	201.06
253.329	215.06
253.562	209.06
253.795	200.06
254.028	208.06
254.261	215.06
254.494	193.06
254.727	235.06
254.96	256.06
255.193	237.06
255.426	219.06
255.659	211.06
255.892	217.06
256.124	207.06
256.357	219.06
256.59	217.06
256.823	222.06
257.056	201.06
257.289	194.06
257.521	185.06
257.754	204.06
257.987	208.06
258.22	200.06
258.452	183.06
258.685	199.06
258.918	184.06
259.151	210.06
259.383	197.06
259.616	199.06
259.849	211.06
260.081	221.06
260.314	224.06
260.547	250.06
260.779	215.06
261.012	237.06
261.244	219.06
261.477	212.06
261.71	208.06
261.942	202.06
262.175	224.06
262.407	230.06
262.64	216.06
262.872	207.06
263.105	209.06
263.337	201.06
263.57	197.06
263.802	215.06
264.035	191.06
264.267	206.06
264.499	185.06
264.732	208.06
264.964	208.06
265.197	190.06
265.429	199.06
265.661	202.06
265.894	211.06
266.126	203.06
266.358	205.06
266.591	209.06
266.823	214.06
267.055	205.06
267.287	208.06
267.52	231.06
267.752	205.06
267.984	217.06
268.216	216.06
268.448	226.06
268.681	215.06
268.913	221.06
269.145	242.06
269.377	258.06
269.609	250.06
269.841	255.06
270.073	261.06
270.306	286.06
270.538	288.06
270.77	282.06
271.002	299.06
271.234	269.06
271.466	271.06
271.698	304.06
271.93	301.06
272.162	298.06
272.394	285.06
272.626	276.06
272.858	268.06
273.09	264.06
273.322	273.06
273.553	250.06
273.785	252.06
274.017	236.06
274.249	235.06
274.481	255.06
274.713	254.06
274.945	249.06
275.176	250.06
275.408	262.06
275.64	256.06
275.872	244.06
276.104	249.06
276.335	241.06
276.567	266.06
276.799	288.06
277.031	294.06
277.262	298.06
277.494	298.06
277.726	292.06
277.957	267.06
278.189	262.06
278.421	279.06
278.652	235.06
278.884	273.06
279.115	233.06
279.347	257.06
279.579	247.06
279.81	262.06
280.042	241.06
280.273	249.06
280.505	242.06
280.736	249.06
280.968	238.06
281.199	242.06
281.431	243.06
281.662	247.06
281.894	259.06
282.125	230.06
282.356	285.06
282.588	305.06
282.819	295.06
283.051	269.06
283.282	259.06
283.513	256.06
283.745	264.06
283.976	275.06
284.207	249.06
284.439	251.06
284.67	266.06
284.901	266.06
285.132	262.06
285.364	249.06
285.595	249.06
285.826	239.06
286.057	262.06
286.288	263.06
286.52	273.06
286.751	274.06
286.982	249.06
287.213	255.06
287.444	274.06
287.675	266.06
287.906	276.06
288.138	289.06
288.369	288.06
288.6	289.06
288.831	286.06
289.062	274.06
289.293	262.06
289.524	279.06
289.755	275.06
289.986	264.06
290.217	259.06
290.448	260.06
290.679	248.06
290.91	276.06
291.141	263.06
291.371	268.06
291.602	276.06
291.833	271.06
292.064	247.06
292.295	259.06
292.526	267.06
292.757	266.06
292.987	265.06
293.218	255.06
293.449	265.06
293.68	269.06
293.91	277.06
294.141	275.06
294.372	257.06
294.603	264.06
294.833	266.06
295.064	270.06
295.295	276.06
295.525	288.06
295.756	283.06
295.987	268.06
296.217	309.06
296.448	291.06
296.679	291.06
296.909	266.06
297.14	270.06
297.37	284.06
297.601	286.06
297.831	280.06
298.062	268.06
298.292	271.06
298.523	275.06
298.753	288.06
298.984	293.06
299.214	310.06
299.445	275.06
299.675	301.06
299.905	304.06
300.136	268.06
300.366	285.06
300.597	274.06
300.827	302.06
301.057	316.06
301.288	297.06
301.518	304.06
301.748	283.06
301.979	299.06
302.209	298.06
302.439	303.06
302.669	305.06
302.9	306.06
303.13	317.06
303.36	309.06
303.59	313.06
303.82	334.06
304.051	313.06
304.281	293.06
304.511	295.06
304.741	307.06
304.971	289.06
305.201	306.06
305.431	294.06
305.661	299.06
305.891	319.06
306.121	301.06
306.352	323.06
306.582	318.06
306.812	306.06
307.042	307.06
307.272	292.06
307.502	323.06
307.731	310.06
307.961	304.06
308.191	296.06
308.421	301.06
308.651	321.06
308.881	310.06
309.111	316.06
309.341	318.06
309.571	337.06
309.8	337.06
310.03	340.06
310.26	358.06
310.49	343.06
310.72	362.06
310.949	382.06
311.179	389.06
311.409	366.06
311.639	346.06
311.868	358.06
312.098	366.06
312.328	377.06
312.557	407.06
312.787	405.06
313.017	387.06
313.246	366.06
313.476	361.06
313.706	368.06
313.935	380.06
314.165	395.06
314.394	378.06
314.624	379.06
314.853	364.06
315.083	360.06
315.312	355.06
315.542	354.06
315.771	340.06
316.001	367.06
316.23	347.06
316.46	338.06
316.689	341.06
316.919	359.06
317.148	368.06
317.377	355.06
317.607	377.06
317.836	365.06
318.065	354.06
318.295	367.06
318.524	363.06
318.753	376.06
318.983	359.06
319.212	357.06
319.441	363.06
319.67	359.06
319.9	370.06
320.129	339.06
320.358	386.06
320.587	361.06
320.816	377.06
321.046	375.06
321.275	381.06
321.504	367.06
321.733	373.06
321.962	387.06
322.191	398.06
322.42	409.06
322.649	433.06
322.878	451.06
323.108	441.06
323.337	471.06
323.566	493.06
323.795	520.06
324.024	579.06
324.253	709.06
324.482	1037.06
324.71	1552.06
324.939	2094.06
325.168	1736.06
325.397	951.06
325.626	626.06
325.855	546.06
326.084	517.06
326.313	493.06
326.542	505.06
326.77	523.06
326.999	636.06
327.228	913.06
327.457	1361.06
327.686	1527.06
327.914	1047.06
328.143	711.06
328.372	630.06
328.6	571.06
328.829	558.06
329.058	542.06
329.287	573.06
329.515	541.06
329.744	488.06
329.972	506.06
330.201	507.06
330.43	531.06
330.658	600.06
330.887	602.06
331.115	576.06
331.344	484.06
331.572	466.06
331.801	447.06
332.03	466.06
332.258	447.06
332.486	451.06
332.715	433.06
332.943	419.06
333.172	447.06
333.4	446.06
333.629	439.06
333.857	445.06
334.085	455.06
334.314	466.06
334.542	479.06
334.771	495.06
334.999	466.06
335.227	441.06
335.455	427.06
335.684	418.06
335.912	400.06
336.14	405.06
336.369	395.06
336.597	420.06
336.825	401.06
337.053	411.06
337.281	403.06
337.51	408.06
337.738	427.06
337.966	404.06
338.194	405.06
338.422	423.06
338.65	417.06
338.878	410.06
339.106	400.06
339.334	387.06
339.562	402.06
339.79	395.06
340.018	397.06
340.246	400.06
340.474	396.06
340.702	398.06
340.93	402.06
341.158	408.06
341.386	403.06
341.614	400.06
341.842	401.06
342.07	383.06
342.298	374.06
342.526	394.06
342.754	378.06
342.981	374.06
343.209	393.06
343.437	395.06
343.665	400.06
343.893	389.06
344.12	398.06
344.348	408.06
344.576	407.06
344.804	410.06
345.031	415.06
345.259	406.06
345.487	415.06
345.714	397.06
345.942	379.06
346.17	390.06
346.397	386.06
346.625	377.06
346.853	401.06
347.08	391.06
347.308	382.06
347.535	400.06
347.763	409.06
347.99	403.06
348.218	382.06
348.445	390.06
348.673	374.06
348.9	387.06
349.128	383.06
349.355	373.06
349.583	358.06
349.81	383.06
350.037	379.06
350.265	399.06
350.492	371.06
350.72	369.06
350.947	389.06
351.174	395.06
351.402	403.06
351.629	379.06
351.856	400.06
352.083	395.06
352.311	385.06
352.538	415.06
352.765	414.06
352.992	409.06
353.22	399.06
353.447	374.06
353.674	379.06
353.901	364.06
354.128	360.06
354.355	358.06
354.583	346.06
354.81	351.06
355.037	373.06
355.264	356.06
355.491	345.06
355.718	334.06
355.945	341.06
356.172	360.06
356.399	347.06
356.626	355.06
356.853	358.06
357.08	349.06
357.307	340.06
357.534	347.06
357.761	343.06
357.988	370.06
358.215	360.06
358.441	348.06
358.668	351.06
358.895	367.06
359.122	359.06
359.349	370.06
359.576	383.06
359.802	426.06
360.029	454.06
360.256	439.06
360.483	413.06
360.709	400.06
360.936	389.06
361.163	378.06
361.39	407.06
361.616	389.06
361.843	381.06
362.07	390.06
362.296	392.06
362.523	400.06
362.749	385.06
362.976	385.06
363.203	401.06
363.429	380.06
363.656	378.06
363.882	353.06
364.109	382.06
364.335	366.06
364.562	373.06
364.788	383.06
365.015	380.06
365.241	366.06
365.468	373.06
365.694	351.06
365.92	400.06
366.147	377.06
366.373	366.06
366.599	367.06
366.826	361.06
367.052	361.06
367.278	375.06
367.505	356.06
367.731	378.06
367.957	365.06
368.184	367.06
368.41	390.06
368.636	362.06
368.862	387.06
369.089	385.06
369.315	351.06
369.541	362.06
369.767	364.06
369.993	385.06
370.219	354.06
370.445	354.06
370.672	381.06
370.898	368.06
371.124	353.06
371.35	354.06
371.576	365.06
371.802	364.06
372.028	350.06
372.254	347.06
372.48	355.06
372.706	357.06
372.932	362.06
373.158	361.06
373.384	348.06
373.61	353.06
373.835	358.06
374.061	369.06
374.287	359.06
374.513	354.06
374.739	366.06
374.965	364.06
375.191	363.06
375.416	353.06
375.642	355.06
375.868	341.06
376.094	346.06
376.319	350.06
376.545	366.06
376.771	343.06
376.997	345.06
377.222	357.06
377.448	361.06
377.674	376.06
377.899	351.06
378.125	357.06
378.35	374.06
378.576	350.06
378.802	366.06
379.027	354.06
379.253	359.06
379.478	344.06
379.704	365.06
379.929	345.06
380.155	343.06
380.38	361.06
380.606	342.06
380.831	343.06
381.057	364.06
381.282	373.06
381.507	358.06
381.733	360.06
381.958	358.06
382.184	352.06
382.409	351.06
382.634	357.06
382.86	368.06
383.085	363.06
383.31	357.06
383.535	366.06
383.761	375.06
383.986	374.06
384.211	379.06
384.436	364.06
384.662	361.06
384.887	364.06
385.112	378.06
385.337	380.06
385.562	371.06
385.787	382.06
386.013	401.06
386.238	403.06
386.463	385.06
386.688	382.06
386.913	374.06
387.138	381.06
387.363	384.06
387.588	367.06
387.813	378.06
388.038	383.06
388.263	368.06
388.488	377.06
388.713	383.06
388.938	374.06
389.163	354.06
389.387	393.06
389.612	369.06
389.837	389.06
390.062	388.06
390.287	385.06
390.512	389.06
390.736	368.06
390.961	372.06
391.186	357.06
391.411	370.06
391.636	377.06
391.86	397.06
392.085	397.06
392.31	393.06
392.534	393.06
392.759	394.06
392.984	393.06
393.208	387.06
393.433	379.06
393.658	380.06
393.882	370.06
394.107	383.06
394.331	370.06
394.556	383.06
394.78	386.06
395.005	384.06
395.229	373.06
395.454	382.06
395.678	381.06
395.903	400.06
396.127	403.06
396.352	427.06
396.576	399.06
396.801	399.06
397.025	393.06
397.249	397.06
397.474	412.06
397.698	393.06
397.922	397.06
398.147	424.06
398.371	412.06
398.595	430.06
398.82	411.06
399.044	423.06
399.268	442.06
399.492	480.06
399.717	476.06
399.941	496.06
400.165	485.06
400.389	524.06
400.613	487.06
400.837	455.06
401.062	435.06
401.286	434.06
401.51	439.06
401.734	421.06
401.958	423.06
402.182	444.06
402.406	461.06
402.63	455.06
402.854	447.06
403.078	447.06
403.302	459.06
403.526	457.06
403.75	451.06
403.974	422.06
404.198	437.06
404.422	455.06
404.645	454.06
404.869	465.06
405.093	460.06
405.317	491.06
405.541	519.06
405.765	489.06
405.988	479.06
406.212	486.06
406.436	479.06
406.66	493.06
406.883	488.06
407.107	520.06
407.331	531.06
407.555	571.06
407.778	578.06
408.002	527.06
408.226	473.06
408.449	490.06
408.673	472.06
408.896	498.06
409.12	530.06
409.344	501.06
409.567	457.06
409.791	460.06
410.014	457.06
410.238	459.06
410.461	438.06
410.685	464.06
410.908	437.06
411.132	489.06
411.355	487.06
411.578	491.06
411.802	437.06
412.025	449.06
412.249	455.06
412.472	459.06
412.695	485.06
412.919	496.06
413.142	462.06
413.365	422.06
413.589	453.06
413.812	439.06
414.035	432.06
414.258	425.06
414.482	440.06
414.705	413.06
414.928	448.06
415.151	417.06
415.374	407.06
415.597	421.06
415.821	416.06
416.044	426.06
416.267	423.06
416.49	434.06
416.713	402.06
416.936	409.06
417.159	423.06
417.382	418.06
417.605	421.06
417.828	457.06
418.051	439.06
418.274	434.06
418.497	429.06
418.72	423.06
418.943	409.06
419.166	426.06
419.389	440.06
419.611	433.06
419.834	445.06
420.057	443.06
420.28	434.06
420.503	437.06
420.726	445.06
420.948	454.06
421.171	487.06
421.394	529.06
421.617	471.06
421.839	437.06
422.062	454.06
422.285	453.06
422.507	498.06
422.73	560.06
422.953	515.06
423.175	464.06
423.398	461.06
423.621	463.06
423.843	480.06
424.066	498.06
424.288	480.06
424.511	471.06
424.733	543.06
424.956	574.06
425.178	594.06
425.401	556.06
425.623	560.06
425.846	511.06
426.068	466.06
426.291	455.06
426.513	472.06
426.735	494.06
426.958	514.06
427.18	583.06
427.402	669.06
427.625	731.06
427.847	683.06
428.069	603.06
428.292	498.06
428.514	490.06
428.736	451.06
428.958	463.06
429.181	430.06
429.403	439.06
429.625	449.06
429.847	471.06
430.069	520.06
430.292	527.06
430.514	462.06
430.736	441.06
430.958	423.06
431.18	435.06
431.402	400.06
431.624	406.06
431.846	410.06
432.068	412.06
432.29	421.06
432.512	422.06
432.734	422.06
432.956	418.06
433.178	421.06
433.4	438.06
433.622	437.06
433.844	418.06
434.066	400.06
434.287	430.06
434.509	401.06
434.731	430.06
434.953	395.06
435.175	454.06
435.397	463.06
435.618	470.06
435.84	498.06
436.062	574.06
436.284	638.06
436.505	509.06
436.727	504.06
436.949	455.06
437.17	455.06
437.392	447.06
437.614	461.06
437.835	484.06
438.057	591.06
438.278	649.06
438.5	635.06
438.721	657.06
438.943	648.06
439.165	501.06
439.386	497.06
439.608	502.06
439.829	480.06
440.05	535.06
440.272	532.06
440.493	509.06
440.715	458.06
440.936	475.06
441.158	470.06
441.379	452.06
441.6	442.06
441.822	485.06
442.043	530.06
442.264	578.06
442.486	598.06
442.707	534.06
442.928	490.06
443.149	533.06
443.371	525.06
443.592	551.06
443.813	622.06
444.034	658.06
444.255	555.06
444.476	496.06
444.698	496.06
444.919	475.06
445.14	599.06
445.361	549.06
445.582	532.06
445.803	558.06
446.024	641.06
446.245	642.06
446.466	605.06
446.687	504.06
446.908	492.06
447.129	436.06
447.35	443.06
447.571	455.06
447.792	437.06
448.013	459.06
448.234	454.06
448.455	499.06
448.675	586.06
448.896	653.06
449.117	596.06
449.338	549.06
449.559	625.06
449.779	667.06
450	565.06
450.221	486.06
450.442	458.06
450.662	434.06
450.883	465.06
451.104	475.06
451.324	458.06
451.545	417.06
451.766	414.06
451.986	414.06
452.207	417.06
452.428	395.06
452.648	404.06
452.869	395.06
453.089	425.06
453.31	425.06
453.53	418.06
453.751	395.06
453.971	403.06
454.192	416.06
454.412	419.06
454.633	394.06
454.853	395.06
455.073	395.06
455.294	429.06
455.514	482.06
455.734	455.06
455.955	386.06
456.175	390.06
456.395	363.06
456.616	389.06
456.836	362.06
457.056	379.06
457.276	353.06
457.497	382.06
457.717	375.06
457.937	379.06
458.157	384.06
458.377	382.06
458.598	409.06
458.818	467.06
459.038	549.06
459.258	542.06
459.478	470.06
459.698	421.06
459.918	447.06
460.138	415.06
460.358	422.06
460.578	417.06
460.798	411.06
461.018	404.06
461.238	425.06
461.458	415.06
461.678	409.06
461.898	448.06
462.118	418.06
462.338	425.06
462.558	427.06
462.777	416.06
462.997	437.06
463.217	435.06
463.437	460.06
463.657	431.06
463.876	437.06
464.096	445.06
464.316	467.06
464.536	462.06
464.755	464.06
464.975	461.06
465.195	525.06
465.414	585.06
465.634	506.06
465.854	457.06
466.073	446.06
466.293	421.06
466.512	405.06
466.732	405.06
466.951	395.06
467.171	399.06
467.391	430.06
467.61	413.06
467.829	417.06
468.049	391.06
468.268	416.06
468.488	398.06
468.707	412.06
468.927	390.06
469.146	400.06
469.365	397.06
469.585	403.06
469.804	402.06
470.023	421.06
470.243	413.06
470.462	424.06
470.681	430.06
470.901	438.06
471.12	388.06
471.339	412.06
471.558	400.06
471.777	398.06
471.997	406.06
472.216	430.06
472.435	459.06
472.654	448.06
472.873	392.06
473.092	411.06
473.311	410.06
473.53	403.06
473.749	400.06
473.968	451.06
474.187	541.06
474.406	571.06
474.625	451.06
474.844	420.06
475.063	415.06
475.282	434.06
475.501	424.06
475.72	418.06
475.939	417.06
476.158	415.06
476.377	423.06
476.596	435.06
476.814	422.06
477.033	447.06
477.252	434.06
477.471	446.06
477.69	441.06
477.908	445.06
478.127	458.06
478.346	454.06
478.564	451.06
478.783	471.06
479.002	465.06
479.22	462.06
479.439	473.06
479.658	493.06
479.876	498.06
480.095	492.06
480.313	520.06
480.532	504.06
480.751	470.06
480.969	527.06
481.188	562.06
481.406	616.06
481.624	537.06
481.843	513.06
482.061	499.06
482.28	503.06
482.498	481.06
482.717	492.06
482.935	494.06
483.153	478.06
483.372	473.06
483.59	469.06
483.808	475.06
484.027	474.06
484.245	487.06
484.463	490.06
484.681	512.06
484.9	479.06
485.118	488.06
485.336	486.06
485.554	489.06
485.772	505.06
485.99	506.06
486.209	494.06
486.427	493.06
486.645	535.06
486.863	499.06
487.081	537.06
487.299	525.06
487.517	529.06
487.735	488.06
487.953	521.06
488.171	519.06
488.389	512.06
488.607	488.06
488.825	529.06
489.043	503.06
489.261	526.06
489.479	517.06
489.696	489.06
489.914	525.06
490.132	532.06
490.35	535.06
490.568	573.06
490.786	548.06
491.003	554.06
491.221	560.06
491.439	581.06
491.657	589.06
491.874	558.06
492.092	601.06
492.31	593.06
492.527	599.06
492.745	617.06
492.963	597.06
493.18	584.06
493.398	608.06
493.615	598.06
493.833	597.06
494.05	608.06
494.268	613.06
494.485	597.06
494.703	594.06
494.92	599.06
495.138	631.06
495.355	606.06
495.573	607.06
495.79	625.06
496.008	614.06
496.225	608.06
496.442	611.06
496.66	616.06
496.877	617.06
497.094	639.06
497.312	634.06
497.529	634.06
497.746	630.06
497.963	664.06
498.181	667.06
498.398	673.06
498.615	645.06
498.832	679.06
499.049	681.06
499.267	695.06
499.484	730.06
499.701	725.06
499.918	743.06
500.135	776.06
500.352	795.06
500.569	811.06
500.786	782.06
501.003	789.06
501.22	800.06
501.437	757.06
501.654	761.06
501.871	778.06
502.088	729.06
502.305	715.06
502.522	677.06
502.739	668.06
502.956	640.06
503.172	639.06
503.389	635.06
503.606	650.06
503.823	641.06
504.04	625.06
504.256	622.06
504.473	621.06
504.69	613.06
504.907	610.06
505.123	599.06
505.34	586.06
505.557	606.06
505.773	585.06
505.99	590.06
506.207	587.06
506.423	595.06
506.64	600.06
506.856	566.06
507.073	550.06
507.289	559.06
507.506	574.06
507.722	601.06
507.939	599.06
508.155	558.06
508.372	576.06
508.588	551.06
508.805	565.06
509.021	561.06
509.238	577.06
509.454	565.06
509.67	594.06
509.887	589.06
510.103	577.06
510.319	570.06
510.536	683.06
510.752	1236.06
510.968	969.06
511.184	590.06
511.401	567.06
511.617	569.06
511.833	534.06
512.049	534.06
512.265	521.06
512.481	558.06
512.698	537.06
512.914	505.06
513.13	519.06
513.346	538.06
513.562	525.06
513.778	535.06
513.994	555.06
514.21	552.06
514.426	578.06
514.642	631.06
514.858	662.06
515.074	706.06
515.29	875.06
515.506	1405.06
515.721	1127.06
515.937	691.06
516.153	633.06
516.369	591.06
516.585	570.06
516.801	529.06
517.016	575.06
517.232	552.06
517.448	562.06
517.664	556.06
517.879	532.06
518.095	546.06
518.311	567.06
518.527	545.06
518.742	529.06
518.958	532.06
519.173	509.06
519.389	527.06
519.605	531.06
519.82	536.06
520.036	569.06
520.251	577.06
520.467	592.06
520.682	611.06
520.898	602.06
521.113	668.06
521.329	681.06
521.544	783.06
521.76	1065.06
521.975	1888.06
522.19	1821.06
522.406	943.06
522.621	648.06
522.836	585.06
523.052	543.06
523.267	511.06
523.482	519.06
523.698	499.06
523.913	498.06
524.128	477.06
524.343	477.06
524.559	462.06
524.774	468.06
524.989	473.06
525.204	469.06
525.419	478.06
525.634	461.06
525.849	439.06
526.064	449.06
526.28	443.06
526.495	437.06
526.71	441.06
526.925	436.06
527.14	431.06
527.355	424.06
527.57	426.06
527.785	423.06
527.999	439.06
528.214	421.06
528.429	425.06
528.644	443.06
528.859	434.06
529.074	430.06
529.289	464.06
529.503	550.06
529.718	515.06
529.933	488.06
530.148	447.06
530.363	448.06
530.577	429.06
530.792	423.06
531.007	425.06
531.221	434.06
531.436	399.06
531.651	397.06
531.865	415.06
532.08	411.06
532.295	408.06
532.509	416.06
532.724	416.06
532.938	403.06
533.153	390.06
533.367	419.06
533.582	412.06
533.796	390.06
534.011	407.06
534.225	414.06
534.44	396.06
534.654	402.06
534.868	385.06
535.083	405.06
535.297	403.06
535.511	401.06
535.726	418.06
535.94	431.06
536.154	407.06
536.369	421.06
536.583	395.06
536.797	392.06
537.011	395.06
537.225	394.06
537.44	403.06
537.654	386.06
537.868	400.06
538.082	400.06
538.296	398.06
538.51	377.06
538.724	388.06
538.938	386.06
539.153	413.06
539.367	417.06
539.581	420.06
539.795	402.06
540.009	386.06
540.222	394.06
540.436	394.06
540.65	378.06
540.864	398.06
541.078	418.06
541.292	369.06
541.506	393.06
541.72	410.06
541.934	393.06
542.147	378.06
542.361	381.06
542.575	380.06
542.789	383.06
543.002	368.06
543.216	375.06
543.43	391.06
543.644	394.06
543.857	387.06
544.071	387.06
544.285	379.06
544.498	386.06
544.712	395.06
544.925	380.06
545.139	390.06
545.352	366.06
545.566	366.06
545.779	378.06
545.993	365.06
546.206	383.06
546.42	381.06
546.633	373.06
546.847	385.06
547.06	357.06
547.274	383.06
547.487	377.06
547.7	365.06
547.914	371.06
548.127	367.06
548.34	363.06
548.554	367.06
548.767	347.06
548.98	392.06
549.193	356.06
549.407	361.06
549.62	386.06
549.833	357.06
550.046	349.06
550.259	346.06
550.473	356.06
550.686	360.06
550.899	361.06
551.112	354.06
551.325	368.06
551.538	369.06
551.751	368.06
551.964	353.06
552.177	362.06
552.39	377.06
552.603	376.06
552.816	354.06
553.029	370.06
553.242	381.06
553.455	373.06
553.667	363.06
553.88	371.06
554.093	379.06
554.306	375.06
554.519	386.06
554.732	354.06
554.944	366.06
555.157	375.06
555.37	348.06
555.583	353.06
555.795	359.06
556.008	323.06
556.221	351.06
556.433	338.06
556.646	348.06
556.859	339.06
557.071	341.06
557.284	336.06
557.496	332.06
557.709	318.06
557.921	321.06
558.134	328.06
558.346	319.06
558.559	333.06
558.771	330.06
558.984	322.06
559.196	325.06
559.409	322.06
559.621	315.06
559.833	317.06
560.046	333.06
560.258	319.06
560.47	346.06
560.683	342.06
560.895	311.06
561.107	339.06
561.32	317.06
561.532	326.06
561.744	321.06
561.956	312.06
562.168	315.06
562.381	317.06
562.593	331.06
562.805	323.06
563.017	342.06
563.229	333.06
563.441	330.06
563.653	325.06
563.865	324.06
564.077	303.06
564.289	329.06
564.501	327.06
564.713	346.06
564.925	332.06
565.137	354.06
565.349	346.06
565.561	356.06
565.773	357.06
565.985	338.06
566.197	343.06
566.408	347.06
566.62	350.06
566.832	379.06
567.044	373.06
567.255	361.06
567.467	367.06
567.679	387.06
567.891	396.06
568.102	385.06
568.314	359.06
568.526	379.06
568.737	349.06
568.949	359.06
569.161	346.06
569.372	345.06
569.584	331.06
569.795	326.06
570.007	330.06
570.218	373.06
570.43	376.06
570.641	331.06
570.853	316.06
571.064	324.06
571.276	311.06
571.487	303.06
571.698	315.06
571.91	313.06
572.121	286.06
572.333	286.06
572.544	301.06
572.755	273.06
572.966	277.06
573.178	278.06
573.389	281.06
573.6	289.06
573.811	269.06
574.023	281.06
574.234	274.06
574.445	283.06
574.656	286.06
574.867	284.06
575.078	283.06
575.289	272.06
575.501	285.06
575.712	269.06
575.923	278.06
576.134	279.06
576.345	291.06
576.556	267.06
576.767	284.06
576.978	278.06
577.188	265.06
577.399	274.06
577.61	265.06
577.821	254.06
578.032	261.06
578.243	319.06
578.454	575.06
578.665	395.06
578.875	295.06
579.086	261.06
579.297	272.06
579.508	263.06
579.718	248.06
579.929	249.06
580.14	269.06
580.35	264.06
580.561	258.06
580.772	268.06
580.982	245.06
581.193	253.06
581.403	250.06
581.614	261.06
581.825	267.06
582.035	245.06
582.246	255.06
582.456	222.06
582.667	259.06
582.877	242.06
583.087	251.06
583.298	243.06
583.508	258.06
583.719	258.06
583.929	256.06
584.139	237.06
584.35	248.06
584.56	259.06
584.77	265.06
584.981	250.06
585.191	250.06
585.401	240.06
585.611	240.06
585.821	263.06
586.032	249.06
586.242	253.06
586.452	261.06
586.662	238.06
586.872	229.06
587.082	261.06
587.292	239.06
587.502	235.06
587.713	247.06
587.923	251.06
588.133	257.06
588.343	259.06
588.553	238.06
588.762	259.06
588.972	251.06
589.182	231.06
589.392	235.06
589.602	233.06
589.812	236.06
590.022	228.06
590.232	240.06
590.441	246.06
590.651	238.06
590.861	248.06
591.071	249.06
591.281	244.06
591.49	237.06
591.7	260.06
591.91	257.06
592.119	260.06
592.329	245.06
592.539	247.06
592.748	265.06
592.958	256.06
593.167	240.06
593.377	257.06
593.587	253.06
593.796	265.06
594.006	243.06
594.215	261.06
594.424	248.06
594.634	252.06
594.843	262.06
595.053	245.06
595.262	243.06
595.472	241.06
595.681	229.06
595.89	253.06
596.1	246.06
596.309	226.06
596.518	231.06
596.727	227.06
596.937	232.06
597.146	221.06
597.355	208.06
597.564	224.06
597.774	244.06
597.983	223.06
598.192	229.06
598.401	224.06
598.61	219.06
598.819	212.06
599.028	208.06
599.237	223.06
599.446	214.06
599.655	215.06
599.864	218.06
600.073	224.06
600.282	218.06
600.491	197.06
600.7	226.06
600.909	212.06
601.118	217.06
601.327	211.06
601.536	218.06
601.745	223.06
601.953	216.06
602.162	218.06
602.371	235.06
602.58	221.06
602.789	223.06
602.997	207.06
603.206	221.06
603.415	189.06
603.623	205.06
603.832	201.06
604.041	202.06
604.249	202.06
604.458	215.06
604.666	206.06
604.875	207.06
605.084	189.06
605.292	211.06
605.501	207.06
605.709	200.06
605.918	225.06
606.126	215.06
606.334	214.06
606.543	216.06
606.751	185.06
606.96	218.06
607.168	206.06
607.376	209.06
607.585	212.06
607.793	198.06
608.001	193.06
608.21	221.06
608.418	199.06
608.626	211.06
608.834	199.06
609.043	203.06
609.251	205.06
609.459	205.06
609.667	213.06
609.875	224.06
610.083	198.06
610.291	192.06
610.499	216.06
610.707	191.06
610.916	194.06
611.124	211.06
611.332	206.06
611.54	212.06
611.748	208.06
611.955	211.06
612.163	211.06
612.371	193.06
612.579	194.06
612.787	193.06
612.995	209.06
613.203	198.06
613.411	193.06
613.618	200.06
613.826	194.06
614.034	185.06
614.242	195.06
614.449	187.06
614.657	203.06
614.865	201.06
615.072	199.06
615.28	206.06
615.488	192.06
615.695	207.06
615.903	210.06
616.111	211.06
616.318	203.06
616.526	208.06
616.733	204.06
616.941	181.06
617.148	213.06
617.356	209.06
617.563	187.06
617.771	215.06
617.978	194.06
618.185	194.06
618.393	189.06
618.6	205.06
618.807	208.06
619.015	195.06
619.222	197.06
619.429	189.06
619.637	193.06
619.844	206.06
620.051	187.06
620.258	206.06
620.466	185.06
620.673	194.06
620.88	196.06
621.087	191.06
621.294	192.06
621.501	189.06
621.708	194.06
621.915	199.06
622.122	194.06
622.329	207.06
622.536	205.06
622.743	175.06
622.95	189.06
623.157	206.06
623.364	186.06
623.571	178.06
623.778	191.06
623.985	182.06
624.192	184.06
624.399	185.06
624.606	192.06
624.812	173.06
625.019	205.06
625.226	194.06
625.433	183.06
625.639	188.06
625.846	180.06
626.053	178.06
626.259	175.06
626.466	180.06
626.673	168.06
626.879	198.06
627.086	178.06
627.293	173.06
627.499	191.06
627.706	189.06
627.912	186.06
628.119	171.06
628.325	159.06
628.532	170.06
628.738	181.06
628.945	175.06
629.151	189.06
629.357	183.06
629.564	179.06
629.77	169.06
629.976	183.06
630.183	168.06
630.389	171.06
630.595	177.06
630.802	188.06
631.008	181.06
631.214	185.06
631.42	174.06
631.627	170.06
631.833	153.06
632.039	156.06
632.245	167.06
632.451	171.06
632.657	166.06
632.863	178.06
633.069	161.06
633.275	160.06
633.481	141.06
633.688	153.06
633.893	170.06
634.099	146.06
634.305	142.06
634.511	168.06
634.717	161.06
634.923	176.06
635.129	164.06
635.335	171.06
635.541	170.06
635.747	175.06
635.952	158.06
636.158	167.06
636.364	165.06
636.57	170.06
636.775	163.06
636.981	167.06
637.187	166.06
637.392	159.06
637.598	164.06
637.804	183.06
638.009	168.06
638.215	163.06
638.421	147.06
638.626	144.06
638.832	147.06
639.037	141.06
639.243	170.06
639.448	161.06
639.654	161.06
639.859	160.06
640.065	148.06
640.27	142.06
640.475	159.06
640.681	156.06
640.886	165.06
641.091	151.06
641.297	147.06
641.502	151.06
641.707	151.06
641.913	165.06
642.118	144.06
642.323	150.06
642.528	141.06
642.733	153.06
642.939	150.06
643.144	142.06
643.349	158.06
643.554	149.06
643.759	141.06
643.964	146.06
644.169	146.06
644.374	120.06
644.579	154.06
644.784	140.06
644.989	145.06
645.194	146.06
645.399	153.06
645.604	148.06
645.809	134.06
646.014	157.06
646.219	148.06
646.423	141.06
646.628	148.06
646.833	153.06
647.038	152.06
647.243	141.06
647.447	139.06
647.652	155.06
647.857	144.06
648.062	145.06
648.266	137.06
648.471	155.06
648.676	160.06
648.88	154.06
649.085	163.06
649.289	156.06
649.494	151.06
649.698	178.06
649.903	163.06
650.107	159.06
650.312	152.06
650.516	141.06
650.721	136.06
650.925	142.06
651.13	147.06
651.334	151.06
651.539	143.06
651.743	146.06
651.947	134.06
652.152	136.06
652.356	120.06
652.56	137.06
652.764	135.06
652.969	141.06
653.173	137.06
653.377	142.06
653.581	135.06
653.785	130.06
653.99	129.06
654.194	138.06
654.398	135.06
654.602	118.06
654.806	132.06
655.01	130.06
655.214	137.06
655.418	122.06
655.622	116.06
655.826	137.06
656.03	127.06
656.234	139.06
656.438	142.06
656.642	125.06
656.846	133.06
657.049	131.06
657.253	113.06
657.457	121.06
657.661	125.06
657.865	117.06
658.068	113.06
658.272	108.06
658.476	124.06
658.68	119.06
658.883	105.06
659.087	101.06
659.291	107.06
659.494	101.06
659.698	92.06
659.901	98.06
660.105	105.06
660.309	118.06
660.512	91.06
660.716	104.06
660.919	103.06
661.123	127.06
661.326	101.06
661.53	118.06
661.733	89.06
661.936	93.06
662.14	95.06
662.343	93.06
662.546	83.06
662.75	89.06
662.953	80.06
663.156	88.06
663.36	89.06
663.563	84.06
663.766	85.06
663.969	87.06
664.173	95.06
664.376	92.06
664.579	97.06
664.782	93.06
664.985	80.06
665.188	85.06
665.391	87.06
665.594	76.06
665.797	90.06
666	74.06
666.203	87.06
666.406	75.06
666.609	81.06
666.812	91.06
667.015	95.06
667.218	82.06
667.421	84.06
667.624	90.06
667.827	74.06
668.03	91.06
668.232	91.06
668.435	87.06
668.638	81.06
668.841	92.06
669.043	81.06
669.246	87.06
669.449	78.06
669.651	88.06
669.854	82.06
670.057	93.06
670.259	82.06
670.462	83.06
670.665	95.06
670.867	89.06
671.07	69.06
671.272	95.06
671.475	104.06
671.677	94.06
671.88	79.06
672.082	91.06
672.284	90.06
672.487	91.06
672.689	75.06
672.892	81.06
